Data from Ni(NO3)2@0.125M.TitratingCurve.Agarose3%dH2O.NegLispCup.LampEnergy10.LIBS07252019_HRD10591_18-09-56-567.txt Node
Date: Thu Jul 25 18:09:56 EDT 2019
User: cochatt
Spectrometer: HR+D1059
Trigger mode: 1
Integration Time (sec): 1.000000E-1
Scans to average: 1
Electric dark correction enabled: true
Nonlinearity correction enabled: false
Boxcar width: 0
XAxis mode: Wavelengths
Number of Pixels in Spectrum: 2048
>>>>>Begin Spectral Data<<<<<
223.165	-31.12
223.4	-31.12
223.635	-31.12
223.869	-24.12
224.104	-19.12
224.338	-18.12
224.573	-25.12
224.808	-21.12
225.042	2.88
225.277	2.88
225.511	6.88
225.746	2.88
225.98	3.88
226.215	14.88
226.449	20.88
226.683	21.88
226.918	23.88
227.152	37.88
227.387	29.88
227.621	33.88
227.856	56.88
228.09	58.88
228.324	62.88
228.559	63.88
228.793	69.88
229.027	92.88
229.262	89.88
229.496	105.88
229.73	104.88
229.964	99.88
230.199	94.88
230.433	110.88
230.667	106.88
230.901	117.88
231.136	112.88
231.37	117.88
231.604	116.88
231.838	102.88
232.072	118.88
232.306	125.88
232.541	121.88
232.775	124.88
233.009	115.88
233.243	125.88
233.477	123.88
233.711	117.88
233.945	116.88
234.179	129.88
234.413	125.88
234.647	130.88
234.881	115.88
235.115	125.88
235.349	118.88
235.583	118.88
235.817	127.88
236.051	124.88
236.285	107.88
236.519	130.88
236.753	120.88
236.987	124.88
237.221	121.88
237.455	126.88
237.689	131.88
237.922	127.88
238.156	131.88
238.39	137.88
238.624	128.88
238.858	136.88
239.091	155.88
239.325	149.88
239.559	123.88
239.793	142.88
240.027	120.88
240.26	140.88
240.494	139.88
240.728	143.88
240.961	147.88
241.195	148.88
241.429	153.88
241.662	157.88
241.896	147.88
242.13	142.88
242.363	146.88
242.597	144.88
242.83	145.88
243.064	154.88
243.298	158.88
243.531	153.88
243.765	149.88
243.998	140.88
244.232	166.88
244.465	157.88
244.699	178.88
244.932	157.88
245.166	153.88
245.399	154.88
245.633	153.88
245.866	161.88
246.099	156.88
246.333	165.88
246.566	176.88
246.8	155.88
247.033	187.88
247.266	165.88
247.5	182.88
247.733	170.88
247.966	186.88
248.2	181.88
248.433	186.88
248.666	170.88
248.899	189.88
249.133	188.88
249.366	184.88
249.599	181.88
249.832	186.88
250.066	176.88
250.299	189.88
250.532	182.88
250.765	187.88
250.998	202.88
251.231	189.88
251.465	197.88
251.698	206.88
251.931	187.88
252.164	190.88
252.397	196.88
252.63	196.88
252.863	191.88
253.096	203.88
253.329	199.88
253.562	204.88
253.795	191.88
254.028	194.88
254.261	219.88
254.494	236.88
254.727	204.88
254.96	204.88
255.193	198.88
255.426	215.88
255.659	210.88
255.892	212.88
256.124	209.88
256.357	214.88
256.59	216.88
256.823	206.88
257.056	224.88
257.289	202.88
257.521	212.88
257.754	228.88
257.987	222.88
258.22	235.88
258.452	227.88
258.685	223.88
258.918	218.88
259.151	221.88
259.383	216.88
259.616	235.88
259.849	230.88
260.081	237.88
260.314	231.88
260.547	230.88
260.779	214.88
261.012	239.88
261.244	228.88
261.477	224.88
261.71	243.88
261.942	229.88
262.175	226.88
262.407	219.88
262.64	261.88
262.872	242.88
263.105	232.88
263.337	247.88
263.57	262.88
263.802	263.88
264.035	272.88
264.267	259.88
264.499	260.88
264.732	260.88
264.964	255.88
265.197	236.88
265.429	263.88
265.661	272.88
265.894	249.88
266.126	256.88
266.358	259.88
266.591	257.88
266.823	271.88
267.055	276.88
267.287	277.88
267.52	251.88
267.752	272.88
267.984	277.88
268.216	275.88
268.448	270.88
268.681	280.88
268.913	266.88
269.145	285.88
269.377	261.88
269.609	274.88
269.841	297.88
270.073	277.88
270.306	265.88
270.538	268.88
270.77	256.88
271.002	267.88
271.234	273.88
271.466	284.88
271.698	283.88
271.93	282.88
272.162	277.88
272.394	280.88
272.626	292.88
272.858	290.88
273.09	289.88
273.322	278.88
273.553	280.88
273.785	288.88
274.017	297.88
274.249	283.88
274.481	280.88
274.713	282.88
274.945	306.88
275.176	305.88
275.408	317.88
275.64	317.88
275.872	300.88
276.104	317.88
276.335	288.88
276.567	297.88
276.799	300.88
277.031	309.88
277.262	300.88
277.494	299.88
277.726	312.88
277.957	305.88
278.189	301.88
278.421	310.88
278.652	310.88
278.884	315.88
279.115	317.88
279.347	304.88
279.579	324.88
279.81	312.88
280.042	331.88
280.273	343.88
280.505	326.88
280.736	334.88
280.968	306.88
281.199	322.88
281.431	319.88
281.662	330.88
281.894	334.88
282.125	325.88
282.356	331.88
282.588	338.88
282.819	332.88
283.051	356.88
283.282	323.88
283.513	335.88
283.745	359.88
283.976	341.88
284.207	334.88
284.439	327.88
284.67	343.88
284.901	326.88
285.132	338.88
285.364	349.88
285.595	353.88
285.826	342.88
286.057	338.88
286.288	344.88
286.52	349.88
286.751	373.88
286.982	371.88
287.213	362.88
287.444	360.88
287.675	372.88
287.906	364.88
288.138	367.88
288.369	364.88
288.6	398.88
288.831	384.88
289.062	358.88
289.293	380.88
289.524	365.88
289.755	368.88
289.986	372.88
290.217	378.88
290.448	387.88
290.679	392.88
290.91	363.88
291.141	373.88
291.371	384.88
291.602	384.88
291.833	354.88
292.064	375.88
292.295	366.88
292.526	374.88
292.757	376.88
292.987	373.88
293.218	378.88
293.449	388.88
293.68	380.88
293.91	376.88
294.141	380.88
294.372	388.88
294.603	394.88
294.833	376.88
295.064	367.88
295.295	376.88
295.525	376.88
295.756	405.88
295.987	392.88
296.217	398.88
296.448	378.88
296.679	387.88
296.909	378.88
297.14	390.88
297.37	412.88
297.601	414.88
297.831	428.88
298.062	424.88
298.292	415.88
298.523	430.88
298.753	425.88
298.984	421.88
299.214	412.88
299.445	402.88
299.675	410.88
299.905	432.88
300.136	407.88
300.366	409.88
300.597	404.88
300.827	428.88
301.057	427.88
301.288	433.88
301.518	442.88
301.748	419.88
301.979	427.88
302.209	442.88
302.439	441.88
302.669	426.88
302.9	416.88
303.13	412.88
303.36	423.88
303.59	423.88
303.82	418.88
304.051	412.88
304.281	413.88
304.511	424.88
304.741	412.88
304.971	424.88
305.201	423.88
305.431	417.88
305.661	425.88
305.891	405.88
306.121	426.88
306.352	424.88
306.582	422.88
306.812	410.88
307.042	423.88
307.272	414.88
307.502	402.88
307.731	409.88
307.961	401.88
308.191	398.88
308.421	406.88
308.651	412.88
308.881	414.88
309.111	418.88
309.341	424.88
309.571	413.88
309.8	417.88
310.03	419.88
310.26	405.88
310.49	399.88
310.72	439.88
310.949	428.88
311.179	434.88
311.409	422.88
311.639	418.88
311.868	422.88
312.098	429.88
312.328	434.88
312.557	436.88
312.787	441.88
313.017	418.88
313.246	421.88
313.476	425.88
313.706	430.88
313.935	446.88
314.165	452.88
314.394	451.88
314.624	429.88
314.853	425.88
315.083	428.88
315.312	437.88
315.542	436.88
315.771	446.88
316.001	428.88
316.23	442.88
316.46	445.88
316.689	420.88
316.919	431.88
317.148	423.88
317.377	429.88
317.607	415.88
317.836	437.88
318.065	436.88
318.295	461.88
318.524	430.88
318.753	436.88
318.983	438.88
319.212	431.88
319.441	420.88
319.67	425.88
319.9	448.88
320.129	416.88
320.358	432.88
320.587	429.88
320.816	424.88
321.046	429.88
321.275	443.88
321.504	433.88
321.733	434.88
321.962	439.88
322.191	419.88
322.42	426.88
322.649	443.88
322.878	438.88
323.108	444.88
323.337	461.88
323.566	448.88
323.795	446.88
324.024	434.88
324.253	454.88
324.482	448.88
324.71	462.88
324.939	451.88
325.168	462.88
325.397	457.88
325.626	476.88
325.855	472.88
326.084	480.88
326.313	476.88
326.542	465.88
326.77	503.88
326.999	497.88
327.228	469.88
327.457	464.88
327.686	482.88
327.914	475.88
328.143	501.88
328.372	478.88
328.6	468.88
328.829	474.88
329.058	469.88
329.287	477.88
329.515	488.88
329.744	499.88
329.972	481.88
330.201	500.88
330.43	488.88
330.658	483.88
330.887	497.88
331.115	485.88
331.344	500.88
331.572	501.88
331.801	533.88
332.03	518.88
332.258	577.88
332.486	564.88
332.715	556.88
332.943	611.88
333.172	645.88
333.4	682.88
333.629	693.88
333.857	656.88
334.085	650.88
334.314	656.88
334.542	611.88
334.771	642.88
334.999	624.88
335.227	596.88
335.455	617.88
335.684	601.88
335.912	603.88
336.14	609.88
336.369	593.88
336.597	573.88
336.825	591.88
337.053	599.88
337.281	557.88
337.51	585.88
337.738	566.88
337.966	550.88
338.194	541.88
338.422	533.88
338.65	543.88
338.878	514.88
339.106	523.88
339.334	537.88
339.562	534.88
339.79	515.88
340.018	516.88
340.246	518.88
340.474	512.88
340.702	521.88
340.93	507.88
341.158	503.88
341.386	504.88
341.614	517.88
341.842	512.88
342.07	520.88
342.298	500.88
342.526	503.88
342.754	512.88
342.981	502.88
343.209	528.88
343.437	555.88
343.665	587.88
343.893	640.88
344.12	652.88
344.348	635.88
344.576	582.88
344.804	550.88
345.031	540.88
345.259	538.88
345.487	521.88
345.714	522.88
345.942	501.88
346.17	522.88
346.397	492.88
346.625	490.88
346.853	485.88
347.08	488.88
347.308	481.88
347.535	503.88
347.763	506.88
347.99	523.88
348.218	531.88
348.445	504.88
348.673	508.88
348.9	516.88
349.128	512.88
349.355	466.88
349.583	496.88
349.81	501.88
350.037	476.88
350.265	499.88
350.492	481.88
350.72	476.88
350.947	475.88
351.174	475.88
351.402	481.88
351.629	466.88
351.856	489.88
352.083	488.88
352.311	492.88
352.538	473.88
352.765	481.88
352.992	500.88
353.22	456.88
353.447	487.88
353.674	465.88
353.901	474.88
354.128	476.88
354.355	454.88
354.583	467.88
354.81	485.88
355.037	484.88
355.264	470.88
355.491	467.88
355.718	465.88
355.945	480.88
356.172	480.88
356.399	467.88
356.626	476.88
356.853	488.88
357.08	468.88
357.307	472.88
357.534	489.88
357.761	477.88
357.988	476.88
358.215	476.88
358.441	474.88
358.668	477.88
358.895	478.88
359.122	493.88
359.349	467.88
359.576	465.88
359.802	489.88
360.029	469.88
360.256	490.88
360.483	453.88
360.709	489.88
360.936	478.88
361.163	470.88
361.39	453.88
361.616	467.88
361.843	474.88
362.07	466.88
362.296	460.88
362.523	460.88
362.749	474.88
362.976	453.88
363.203	464.88
363.429	466.88
363.656	466.88
363.882	470.88
364.109	473.88
364.335	449.88
364.562	472.88
364.788	444.88
365.015	452.88
365.241	464.88
365.468	457.88
365.694	476.88
365.92	480.88
366.147	468.88
366.373	465.88
366.599	481.88
366.826	463.88
367.052	456.88
367.278	470.88
367.505	483.88
367.731	473.88
367.957	486.88
368.184	480.88
368.41	497.88
368.636	489.88
368.862	471.88
369.089	471.88
369.315	487.88
369.541	501.88
369.767	476.88
369.993	489.88
370.219	486.88
370.445	508.88
370.672	502.88
370.898	501.88
371.124	508.88
371.35	516.88
371.576	518.88
371.802	535.88
372.028	520.88
372.254	519.88
372.48	525.88
372.706	560.88
372.932	518.88
373.158	544.88
373.384	531.88
373.61	500.88
373.835	519.88
374.061	518.88
374.287	520.88
374.513	526.88
374.739	543.88
374.965	557.88
375.191	587.88
375.416	557.88
375.642	538.88
375.868	553.88
376.094	545.88
376.319	533.88
376.545	514.88
376.771	535.88
376.997	506.88
377.222	517.88
377.448	532.88
377.674	539.88
377.899	490.88
378.125	502.88
378.35	536.88
378.576	513.88
378.802	514.88
379.027	507.88
379.253	490.88
379.478	496.88
379.704	512.88
379.929	504.88
380.155	508.88
380.38	498.88
380.606	500.88
380.831	491.88
381.057	520.88
381.282	498.88
381.507	502.88
381.733	500.88
381.958	511.88
382.184	533.88
382.409	544.88
382.634	545.88
382.86	561.88
383.085	542.88
383.31	569.88
383.535	566.88
383.761	564.88
383.986	587.88
384.211	617.88
384.436	628.88
384.662	605.88
384.887	616.88
385.112	634.88
385.337	616.88
385.562	616.88
385.787	627.88
386.013	640.88
386.238	644.88
386.463	640.88
386.688	629.88
386.913	608.88
387.138	613.88
387.363	624.88
387.588	594.88
387.813	600.88
388.038	608.88
388.263	617.88
388.488	614.88
388.713	621.88
388.938	599.88
389.163	596.88
389.387	586.88
389.612	598.88
389.837	587.88
390.062	624.88
390.287	586.88
390.512	604.88
390.736	602.88
390.961	612.88
391.186	638.88
391.411	668.88
391.636	673.88
391.86	696.88
392.085	740.88
392.31	700.88
392.534	688.88
392.759	666.88
392.984	629.88
393.208	660.88
393.433	629.88
393.658	664.88
393.882	662.88
394.107	676.88
394.331	662.88
394.556	678.88
394.78	668.88
395.005	665.88
395.229	646.88
395.454	694.88
395.678	705.88
395.903	706.88
396.127	678.88
396.352	663.88
396.576	642.88
396.801	655.88
397.025	650.88
397.249	654.88
397.474	675.88
397.698	674.88
397.922	693.88
398.147	690.88
398.371	676.88
398.595	723.88
398.82	755.88
399.044	810.88
399.268	900.88
399.492	1076.88
399.717	1239.88
399.941	1200.88
400.165	1093.88
400.389	914.88
400.613	851.88
400.837	812.88
401.062	745.88
401.286	792.88
401.51	756.88
401.734	774.88
401.958	775.88
402.182	796.88
402.406	807.88
402.63	804.88
402.854	829.88
403.078	845.88
403.302	873.88
403.526	902.88
403.75	931.88
403.974	929.88
404.198	932.88
404.422	954.88
404.645	925.88
404.869	925.88
405.093	913.88
405.317	875.88
405.541	884.88
405.765	868.88
405.988	851.88
406.212	848.88
406.436	837.88
406.66	893.88
406.883	892.88
407.107	933.88
407.331	1001.88
407.555	1037.88
407.778	1031.88
408.002	1003.88
408.226	946.88
408.449	941.88
408.673	898.88
408.896	884.88
409.12	888.88
409.344	880.88
409.567	875.88
409.791	906.88
410.014	906.88
410.238	906.88
410.461	895.88
410.685	860.88
410.908	850.88
411.132	848.88
411.355	804.88
411.578	787.88
411.802	796.88
412.025	830.88
412.249	846.88
412.472	842.88
412.695	800.88
412.919	768.88
413.142	758.88
413.365	757.88
413.589	781.88
413.812	786.88
414.035	800.88
414.258	759.88
414.482	801.88
414.705	795.88
414.928	789.88
415.151	812.88
415.374	805.88
415.597	783.88
415.821	770.88
416.044	764.88
416.267	778.88
416.49	764.88
416.713	746.88
416.936	770.88
417.159	762.88
417.382	800.88
417.605	777.88
417.828	757.88
418.051	800.88
418.274	774.88
418.497	780.88
418.72	795.88
418.943	829.88
419.166	871.88
419.389	906.88
419.611	900.88
419.834	834.88
420.057	842.88
420.28	766.88
420.503	776.88
420.726	758.88
420.948	738.88
421.171	796.88
421.394	780.88
421.617	781.88
421.839	778.88
422.062	814.88
422.285	773.88
422.507	807.88
422.73	818.88
422.953	818.88
423.175	829.88
423.398	884.88
423.621	844.88
423.843	871.88
424.066	853.88
424.288	850.88
424.511	849.88
424.733	815.88
424.956	821.88
425.178	809.88
425.401	805.88
425.623	794.88
425.846	746.88
426.068	755.88
426.291	766.88
426.513	722.88
426.735	718.88
426.958	739.88
427.18	710.88
427.402	713.88
427.625	714.88
427.847	704.88
428.069	710.88
428.292	705.88
428.514	709.88
428.736	668.88
428.958	698.88
429.181	683.88
429.403	683.88
429.625	686.88
429.847	696.88
430.069	694.88
430.292	719.88
430.514	682.88
430.736	655.88
430.958	676.88
431.18	690.88
431.402	716.88
431.624	716.88
431.846	692.88
432.068	719.88
432.29	698.88
432.512	680.88
432.734	717.88
432.956	698.88
433.178	716.88
433.4	721.88
433.622	710.88
433.844	712.88
434.066	711.88
434.287	723.88
434.509	731.88
434.731	752.88
434.953	797.88
435.175	796.88
435.397	789.88
435.618	726.88
435.84	736.88
436.062	712.88
436.284	730.88
436.505	698.88
436.727	689.88
436.949	726.88
437.17	725.88
437.392	711.88
437.614	718.88
437.835	681.88
438.057	685.88
438.278	654.88
438.5	669.88
438.721	688.88
438.943	698.88
439.165	654.88
439.386	689.88
439.608	740.88
439.829	706.88
440.05	699.88
440.272	730.88
440.493	704.88
440.715	732.88
440.936	734.88
441.158	748.88
441.379	775.88
441.6	829.88
441.822	829.88
442.043	797.88
442.264	817.88
442.486	783.88
442.707	798.88
442.928	794.88
443.149	829.88
443.371	785.88
443.592	805.88
443.813	812.88
444.034	804.88
444.255	844.88
444.476	874.88
444.698	956.88
444.919	980.88
445.14	1052.88
445.361	917.88
445.582	840.88
445.803	768.88
446.024	769.88
446.245	746.88
446.466	754.88
446.687	708.88
446.908	708.88
447.129	714.88
447.35	680.88
447.571	696.88
447.792	703.88
448.013	697.88
448.234	667.88
448.455	664.88
448.675	685.88
448.896	659.88
449.117	647.88
449.338	636.88
449.559	663.88
449.779	648.88
450	652.88
450.221	643.88
450.442	679.88
450.662	633.88
450.883	682.88
451.104	709.88
451.324	658.88
451.545	683.88
451.766	686.88
451.986	677.88
452.207	679.88
452.428	679.88
452.648	672.88
452.869	659.88
453.089	640.88
453.31	674.88
453.53	676.88
453.751	626.88
453.971	629.88
454.192	637.88
454.412	632.88
454.633	639.88
454.853	626.88
455.073	622.88
455.294	634.88
455.514	615.88
455.734	634.88
455.955	586.88
456.175	601.88
456.395	599.88
456.616	594.88
456.836	610.88
457.056	615.88
457.276	614.88
457.497	621.88
457.717	624.88
457.937	633.88
458.157	614.88
458.377	633.88
458.598	635.88
458.818	663.88
459.038	673.88
459.258	680.88
459.478	721.88
459.698	743.88
459.918	753.88
460.138	796.88
460.358	842.88
460.578	879.88
460.798	840.88
461.018	844.88
461.238	858.88
461.458	828.88
461.678	853.88
461.898	846.88
462.118	869.88
462.338	891.88
462.558	929.88
462.777	992.88
462.997	1062.88
463.217	1197.88
463.437	1212.88
463.657	1093.88
463.876	1010.88
464.096	1018.88
464.316	998.88
464.536	1030.88
464.755	964.88
464.975	916.88
465.195	885.88
465.414	838.88
465.634	768.88
465.854	744.88
466.073	742.88
466.293	740.88
466.512	717.88
466.732	716.88
466.951	722.88
467.171	700.88
467.391	710.88
467.61	693.88
467.829	677.88
468.049	685.88
468.268	686.88
468.488	672.88
468.707	640.88
468.927	636.88
469.146	644.88
469.365	668.88
469.585	662.88
469.804	695.88
470.023	713.88
470.243	704.88
470.462	705.88
470.681	713.88
470.901	703.88
471.12	693.88
471.339	683.88
471.558	678.88
471.777	672.88
471.997	653.88
472.216	646.88
472.435	669.88
472.654	631.88
472.873	638.88
473.092	634.88
473.311	637.88
473.53	662.88
473.749	656.88
473.968	636.88
474.187	626.88
474.406	639.88
474.625	647.88
474.844	638.88
475.063	636.88
475.282	637.88
475.501	654.88
475.72	666.88
475.939	648.88
476.158	658.88
476.377	673.88
476.596	664.88
476.814	686.88
477.033	682.88
477.252	707.88
477.471	688.88
477.69	732.88
477.908	732.88
478.127	740.88
478.346	775.88
478.564	775.88
478.783	777.88
479.002	822.88
479.22	814.88
479.439	806.88
479.658	786.88
479.876	774.88
480.095	821.88
480.313	865.88
480.532	855.88
480.751	855.88
480.969	835.88
481.188	789.88
481.406	742.88
481.624	755.88
481.843	724.88
482.061	722.88
482.28	741.88
482.498	717.88
482.717	704.88
482.935	728.88
483.153	729.88
483.372	730.88
483.59	729.88
483.808	738.88
484.027	752.88
484.245	723.88
484.463	754.88
484.681	749.88
484.9	757.88
485.118	762.88
485.336	766.88
485.554	755.88
485.772	775.88
485.99	772.88
486.209	781.88
486.427	780.88
486.645	775.88
486.863	816.88
487.081	768.88
487.299	758.88
487.517	776.88
487.735	758.88
487.953	782.88
488.171	758.88
488.389	788.88
488.607	750.88
488.825	742.88
489.043	747.88
489.261	741.88
489.479	777.88
489.696	773.88
489.914	777.88
490.132	777.88
490.35	776.88
490.568	774.88
490.786	789.88
491.003	777.88
491.221	777.88
491.439	804.88
491.657	806.88
491.874	797.88
492.092	807.88
492.31	787.88
492.527	780.88
492.745	822.88
492.963	807.88
493.18	797.88
493.398	801.88
493.615	796.88
493.833	791.88
494.05	824.88
494.268	810.88
494.485	803.88
494.703	832.88
494.92	802.88
495.138	811.88
495.355	823.88
495.573	832.88
495.79	813.88
496.008	828.88
496.225	832.88
496.442	820.88
496.66	841.88
496.877	867.88
497.094	864.88
497.312	882.88
497.529	868.88
497.746	905.88
497.963	932.88
498.181	953.88
498.398	1011.88
498.615	1065.88
498.832	1156.88
499.049	1226.88
499.267	1330.88
499.484	1499.88
499.701	1658.88
499.918	1845.88
500.135	2160.88
500.352	2568.88
500.569	2686.88
500.786	2680.88
501.003	2418.88
501.22	2093.88
501.437	1835.88
501.654	1577.88
501.871	1395.88
502.088	1325.88
502.305	1210.88
502.522	1155.88
502.739	1088.88
502.956	1051.88
503.172	1019.88
503.389	970.88
503.606	941.88
503.823	926.88
504.04	915.88
504.256	940.88
504.473	954.88
504.69	1024.88
504.907	960.88
505.123	884.88
505.34	858.88
505.557	816.88
505.773	817.88
505.99	764.88
506.207	757.88
506.423	739.88
506.64	748.88
506.856	723.88
507.073	728.88
507.289	734.88
507.506	717.88
507.722	701.88
507.939	692.88
508.155	683.88
508.372	690.88
508.588	671.88
508.805	671.88
509.021	659.88
509.238	678.88
509.454	663.88
509.67	677.88
509.887	651.88
510.103	684.88
510.319	683.88
510.536	692.88
510.752	670.88
510.968	645.88
511.184	658.88
511.401	670.88
511.617	648.88
511.833	660.88
512.049	662.88
512.265	670.88
512.481	658.88
512.698	648.88
512.914	663.88
513.13	654.88
513.346	634.88
513.562	647.88
513.778	653.88
513.994	660.88
514.21	684.88
514.426	666.88
514.642	643.88
514.858	666.88
515.074	664.88
515.29	688.88
515.506	679.88
515.721	714.88
515.937	711.88
516.153	708.88
516.369	714.88
516.585	736.88
516.801	781.88
517.016	818.88
517.232	862.88
517.448	906.88
517.664	956.88
517.879	945.88
518.095	934.88
518.311	932.88
518.527	885.88
518.742	846.88
518.958	788.88
519.173	771.88
519.389	743.88
519.605	718.88
519.82	716.88
520.036	714.88
520.251	718.88
520.467	684.88
520.682	668.88
520.898	675.88
521.113	642.88
521.329	639.88
521.544	650.88
521.76	623.88
521.975	640.88
522.19	648.88
522.406	632.88
522.621	647.88
522.836	639.88
523.052	626.88
523.267	632.88
523.482	611.88
523.698	612.88
523.913	597.88
524.128	616.88
524.343	626.88
524.559	622.88
524.774	620.88
524.989	617.88
525.204	623.88
525.419	602.88
525.634	612.88
525.849	627.88
526.064	600.88
526.28	611.88
526.495	586.88
526.71	605.88
526.925	596.88
527.14	601.88
527.355	600.88
527.57	598.88
527.785	619.88
527.999	613.88
528.214	597.88
528.429	578.88
528.644	602.88
528.859	616.88
529.074	610.88
529.289	611.88
529.503	629.88
529.718	609.88
529.933	628.88
530.148	610.88
530.363	612.88
530.577	601.88
530.792	608.88
531.007	599.88
531.221	614.88
531.436	617.88
531.651	599.88
531.865	600.88
532.08	605.88
532.295	624.88
532.509	580.88
532.724	584.88
532.938	632.88
533.153	621.88
533.367	611.88
533.582	592.88
533.796	614.88
534.011	609.88
534.225	595.88
534.44	590.88
534.654	600.88
534.868	592.88
535.083	619.88
535.297	584.88
535.511	581.88
535.726	597.88
535.94	570.88
536.154	581.88
536.369	594.88
536.583	560.88
536.797	550.88
537.011	575.88
537.225	538.88
537.44	544.88
537.654	565.88
537.868	570.88
538.082	550.88
538.296	542.88
538.51	561.88
538.724	539.88
538.938	528.88
539.153	547.88
539.367	526.88
539.581	558.88
539.795	540.88
540.009	547.88
540.222	554.88
540.436	554.88
540.65	532.88
540.864	552.88
541.078	524.88
541.292	535.88
541.506	568.88
541.72	547.88
541.934	564.88
542.147	566.88
542.361	557.88
542.575	537.88
542.789	525.88
543.002	547.88
543.216	522.88
543.43	527.88
543.644	532.88
543.857	540.88
544.071	540.88
544.285	535.88
544.498	548.88
544.712	561.88
544.925	551.88
545.139	549.88
545.352	562.88
545.566	566.88
545.779	585.88
545.993	595.88
546.206	574.88
546.42	532.88
546.633	550.88
546.847	561.88
547.06	527.88
547.274	571.88
547.487	564.88
547.7	547.88
547.914	567.88
548.127	556.88
548.34	589.88
548.554	588.88
548.767	571.88
548.98	572.88
549.193	565.88
549.407	564.88
549.62	610.88
549.833	626.88
550.046	576.88
550.259	570.88
550.473	567.88
550.686	558.88
550.899	539.88
551.112	531.88
551.325	533.88
551.538	541.88
551.751	558.88
551.964	561.88
552.177	540.88
552.39	569.88
552.603	557.88
552.816	598.88
553.029	622.88
553.242	617.88
553.455	613.88
553.667	629.88
553.88	619.88
554.093	599.88
554.306	600.88
554.519	573.88
554.732	556.88
554.944	559.88
555.157	524.88
555.37	514.88
555.583	522.88
555.795	526.88
556.008	500.88
556.221	499.88
556.433	484.88
556.646	487.88
556.859	518.88
557.071	490.88
557.284	501.88
557.496	483.88
557.709	506.88
557.921	478.88
558.134	490.88
558.346	487.88
558.559	483.88
558.771	445.88
558.984	471.88
559.196	458.88
559.409	501.88
559.621	463.88
559.833	456.88
560.046	464.88
560.258	456.88
560.47	482.88
560.683	457.88
560.895	460.88
561.107	461.88
561.32	461.88
561.532	461.88
561.744	457.88
561.956	483.88
562.168	443.88
562.381	446.88
562.593	455.88
562.805	482.88
563.017	462.88
563.229	466.88
563.441	462.88
563.653	453.88
563.865	460.88
564.077	449.88
564.289	468.88
564.501	501.88
564.713	515.88
564.925	512.88
565.137	498.88
565.349	524.88
565.561	526.88
565.773	540.88
565.985	600.88
566.197	595.88
566.408	632.88
566.62	724.88
566.832	772.88
567.044	774.88
567.255	773.88
567.467	807.88
567.679	820.88
567.891	920.88
568.102	969.88
568.314	887.88
568.526	807.88
568.737	732.88
568.949	641.88
569.161	576.88
569.372	564.88
569.584	515.88
569.795	509.88
570.007	494.88
570.218	482.88
570.43	461.88
570.641	491.88
570.853	457.88
571.064	494.88
571.276	499.88
571.487	501.88
571.698	453.88
571.91	430.88
572.121	426.88
572.333	407.88
572.544	418.88
572.755	404.88
572.966	398.88
573.178	387.88
573.389	396.88
573.6	362.88
573.811	398.88
574.023	396.88
574.234	406.88
574.445	398.88
574.656	388.88
574.867	403.88
575.078	377.88
575.289	375.88
575.501	377.88
575.712	369.88
575.923	374.88
576.134	365.88
576.345	376.88
576.556	373.88
576.767	350.88
576.978	364.88
577.188	366.88
577.399	363.88
577.61	356.88
577.821	354.88
578.032	347.88
578.243	340.88
578.454	341.88
578.665	350.88
578.875	352.88
579.086	340.88
579.297	349.88
579.508	335.88
579.718	330.88
579.929	347.88
580.14	341.88
580.35	350.88
580.561	355.88
580.772	321.88
580.982	318.88
581.193	336.88
581.403	350.88
581.614	339.88
581.825	332.88
582.035	338.88
582.246	326.88
582.456	325.88
582.667	342.88
582.877	337.88
583.087	322.88
583.298	314.88
583.508	326.88
583.719	318.88
583.929	346.88
584.139	314.88
584.35	307.88
584.56	326.88
584.77	330.88
584.981	305.88
585.191	324.88
585.401	327.88
585.611	316.88
585.821	320.88
586.032	299.88
586.242	311.88
586.452	327.88
586.662	328.88
586.872	304.88
587.082	305.88
587.292	315.88
587.502	316.88
587.713	315.88
587.923	310.88
588.133	320.88
588.343	312.88
588.553	309.88
588.762	323.88
588.972	309.88
589.182	313.88
589.392	303.88
589.602	315.88
589.812	341.88
590.022	327.88
590.232	308.88
590.441	322.88
590.651	327.88
590.861	318.88
591.071	316.88
591.281	319.88
591.49	345.88
591.7	333.88
591.91	341.88
592.119	330.88
592.329	345.88
592.539	377.88
592.748	385.88
592.958	380.88
593.167	390.88
593.377	403.88
593.587	432.88
593.796	416.88
594.006	413.88
594.215	396.88
594.424	428.88
594.634	417.88
594.843	384.88
595.053	377.88
595.262	348.88
595.472	356.88
595.681	331.88
595.89	320.88
596.1	316.88
596.309	312.88
596.518	306.88
596.727	304.88
596.937	309.88
597.146	295.88
597.355	297.88
597.564	289.88
597.774	288.88
597.983	294.88
598.192	258.88
598.401	274.88
598.61	281.88
598.819	269.88
599.028	270.88
599.237	268.88
599.446	302.88
599.655	268.88
599.864	262.88
600.073	263.88
600.282	281.88
600.491	268.88
600.7	280.88
600.909	277.88
601.118	249.88
601.327	266.88
601.536	260.88
601.745	266.88
601.953	277.88
602.162	256.88
602.371	270.88
602.58	276.88
602.789	286.88
602.997	256.88
603.206	267.88
603.415	262.88
603.623	249.88
603.832	259.88
604.041	250.88
604.249	269.88
604.458	264.88
604.666	257.88
604.875	264.88
605.084	260.88
605.292	258.88
605.501	259.88
605.709	260.88
605.918	272.88
606.126	264.88
606.334	260.88
606.543	267.88
606.751	262.88
606.96	253.88
607.168	267.88
607.376	246.88
607.585	234.88
607.793	248.88
608.001	254.88
608.21	256.88
608.418	240.88
608.626	242.88
608.834	230.88
609.043	242.88
609.251	255.88
609.459	242.88
609.667	236.88
609.875	237.88
610.083	252.88
610.291	237.88
610.499	243.88
610.707	244.88
610.916	258.88
611.124	232.88
611.332	250.88
611.54	234.88
611.748	243.88
611.955	237.88
612.163	237.88
612.371	251.88
612.579	240.88
612.787	251.88
612.995	227.88
613.203	223.88
613.411	238.88
613.618	254.88
613.826	248.88
614.034	207.88
614.242	239.88
614.449	217.88
614.657	234.88
614.865	231.88
615.072	237.88
615.28	246.88
615.488	252.88
615.695	236.88
615.903	245.88
616.111	246.88
616.318	259.88
616.526	241.88
616.733	256.88
616.941	253.88
617.148	236.88
617.356	250.88
617.563	255.88
617.771	243.88
617.978	232.88
618.185	240.88
618.393	230.88
618.6	256.88
618.807	235.88
619.015	254.88
619.222	242.88
619.429	243.88
619.637	231.88
619.844	231.88
620.051	243.88
620.258	225.88
620.466	230.88
620.673	212.88
620.88	222.88
621.087	219.88
621.294	220.88
621.501	223.88
621.708	224.88
621.915	212.88
622.122	222.88
622.329	237.88
622.536	213.88
622.743	220.88
622.95	225.88
623.157	202.88
623.364	222.88
623.571	212.88
623.778	212.88
623.985	225.88
624.192	206.88
624.399	210.88
624.606	211.88
624.812	202.88
625.019	214.88
625.226	218.88
625.433	209.88
625.639	205.88
625.846	206.88
626.053	195.88
626.259	212.88
626.466	202.88
626.673	198.88
626.879	193.88
627.086	193.88
627.293	206.88
627.499	194.88
627.706	198.88
627.912	197.88
628.119	202.88
628.325	199.88
628.532	203.88
628.738	206.88
628.945	215.88
629.151	206.88
629.357	192.88
629.564	192.88
629.77	191.88
629.976	198.88
630.183	196.88
630.389	180.88
630.595	171.88
630.802	185.88
631.008	201.88
631.214	193.88
631.42	186.88
631.627	184.88
631.833	196.88
632.039	177.88
632.245	196.88
632.451	178.88
632.657	182.88
632.863	171.88
633.069	185.88
633.275	193.88
633.481	174.88
633.688	173.88
633.893	180.88
634.099	181.88
634.305	168.88
634.511	188.88
634.717	185.88
634.923	168.88
635.129	159.88
635.335	164.88
635.541	172.88
635.747	172.88
635.952	171.88
636.158	169.88
636.364	172.88
636.57	188.88
636.775	180.88
636.981	193.88
637.187	185.88
637.392	185.88
637.598	168.88
637.804	171.88
638.009	184.88
638.215	170.88
638.421	173.88
638.626	180.88
638.832	198.88
639.037	180.88
639.243	168.88
639.448	164.88
639.654	157.88
639.859	169.88
640.065	161.88
640.27	182.88
640.475	174.88
640.681	182.88
640.886	170.88
641.091	164.88
641.297	168.88
641.502	168.88
641.707	160.88
641.913	163.88
642.118	157.88
642.323	165.88
642.528	154.88
642.733	150.88
642.939	169.88
643.144	160.88
643.349	164.88
643.554	172.88
643.759	150.88
643.964	153.88
644.169	157.88
644.374	160.88
644.579	166.88
644.784	172.88
644.989	158.88
645.194	148.88
645.399	153.88
645.604	156.88
645.809	158.88
646.014	154.88
646.219	160.88
646.423	159.88
646.628	165.88
646.833	153.88
647.038	160.88
647.243	169.88
647.447	166.88
647.652	170.88
647.857	169.88
648.062	171.88
648.266	173.88
648.471	189.88
648.676	171.88
648.88	173.88
649.085	174.88
649.289	173.88
649.494	167.88
649.698	173.88
649.903	156.88
650.107	157.88
650.312	165.88
650.516	148.88
650.721	156.88
650.925	149.88
651.13	143.88
651.334	135.88
651.539	149.88
651.743	149.88
651.947	153.88
652.152	163.88
652.356	138.88
652.56	136.88
652.764	128.88
652.969	133.88
653.173	136.88
653.377	150.88
653.581	136.88
653.785	126.88
653.99	132.88
654.194	128.88
654.398	128.88
654.602	146.88
654.806	136.88
655.01	139.88
655.214	132.88
655.418	127.88
655.622	129.88
655.826	135.88
656.03	145.88
656.234	136.88
656.438	133.88
656.642	132.88
656.846	137.88
657.049	136.88
657.253	118.88
657.457	123.88
657.661	111.88
657.865	114.88
658.068	113.88
658.272	108.88
658.476	94.88
658.68	89.88
658.883	104.88
659.087	89.88
659.291	84.88
659.494	101.88
659.698	96.88
659.901	100.88
660.105	104.88
660.309	98.88
660.512	91.88
660.716	92.88
660.919	93.88
661.123	105.88
661.326	97.88
661.53	82.88
661.733	87.88
661.936	86.88
662.14	76.88
662.343	80.88
662.546	90.88
662.75	75.88
662.953	89.88
663.156	72.88
663.36	78.88
663.563	87.88
663.766	93.88
663.969	90.88
664.173	90.88
664.376	90.88
664.579	89.88
664.782	84.88
664.985	99.88
665.188	84.88
665.391	65.88
665.594	81.88
665.797	82.88
666	88.88
666.203	83.88
666.406	80.88
666.609	78.88
666.812	78.88
667.015	75.88
667.218	85.88
667.421	86.88
667.624	70.88
667.827	81.88
668.03	84.88
668.232	76.88
668.435	78.88
668.638	92.88
668.841	64.88
669.043	66.88
669.246	79.88
669.449	70.88
669.651	73.88
669.854	76.88
670.057	71.88
670.259	75.88
670.462	78.88
670.665	81.88
670.867	72.88
671.07	65.88
671.272	83.88
671.475	81.88
671.677	96.88
671.88	80.88
672.082	79.88
672.284	75.88
672.487	74.88
672.689	84.88
672.892	84.88
