Data from Ni(NO3)2@0.5M.TitratingCurve.Agarose3%dH2O.NegLispCup.LampEnergy10.LIBS07252019_HRD10591_17-58-17-565.txt Node
Date: Thu Jul 25 17:58:17 EDT 2019
User: cochatt
Spectrometer: HR+D1059
Trigger mode: 1
Integration Time (sec): 1.000000E-1
Scans to average: 1
Electric dark correction enabled: true
Nonlinearity correction enabled: false
Boxcar width: 0
XAxis mode: Wavelengths
Number of Pixels in Spectrum: 2048
>>>>>Begin Spectral Data<<<<<
223.165	-25.75
223.4	-25.75
223.635	-25.75
223.869	-31.75
224.104	-34.75
224.338	-4.75
224.573	-11.75
224.808	-3.75
225.042	0.25
225.277	3.25
225.511	-4.75
225.746	-0.75
225.98	10.25
226.215	15.25
226.449	6.25
226.683	21.25
226.918	31.25
227.152	30.25
227.387	40.25
227.621	31.25
227.856	48.25
228.09	51.25
228.324	52.25
228.559	60.25
228.793	67.25
229.027	114.25
229.262	119.25
229.496	134.25
229.73	127.25
229.964	151.25
230.199	172.25
230.433	196.25
230.667	180.25
230.901	167.25
231.136	161.25
231.37	169.25
231.604	169.25
231.838	176.25
232.072	174.25
232.306	172.25
232.541	184.25
232.775	160.25
233.009	150.25
233.243	159.25
233.477	144.25
233.711	164.25
233.945	165.25
234.179	160.25
234.413	182.25
234.647	163.25
234.881	162.25
235.115	173.25
235.349	158.25
235.583	165.25
235.817	142.25
236.051	157.25
236.285	155.25
236.519	160.25
236.753	171.25
236.987	158.25
237.221	156.25
237.455	166.25
237.689	161.25
237.922	166.25
238.156	167.25
238.39	169.25
238.624	168.25
238.858	176.25
239.091	176.25
239.325	189.25
239.559	190.25
239.793	215.25
240.027	210.25
240.26	189.25
240.494	199.25
240.728	189.25
240.961	184.25
241.195	200.25
241.429	199.25
241.662	204.25
241.896	215.25
242.13	223.25
242.363	203.25
242.597	189.25
242.83	205.25
243.064	189.25
243.298	194.25
243.531	217.25
243.765	216.25
243.998	215.25
244.232	236.25
244.465	229.25
244.699	230.25
244.932	211.25
245.166	216.25
245.399	237.25
245.633	223.25
245.866	220.25
246.099	238.25
246.333	222.25
246.566	217.25
246.8	219.25
247.033	240.25
247.266	241.25
247.5	260.25
247.733	235.25
247.966	236.25
248.2	244.25
248.433	264.25
248.666	249.25
248.899	258.25
249.133	248.25
249.366	279.25
249.599	268.25
249.832	260.25
250.066	260.25
250.299	247.25
250.532	264.25
250.765	271.25
250.998	282.25
251.231	282.25
251.465	298.25
251.698	303.25
251.931	301.25
252.164	282.25
252.397	279.25
252.63	270.25
252.863	282.25
253.096	305.25
253.329	295.25
253.562	309.25
253.795	293.25
254.028	290.25
254.261	333.25
254.494	323.25
254.727	317.25
254.96	313.25
255.193	326.25
255.426	330.25
255.659	320.25
255.892	328.25
256.124	320.25
256.357	311.25
256.59	328.25
256.823	330.25
257.056	330.25
257.289	319.25
257.521	333.25
257.754	341.25
257.987	346.25
258.22	355.25
258.452	356.25
258.685	364.25
258.918	352.25
259.151	346.25
259.383	347.25
259.616	357.25
259.849	382.25
260.081	365.25
260.314	367.25
260.547	364.25
260.779	355.25
261.012	356.25
261.244	385.25
261.477	396.25
261.71	380.25
261.942	379.25
262.175	389.25
262.407	395.25
262.64	364.25
262.872	367.25
263.105	376.25
263.337	390.25
263.57	390.25
263.802	403.25
264.035	398.25
264.267	420.25
264.499	401.25
264.732	399.25
264.964	395.25
265.197	390.25
265.429	412.25
265.661	421.25
265.894	407.25
266.126	406.25
266.358	421.25
266.591	436.25
266.823	424.25
267.055	414.25
267.287	411.25
267.52	412.25
267.752	420.25
267.984	420.25
268.216	429.25
268.448	438.25
268.681	432.25
268.913	423.25
269.145	440.25
269.377	422.25
269.609	427.25
269.841	420.25
270.073	442.25
270.306	438.25
270.538	437.25
270.77	439.25
271.002	465.25
271.234	443.25
271.466	449.25
271.698	458.25
271.93	455.25
272.162	449.25
272.394	476.25
272.626	453.25
272.858	465.25
273.09	475.25
273.322	464.25
273.553	464.25
273.785	462.25
274.017	479.25
274.249	481.25
274.481	488.25
274.713	484.25
274.945	454.25
275.176	461.25
275.408	483.25
275.64	471.25
275.872	482.25
276.104	492.25
276.335	492.25
276.567	502.25
276.799	513.25
277.031	524.25
277.262	497.25
277.494	493.25
277.726	502.25
277.957	496.25
278.189	503.25
278.421	520.25
278.652	495.25
278.884	507.25
279.115	513.25
279.347	498.25
279.579	499.25
279.81	521.25
280.042	496.25
280.273	522.25
280.505	511.25
280.736	518.25
280.968	531.25
281.199	541.25
281.431	510.25
281.662	539.25
281.894	528.25
282.125	544.25
282.356	537.25
282.588	556.25
282.819	545.25
283.051	542.25
283.282	550.25
283.513	557.25
283.745	535.25
283.976	528.25
284.207	538.25
284.439	523.25
284.67	546.25
284.901	540.25
285.132	562.25
285.364	546.25
285.595	567.25
285.826	581.25
286.057	569.25
286.288	541.25
286.52	572.25
286.751	576.25
286.982	592.25
287.213	556.25
287.444	559.25
287.675	586.25
287.906	582.25
288.138	582.25
288.369	580.25
288.6	569.25
288.831	576.25
289.062	573.25
289.293	583.25
289.524	575.25
289.755	589.25
289.986	557.25
290.217	575.25
290.448	591.25
290.679	587.25
290.91	567.25
291.141	596.25
291.371	589.25
291.602	581.25
291.833	571.25
292.064	600.25
292.295	592.25
292.526	595.25
292.757	580.25
292.987	580.25
293.218	600.25
293.449	597.25
293.68	594.25
293.91	607.25
294.141	592.25
294.372	604.25
294.603	615.25
294.833	603.25
295.064	595.25
295.295	600.25
295.525	581.25
295.756	587.25
295.987	604.25
296.217	618.25
296.448	595.25
296.679	614.25
296.909	599.25
297.14	604.25
297.37	624.25
297.601	614.25
297.831	616.25
298.062	610.25
298.292	617.25
298.523	624.25
298.753	632.25
298.984	619.25
299.214	632.25
299.445	659.25
299.675	657.25
299.905	668.25
300.136	650.25
300.366	679.25
300.597	666.25
300.827	665.25
301.057	676.25
301.288	642.25
301.518	639.25
301.748	662.25
301.979	683.25
302.209	686.25
302.439	680.25
302.669	672.25
302.9	691.25
303.13	671.25
303.36	670.25
303.59	655.25
303.82	700.25
304.051	667.25
304.281	713.25
304.511	674.25
304.741	701.25
304.971	679.25
305.201	725.25
305.431	724.25
305.661	712.25
305.891	699.25
306.121	706.25
306.352	679.25
306.582	678.25
306.812	685.25
307.042	718.25
307.272	685.25
307.502	693.25
307.731	695.25
307.961	703.25
308.191	706.25
308.421	710.25
308.651	689.25
308.881	672.25
309.111	692.25
309.341	675.25
309.571	683.25
309.8	706.25
310.03	740.25
310.26	756.25
310.49	768.25
310.72	729.25
310.949	718.25
311.179	731.25
311.409	687.25
311.639	719.25
311.868	708.25
312.098	730.25
312.328	729.25
312.557	726.25
312.787	723.25
313.017	746.25
313.246	749.25
313.476	743.25
313.706	758.25
313.935	766.25
314.165	745.25
314.394	786.25
314.624	756.25
314.853	737.25
315.083	752.25
315.312	750.25
315.542	769.25
315.771	769.25
316.001	780.25
316.23	768.25
316.46	778.25
316.689	779.25
316.919	802.25
317.148	793.25
317.377	802.25
317.607	784.25
317.836	772.25
318.065	768.25
318.295	816.25
318.524	797.25
318.753	781.25
318.983	795.25
319.212	784.25
319.441	790.25
319.67	804.25
319.9	795.25
320.129	825.25
320.358	813.25
320.587	826.25
320.816	804.25
321.046	804.25
321.275	807.25
321.504	824.25
321.733	814.25
321.962	823.25
322.191	846.25
322.42	842.25
322.649	828.25
322.878	856.25
323.108	849.25
323.337	867.25
323.566	874.25
323.795	865.25
324.024	891.25
324.253	873.25
324.482	857.25
324.71	885.25
324.939	872.25
325.168	888.25
325.397	872.25
325.626	882.25
325.855	860.25
326.084	890.25
326.313	862.25
326.542	898.25
326.77	898.25
326.999	901.25
327.228	853.25
327.457	867.25
327.686	876.25
327.914	904.25
328.143	932.25
328.372	908.25
328.6	911.25
328.829	919.25
329.058	898.25
329.287	904.25
329.515	911.25
329.744	905.25
329.972	930.25
330.201	918.25
330.43	910.25
330.658	952.25
330.887	952.25
331.115	923.25
331.344	943.25
331.572	950.25
331.801	952.25
332.03	975.25
332.258	986.25
332.486	974.25
332.715	970.25
332.943	957.25
333.172	991.25
333.4	972.25
333.629	994.25
333.857	1042.25
334.085	1010.25
334.314	1035.25
334.542	1052.25
334.771	1056.25
334.999	1006.25
335.227	1053.25
335.455	1066.25
335.684	1044.25
335.912	1074.25
336.14	1064.25
336.369	1046.25
336.597	1055.25
336.825	1099.25
337.053	1102.25
337.281	1056.25
337.51	1054.25
337.738	1090.25
337.966	1062.25
338.194	1061.25
338.422	1037.25
338.65	1035.25
338.878	1040.25
339.106	1062.25
339.334	1046.25
339.562	1043.25
339.79	1046.25
340.018	1037.25
340.246	1031.25
340.474	1007.25
340.702	1014.25
340.93	988.25
341.158	1015.25
341.386	1052.25
341.614	1057.25
341.842	1044.25
342.07	1003.25
342.298	1016.25
342.526	1003.25
342.754	1026.25
342.981	988.25
343.209	1030.25
343.437	1082.25
343.665	1044.25
343.893	1043.25
344.12	1057.25
344.348	1060.25
344.576	1055.25
344.804	1043.25
345.031	1066.25
345.259	1039.25
345.487	1044.25
345.714	1052.25
345.942	1069.25
346.17	1075.25
346.397	1038.25
346.625	1026.25
346.853	1014.25
347.08	1035.25
347.308	999.25
347.535	996.25
347.763	990.25
347.99	977.25
348.218	968.25
348.445	983.25
348.673	971.25
348.9	986.25
349.128	1035.25
349.355	1031.25
349.583	998.25
349.81	951.25
350.037	962.25
350.265	962.25
350.492	945.25
350.72	964.25
350.947	974.25
351.174	1000.25
351.402	1018.25
351.629	1006.25
351.856	1039.25
352.083	1010.25
352.311	1003.25
352.538	1020.25
352.765	1000.25
352.992	956.25
353.22	952.25
353.447	932.25
353.674	956.25
353.901	956.25
354.128	959.25
354.355	947.25
354.583	952.25
354.81	925.25
355.037	943.25
355.264	951.25
355.491	952.25
355.718	921.25
355.945	946.25
356.172	942.25
356.399	967.25
356.626	962.25
356.853	1014.25
357.08	946.25
357.307	961.25
357.534	989.25
357.761	960.25
357.988	977.25
358.215	948.25
358.441	974.25
358.668	952.25
358.895	976.25
359.122	957.25
359.349	951.25
359.576	941.25
359.802	966.25
360.029	971.25
360.256	971.25
360.483	960.25
360.709	956.25
360.936	969.25
361.163	983.25
361.39	967.25
361.616	986.25
361.843	1010.25
362.07	996.25
362.296	1010.25
362.523	959.25
362.749	960.25
362.976	967.25
363.203	952.25
363.429	942.25
363.656	959.25
363.882	948.25
364.109	958.25
364.335	975.25
364.562	984.25
364.788	972.25
365.015	989.25
365.241	966.25
365.468	957.25
365.694	980.25
365.92	979.25
366.147	974.25
366.373	936.25
366.599	964.25
366.826	995.25
367.052	951.25
367.278	969.25
367.505	983.25
367.731	953.25
367.957	995.25
368.184	975.25
368.41	1012.25
368.636	1005.25
368.862	993.25
369.089	994.25
369.315	1010.25
369.541	990.25
369.767	1002.25
369.993	997.25
370.219	1006.25
370.445	1008.25
370.672	1026.25
370.898	1006.25
371.124	1012.25
371.35	1048.25
371.576	996.25
371.802	1032.25
372.028	1027.25
372.254	1019.25
372.48	1038.25
372.706	1029.25
372.932	1054.25
373.158	1021.25
373.384	1028.25
373.61	1007.25
373.835	1026.25
374.061	1021.25
374.287	1042.25
374.513	1031.25
374.739	1050.25
374.965	1040.25
375.191	1022.25
375.416	1068.25
375.642	1049.25
375.868	1022.25
376.094	1035.25
376.319	1028.25
376.545	998.25
376.771	1038.25
376.997	1000.25
377.222	994.25
377.448	1025.25
377.674	1037.25
377.899	1016.25
378.125	999.25
378.35	1005.25
378.576	1004.25
378.802	1019.25
379.027	1003.25
379.253	1032.25
379.478	1020.25
379.704	1002.25
379.929	1006.25
380.155	1006.25
380.38	997.25
380.606	1016.25
380.831	1013.25
381.057	1037.25
381.282	969.25
381.507	978.25
381.733	1005.25
381.958	1041.25
382.184	1034.25
382.409	1035.25
382.634	1005.25
382.86	1001.25
383.085	1016.25
383.31	1042.25
383.535	1052.25
383.761	1084.25
383.986	1022.25
384.211	1051.25
384.436	1077.25
384.662	1041.25
384.887	1080.25
385.112	1061.25
385.337	1080.25
385.562	1110.25
385.787	1104.25
386.013	1112.25
386.238	1110.25
386.463	1096.25
386.688	1111.25
386.913	1107.25
387.138	1080.25
387.363	1114.25
387.588	1124.25
387.813	1151.25
388.038	1091.25
388.263	1094.25
388.488	1079.25
388.713	1124.25
388.938	1146.25
389.163	1112.25
389.387	1140.25
389.612	1091.25
389.837	1128.25
390.062	1138.25
390.287	1167.25
390.512	1148.25
390.736	1154.25
390.961	1139.25
391.186	1126.25
391.411	1136.25
391.636	1166.25
391.86	1163.25
392.085	1159.25
392.31	1167.25
392.534	1160.25
392.759	1185.25
392.984	1166.25
393.208	1174.25
393.433	1199.25
393.658	1160.25
393.882	1156.25
394.107	1166.25
394.331	1145.25
394.556	1167.25
394.78	1146.25
395.005	1147.25
395.229	1162.25
395.454	1176.25
395.678	1188.25
395.903	1187.25
396.127	1197.25
396.352	1202.25
396.576	1232.25
396.801	1193.25
397.025	1215.25
397.249	1222.25
397.474	1222.25
397.698	1194.25
397.922	1250.25
398.147	1251.25
398.371	1271.25
398.595	1274.25
398.82	1264.25
399.044	1308.25
399.268	1333.25
399.492	1357.25
399.717	1383.25
399.941	1408.25
400.165	1428.25
400.389	1375.25
400.613	1358.25
400.837	1325.25
401.062	1359.25
401.286	1340.25
401.51	1336.25
401.734	1308.25
401.958	1290.25
402.182	1289.25
402.406	1317.25
402.63	1307.25
402.854	1295.25
403.078	1304.25
403.302	1320.25
403.526	1299.25
403.75	1286.25
403.974	1305.25
404.198	1296.25
404.422	1309.25
404.645	1306.25
404.869	1286.25
405.093	1309.25
405.317	1334.25
405.541	1344.25
405.765	1365.25
405.988	1358.25
406.212	1336.25
406.436	1358.25
406.66	1371.25
406.883	1338.25
407.107	1406.25
407.331	1379.25
407.555	1430.25
407.778	1426.25
408.002	1411.25
408.226	1404.25
408.449	1423.25
408.673	1408.25
408.896	1410.25
409.12	1412.25
409.344	1420.25
409.567	1351.25
409.791	1357.25
410.014	1389.25
410.238	1361.25
410.461	1382.25
410.685	1355.25
410.908	1359.25
411.132	1330.25
411.355	1336.25
411.578	1344.25
411.802	1342.25
412.025	1370.25
412.249	1317.25
412.472	1347.25
412.695	1322.25
412.919	1348.25
413.142	1320.25
413.365	1311.25
413.589	1348.25
413.812	1310.25
414.035	1322.25
414.258	1286.25
414.482	1293.25
414.705	1281.25
414.928	1323.25
415.151	1309.25
415.374	1314.25
415.597	1282.25
415.821	1260.25
416.044	1286.25
416.267	1305.25
416.49	1261.25
416.713	1262.25
416.936	1268.25
417.159	1270.25
417.382	1244.25
417.605	1259.25
417.828	1234.25
418.051	1258.25
418.274	1261.25
418.497	1239.25
418.72	1240.25
418.943	1210.25
419.166	1296.25
419.389	1389.25
419.611	1340.25
419.834	1338.25
420.057	1319.25
420.28	1270.25
420.503	1255.25
420.726	1242.25
420.948	1217.25
421.171	1271.25
421.394	1268.25
421.617	1263.25
421.839	1260.25
422.062	1269.25
422.285	1236.25
422.507	1255.25
422.73	1229.25
422.953	1243.25
423.175	1243.25
423.398	1260.25
423.621	1228.25
423.843	1233.25
424.066	1271.25
424.288	1256.25
424.511	1236.25
424.733	1258.25
424.956	1250.25
425.178	1228.25
425.401	1233.25
425.623	1261.25
425.846	1217.25
426.068	1225.25
426.291	1254.25
426.513	1258.25
426.735	1227.25
426.958	1215.25
427.18	1215.25
427.402	1230.25
427.625	1248.25
427.847	1225.25
428.069	1214.25
428.292	1234.25
428.514	1222.25
428.736	1249.25
428.958	1222.25
429.181	1207.25
429.403	1228.25
429.625	1220.25
429.847	1207.25
430.069	1211.25
430.292	1233.25
430.514	1198.25
430.736	1238.25
430.958	1229.25
431.18	1221.25
431.402	1250.25
431.624	1212.25
431.846	1208.25
432.068	1212.25
432.29	1210.25
432.512	1214.25
432.734	1252.25
432.956	1241.25
433.178	1251.25
433.4	1254.25
433.622	1274.25
433.844	1314.25
434.066	1257.25
434.287	1257.25
434.509	1257.25
434.731	1269.25
434.953	1256.25
435.175	1242.25
435.397	1316.25
435.618	1290.25
435.84	1239.25
436.062	1259.25
436.284	1255.25
436.505	1256.25
436.727	1262.25
436.949	1220.25
437.17	1222.25
437.392	1197.25
437.614	1218.25
437.835	1186.25
438.057	1195.25
438.278	1148.25
438.5	1202.25
438.721	1176.25
438.943	1208.25
439.165	1204.25
439.386	1195.25
439.608	1244.25
439.829	1223.25
440.05	1212.25
440.272	1216.25
440.493	1241.25
440.715	1242.25
440.936	1250.25
441.158	1244.25
441.379	1256.25
441.6	1282.25
441.822	1275.25
442.043	1259.25
442.264	1273.25
442.486	1233.25
442.707	1257.25
442.928	1243.25
443.149	1291.25
443.371	1302.25
443.592	1323.25
443.813	1310.25
444.034	1284.25
444.255	1294.25
444.476	1317.25
444.698	1340.25
444.919	1349.25
445.14	1447.25
445.361	1325.25
445.582	1294.25
445.803	1256.25
446.024	1236.25
446.245	1287.25
446.466	1266.25
446.687	1206.25
446.908	1221.25
447.129	1245.25
447.35	1212.25
447.571	1206.25
447.792	1165.25
448.013	1150.25
448.234	1172.25
448.455	1157.25
448.675	1150.25
448.896	1183.25
449.117	1155.25
449.338	1174.25
449.559	1158.25
449.779	1175.25
450	1128.25
450.221	1138.25
450.442	1163.25
450.662	1105.25
450.883	1134.25
451.104	1149.25
451.324	1143.25
451.545	1170.25
451.766	1135.25
451.986	1150.25
452.207	1120.25
452.428	1107.25
452.648	1148.25
452.869	1124.25
453.089	1102.25
453.31	1143.25
453.53	1116.25
453.751	1131.25
453.971	1099.25
454.192	1150.25
454.412	1119.25
454.633	1118.25
454.853	1105.25
455.073	1111.25
455.294	1110.25
455.514	1108.25
455.734	1127.25
455.955	1139.25
456.175	1106.25
456.395	1089.25
456.616	1078.25
456.836	1116.25
457.056	1096.25
457.276	1077.25
457.497	1119.25
457.717	1111.25
457.937	1142.25
458.157	1113.25
458.377	1114.25
458.598	1139.25
458.818	1126.25
459.038	1163.25
459.258	1218.25
459.478	1260.25
459.698	1292.25
459.918	1283.25
460.138	1274.25
460.358	1284.25
460.578	1320.25
460.798	1329.25
461.018	1354.25
461.238	1314.25
461.458	1295.25
461.678	1302.25
461.898	1335.25
462.118	1285.25
462.338	1310.25
462.558	1375.25
462.777	1364.25
462.997	1424.25
463.217	1416.25
463.437	1462.25
463.657	1414.25
463.876	1366.25
464.096	1400.25
464.316	1382.25
464.536	1343.25
464.755	1337.25
464.975	1308.25
465.195	1314.25
465.414	1296.25
465.634	1251.25
465.854	1224.25
466.073	1238.25
466.293	1212.25
466.512	1213.25
466.732	1188.25
466.951	1208.25
467.171	1205.25
467.391	1229.25
467.61	1204.25
467.829	1215.25
468.049	1188.25
468.268	1174.25
468.488	1156.25
468.707	1155.25
468.927	1166.25
469.146	1198.25
469.365	1210.25
469.585	1170.25
469.804	1213.25
470.023	1215.25
470.243	1189.25
470.462	1202.25
470.681	1180.25
470.901	1180.25
471.12	1179.25
471.339	1182.25
471.558	1168.25
471.777	1209.25
471.997	1206.25
472.216	1206.25
472.435	1190.25
472.654	1162.25
472.873	1204.25
473.092	1184.25
473.311	1180.25
473.53	1185.25
473.749	1176.25
473.968	1210.25
474.187	1189.25
474.406	1147.25
474.625	1189.25
474.844	1210.25
475.063	1209.25
475.282	1216.25
475.501	1254.25
475.72	1252.25
475.939	1239.25
476.158	1227.25
476.377	1224.25
476.596	1254.25
476.814	1248.25
477.033	1259.25
477.252	1272.25
477.471	1278.25
477.69	1305.25
477.908	1316.25
478.127	1341.25
478.346	1273.25
478.564	1342.25
478.783	1364.25
479.002	1389.25
479.22	1412.25
479.439	1367.25
479.658	1358.25
479.876	1380.25
480.095	1411.25
480.313	1379.25
480.532	1391.25
480.751	1382.25
480.969	1378.25
481.188	1396.25
481.406	1352.25
481.624	1365.25
481.843	1383.25
482.061	1393.25
482.28	1360.25
482.498	1341.25
482.717	1385.25
482.935	1383.25
483.153	1407.25
483.372	1438.25
483.59	1418.25
483.808	1443.25
484.027	1393.25
484.245	1416.25
484.463	1393.25
484.681	1420.25
484.9	1447.25
485.118	1414.25
485.336	1414.25
485.554	1445.25
485.772	1442.25
485.99	1396.25
486.209	1431.25
486.427	1407.25
486.645	1410.25
486.863	1478.25
487.081	1448.25
487.299	1478.25
487.517	1452.25
487.735	1483.25
487.953	1467.25
488.171	1483.25
488.389	1436.25
488.607	1448.25
488.825	1447.25
489.043	1434.25
489.261	1460.25
489.479	1443.25
489.696	1420.25
489.914	1424.25
490.132	1453.25
490.35	1418.25
490.568	1481.25
490.786	1470.25
491.003	1492.25
491.221	1480.25
491.439	1470.25
491.657	1493.25
491.874	1528.25
492.092	1483.25
492.31	1511.25
492.527	1504.25
492.745	1499.25
492.963	1535.25
493.18	1499.25
493.398	1512.25
493.615	1486.25
493.833	1516.25
494.05	1521.25
494.268	1510.25
494.485	1514.25
494.703	1535.25
494.92	1561.25
495.138	1550.25
495.355	1560.25
495.573	1536.25
495.79	1576.25
496.008	1547.25
496.225	1572.25
496.442	1668.25
496.66	1636.25
496.877	1607.25
497.094	1660.25
497.312	1656.25
497.529	1639.25
497.746	1698.25
497.963	1691.25
498.181	1724.25
498.398	1782.25
498.615	1807.25
498.832	1867.25
499.049	1890.25
499.267	1946.25
499.484	1968.25
499.701	2057.25
499.918	2054.25
500.135	2134.25
500.352	2159.25
500.569	2202.25
500.786	2194.25
501.003	2147.25
501.22	2124.25
501.437	2101.25
501.654	2021.25
501.871	1988.25
502.088	1950.25
502.305	1899.25
502.522	1900.25
502.739	1837.25
502.956	1743.25
503.172	1695.25
503.389	1746.25
503.606	1706.25
503.823	1662.25
504.04	1614.25
504.256	1600.25
504.473	1594.25
504.69	1604.25
504.907	1543.25
505.123	1502.25
505.34	1548.25
505.557	1493.25
505.773	1495.25
505.99	1464.25
506.207	1444.25
506.423	1434.25
506.64	1422.25
506.856	1390.25
507.073	1422.25
507.289	1405.25
507.506	1383.25
507.722	1332.25
507.939	1351.25
508.155	1359.25
508.372	1387.25
508.588	1304.25
508.805	1309.25
509.021	1302.25
509.238	1301.25
509.454	1331.25
509.67	1299.25
509.887	1314.25
510.103	1285.25
510.319	1259.25
510.536	1269.25
510.752	1299.25
510.968	1295.25
511.184	1267.25
511.401	1290.25
511.617	1256.25
511.833	1285.25
512.049	1252.25
512.265	1236.25
512.481	1214.25
512.698	1218.25
512.914	1242.25
513.13	1270.25
513.346	1278.25
513.562	1251.25
513.778	1251.25
513.994	1258.25
514.21	1243.25
514.426	1243.25
514.642	1247.25
514.858	1262.25
515.074	1288.25
515.29	1250.25
515.506	1236.25
515.721	1284.25
515.937	1272.25
516.153	1278.25
516.369	1277.25
516.585	1304.25
516.801	1314.25
517.016	1280.25
517.232	1337.25
517.448	1330.25
517.664	1333.25
517.879	1328.25
518.095	1321.25
518.311	1308.25
518.527	1288.25
518.742	1311.25
518.958	1303.25
519.173	1299.25
519.389	1300.25
519.605	1280.25
519.82	1298.25
520.036	1241.25
520.251	1251.25
520.467	1232.25
520.682	1186.25
520.898	1222.25
521.113	1189.25
521.329	1180.25
521.544	1183.25
521.76	1226.25
521.975	1195.25
522.19	1169.25
522.406	1192.25
522.621	1166.25
522.836	1168.25
523.052	1141.25
523.267	1163.25
523.482	1163.25
523.698	1146.25
523.913	1156.25
524.128	1123.25
524.343	1170.25
524.559	1110.25
524.774	1136.25
524.989	1159.25
525.204	1124.25
525.419	1142.25
525.634	1122.25
525.849	1101.25
526.064	1154.25
526.28	1090.25
526.495	1101.25
526.71	1095.25
526.925	1100.25
527.14	1087.25
527.355	1099.25
527.57	1099.25
527.785	1132.25
527.999	1118.25
528.214	1105.25
528.429	1102.25
528.644	1095.25
528.859	1114.25
529.074	1095.25
529.289	1106.25
529.503	1118.25
529.718	1099.25
529.933	1088.25
530.148	1082.25
530.363	1093.25
530.577	1067.25
530.792	1085.25
531.007	1066.25
531.221	1078.25
531.436	1055.25
531.651	1080.25
531.865	1063.25
532.08	1064.25
532.295	1046.25
532.509	1037.25
532.724	1063.25
532.938	1069.25
533.153	1082.25
533.367	1029.25
533.582	1078.25
533.796	1054.25
534.011	1087.25
534.225	1052.25
534.44	1031.25
534.654	1056.25
534.868	1038.25
535.083	1020.25
535.297	1053.25
535.511	1044.25
535.726	1026.25
535.94	1059.25
536.154	1035.25
536.369	1031.25
536.583	982.25
536.797	1014.25
537.011	1016.25
537.225	1027.25
537.44	989.25
537.654	1018.25
537.868	1001.25
538.082	963.25
538.296	1012.25
538.51	969.25
538.724	1026.25
538.938	974.25
539.153	999.25
539.367	1004.25
539.581	972.25
539.795	996.25
540.009	988.25
540.222	990.25
540.436	984.25
540.65	967.25
540.864	975.25
541.078	992.25
541.292	988.25
541.506	962.25
541.72	984.25
541.934	973.25
542.147	990.25
542.361	982.25
542.575	955.25
542.789	966.25
543.002	951.25
543.216	991.25
543.43	965.25
543.644	964.25
543.857	966.25
544.071	961.25
544.285	970.25
544.498	982.25
544.712	985.25
544.925	999.25
545.139	950.25
545.352	976.25
545.566	962.25
545.779	986.25
545.993	984.25
546.206	962.25
546.42	959.25
546.633	968.25
546.847	944.25
547.06	964.25
547.274	960.25
547.487	947.25
547.7	934.25
547.914	977.25
548.127	966.25
548.34	939.25
548.554	937.25
548.767	920.25
548.98	970.25
549.193	922.25
549.407	953.25
549.62	988.25
549.833	966.25
550.046	925.25
550.259	945.25
550.473	942.25
550.686	944.25
550.899	947.25
551.112	946.25
551.325	932.25
551.538	948.25
551.751	957.25
551.964	926.25
552.177	944.25
552.39	949.25
552.603	941.25
552.816	970.25
553.029	957.25
553.242	955.25
553.455	954.25
553.667	939.25
553.88	934.25
554.093	916.25
554.306	947.25
554.519	916.25
554.732	912.25
554.944	894.25
555.157	890.25
555.37	864.25
555.583	904.25
555.795	888.25
556.008	886.25
556.221	865.25
556.433	866.25
556.646	876.25
556.859	843.25
557.071	836.25
557.284	841.25
557.496	822.25
557.709	847.25
557.921	844.25
558.134	829.25
558.346	858.25
558.559	862.25
558.771	847.25
558.984	820.25
559.196	836.25
559.409	826.25
559.621	832.25
559.833	832.25
560.046	833.25
560.258	798.25
560.47	786.25
560.683	806.25
560.895	826.25
561.107	789.25
561.32	806.25
561.532	798.25
561.744	822.25
561.956	810.25
562.168	818.25
562.381	797.25
562.593	822.25
562.805	830.25
563.017	814.25
563.229	827.25
563.441	798.25
563.653	813.25
563.865	814.25
564.077	828.25
564.289	807.25
564.501	810.25
564.713	814.25
564.925	853.25
565.137	836.25
565.349	858.25
565.561	830.25
565.773	850.25
565.985	879.25
566.197	855.25
566.408	917.25
566.62	918.25
566.832	915.25
567.044	924.25
567.255	930.25
567.467	925.25
567.679	878.25
567.891	941.25
568.102	901.25
568.314	886.25
568.526	865.25
568.737	858.25
568.949	852.25
569.161	848.25
569.372	824.25
569.584	768.25
569.795	786.25
570.007	773.25
570.218	773.25
570.43	792.25
570.641	759.25
570.853	758.25
571.064	759.25
571.276	734.25
571.487	748.25
571.698	717.25
571.91	698.25
572.121	723.25
572.333	700.25
572.544	682.25
572.755	694.25
572.966	668.25
573.178	671.25
573.389	664.25
573.6	663.25
573.811	654.25
574.023	650.25
574.234	637.25
574.445	640.25
574.656	622.25
574.867	629.25
575.078	640.25
575.289	642.25
575.501	639.25
575.712	616.25
575.923	613.25
576.134	632.25
576.345	630.25
576.556	626.25
576.767	615.25
576.978	605.25
577.188	613.25
577.399	594.25
577.61	615.25
577.821	602.25
578.032	574.25
578.243	600.25
578.454	586.25
578.665	585.25
578.875	583.25
579.086	589.25
579.297	584.25
579.508	568.25
579.718	589.25
579.929	564.25
580.14	572.25
580.35	561.25
580.561	558.25
580.772	563.25
580.982	566.25
581.193	564.25
581.403	565.25
581.614	556.25
581.825	560.25
582.035	551.25
582.246	544.25
582.456	532.25
582.667	518.25
582.877	572.25
583.087	537.25
583.298	542.25
583.508	544.25
583.719	546.25
583.929	516.25
584.139	533.25
584.35	526.25
584.56	531.25
584.77	555.25
584.981	538.25
585.191	541.25
585.401	524.25
585.611	542.25
585.821	529.25
586.032	536.25
586.242	524.25
586.452	536.25
586.662	520.25
586.872	515.25
587.082	529.25
587.292	491.25
587.502	531.25
587.713	524.25
587.923	518.25
588.133	519.25
588.343	524.25
588.553	522.25
588.762	507.25
588.972	510.25
589.182	594.25
589.392	568.25
589.602	537.25
589.812	576.25
590.022	536.25
590.232	504.25
590.441	525.25
590.651	511.25
590.861	514.25
591.071	516.25
591.281	518.25
591.49	511.25
591.7	520.25
591.91	522.25
592.119	524.25
592.329	482.25
592.539	518.25
592.748	521.25
592.958	528.25
593.167	536.25
593.377	525.25
593.587	506.25
593.796	514.25
594.006	505.25
594.215	496.25
594.424	498.25
594.634	506.25
594.843	504.25
595.053	506.25
595.262	482.25
595.472	461.25
595.681	484.25
595.89	473.25
596.1	463.25
596.309	498.25
596.518	476.25
596.727	470.25
596.937	478.25
597.146	471.25
597.355	456.25
597.564	470.25
597.774	462.25
597.983	461.25
598.192	453.25
598.401	460.25
598.61	438.25
598.819	448.25
599.028	438.25
599.237	438.25
599.446	440.25
599.655	439.25
599.864	451.25
600.073	420.25
600.282	430.25
600.491	419.25
600.7	457.25
600.909	437.25
601.118	400.25
601.327	429.25
601.536	438.25
601.745	437.25
601.953	421.25
602.162	435.25
602.371	404.25
602.58	422.25
602.789	421.25
602.997	411.25
603.206	410.25
603.415	402.25
603.623	403.25
603.832	408.25
604.041	410.25
604.249	394.25
604.458	404.25
604.666	417.25
604.875	400.25
605.084	400.25
605.292	408.25
605.501	401.25
605.709	406.25
605.918	394.25
606.126	397.25
606.334	389.25
606.543	385.25
606.751	400.25
606.96	385.25
607.168	374.25
607.376	389.25
607.585	360.25
607.793	392.25
608.001	412.25
608.21	386.25
608.418	372.25
608.626	380.25
608.834	387.25
609.043	380.25
609.251	384.25
609.459	379.25
609.667	394.25
609.875	380.25
610.083	385.25
610.291	376.25
610.499	377.25
610.707	372.25
610.916	357.25
611.124	373.25
611.332	373.25
611.54	375.25
611.748	358.25
611.955	384.25
612.163	376.25
612.371	381.25
612.579	372.25
612.787	355.25
612.995	380.25
613.203	361.25
613.411	382.25
613.618	376.25
613.826	356.25
614.034	357.25
614.242	366.25
614.449	371.25
614.657	367.25
614.865	358.25
615.072	340.25
615.28	355.25
615.488	356.25
615.695	359.25
615.903	359.25
616.111	357.25
616.318	372.25
616.526	346.25
616.733	358.25
616.941	367.25
617.148	355.25
617.356	361.25
617.563	328.25
617.771	349.25
617.978	347.25
618.185	362.25
618.393	345.25
618.6	351.25
618.807	336.25
619.015	352.25
619.222	315.25
619.429	336.25
619.637	351.25
619.844	331.25
620.051	355.25
620.258	356.25
620.466	329.25
620.673	332.25
620.88	326.25
621.087	324.25
621.294	332.25
621.501	340.25
621.708	327.25
621.915	332.25
622.122	325.25
622.329	332.25
622.536	336.25
622.743	333.25
622.95	341.25
623.157	340.25
623.364	330.25
623.571	324.25
623.778	326.25
623.985	310.25
624.192	311.25
624.399	325.25
624.606	332.25
624.812	317.25
625.019	326.25
625.226	318.25
625.433	309.25
625.639	323.25
625.846	325.25
626.053	295.25
626.259	299.25
626.466	316.25
626.673	308.25
626.879	294.25
627.086	327.25
627.293	314.25
627.499	292.25
627.706	300.25
627.912	292.25
628.119	284.25
628.325	307.25
628.532	290.25
628.738	292.25
628.945	286.25
629.151	275.25
629.357	300.25
629.564	301.25
629.77	299.25
629.976	295.25
630.183	274.25
630.389	289.25
630.595	293.25
630.802	300.25
631.008	283.25
631.214	278.25
631.42	287.25
631.627	300.25
631.833	295.25
632.039	267.25
632.245	273.25
632.451	268.25
632.657	282.25
632.863	269.25
633.069	288.25
633.275	289.25
633.481	299.25
633.688	270.25
633.893	286.25
634.099	279.25
634.305	281.25
634.511	284.25
634.717	279.25
634.923	266.25
635.129	266.25
635.335	269.25
635.541	270.25
635.747	272.25
635.952	258.25
636.158	271.25
636.364	265.25
636.57	260.25
636.775	265.25
636.981	272.25
637.187	252.25
637.392	263.25
637.598	251.25
637.804	275.25
638.009	247.25
638.215	266.25
638.421	256.25
638.626	261.25
638.832	267.25
639.037	264.25
639.243	258.25
639.448	262.25
639.654	266.25
639.859	261.25
640.065	251.25
640.27	260.25
640.475	246.25
640.681	250.25
640.886	259.25
641.091	255.25
641.297	258.25
641.502	246.25
641.707	239.25
641.913	244.25
642.118	262.25
642.323	238.25
642.528	243.25
642.733	266.25
642.939	251.25
643.144	237.25
643.349	253.25
643.554	254.25
643.759	251.25
643.964	249.25
644.169	256.25
644.374	235.25
644.579	257.25
644.784	234.25
644.989	249.25
645.194	240.25
645.399	241.25
645.604	238.25
645.809	244.25
646.014	245.25
646.219	213.25
646.423	239.25
646.628	242.25
646.833	246.25
647.038	245.25
647.243	255.25
647.447	239.25
647.652	235.25
647.857	255.25
648.062	247.25
648.266	237.25
648.471	262.25
648.676	234.25
648.88	256.25
649.085	237.25
649.289	246.25
649.494	246.25
649.698	238.25
649.903	238.25
650.107	259.25
650.312	229.25
650.516	222.25
650.721	231.25
650.925	238.25
651.13	235.25
651.334	196.25
651.539	221.25
651.743	222.25
651.947	223.25
652.152	218.25
652.356	218.25
652.56	215.25
652.764	210.25
652.969	216.25
653.173	214.25
653.377	212.25
653.581	207.25
653.785	201.25
653.99	216.25
654.194	200.25
654.398	205.25
654.602	201.25
654.806	179.25
655.01	212.25
655.214	195.25
655.418	193.25
655.622	216.25
655.826	219.25
656.03	200.25
656.234	208.25
656.438	205.25
656.642	187.25
656.846	194.25
657.049	195.25
657.253	192.25
657.457	174.25
657.661	168.25
657.865	150.25
658.068	159.25
658.272	155.25
658.476	140.25
658.68	138.25
658.883	147.25
659.087	138.25
659.291	140.25
659.494	127.25
659.698	130.25
659.901	130.25
660.105	129.25
660.309	124.25
660.512	112.25
660.716	108.25
660.919	120.25
661.123	113.25
661.326	95.25
661.53	95.25
661.733	120.25
661.936	99.25
662.14	111.25
662.343	94.25
662.546	107.25
662.75	103.25
662.953	95.25
663.156	91.25
663.36	98.25
663.563	78.25
663.766	99.25
663.969	87.25
664.173	87.25
664.376	100.25
664.579	91.25
664.782	75.25
664.985	92.25
665.188	99.25
665.391	78.25
665.594	92.25
665.797	86.25
666	93.25
666.203	94.25
666.406	77.25
666.609	80.25
666.812	83.25
667.015	84.25
667.218	84.25
667.421	86.25
667.624	82.25
667.827	83.25
668.03	86.25
668.232	77.25
668.435	83.25
668.638	77.25
668.841	70.25
669.043	88.25
669.246	97.25
669.449	90.25
669.651	82.25
669.854	73.25
670.057	87.25
670.259	83.25
670.462	74.25
670.665	86.25
670.867	87.25
671.07	91.25
671.272	86.25
671.475	80.25
671.677	94.25
671.88	70.25
672.082	86.25
672.284	81.25
672.487	87.25
672.689	88.25
672.892	87.25
