Data from Ni(NO3)2@0.25M.TitratingCurve.Agarose3%dH2O.NegLispCup.LampEnergy10.LIBS07252019_HRD10591_18-04-19-565.txt Node
Date: Thu Jul 25 18:04:19 EDT 2019
User: cochatt
Spectrometer: HR+D1059
Trigger mode: 1
Integration Time (sec): 1.000000E-1
Scans to average: 1
Electric dark correction enabled: true
Nonlinearity correction enabled: false
Boxcar width: 0
XAxis mode: Wavelengths
Number of Pixels in Spectrum: 2048
>>>>>Begin Spectral Data<<<<<
223.165	-12.31
223.4	-12.31
223.635	-12.31
223.869	-16.31
224.104	-9.31
224.338	-14.31
224.573	-16.31
224.808	-12.31
225.042	-7.31
225.277	-10.31
225.511	-19.31
225.746	-1.31
225.98	5.69
226.215	5.69
226.449	21.69
226.683	17.69
226.918	36.69
227.152	31.69
227.387	28.69
227.621	29.69
227.856	38.69
228.09	46.69
228.324	49.69
228.559	53.69
228.793	61.69
229.027	78.69
229.262	74.69
229.496	88.69
229.73	91.69
229.964	89.69
230.199	103.69
230.433	103.69
230.667	97.69
230.901	97.69
231.136	90.69
231.37	113.69
231.604	107.69
231.838	121.69
232.072	121.69
232.306	115.69
232.541	105.69
232.775	117.69
233.009	106.69
233.243	102.69
233.477	114.69
233.711	105.69
233.945	121.69
234.179	118.69
234.413	115.69
234.647	116.69
234.881	117.69
235.115	113.69
235.349	113.69
235.583	123.69
235.817	112.69
236.051	109.69
236.285	110.69
236.519	103.69
236.753	131.69
236.987	116.69
237.221	121.69
237.455	122.69
237.689	117.69
237.922	117.69
238.156	115.69
238.39	115.69
238.624	122.69
238.858	118.69
239.091	112.69
239.325	118.69
239.559	126.69
239.793	108.69
240.027	123.69
240.26	123.69
240.494	116.69
240.728	109.69
240.961	120.69
241.195	130.69
241.429	134.69
241.662	121.69
241.896	135.69
242.13	130.69
242.363	132.69
242.597	130.69
242.83	136.69
243.064	127.69
243.298	125.69
243.531	130.69
243.765	158.69
243.998	147.69
244.232	131.69
244.465	139.69
244.699	134.69
244.932	138.69
245.166	146.69
245.399	137.69
245.633	144.69
245.866	135.69
246.099	137.69
246.333	129.69
246.566	154.69
246.8	131.69
247.033	142.69
247.266	140.69
247.5	138.69
247.733	162.69
247.966	157.69
248.2	141.69
248.433	151.69
248.666	151.69
248.899	168.69
249.133	164.69
249.366	147.69
249.599	169.69
249.832	150.69
250.066	174.69
250.299	158.69
250.532	167.69
250.765	158.69
250.998	149.69
251.231	170.69
251.465	155.69
251.698	178.69
251.931	181.69
252.164	195.69
252.397	172.69
252.63	172.69
252.863	169.69
253.096	193.69
253.329	188.69
253.562	190.69
253.795	194.69
254.028	194.69
254.261	201.69
254.494	180.69
254.727	173.69
254.96	212.69
255.193	205.69
255.426	182.69
255.659	193.69
255.892	185.69
256.124	201.69
256.357	205.69
256.59	198.69
256.823	198.69
257.056	207.69
257.289	202.69
257.521	202.69
257.754	211.69
257.987	220.69
258.22	198.69
258.452	212.69
258.685	224.69
258.918	207.69
259.151	220.69
259.383	212.69
259.616	211.69
259.849	227.69
260.081	219.69
260.314	220.69
260.547	218.69
260.779	192.69
261.012	218.69
261.244	222.69
261.477	221.69
261.71	217.69
261.942	249.69
262.175	234.69
262.407	211.69
262.64	232.69
262.872	213.69
263.105	217.69
263.337	222.69
263.57	213.69
263.802	223.69
264.035	237.69
264.267	224.69
264.499	227.69
264.732	246.69
264.964	246.69
265.197	226.69
265.429	229.69
265.661	235.69
265.894	241.69
266.126	243.69
266.358	232.69
266.591	251.69
266.823	230.69
267.055	238.69
267.287	234.69
267.52	230.69
267.752	245.69
267.984	270.69
268.216	247.69
268.448	268.69
268.681	259.69
268.913	248.69
269.145	257.69
269.377	265.69
269.609	250.69
269.841	255.69
270.073	257.69
270.306	260.69
270.538	251.69
270.77	264.69
271.002	259.69
271.234	268.69
271.466	266.69
271.698	257.69
271.93	252.69
272.162	266.69
272.394	263.69
272.626	251.69
272.858	263.69
273.09	266.69
273.322	275.69
273.553	258.69
273.785	266.69
274.017	266.69
274.249	258.69
274.481	274.69
274.713	247.69
274.945	263.69
275.176	266.69
275.408	279.69
275.64	270.69
275.872	262.69
276.104	284.69
276.335	274.69
276.567	277.69
276.799	271.69
277.031	278.69
277.262	275.69
277.494	290.69
277.726	285.69
277.957	276.69
278.189	282.69
278.421	259.69
278.652	281.69
278.884	289.69
279.115	268.69
279.347	295.69
279.579	286.69
279.81	283.69
280.042	285.69
280.273	291.69
280.505	297.69
280.736	294.69
280.968	295.69
281.199	291.69
281.431	290.69
281.662	308.69
281.894	302.69
282.125	295.69
282.356	307.69
282.588	314.69
282.819	285.69
283.051	277.69
283.282	289.69
283.513	282.69
283.745	298.69
283.976	304.69
284.207	307.69
284.439	295.69
284.67	314.69
284.901	309.69
285.132	329.69
285.364	298.69
285.595	289.69
285.826	299.69
286.057	311.69
286.288	321.69
286.52	300.69
286.751	306.69
286.982	302.69
287.213	317.69
287.444	307.69
287.675	311.69
287.906	305.69
288.138	313.69
288.369	300.69
288.6	323.69
288.831	319.69
289.062	322.69
289.293	320.69
289.524	332.69
289.755	319.69
289.986	316.69
290.217	317.69
290.448	313.69
290.679	309.69
290.91	335.69
291.141	310.69
291.371	319.69
291.602	317.69
291.833	293.69
292.064	317.69
292.295	325.69
292.526	330.69
292.757	301.69
292.987	314.69
293.218	321.69
293.449	305.69
293.68	332.69
293.91	322.69
294.141	329.69
294.372	306.69
294.603	321.69
294.833	317.69
295.064	333.69
295.295	321.69
295.525	326.69
295.756	321.69
295.987	314.69
296.217	325.69
296.448	334.69
296.679	327.69
296.909	343.69
297.14	310.69
297.37	350.69
297.601	327.69
297.831	324.69
298.062	317.69
298.292	341.69
298.523	362.69
298.753	341.69
298.984	341.69
299.214	332.69
299.445	354.69
299.675	342.69
299.905	331.69
300.136	342.69
300.366	341.69
300.597	343.69
300.827	358.69
301.057	363.69
301.288	341.69
301.518	367.69
301.748	363.69
301.979	358.69
302.209	348.69
302.439	359.69
302.669	368.69
302.9	353.69
303.13	351.69
303.36	358.69
303.59	347.69
303.82	358.69
304.051	379.69
304.281	363.69
304.511	354.69
304.741	361.69
304.971	362.69
305.201	364.69
305.431	370.69
305.661	377.69
305.891	367.69
306.121	343.69
306.352	361.69
306.582	360.69
306.812	341.69
307.042	366.69
307.272	333.69
307.502	350.69
307.731	389.69
307.961	350.69
308.191	355.69
308.421	359.69
308.651	356.69
308.881	363.69
309.111	356.69
309.341	361.69
309.571	362.69
309.8	354.69
310.03	367.69
310.26	374.69
310.49	371.69
310.72	399.69
310.949	357.69
311.179	375.69
311.409	384.69
311.639	377.69
311.868	367.69
312.098	389.69
312.328	375.69
312.557	366.69
312.787	390.69
313.017	375.69
313.246	424.69
313.476	387.69
313.706	387.69
313.935	411.69
314.165	398.69
314.394	405.69
314.624	389.69
314.853	406.69
315.083	403.69
315.312	397.69
315.542	417.69
315.771	398.69
316.001	410.69
316.23	407.69
316.46	402.69
316.689	381.69
316.919	410.69
317.148	399.69
317.377	405.69
317.607	402.69
317.836	413.69
318.065	405.69
318.295	409.69
318.524	415.69
318.753	418.69
318.983	400.69
319.212	421.69
319.441	412.69
319.67	423.69
319.9	423.69
320.129	429.69
320.358	439.69
320.587	434.69
320.816	427.69
321.046	451.69
321.275	444.69
321.504	425.69
321.733	434.69
321.962	450.69
322.191	438.69
322.42	418.69
322.649	462.69
322.878	447.69
323.108	436.69
323.337	442.69
323.566	447.69
323.795	473.69
324.024	450.69
324.253	462.69
324.482	455.69
324.71	464.69
324.939	449.69
325.168	473.69
325.397	468.69
325.626	491.69
325.855	480.69
326.084	495.69
326.313	487.69
326.542	476.69
326.77	513.69
326.999	493.69
327.228	492.69
327.457	508.69
327.686	467.69
327.914	502.69
328.143	500.69
328.372	523.69
328.6	502.69
328.829	502.69
329.058	479.69
329.287	491.69
329.515	503.69
329.744	512.69
329.972	531.69
330.201	522.69
330.43	489.69
330.658	518.69
330.887	519.69
331.115	532.69
331.344	538.69
331.572	549.69
331.801	542.69
332.03	543.69
332.258	551.69
332.486	555.69
332.715	616.69
332.943	607.69
333.172	603.69
333.4	635.69
333.629	635.69
333.857	625.69
334.085	627.69
334.314	621.69
334.542	633.69
334.771	635.69
334.999	634.69
335.227	632.69
335.455	612.69
335.684	631.69
335.912	641.69
336.14	618.69
336.369	639.69
336.597	633.69
336.825	627.69
337.053	635.69
337.281	608.69
337.51	583.69
337.738	607.69
337.966	607.69
338.194	597.69
338.422	579.69
338.65	586.69
338.878	590.69
339.106	585.69
339.334	609.69
339.562	588.69
339.79	580.69
340.018	581.69
340.246	583.69
340.474	594.69
340.702	567.69
340.93	565.69
341.158	577.69
341.386	569.69
341.614	580.69
341.842	583.69
342.07	586.69
342.298	551.69
342.526	547.69
342.754	553.69
342.981	563.69
343.209	564.69
343.437	593.69
343.665	629.69
343.893	654.69
344.12	639.69
344.348	638.69
344.576	635.69
344.804	621.69
345.031	577.69
345.259	592.69
345.487	586.69
345.714	579.69
345.942	570.69
346.17	588.69
346.397	587.69
346.625	553.69
346.853	544.69
347.08	557.69
347.308	565.69
347.535	570.69
347.763	555.69
347.99	573.69
348.218	539.69
348.445	552.69
348.673	554.69
348.9	529.69
349.128	566.69
349.355	565.69
349.583	563.69
349.81	544.69
350.037	533.69
350.265	548.69
350.492	548.69
350.72	558.69
350.947	549.69
351.174	536.69
351.402	549.69
351.629	527.69
351.856	545.69
352.083	526.69
352.311	527.69
352.538	543.69
352.765	533.69
352.992	527.69
353.22	511.69
353.447	525.69
353.674	530.69
353.901	521.69
354.128	544.69
354.355	528.69
354.583	531.69
354.81	551.69
355.037	522.69
355.264	513.69
355.491	530.69
355.718	523.69
355.945	522.69
356.172	545.69
356.399	547.69
356.626	542.69
356.853	520.69
357.08	554.69
357.307	535.69
357.534	527.69
357.761	529.69
357.988	521.69
358.215	527.69
358.441	540.69
358.668	539.69
358.895	554.69
359.122	526.69
359.349	539.69
359.576	541.69
359.802	532.69
360.029	522.69
360.256	533.69
360.483	518.69
360.709	530.69
360.936	536.69
361.163	532.69
361.39	533.69
361.616	551.69
361.843	546.69
362.07	547.69
362.296	556.69
362.523	521.69
362.749	507.69
362.976	524.69
363.203	532.69
363.429	533.69
363.656	525.69
363.882	501.69
364.109	521.69
364.335	503.69
364.562	529.69
364.788	518.69
365.015	535.69
365.241	528.69
365.468	514.69
365.694	521.69
365.92	525.69
366.147	503.69
366.373	548.69
366.599	522.69
366.826	539.69
367.052	541.69
367.278	543.69
367.505	505.69
367.731	537.69
367.957	539.69
368.184	552.69
368.41	538.69
368.636	530.69
368.862	539.69
369.089	550.69
369.315	541.69
369.541	546.69
369.767	556.69
369.993	520.69
370.219	561.69
370.445	537.69
370.672	546.69
370.898	550.69
371.124	554.69
371.35	576.69
371.576	535.69
371.802	553.69
372.028	555.69
372.254	565.69
372.48	548.69
372.706	539.69
372.932	585.69
373.158	558.69
373.384	562.69
373.61	553.69
373.835	553.69
374.061	554.69
374.287	567.69
374.513	545.69
374.739	574.69
374.965	603.69
375.191	599.69
375.416	598.69
375.642	572.69
375.868	564.69
376.094	551.69
376.319	557.69
376.545	563.69
376.771	554.69
376.997	551.69
377.222	530.69
377.448	547.69
377.674	545.69
377.899	530.69
378.125	543.69
378.35	549.69
378.576	539.69
378.802	528.69
379.027	519.69
379.253	531.69
379.478	538.69
379.704	530.69
379.929	524.69
380.155	523.69
380.38	521.69
380.606	534.69
380.831	528.69
381.057	552.69
381.282	572.69
381.507	555.69
381.733	553.69
381.958	574.69
382.184	549.69
382.409	540.69
382.634	544.69
382.86	573.69
383.085	569.69
383.31	601.69
383.535	572.69
383.761	585.69
383.986	578.69
384.211	575.69
384.436	600.69
384.662	594.69
384.887	625.69
385.112	632.69
385.337	605.69
385.562	615.69
385.787	606.69
386.013	617.69
386.238	620.69
386.463	636.69
386.688	637.69
386.913	635.69
387.138	628.69
387.363	626.69
387.588	630.69
387.813	612.69
388.038	614.69
388.263	612.69
388.488	616.69
388.713	622.69
388.938	612.69
389.163	619.69
389.387	621.69
389.612	627.69
389.837	614.69
390.062	615.69
390.287	634.69
390.512	615.69
390.736	638.69
390.961	637.69
391.186	653.69
391.411	646.69
391.636	669.69
391.86	666.69
392.085	699.69
392.31	688.69
392.534	654.69
392.759	662.69
392.984	681.69
393.208	663.69
393.433	665.69
393.658	655.69
393.882	668.69
394.107	669.69
394.331	661.69
394.556	649.69
394.78	643.69
395.005	670.69
395.229	680.69
395.454	683.69
395.678	684.69
395.903	677.69
396.127	695.69
396.352	702.69
396.576	699.69
396.801	665.69
397.025	681.69
397.249	708.69
397.474	684.69
397.698	698.69
397.922	713.69
398.147	702.69
398.371	713.69
398.595	722.69
398.82	764.69
399.044	814.69
399.268	857.69
399.492	945.69
399.717	998.69
399.941	984.69
400.165	926.69
400.389	902.69
400.613	825.69
400.837	814.69
401.062	815.69
401.286	802.69
401.51	784.69
401.734	789.69
401.958	804.69
402.182	789.69
402.406	759.69
402.63	789.69
402.854	803.69
403.078	821.69
403.302	812.69
403.526	821.69
403.75	817.69
403.974	826.69
404.198	817.69
404.422	829.69
404.645	831.69
404.869	830.69
405.093	820.69
405.317	805.69
405.541	831.69
405.765	802.69
405.988	842.69
406.212	853.69
406.436	853.69
406.66	866.69
406.883	860.69
407.107	882.69
407.331	913.69
407.555	926.69
407.778	964.69
408.002	919.69
408.226	900.69
408.449	920.69
408.673	893.69
408.896	888.69
409.12	882.69
409.344	893.69
409.567	862.69
409.791	874.69
410.014	871.69
410.238	831.69
410.461	866.69
410.685	847.69
410.908	846.69
411.132	820.69
411.355	811.69
411.578	825.69
411.802	853.69
412.025	826.69
412.249	824.69
412.472	846.69
412.695	852.69
412.919	809.69
413.142	807.69
413.365	818.69
413.589	795.69
413.812	786.69
414.035	785.69
414.258	806.69
414.482	813.69
414.705	824.69
414.928	799.69
415.151	825.69
415.374	772.69
415.597	793.69
415.821	779.69
416.044	782.69
416.267	793.69
416.49	791.69
416.713	784.69
416.936	815.69
417.159	791.69
417.382	770.69
417.605	773.69
417.828	779.69
418.051	799.69
418.274	785.69
418.497	799.69
418.72	809.69
418.943	821.69
419.166	835.69
419.389	890.69
419.611	899.69
419.834	825.69
420.057	810.69
420.28	797.69
420.503	793.69
420.726	790.69
420.948	803.69
421.171	825.69
421.394	797.69
421.617	780.69
421.839	782.69
422.062	806.69
422.285	789.69
422.507	804.69
422.73	789.69
422.953	847.69
423.175	797.69
423.398	827.69
423.621	809.69
423.843	821.69
424.066	827.69
424.288	825.69
424.511	807.69
424.733	817.69
424.956	806.69
425.178	794.69
425.401	805.69
425.623	779.69
425.846	764.69
426.068	819.69
426.291	795.69
426.513	781.69
426.735	753.69
426.958	781.69
427.18	748.69
427.402	770.69
427.625	767.69
427.847	782.69
428.069	762.69
428.292	786.69
428.514	757.69
428.736	757.69
428.958	738.69
429.181	711.69
429.403	735.69
429.625	754.69
429.847	757.69
430.069	754.69
430.292	768.69
430.514	739.69
430.736	780.69
430.958	748.69
431.18	765.69
431.402	732.69
431.624	724.69
431.846	724.69
432.068	739.69
432.29	789.69
432.512	759.69
432.734	767.69
432.956	756.69
433.178	786.69
433.4	770.69
433.622	773.69
433.844	769.69
434.066	768.69
434.287	766.69
434.509	802.69
434.731	797.69
434.953	833.69
435.175	811.69
435.397	819.69
435.618	791.69
435.84	769.69
436.062	775.69
436.284	773.69
436.505	750.69
436.727	787.69
436.949	776.69
437.17	764.69
437.392	746.69
437.614	777.69
437.835	735.69
438.057	744.69
438.278	726.69
438.5	735.69
438.721	748.69
438.943	763.69
439.165	737.69
439.386	737.69
439.608	775.69
439.829	790.69
440.05	771.69
440.272	765.69
440.493	777.69
440.715	801.69
440.936	789.69
441.158	787.69
441.379	810.69
441.6	846.69
441.822	853.69
442.043	833.69
442.264	837.69
442.486	833.69
442.707	821.69
442.928	817.69
443.149	830.69
443.371	831.69
443.592	854.69
443.813	835.69
444.034	846.69
444.255	855.69
444.476	873.69
444.698	900.69
444.919	909.69
445.14	985.69
445.361	899.69
445.582	850.69
445.803	833.69
446.024	799.69
446.245	814.69
446.466	799.69
446.687	792.69
446.908	795.69
447.129	766.69
447.35	739.69
447.571	731.69
447.792	724.69
448.013	748.69
448.234	756.69
448.455	725.69
448.675	718.69
448.896	744.69
449.117	726.69
449.338	736.69
449.559	714.69
449.779	734.69
450	721.69
450.221	750.69
450.442	715.69
450.662	730.69
450.883	708.69
451.104	734.69
451.324	743.69
451.545	731.69
451.766	733.69
451.986	698.69
452.207	693.69
452.428	710.69
452.648	705.69
452.869	706.69
453.089	679.69
453.31	684.69
453.53	677.69
453.751	684.69
453.971	701.69
454.192	674.69
454.412	681.69
454.633	682.69
454.853	686.69
455.073	687.69
455.294	641.69
455.514	676.69
455.734	711.69
455.955	674.69
456.175	665.69
456.395	667.69
456.616	654.69
456.836	663.69
457.056	675.69
457.276	678.69
457.497	685.69
457.717	689.69
457.937	696.69
458.157	681.69
458.377	704.69
458.598	705.69
458.818	715.69
459.038	717.69
459.258	750.69
459.478	746.69
459.698	778.69
459.918	805.69
460.138	841.69
460.358	831.69
460.578	838.69
460.798	876.69
461.018	871.69
461.238	860.69
461.458	893.69
461.678	887.69
461.898	866.69
462.118	905.69
462.338	899.69
462.558	954.69
462.777	985.69
462.997	1005.69
463.217	1073.69
463.437	1043.69
463.657	1005.69
463.876	987.69
464.096	950.69
464.316	957.69
464.536	949.69
464.755	903.69
464.975	915.69
465.195	858.69
465.414	810.69
465.634	809.69
465.854	797.69
466.073	801.69
466.293	770.69
466.512	764.69
466.732	743.69
466.951	766.69
467.171	757.69
467.391	746.69
467.61	727.69
467.829	727.69
468.049	775.69
468.268	726.69
468.488	723.69
468.707	746.69
468.927	740.69
469.146	745.69
469.365	745.69
469.585	744.69
469.804	769.69
470.023	749.69
470.243	734.69
470.462	763.69
470.681	781.69
470.901	779.69
471.12	778.69
471.339	751.69
471.558	732.69
471.777	735.69
471.997	745.69
472.216	739.69
472.435	734.69
472.654	708.69
472.873	708.69
473.092	718.69
473.311	710.69
473.53	725.69
473.749	730.69
473.968	759.69
474.187	707.69
474.406	719.69
474.625	718.69
474.844	738.69
475.063	707.69
475.282	724.69
475.501	708.69
475.72	733.69
475.939	750.69
476.158	740.69
476.377	734.69
476.596	739.69
476.814	772.69
477.033	756.69
477.252	753.69
477.471	772.69
477.69	788.69
477.908	814.69
478.127	823.69
478.346	831.69
478.564	853.69
478.783	854.69
479.002	872.69
479.22	877.69
479.439	853.69
479.658	857.69
479.876	854.69
480.095	868.69
480.313	881.69
480.532	884.69
480.751	901.69
480.969	824.69
481.188	862.69
481.406	850.69
481.624	806.69
481.843	815.69
482.061	814.69
482.28	817.69
482.498	839.69
482.717	801.69
482.935	832.69
483.153	838.69
483.372	842.69
483.59	822.69
483.808	795.69
484.027	837.69
484.245	835.69
484.463	830.69
484.681	857.69
484.9	845.69
485.118	834.69
485.336	842.69
485.554	824.69
485.772	844.69
485.99	843.69
486.209	884.69
486.427	846.69
486.645	823.69
486.863	840.69
487.081	850.69
487.299	868.69
487.517	863.69
487.735	881.69
487.953	870.69
488.171	871.69
488.389	874.69
488.607	852.69
488.825	828.69
489.043	836.69
489.261	843.69
489.479	864.69
489.696	871.69
489.914	874.69
490.132	867.69
490.35	867.69
490.568	866.69
490.786	895.69
491.003	890.69
491.221	917.69
491.439	892.69
491.657	890.69
491.874	905.69
492.092	914.69
492.31	921.69
492.527	924.69
492.745	956.69
492.963	906.69
493.18	915.69
493.398	915.69
493.615	885.69
493.833	924.69
494.05	897.69
494.268	921.69
494.485	919.69
494.703	927.69
494.92	939.69
495.138	942.69
495.355	950.69
495.573	948.69
495.79	969.69
496.008	963.69
496.225	964.69
496.442	1002.69
496.66	996.69
496.877	1009.69
497.094	1028.69
497.312	1026.69
497.529	1028.69
497.746	1037.69
497.963	1077.69
498.181	1117.69
498.398	1164.69
498.615	1209.69
498.832	1228.69
499.049	1314.69
499.267	1367.69
499.484	1488.69
499.701	1581.69
499.918	1684.69
500.135	1817.69
500.352	1951.69
500.569	1996.69
500.786	1973.69
501.003	1912.69
501.22	1813.69
501.437	1659.69
501.654	1529.69
501.871	1464.69
502.088	1368.69
502.305	1305.69
502.522	1269.69
502.739	1231.69
502.956	1169.69
503.172	1132.69
503.389	1135.69
503.606	1074.69
503.823	1049.69
504.04	1035.69
504.256	1061.69
504.473	1045.69
504.69	1018.69
504.907	991.69
505.123	960.69
505.34	958.69
505.557	917.69
505.773	906.69
505.99	902.69
506.207	882.69
506.423	878.69
506.64	855.69
506.856	849.69
507.073	833.69
507.289	847.69
507.506	830.69
507.722	841.69
507.939	804.69
508.155	817.69
508.372	810.69
508.588	812.69
508.805	802.69
509.021	819.69
509.238	799.69
509.454	761.69
509.67	770.69
509.887	762.69
510.103	758.69
510.319	773.69
510.536	769.69
510.752	775.69
510.968	761.69
511.184	779.69
511.401	759.69
511.617	760.69
511.833	777.69
512.049	744.69
512.265	760.69
512.481	756.69
512.698	777.69
512.914	743.69
513.13	747.69
513.346	731.69
513.562	734.69
513.778	765.69
513.994	757.69
514.21	760.69
514.426	773.69
514.642	763.69
514.858	777.69
515.074	780.69
515.29	781.69
515.506	821.69
515.721	779.69
515.937	783.69
516.153	776.69
516.369	846.69
516.585	825.69
516.801	846.69
517.016	858.69
517.232	896.69
517.448	887.69
517.664	934.69
517.879	919.69
518.095	911.69
518.311	903.69
518.527	899.69
518.742	892.69
518.958	846.69
519.173	841.69
519.389	841.69
519.605	834.69
519.82	783.69
520.036	776.69
520.251	765.69
520.467	746.69
520.682	769.69
520.898	769.69
521.113	734.69
521.329	728.69
521.544	738.69
521.76	740.69
521.975	724.69
522.19	719.69
522.406	714.69
522.621	680.69
522.836	701.69
523.052	677.69
523.267	710.69
523.482	693.69
523.698	710.69
523.913	707.69
524.128	688.69
524.343	685.69
524.559	703.69
524.774	687.69
524.989	713.69
525.204	710.69
525.419	724.69
525.634	656.69
525.849	688.69
526.064	693.69
526.28	655.69
526.495	686.69
526.71	675.69
526.925	647.69
527.14	664.69
527.355	651.69
527.57	657.69
527.785	671.69
527.999	703.69
528.214	691.69
528.429	689.69
528.644	658.69
528.859	673.69
529.074	701.69
529.289	689.69
529.503	685.69
529.718	698.69
529.933	659.69
530.148	666.69
530.363	675.69
530.577	670.69
530.792	647.69
531.007	662.69
531.221	648.69
531.436	646.69
531.651	656.69
531.865	645.69
532.08	680.69
532.295	651.69
532.509	655.69
532.724	643.69
532.938	653.69
533.153	647.69
533.367	651.69
533.582	644.69
533.796	625.69
534.011	649.69
534.225	658.69
534.44	653.69
534.654	649.69
534.868	653.69
535.083	661.69
535.297	645.69
535.511	606.69
535.726	636.69
535.94	668.69
536.154	630.69
536.369	649.69
536.583	633.69
536.797	633.69
537.011	624.69
537.225	610.69
537.44	621.69
537.654	634.69
537.868	601.69
538.082	613.69
538.296	622.69
538.51	632.69
538.724	643.69
538.938	623.69
539.153	614.69
539.367	622.69
539.581	612.69
539.795	599.69
540.009	607.69
540.222	604.69
540.436	587.69
540.65	622.69
540.864	619.69
541.078	618.69
541.292	630.69
541.506	613.69
541.72	603.69
541.934	659.69
542.147	626.69
542.361	621.69
542.575	629.69
542.789	631.69
543.002	603.69
543.216	606.69
543.43	599.69
543.644	598.69
543.857	621.69
544.071	628.69
544.285	637.69
544.498	638.69
544.712	618.69
544.925	637.69
545.139	621.69
545.352	623.69
545.566	642.69
545.779	601.69
545.993	643.69
546.206	609.69
546.42	633.69
546.633	617.69
546.847	609.69
547.06	603.69
547.274	608.69
547.487	623.69
547.7	636.69
547.914	622.69
548.127	634.69
548.34	652.69
548.554	626.69
548.767	629.69
548.98	596.69
549.193	629.69
549.407	633.69
549.62	620.69
549.833	643.69
550.046	660.69
550.259	641.69
550.473	625.69
550.686	606.69
550.899	614.69
551.112	599.69
551.325	618.69
551.538	608.69
551.751	603.69
551.964	596.69
552.177	612.69
552.39	654.69
552.603	623.69
552.816	641.69
553.029	633.69
553.242	636.69
553.455	645.69
553.667	641.69
553.88	641.69
554.093	630.69
554.306	651.69
554.519	603.69
554.732	631.69
554.944	599.69
555.157	590.69
555.37	594.69
555.583	587.69
555.795	569.69
556.008	563.69
556.221	585.69
556.433	570.69
556.646	561.69
556.859	554.69
557.071	548.69
557.284	540.69
557.496	524.69
557.709	556.69
557.921	545.69
558.134	535.69
558.346	539.69
558.559	542.69
558.771	549.69
558.984	520.69
559.196	527.69
559.409	550.69
559.621	532.69
559.833	517.69
560.046	530.69
560.258	517.69
560.47	516.69
560.683	522.69
560.895	511.69
561.107	514.69
561.32	507.69
561.532	537.69
561.744	533.69
561.956	534.69
562.168	535.69
562.381	530.69
562.593	526.69
562.805	547.69
563.017	538.69
563.229	530.69
563.441	508.69
563.653	535.69
563.865	541.69
564.077	513.69
564.289	538.69
564.501	558.69
564.713	551.69
564.925	571.69
565.137	542.69
565.349	581.69
565.561	577.69
565.773	600.69
565.985	605.69
566.197	613.69
566.408	659.69
566.62	679.69
566.832	675.69
567.044	716.69
567.255	693.69
567.467	741.69
567.679	739.69
567.891	766.69
568.102	742.69
568.314	730.69
568.526	684.69
568.737	661.69
568.949	634.69
569.161	602.69
569.372	565.69
569.584	571.69
569.795	536.69
570.007	526.69
570.218	511.69
570.43	531.69
570.641	508.69
570.853	494.69
571.064	525.69
571.276	516.69
571.487	488.69
571.698	486.69
571.91	475.69
572.121	481.69
572.333	491.69
572.544	458.69
572.755	465.69
572.966	445.69
573.178	438.69
573.389	421.69
573.6	423.69
573.811	428.69
574.023	437.69
574.234	425.69
574.445	413.69
574.656	409.69
574.867	425.69
575.078	423.69
575.289	423.69
575.501	420.69
575.712	420.69
575.923	422.69
576.134	414.69
576.345	396.69
576.556	396.69
576.767	408.69
576.978	403.69
577.188	395.69
577.399	409.69
577.61	398.69
577.821	373.69
578.032	389.69
578.243	408.69
578.454	393.69
578.665	386.69
578.875	403.69
579.086	388.69
579.297	387.69
579.508	373.69
579.718	380.69
579.929	370.69
580.14	383.69
580.35	362.69
580.561	371.69
580.772	374.69
580.982	359.69
581.193	369.69
581.403	365.69
581.614	363.69
581.825	375.69
582.035	385.69
582.246	358.69
582.456	353.69
582.667	357.69
582.877	376.69
583.087	348.69
583.298	343.69
583.508	352.69
583.719	353.69
583.929	365.69
584.139	344.69
584.35	333.69
584.56	361.69
584.77	319.69
584.981	357.69
585.191	361.69
585.401	354.69
585.611	346.69
585.821	354.69
586.032	340.69
586.242	334.69
586.452	345.69
586.662	352.69
586.872	339.69
587.082	350.69
587.292	356.69
587.502	344.69
587.713	354.69
587.923	335.69
588.133	345.69
588.343	351.69
588.553	341.69
588.762	343.69
588.972	345.69
589.182	359.69
589.392	348.69
589.602	340.69
589.812	356.69
590.022	358.69
590.232	337.69
590.441	340.69
590.651	343.69
590.861	348.69
591.071	341.69
591.281	344.69
591.49	349.69
591.7	338.69
591.91	349.69
592.119	356.69
592.329	360.69
592.539	369.69
592.748	371.69
592.958	388.69
593.167	375.69
593.377	379.69
593.587	392.69
593.796	381.69
594.006	409.69
594.215	380.69
594.424	389.69
594.634	381.69
594.843	375.69
595.053	389.69
595.262	342.69
595.472	346.69
595.681	346.69
595.89	334.69
596.1	332.69
596.309	332.69
596.518	334.69
596.727	332.69
596.937	309.69
597.146	309.69
597.355	331.69
597.564	319.69
597.774	301.69
597.983	316.69
598.192	290.69
598.401	302.69
598.61	310.69
598.819	305.69
599.028	315.69
599.237	302.69
599.446	311.69
599.655	300.69
599.864	287.69
600.073	291.69
600.282	306.69
600.491	290.69
600.7	305.69
600.909	279.69
601.118	294.69
601.327	285.69
601.536	308.69
601.745	282.69
601.953	296.69
602.162	287.69
602.371	277.69
602.58	268.69
602.789	292.69
602.997	280.69
603.206	271.69
603.415	271.69
603.623	290.69
603.832	276.69
604.041	275.69
604.249	265.69
604.458	276.69
604.666	276.69
604.875	275.69
605.084	275.69
605.292	257.69
605.501	282.69
605.709	272.69
605.918	260.69
606.126	262.69
606.334	280.69
606.543	274.69
606.751	271.69
606.96	271.69
607.168	261.69
607.376	243.69
607.585	276.69
607.793	278.69
608.001	268.69
608.21	253.69
608.418	281.69
608.626	260.69
608.834	273.69
609.043	277.69
609.251	251.69
609.459	259.69
609.667	258.69
609.875	268.69
610.083	257.69
610.291	263.69
610.499	263.69
610.707	263.69
610.916	243.69
611.124	274.69
611.332	260.69
611.54	257.69
611.748	268.69
611.955	259.69
612.163	244.69
612.371	285.69
612.579	247.69
612.787	253.69
612.995	258.69
613.203	265.69
613.411	265.69
613.618	233.69
613.826	245.69
614.034	261.69
614.242	262.69
614.449	246.69
614.657	259.69
614.865	266.69
615.072	266.69
615.28	263.69
615.488	257.69
615.695	230.69
615.903	255.69
616.111	265.69
616.318	258.69
616.526	278.69
616.733	245.69
616.941	239.69
617.148	269.69
617.356	256.69
617.563	244.69
617.771	241.69
617.978	255.69
618.185	242.69
618.393	253.69
618.6	239.69
618.807	235.69
619.015	269.69
619.222	239.69
619.429	258.69
619.637	236.69
619.844	234.69
620.051	238.69
620.258	235.69
620.466	230.69
620.673	235.69
620.88	239.69
621.087	245.69
621.294	240.69
621.501	243.69
621.708	234.69
621.915	227.69
622.122	234.69
622.329	244.69
622.536	241.69
622.743	207.69
622.95	215.69
623.157	230.69
623.364	235.69
623.571	241.69
623.778	229.69
623.985	227.69
624.192	211.69
624.399	214.69
624.606	236.69
624.812	238.69
625.019	235.69
625.226	228.69
625.433	217.69
625.639	227.69
625.846	225.69
626.053	204.69
626.259	207.69
626.466	227.69
626.673	211.69
626.879	207.69
627.086	209.69
627.293	197.69
627.499	217.69
627.706	197.69
627.912	197.69
628.119	212.69
628.325	230.69
628.532	210.69
628.738	212.69
628.945	228.69
629.151	197.69
629.357	201.69
629.564	217.69
629.77	201.69
629.976	224.69
630.183	198.69
630.389	192.69
630.595	211.69
630.802	201.69
631.008	189.69
631.214	203.69
631.42	214.69
631.627	214.69
631.833	202.69
632.039	190.69
632.245	211.69
632.451	191.69
632.657	199.69
632.863	213.69
633.069	192.69
633.275	188.69
633.481	189.69
633.688	209.69
633.893	195.69
634.099	211.69
634.305	191.69
634.511	206.69
634.717	186.69
634.923	194.69
635.129	189.69
635.335	189.69
635.541	181.69
635.747	207.69
635.952	206.69
636.158	206.69
636.364	191.69
636.57	169.69
636.775	172.69
636.981	190.69
637.187	184.69
637.392	188.69
637.598	184.69
637.804	175.69
638.009	191.69
638.215	190.69
638.421	184.69
638.626	181.69
638.832	166.69
639.037	168.69
639.243	178.69
639.448	187.69
639.654	182.69
639.859	191.69
640.065	170.69
640.27	191.69
640.475	183.69
640.681	177.69
640.886	184.69
641.091	191.69
641.297	181.69
641.502	179.69
641.707	180.69
641.913	188.69
642.118	178.69
642.323	178.69
642.528	198.69
642.733	187.69
642.939	174.69
643.144	177.69
643.349	192.69
643.554	182.69
643.759	180.69
643.964	173.69
644.169	164.69
644.374	171.69
644.579	165.69
644.784	189.69
644.989	192.69
645.194	179.69
645.399	189.69
645.604	169.69
645.809	173.69
646.014	158.69
646.219	167.69
646.423	175.69
646.628	173.69
646.833	179.69
647.038	169.69
647.243	174.69
647.447	167.69
647.652	185.69
647.857	171.69
648.062	178.69
648.266	177.69
648.471	173.69
648.676	184.69
648.88	184.69
649.085	170.69
649.289	166.69
649.494	154.69
649.698	163.69
649.903	167.69
650.107	176.69
650.312	173.69
650.516	166.69
650.721	167.69
650.925	157.69
651.13	177.69
651.334	157.69
651.539	156.69
651.743	184.69
651.947	161.69
652.152	164.69
652.356	155.69
652.56	154.69
652.764	164.69
652.969	149.69
653.173	130.69
653.377	130.69
653.581	146.69
653.785	153.69
653.99	132.69
654.194	145.69
654.398	148.69
654.602	133.69
654.806	143.69
655.01	143.69
655.214	132.69
655.418	125.69
655.622	133.69
655.826	129.69
656.03	133.69
656.234	115.69
656.438	124.69
656.642	139.69
656.846	130.69
657.049	133.69
657.253	133.69
657.457	121.69
657.661	129.69
657.865	115.69
658.068	106.69
658.272	119.69
658.476	115.69
658.68	125.69
658.883	106.69
659.087	100.69
659.291	107.69
659.494	116.69
659.698	107.69
659.901	106.69
660.105	107.69
660.309	93.69
660.512	109.69
660.716	95.69
660.919	91.69
661.123	88.69
661.326	101.69
661.53	90.69
661.733	92.69
661.936	102.69
662.14	90.69
662.343	85.69
662.546	90.69
662.75	83.69
662.953	93.69
663.156	98.69
663.36	73.69
663.563	88.69
663.766	106.69
663.969	82.69
664.173	88.69
664.376	76.69
664.579	89.69
664.782	96.69
664.985	93.69
665.188	77.69
665.391	90.69
665.594	88.69
665.797	70.69
666	78.69
666.203	84.69
666.406	81.69
666.609	90.69
666.812	95.69
667.015	64.69
667.218	82.69
667.421	78.69
667.624	85.69
667.827	96.69
668.03	81.69
668.232	83.69
668.435	86.69
668.638	75.69
668.841	76.69
669.043	77.69
669.246	92.69
669.449	83.69
669.651	77.69
669.854	87.69
670.057	85.69
670.259	91.69
670.462	90.69
670.665	78.69
670.867	78.69
671.07	97.69
671.272	85.69
671.475	93.69
671.677	79.69
671.88	79.69
672.082	85.69
672.284	97.69
672.487	101.69
672.689	73.69
672.892	87.69
