Data from Ni(NO3)2Standard.Agarose3%.GreenCap.LampEnergy5.5.E.O_HRD10591_14-40-00-188.txt Node
Date: Mon Jul 22 14:40:00 EDT 2019
User: cochatt
Spectrometer: HR+D1059
Trigger mode: 1
Integration Time (sec): 1.000000E-1
Scans to average: 1
Electric dark correction enabled: true
Nonlinearity correction enabled: false
Boxcar width: 0
XAxis mode: Wavelengths
Number of Pixels in Spectrum: 2048
>>>>>Begin Spectral Data<<<<<
223.165	-12.62
223.4	-12.62
223.635	-12.62
223.869	-23.62
224.104	-29.62
224.338	-12.62
224.573	-16.62
224.808	-7.62
225.042	-4.62
225.277	-9.62
225.511	4.38
225.746	9.38
225.98	5.38
226.215	13.38
226.449	19.38
226.683	7.38
226.918	26.38
227.152	31.38
227.387	40.38
227.621	45.38
227.856	42.38
228.09	52.38
228.324	61.38
228.559	54.38
228.793	61.38
229.027	58.38
229.262	64.38
229.496	67.38
229.73	66.38
229.964	75.38
230.199	60.38
230.433	70.38
230.667	93.38
230.901	75.38
231.136	76.38
231.37	71.38
231.604	74.38
231.838	75.38
232.072	63.38
232.306	95.38
232.541	68.38
232.775	75.38
233.009	74.38
233.243	84.38
233.477	73.38
233.711	92.38
233.945	84.38
234.179	73.38
234.413	76.38
234.647	79.38
234.881	82.38
235.115	85.38
235.349	78.38
235.583	69.38
235.817	75.38
236.051	78.38
236.285	80.38
236.519	59.38
236.753	84.38
236.987	72.38
237.221	85.38
237.455	92.38
237.689	73.38
237.922	80.38
238.156	86.38
238.39	75.38
238.624	74.38
238.858	89.38
239.091	84.38
239.325	58.38
239.559	70.38
239.793	69.38
240.027	82.38
240.26	77.38
240.494	77.38
240.728	74.38
240.961	81.38
241.195	86.38
241.429	74.38
241.662	72.38
241.896	74.38
242.13	68.38
242.363	62.38
242.597	83.38
242.83	75.38
243.064	72.38
243.298	84.38
243.531	69.38
243.765	72.38
243.998	83.38
244.232	89.38
244.465	81.38
244.699	81.38
244.932	82.38
245.166	86.38
245.399	84.38
245.633	69.38
245.866	83.38
246.099	72.38
246.333	84.38
246.566	81.38
246.8	99.38
247.033	87.38
247.266	73.38
247.5	88.38
247.733	81.38
247.966	74.38
248.2	86.38
248.433	88.38
248.666	80.38
248.899	84.38
249.133	77.38
249.366	82.38
249.599	74.38
249.832	68.38
250.066	81.38
250.299	60.38
250.532	77.38
250.765	74.38
250.998	69.38
251.231	76.38
251.465	89.38
251.698	102.38
251.931	71.38
252.164	67.38
252.397	73.38
252.63	82.38
252.863	63.38
253.096	90.38
253.329	88.38
253.562	71.38
253.795	73.38
254.028	82.38
254.261	83.38
254.494	92.38
254.727	88.38
254.96	72.38
255.193	70.38
255.426	93.38
255.659	76.38
255.892	95.38
256.124	73.38
256.357	73.38
256.59	92.38
256.823	93.38
257.056	71.38
257.289	75.38
257.521	82.38
257.754	91.38
257.987	87.38
258.22	75.38
258.452	84.38
258.685	84.38
258.918	80.38
259.151	80.38
259.383	80.38
259.616	76.38
259.849	75.38
260.081	98.38
260.314	71.38
260.547	76.38
260.779	89.38
261.012	75.38
261.244	78.38
261.477	85.38
261.71	90.38
261.942	77.38
262.175	86.38
262.407	77.38
262.64	84.38
262.872	84.38
263.105	85.38
263.337	76.38
263.57	87.38
263.802	88.38
264.035	76.38
264.267	95.38
264.499	85.38
264.732	88.38
264.964	89.38
265.197	83.38
265.429	97.38
265.661	93.38
265.894	74.38
266.126	72.38
266.358	97.38
266.591	90.38
266.823	84.38
267.055	92.38
267.287	83.38
267.52	75.38
267.752	85.38
267.984	92.38
268.216	90.38
268.448	76.38
268.681	67.38
268.913	74.38
269.145	90.38
269.377	82.38
269.609	84.38
269.841	96.38
270.073	84.38
270.306	79.38
270.538	75.38
270.77	80.38
271.002	79.38
271.234	85.38
271.466	89.38
271.698	85.38
271.93	89.38
272.162	86.38
272.394	72.38
272.626	82.38
272.858	74.38
273.09	88.38
273.322	74.38
273.553	97.38
273.785	89.38
274.017	96.38
274.249	89.38
274.481	73.38
274.713	82.38
274.945	76.38
275.176	77.38
275.408	97.38
275.64	81.38
275.872	82.38
276.104	75.38
276.335	80.38
276.567	78.38
276.799	85.38
277.031	77.38
277.262	82.38
277.494	80.38
277.726	89.38
277.957	83.38
278.189	75.38
278.421	92.38
278.652	90.38
278.884	86.38
279.115	89.38
279.347	88.38
279.579	91.38
279.81	84.38
280.042	92.38
280.273	73.38
280.505	83.38
280.736	73.38
280.968	92.38
281.199	85.38
281.431	90.38
281.662	84.38
281.894	87.38
282.125	87.38
282.356	88.38
282.588	77.38
282.819	84.38
283.051	71.38
283.282	91.38
283.513	82.38
283.745	87.38
283.976	84.38
284.207	77.38
284.439	83.38
284.67	96.38
284.901	78.38
285.132	95.38
285.364	70.38
285.595	91.38
285.826	89.38
286.057	72.38
286.288	85.38
286.52	102.38
286.751	91.38
286.982	77.38
287.213	80.38
287.444	74.38
287.675	75.38
287.906	88.38
288.138	88.38
288.369	70.38
288.6	91.38
288.831	89.38
289.062	80.38
289.293	72.38
289.524	88.38
289.755	91.38
289.986	81.38
290.217	72.38
290.448	88.38
290.679	76.38
290.91	100.38
291.141	79.38
291.371	88.38
291.602	77.38
291.833	84.38
292.064	91.38
292.295	89.38
292.526	90.38
292.757	69.38
292.987	83.38
293.218	74.38
293.449	87.38
293.68	102.38
293.91	84.38
294.141	78.38
294.372	84.38
294.603	75.38
294.833	77.38
295.064	74.38
295.295	78.38
295.525	81.38
295.756	96.38
295.987	72.38
296.217	95.38
296.448	95.38
296.679	99.38
296.909	69.38
297.14	81.38
297.37	90.38
297.601	79.38
297.831	76.38
298.062	93.38
298.292	90.38
298.523	91.38
298.753	86.38
298.984	81.38
299.214	80.38
299.445	78.38
299.675	82.38
299.905	85.38
300.136	85.38
300.366	75.38
300.597	88.38
300.827	81.38
301.057	85.38
301.288	93.38
301.518	96.38
301.748	97.38
301.979	88.38
302.209	77.38
302.439	64.38
302.669	84.38
302.9	86.38
303.13	72.38
303.36	91.38
303.59	96.38
303.82	92.38
304.051	103.38
304.281	98.38
304.511	81.38
304.741	89.38
304.971	75.38
305.201	95.38
305.431	83.38
305.661	105.38
305.891	84.38
306.121	103.38
306.352	85.38
306.582	78.38
306.812	93.38
307.042	87.38
307.272	100.38
307.502	85.38
307.731	77.38
307.961	78.38
308.191	87.38
308.421	100.38
308.651	91.38
308.881	89.38
309.111	96.38
309.341	85.38
309.571	80.38
309.8	82.38
310.03	87.38
310.26	68.38
310.49	85.38
310.72	79.38
310.949	78.38
311.179	100.38
311.409	84.38
311.639	87.38
311.868	87.38
312.098	101.38
312.328	84.38
312.557	78.38
312.787	79.38
313.017	87.38
313.246	92.38
313.476	79.38
313.706	82.38
313.935	87.38
314.165	69.38
314.394	78.38
314.624	89.38
314.853	85.38
315.083	76.38
315.312	90.38
315.542	79.38
315.771	93.38
316.001	76.38
316.23	94.38
316.46	84.38
316.689	90.38
316.919	88.38
317.148	81.38
317.377	86.38
317.607	80.38
317.836	76.38
318.065	85.38
318.295	83.38
318.524	94.38
318.753	73.38
318.983	82.38
319.212	86.38
319.441	81.38
319.67	80.38
319.9	87.38
320.129	77.38
320.358	91.38
320.587	89.38
320.816	83.38
321.046	71.38
321.275	82.38
321.504	75.38
321.733	74.38
321.962	80.38
322.191	99.38
322.42	80.38
322.649	93.38
322.878	73.38
323.108	84.38
323.337	85.38
323.566	93.38
323.795	84.38
324.024	78.38
324.253	86.38
324.482	87.38
324.71	88.38
324.939	89.38
325.168	107.38
325.397	77.38
325.626	76.38
325.855	75.38
326.084	94.38
326.313	85.38
326.542	99.38
326.77	89.38
326.999	85.38
327.228	93.38
327.457	84.38
327.686	80.38
327.914	89.38
328.143	70.38
328.372	94.38
328.6	77.38
328.829	96.38
329.058	85.38
329.287	83.38
329.515	89.38
329.744	86.38
329.972	90.38
330.201	97.38
330.43	77.38
330.658	84.38
330.887	79.38
331.115	104.38
331.344	81.38
331.572	95.38
331.801	87.38
332.03	90.38
332.258	97.38
332.486	93.38
332.715	85.38
332.943	88.38
333.172	83.38
333.4	97.38
333.629	64.38
333.857	88.38
334.085	95.38
334.314	88.38
334.542	87.38
334.771	80.38
334.999	77.38
335.227	91.38
335.455	85.38
335.684	94.38
335.912	82.38
336.14	95.38
336.369	84.38
336.597	97.38
336.825	87.38
337.053	66.38
337.281	74.38
337.51	91.38
337.738	88.38
337.966	70.38
338.194	91.38
338.422	76.38
338.65	81.38
338.878	74.38
339.106	96.38
339.334	86.38
339.562	90.38
339.79	91.38
340.018	88.38
340.246	97.38
340.474	79.38
340.702	90.38
340.93	102.38
341.158	83.38
341.386	86.38
341.614	97.38
341.842	70.38
342.07	71.38
342.298	90.38
342.526	81.38
342.754	95.38
342.981	87.38
343.209	82.38
343.437	98.38
343.665	89.38
343.893	66.38
344.12	81.38
344.348	76.38
344.576	81.38
344.804	85.38
345.031	82.38
345.259	79.38
345.487	89.38
345.714	83.38
345.942	90.38
346.17	97.38
346.397	96.38
346.625	80.38
346.853	86.38
347.08	85.38
347.308	93.38
347.535	84.38
347.763	90.38
347.99	90.38
348.218	76.38
348.445	92.38
348.673	91.38
348.9	86.38
349.128	92.38
349.355	92.38
349.583	90.38
349.81	85.38
350.037	88.38
350.265	98.38
350.492	94.38
350.72	72.38
350.947	92.38
351.174	88.38
351.402	84.38
351.629	84.38
351.856	89.38
352.083	79.38
352.311	71.38
352.538	92.38
352.765	103.38
352.992	87.38
353.22	92.38
353.447	89.38
353.674	75.38
353.901	83.38
354.128	84.38
354.355	76.38
354.583	92.38
354.81	91.38
355.037	93.38
355.264	84.38
355.491	97.38
355.718	88.38
355.945	101.38
356.172	74.38
356.399	95.38
356.626	83.38
356.853	94.38
357.08	84.38
357.307	85.38
357.534	90.38
357.761	92.38
357.988	80.38
358.215	93.38
358.441	84.38
358.668	84.38
358.895	89.38
359.122	95.38
359.349	72.38
359.576	84.38
359.802	69.38
360.029	92.38
360.256	91.38
360.483	86.38
360.709	87.38
360.936	108.38
361.163	99.38
361.39	95.38
361.616	92.38
361.843	85.38
362.07	81.38
362.296	94.38
362.523	93.38
362.749	96.38
362.976	76.38
363.203	91.38
363.429	87.38
363.656	86.38
363.882	85.38
364.109	91.38
364.335	95.38
364.562	83.38
364.788	68.38
365.015	89.38
365.241	90.38
365.468	75.38
365.694	81.38
365.92	79.38
366.147	80.38
366.373	82.38
366.599	92.38
366.826	93.38
367.052	79.38
367.278	92.38
367.505	82.38
367.731	71.38
367.957	74.38
368.184	88.38
368.41	76.38
368.636	74.38
368.862	75.38
369.089	85.38
369.315	93.38
369.541	102.38
369.767	90.38
369.993	78.38
370.219	79.38
370.445	75.38
370.672	69.38
370.898	87.38
371.124	88.38
371.35	75.38
371.576	92.38
371.802	79.38
372.028	96.38
372.254	81.38
372.48	90.38
372.706	85.38
372.932	94.38
373.158	83.38
373.384	73.38
373.61	99.38
373.835	88.38
374.061	74.38
374.287	74.38
374.513	90.38
374.739	78.38
374.965	83.38
375.191	92.38
375.416	97.38
375.642	80.38
375.868	84.38
376.094	83.38
376.319	86.38
376.545	83.38
376.771	84.38
376.997	102.38
377.222	93.38
377.448	87.38
377.674	81.38
377.899	89.38
378.125	70.38
378.35	78.38
378.576	73.38
378.802	84.38
379.027	82.38
379.253	80.38
379.478	89.38
379.704	93.38
379.929	88.38
380.155	83.38
380.38	88.38
380.606	88.38
380.831	96.38
381.057	102.38
381.282	89.38
381.507	82.38
381.733	69.38
381.958	82.38
382.184	75.38
382.409	78.38
382.634	82.38
382.86	79.38
383.085	87.38
383.31	88.38
383.535	76.38
383.761	80.38
383.986	84.38
384.211	91.38
384.436	88.38
384.662	76.38
384.887	87.38
385.112	83.38
385.337	81.38
385.562	81.38
385.787	86.38
386.013	94.38
386.238	84.38
386.463	95.38
386.688	93.38
386.913	87.38
387.138	81.38
387.363	74.38
387.588	86.38
387.813	77.38
388.038	89.38
388.263	84.38
388.488	77.38
388.713	83.38
388.938	70.38
389.163	87.38
389.387	81.38
389.612	78.38
389.837	76.38
390.062	85.38
390.287	92.38
390.512	76.38
390.736	104.38
390.961	90.38
391.186	77.38
391.411	102.38
391.636	71.38
391.86	88.38
392.085	94.38
392.31	80.38
392.534	90.38
392.759	106.38
392.984	76.38
393.208	80.38
393.433	88.38
393.658	89.38
393.882	95.38
394.107	98.38
394.331	86.38
394.556	78.38
394.78	89.38
395.005	102.38
395.229	104.38
395.454	84.38
395.678	91.38
395.903	91.38
396.127	94.38
396.352	81.38
396.576	86.38
396.801	81.38
397.025	69.38
397.249	88.38
397.474	79.38
397.698	76.38
397.922	86.38
398.147	76.38
398.371	89.38
398.595	84.38
398.82	88.38
399.044	74.38
399.268	88.38
399.492	84.38
399.717	92.38
399.941	75.38
400.165	85.38
400.389	73.38
400.613	76.38
400.837	83.38
401.062	67.38
401.286	84.38
401.51	83.38
401.734	88.38
401.958	77.38
402.182	83.38
402.406	85.38
402.63	94.38
402.854	85.38
403.078	88.38
403.302	83.38
403.526	80.38
403.75	89.38
403.974	81.38
404.198	74.38
404.422	79.38
404.645	86.38
404.869	76.38
405.093	84.38
405.317	76.38
405.541	97.38
405.765	87.38
405.988	88.38
406.212	82.38
406.436	97.38
406.66	89.38
406.883	98.38
407.107	105.38
407.331	78.38
407.555	76.38
407.778	95.38
408.002	75.38
408.226	83.38
408.449	89.38
408.673	70.38
408.896	88.38
409.12	84.38
409.344	80.38
409.567	90.38
409.791	88.38
410.014	73.38
410.238	84.38
410.461	83.38
410.685	81.38
410.908	91.38
411.132	75.38
411.355	83.38
411.578	92.38
411.802	83.38
412.025	81.38
412.249	68.38
412.472	81.38
412.695	89.38
412.919	92.38
413.142	80.38
413.365	74.38
413.589	92.38
413.812	85.38
414.035	82.38
414.258	85.38
414.482	78.38
414.705	87.38
414.928	97.38
415.151	93.38
415.374	94.38
415.597	84.38
415.821	82.38
416.044	80.38
416.267	89.38
416.49	92.38
416.713	75.38
416.936	94.38
417.159	94.38
417.382	71.38
417.605	82.38
417.828	85.38
418.051	88.38
418.274	87.38
418.497	73.38
418.72	80.38
418.943	72.38
419.166	77.38
419.389	81.38
419.611	77.38
419.834	77.38
420.057	77.38
420.28	78.38
420.503	74.38
420.726	81.38
420.948	85.38
421.171	91.38
421.394	92.38
421.617	82.38
421.839	101.38
422.062	87.38
422.285	75.38
422.507	88.38
422.73	94.38
422.953	76.38
423.175	92.38
423.398	77.38
423.621	89.38
423.843	93.38
424.066	77.38
424.288	83.38
424.511	75.38
424.733	86.38
424.956	80.38
425.178	88.38
425.401	87.38
425.623	90.38
425.846	80.38
426.068	76.38
426.291	88.38
426.513	88.38
426.735	74.38
426.958	88.38
427.18	94.38
427.402	75.38
427.625	85.38
427.847	88.38
428.069	85.38
428.292	66.38
428.514	98.38
428.736	84.38
428.958	88.38
429.181	83.38
429.403	82.38
429.625	89.38
429.847	82.38
430.069	91.38
430.292	83.38
430.514	84.38
430.736	80.38
430.958	83.38
431.18	76.38
431.402	96.38
431.624	81.38
431.846	83.38
432.068	69.38
432.29	90.38
432.512	75.38
432.734	75.38
432.956	87.38
433.178	89.38
433.4	90.38
433.622	85.38
433.844	87.38
434.066	78.38
434.287	99.38
434.509	72.38
434.731	103.38
434.953	86.38
435.175	81.38
435.397	90.38
435.618	85.38
435.84	69.38
436.062	76.38
436.284	86.38
436.505	88.38
436.727	79.38
436.949	85.38
437.17	88.38
437.392	89.38
437.614	85.38
437.835	82.38
438.057	84.38
438.278	76.38
438.5	80.38
438.721	79.38
438.943	80.38
439.165	94.38
439.386	89.38
439.608	84.38
439.829	78.38
440.05	85.38
440.272	91.38
440.493	91.38
440.715	86.38
440.936	82.38
441.158	82.38
441.379	85.38
441.6	82.38
441.822	78.38
442.043	92.38
442.264	80.38
442.486	97.38
442.707	71.38
442.928	80.38
443.149	103.38
443.371	85.38
443.592	76.38
443.813	83.38
444.034	92.38
444.255	81.38
444.476	84.38
444.698	84.38
444.919	80.38
445.14	199.38
445.361	138.38
445.582	76.38
445.803	74.38
446.024	81.38
446.245	91.38
446.466	81.38
446.687	93.38
446.908	74.38
447.129	97.38
447.35	90.38
447.571	78.38
447.792	95.38
448.013	91.38
448.234	72.38
448.455	80.38
448.675	92.38
448.896	77.38
449.117	82.38
449.338	85.38
449.559	88.38
449.779	80.38
450	73.38
450.221	71.38
450.442	75.38
450.662	91.38
450.883	74.38
451.104	91.38
451.324	63.38
451.545	89.38
451.766	91.38
451.986	69.38
452.207	89.38
452.428	92.38
452.648	83.38
452.869	89.38
453.089	87.38
453.31	92.38
453.53	84.38
453.751	79.38
453.971	88.38
454.192	88.38
454.412	85.38
454.633	84.38
454.853	81.38
455.073	84.38
455.294	86.38
455.514	88.38
455.734	94.38
455.955	92.38
456.175	78.38
456.395	86.38
456.616	85.38
456.836	94.38
457.056	89.38
457.276	92.38
457.497	91.38
457.717	90.38
457.937	77.38
458.157	93.38
458.377	83.38
458.598	80.38
458.818	86.38
459.038	75.38
459.258	85.38
459.478	72.38
459.698	91.38
459.918	92.38
460.138	95.38
460.358	89.38
460.578	84.38
460.798	86.38
461.018	93.38
461.238	98.38
461.458	85.38
461.678	81.38
461.898	75.38
462.118	95.38
462.338	77.38
462.558	90.38
462.777	80.38
462.997	92.38
463.217	86.38
463.437	87.38
463.657	84.38
463.876	89.38
464.096	80.38
464.316	83.38
464.536	85.38
464.755	86.38
464.975	88.38
465.195	99.38
465.414	85.38
465.634	95.38
465.854	93.38
466.073	80.38
466.293	95.38
466.512	101.38
466.732	92.38
466.951	85.38
467.171	72.38
467.391	92.38
467.61	66.38
467.829	80.38
468.049	77.38
468.268	89.38
468.488	84.38
468.707	80.38
468.927	95.38
469.146	81.38
469.365	79.38
469.585	87.38
469.804	88.38
470.023	89.38
470.243	92.38
470.462	90.38
470.681	81.38
470.901	86.38
471.12	101.38
471.339	82.38
471.558	83.38
471.777	76.38
471.997	94.38
472.216	81.38
472.435	85.38
472.654	84.38
472.873	89.38
473.092	93.38
473.311	97.38
473.53	90.38
473.749	76.38
473.968	98.38
474.187	87.38
474.406	87.38
474.625	97.38
474.844	81.38
475.063	95.38
475.282	91.38
475.501	88.38
475.72	91.38
475.939	82.38
476.158	95.38
476.377	96.38
476.596	88.38
476.814	74.38
477.033	90.38
477.252	88.38
477.471	102.38
477.69	93.38
477.908	77.38
478.127	102.38
478.346	86.38
478.564	87.38
478.783	91.38
479.002	75.38
479.22	93.38
479.439	96.38
479.658	76.38
479.876	83.38
480.095	86.38
480.313	84.38
480.532	90.38
480.751	98.38
480.969	92.38
481.188	81.38
481.406	90.38
481.624	100.38
481.843	84.38
482.061	86.38
482.28	82.38
482.498	88.38
482.717	78.38
482.935	86.38
483.153	96.38
483.372	87.38
483.59	99.38
483.808	86.38
484.027	83.38
484.245	88.38
484.463	92.38
484.681	95.38
484.9	90.38
485.118	88.38
485.336	88.38
485.554	96.38
485.772	92.38
485.99	96.38
486.209	94.38
486.427	91.38
486.645	81.38
486.863	88.38
487.081	85.38
487.299	102.38
487.517	95.38
487.735	80.38
487.953	92.38
488.171	84.38
488.389	88.38
488.607	101.38
488.825	85.38
489.043	91.38
489.261	95.38
489.479	92.38
489.696	80.38
489.914	93.38
490.132	80.38
490.35	107.38
490.568	79.38
490.786	102.38
491.003	97.38
491.221	101.38
491.439	82.38
491.657	97.38
491.874	108.38
492.092	107.38
492.31	97.38
492.527	81.38
492.745	94.38
492.963	112.38
493.18	85.38
493.398	91.38
493.615	95.38
493.833	82.38
494.05	93.38
494.268	94.38
494.485	90.38
494.703	97.38
494.92	97.38
495.138	111.38
495.355	100.38
495.573	92.38
495.79	97.38
496.008	100.38
496.225	72.38
496.442	81.38
496.66	98.38
496.877	83.38
497.094	93.38
497.312	110.38
497.529	91.38
497.746	102.38
497.963	95.38
498.181	90.38
498.398	102.38
498.615	88.38
498.832	78.38
499.049	95.38
499.267	96.38
499.484	112.38
499.701	105.38
499.918	91.38
500.135	106.38
500.352	96.38
500.569	100.38
500.786	116.38
501.003	121.38
501.22	102.38
501.437	104.38
501.654	102.38
501.871	105.38
502.088	90.38
502.305	102.38
502.522	97.38
502.739	95.38
502.956	88.38
503.172	104.38
503.389	94.38
503.606	89.38
503.823	96.38
504.04	98.38
504.256	96.38
504.473	106.38
504.69	101.38
504.907	103.38
505.123	97.38
505.34	104.38
505.557	93.38
505.773	91.38
505.99	88.38
506.207	76.38
506.423	95.38
506.64	84.38
506.856	84.38
507.073	106.38
507.289	101.38
507.506	87.38
507.722	79.38
507.939	100.38
508.155	94.38
508.372	83.38
508.588	94.38
508.805	98.38
509.021	79.38
509.238	88.38
509.454	96.38
509.67	91.38
509.887	78.38
510.103	87.38
510.319	101.38
510.536	83.38
510.752	89.38
510.968	98.38
511.184	81.38
511.401	78.38
511.617	84.38
511.833	111.38
512.049	88.38
512.265	99.38
512.481	95.38
512.698	96.38
512.914	103.38
513.13	97.38
513.346	92.38
513.562	93.38
513.778	84.38
513.994	97.38
514.21	81.38
514.426	106.38
514.642	100.38
514.858	79.38
515.074	91.38
515.29	100.38
515.506	84.38
515.721	86.38
515.937	95.38
516.153	91.38
516.369	92.38
516.585	93.38
516.801	77.38
517.016	97.38
517.232	80.38
517.448	73.38
517.664	87.38
517.879	99.38
518.095	97.38
518.311	109.38
518.527	94.38
518.742	84.38
518.958	86.38
519.173	98.38
519.389	90.38
519.605	83.38
519.82	82.38
520.036	85.38
520.251	99.38
520.467	90.38
520.682	83.38
520.898	82.38
521.113	94.38
521.329	93.38
521.544	99.38
521.76	95.38
521.975	99.38
522.19	118.38
522.406	87.38
522.621	79.38
522.836	84.38
523.052	102.38
523.267	95.38
523.482	81.38
523.698	93.38
523.913	92.38
524.128	103.38
524.343	92.38
524.559	75.38
524.774	84.38
524.989	96.38
525.204	84.38
525.419	86.38
525.634	97.38
525.849	85.38
526.064	100.38
526.28	87.38
526.495	85.38
526.71	90.38
526.925	87.38
527.14	72.38
527.355	90.38
527.57	79.38
527.785	84.38
527.999	79.38
528.214	83.38
528.429	83.38
528.644	87.38
528.859	91.38
529.074	86.38
529.289	101.38
529.503	77.38
529.718	84.38
529.933	85.38
530.148	80.38
530.363	95.38
530.577	96.38
530.792	98.38
531.007	82.38
531.221	96.38
531.436	91.38
531.651	102.38
531.865	96.38
532.08	89.38
532.295	94.38
532.509	87.38
532.724	109.38
532.938	98.38
533.153	96.38
533.367	81.38
533.582	95.38
533.796	85.38
534.011	86.38
534.225	106.38
534.44	85.38
534.654	97.38
534.868	85.38
535.083	90.38
535.297	88.38
535.511	103.38
535.726	92.38
535.94	89.38
536.154	75.38
536.369	88.38
536.583	93.38
536.797	87.38
537.011	90.38
537.225	91.38
537.44	81.38
537.654	72.38
537.868	86.38
538.082	92.38
538.296	107.38
538.51	94.38
538.724	103.38
538.938	92.38
539.153	83.38
539.367	76.38
539.581	103.38
539.795	92.38
540.009	88.38
540.222	99.38
540.436	100.38
540.65	101.38
540.864	82.38
541.078	100.38
541.292	90.38
541.506	92.38
541.72	90.38
541.934	91.38
542.147	87.38
542.361	99.38
542.575	86.38
542.789	88.38
543.002	93.38
543.216	104.38
543.43	81.38
543.644	77.38
543.857	88.38
544.071	87.38
544.285	96.38
544.498	90.38
544.712	108.38
544.925	99.38
545.139	94.38
545.352	95.38
545.566	85.38
545.779	96.38
545.993	95.38
546.206	97.38
546.42	96.38
546.633	83.38
546.847	101.38
547.06	93.38
547.274	105.38
547.487	89.38
547.7	105.38
547.914	107.38
548.127	90.38
548.34	91.38
548.554	93.38
548.767	100.38
548.98	100.38
549.193	99.38
549.407	87.38
549.62	100.38
549.833	90.38
550.046	99.38
550.259	89.38
550.473	80.38
550.686	103.38
550.899	97.38
551.112	95.38
551.325	98.38
551.538	80.38
551.751	87.38
551.964	87.38
552.177	101.38
552.39	88.38
552.603	96.38
552.816	88.38
553.029	96.38
553.242	97.38
553.455	76.38
553.667	88.38
553.88	100.38
554.093	90.38
554.306	83.38
554.519	105.38
554.732	73.38
554.944	81.38
555.157	80.38
555.37	99.38
555.583	80.38
555.795	91.38
556.008	89.38
556.221	87.38
556.433	85.38
556.646	101.38
556.859	81.38
557.071	83.38
557.284	89.38
557.496	92.38
557.709	100.38
557.921	103.38
558.134	90.38
558.346	94.38
558.559	95.38
558.771	90.38
558.984	92.38
559.196	87.38
559.409	90.38
559.621	95.38
559.833	90.38
560.046	82.38
560.258	96.38
560.47	96.38
560.683	92.38
560.895	85.38
561.107	85.38
561.32	80.38
561.532	91.38
561.744	87.38
561.956	84.38
562.168	81.38
562.381	90.38
562.593	94.38
562.805	90.38
563.017	91.38
563.229	79.38
563.441	75.38
563.653	91.38
563.865	93.38
564.077	92.38
564.289	89.38
564.501	92.38
564.713	75.38
564.925	93.38
565.137	84.38
565.349	95.38
565.561	107.38
565.773	103.38
565.985	88.38
566.197	93.38
566.408	104.38
566.62	95.38
566.832	97.38
567.044	83.38
567.255	83.38
567.467	78.38
567.679	85.38
567.891	91.38
568.102	88.38
568.314	91.38
568.526	82.38
568.737	99.38
568.949	84.38
569.161	90.38
569.372	91.38
569.584	91.38
569.795	92.38
570.007	94.38
570.218	95.38
570.43	85.38
570.641	74.38
570.853	90.38
571.064	103.38
571.276	88.38
571.487	96.38
571.698	95.38
571.91	84.38
572.121	87.38
572.333	95.38
572.544	93.38
572.755	84.38
572.966	76.38
573.178	74.38
573.389	83.38
573.6	79.38
573.811	90.38
574.023	106.38
574.234	73.38
574.445	95.38
574.656	92.38
574.867	85.38
575.078	91.38
575.289	83.38
575.501	77.38
575.712	91.38
575.923	92.38
576.134	90.38
576.345	83.38
576.556	87.38
576.767	103.38
576.978	80.38
577.188	88.38
577.399	82.38
577.61	89.38
577.821	80.38
578.032	92.38
578.243	88.38
578.454	73.38
578.665	75.38
578.875	102.38
579.086	103.38
579.297	77.38
579.508	84.38
579.718	89.38
579.929	76.38
580.14	74.38
580.35	76.38
580.561	96.38
580.772	84.38
580.982	90.38
581.193	74.38
581.403	80.38
581.614	79.38
581.825	88.38
582.035	74.38
582.246	95.38
582.456	96.38
582.667	101.38
582.877	83.38
583.087	78.38
583.298	88.38
583.508	93.38
583.719	86.38
583.929	87.38
584.139	76.38
584.35	81.38
584.56	81.38
584.77	88.38
584.981	70.38
585.191	91.38
585.401	89.38
585.611	77.38
585.821	87.38
586.032	83.38
586.242	90.38
586.452	80.38
586.662	90.38
586.872	86.38
587.082	85.38
587.292	82.38
587.502	74.38
587.713	76.38
587.923	76.38
588.133	88.38
588.343	87.38
588.553	102.38
588.762	85.38
588.972	83.38
589.182	76.38
589.392	73.38
589.602	90.38
589.812	95.38
590.022	84.38
590.232	87.38
590.441	94.38
590.651	100.38
590.861	84.38
591.071	90.38
591.281	85.38
591.49	93.38
591.7	83.38
591.91	78.38
592.119	87.38
592.329	91.38
592.539	81.38
592.748	90.38
592.958	90.38
593.167	84.38
593.377	93.38
593.587	105.38
593.796	83.38
594.006	97.38
594.215	79.38
594.424	86.38
594.634	85.38
594.843	91.38
595.053	95.38
595.262	77.38
595.472	85.38
595.681	81.38
595.89	84.38
596.1	90.38
596.309	85.38
596.518	91.38
596.727	73.38
596.937	75.38
597.146	98.38
597.355	83.38
597.564	82.38
597.774	75.38
597.983	81.38
598.192	92.38
598.401	93.38
598.61	96.38
598.819	82.38
599.028	69.38
599.237	90.38
599.446	89.38
599.655	90.38
599.864	87.38
600.073	82.38
600.282	86.38
600.491	72.38
600.7	76.38
600.909	84.38
601.118	80.38
601.327	85.38
601.536	76.38
601.745	85.38
601.953	87.38
602.162	90.38
602.371	94.38
602.58	86.38
602.789	85.38
602.997	88.38
603.206	76.38
603.415	86.38
603.623	93.38
603.832	83.38
604.041	81.38
604.249	79.38
604.458	86.38
604.666	95.38
604.875	85.38
605.084	84.38
605.292	89.38
605.501	66.38
605.709	93.38
605.918	76.38
606.126	81.38
606.334	79.38
606.543	82.38
606.751	88.38
606.96	97.38
607.168	83.38
607.376	77.38
607.585	90.38
607.793	91.38
608.001	94.38
608.21	79.38
608.418	87.38
608.626	88.38
608.834	81.38
609.043	81.38
609.251	83.38
609.459	87.38
609.667	73.38
609.875	81.38
610.083	92.38
610.291	80.38
610.499	84.38
610.707	75.38
610.916	84.38
611.124	94.38
611.332	91.38
611.54	76.38
611.748	93.38
611.955	96.38
612.163	70.38
612.371	90.38
612.579	85.38
612.787	74.38
612.995	94.38
613.203	91.38
613.411	69.38
613.618	79.38
613.826	78.38
614.034	73.38
614.242	83.38
614.449	80.38
614.657	83.38
614.865	81.38
615.072	65.38
615.28	78.38
615.488	95.38
615.695	76.38
615.903	89.38
616.111	91.38
616.318	93.38
616.526	102.38
616.733	86.38
616.941	72.38
617.148	88.38
617.356	84.38
617.563	88.38
617.771	80.38
617.978	86.38
618.185	87.38
618.393	80.38
618.6	82.38
618.807	85.38
619.015	76.38
619.222	80.38
619.429	86.38
619.637	90.38
619.844	88.38
620.051	73.38
620.258	84.38
620.466	98.38
620.673	83.38
620.88	75.38
621.087	79.38
621.294	90.38
621.501	76.38
621.708	81.38
621.915	88.38
622.122	84.38
622.329	71.38
622.536	91.38
622.743	72.38
622.95	78.38
623.157	81.38
623.364	88.38
623.571	91.38
623.778	89.38
623.985	98.38
624.192	89.38
624.399	83.38
624.606	86.38
624.812	93.38
625.019	103.38
625.226	88.38
625.433	93.38
625.639	79.38
625.846	82.38
626.053	83.38
626.259	81.38
626.466	81.38
626.673	67.38
626.879	86.38
627.086	78.38
627.293	94.38
627.499	75.38
627.706	81.38
627.912	85.38
628.119	80.38
628.325	89.38
628.532	76.38
628.738	75.38
628.945	75.38
629.151	85.38
629.357	90.38
629.564	87.38
629.77	95.38
629.976	97.38
630.183	80.38
630.389	89.38
630.595	95.38
630.802	73.38
631.008	90.38
631.214	97.38
631.42	77.38
631.627	86.38
631.833	97.38
632.039	69.38
632.245	81.38
632.451	76.38
632.657	75.38
632.863	75.38
633.069	92.38
633.275	87.38
633.481	80.38
633.688	91.38
633.893	81.38
634.099	97.38
634.305	98.38
634.511	93.38
634.717	87.38
634.923	85.38
635.129	95.38
635.335	82.38
635.541	80.38
635.747	82.38
635.952	91.38
636.158	91.38
636.364	85.38
636.57	79.38
636.775	82.38
636.981	91.38
637.187	82.38
637.392	77.38
637.598	80.38
637.804	92.38
638.009	94.38
638.215	87.38
638.421	78.38
638.626	82.38
638.832	95.38
639.037	85.38
639.243	73.38
639.448	84.38
639.654	80.38
639.859	100.38
640.065	96.38
640.27	95.38
640.475	93.38
640.681	99.38
640.886	76.38
641.091	90.38
641.297	79.38
641.502	81.38
641.707	96.38
641.913	81.38
642.118	84.38
642.323	87.38
642.528	83.38
642.733	86.38
642.939	80.38
643.144	80.38
643.349	92.38
643.554	85.38
643.759	67.38
643.964	83.38
644.169	103.38
644.374	85.38
644.579	89.38
644.784	89.38
644.989	77.38
645.194	74.38
645.399	80.38
645.604	83.38
645.809	81.38
646.014	88.38
646.219	81.38
646.423	80.38
646.628	82.38
646.833	76.38
647.038	83.38
647.243	82.38
647.447	89.38
647.652	81.38
647.857	73.38
648.062	90.38
648.266	74.38
648.471	72.38
648.676	69.38
648.88	75.38
649.085	83.38
649.289	104.38
649.494	90.38
649.698	97.38
649.903	87.38
650.107	81.38
650.312	84.38
650.516	83.38
650.721	92.38
650.925	84.38
651.13	85.38
651.334	95.38
651.539	84.38
651.743	90.38
651.947	78.38
652.152	86.38
652.356	80.38
652.56	76.38
652.764	67.38
652.969	85.38
653.173	86.38
653.377	79.38
653.581	77.38
653.785	76.38
653.99	81.38
654.194	76.38
654.398	94.38
654.602	83.38
654.806	74.38
655.01	95.38
655.214	76.38
655.418	83.38
655.622	89.38
655.826	87.38
656.03	87.38
656.234	76.38
656.438	76.38
656.642	75.38
656.846	92.38
657.049	94.38
657.253	81.38
657.457	76.38
657.661	92.38
657.865	89.38
658.068	71.38
658.272	76.38
658.476	75.38
658.68	90.38
658.883	90.38
659.087	80.38
659.291	74.38
659.494	85.38
659.698	78.38
659.901	84.38
660.105	75.38
660.309	82.38
660.512	85.38
660.716	87.38
660.919	83.38
661.123	81.38
661.326	89.38
661.53	91.38
661.733	89.38
661.936	71.38
662.14	84.38
662.343	81.38
662.546	87.38
662.75	85.38
662.953	87.38
663.156	74.38
663.36	69.38
663.563	79.38
663.766	79.38
663.969	80.38
664.173	96.38
664.376	81.38
664.579	65.38
664.782	88.38
664.985	68.38
665.188	88.38
665.391	75.38
665.594	83.38
665.797	83.38
666	81.38
666.203	78.38
666.406	71.38
666.609	79.38
666.812	85.38
667.015	68.38
667.218	72.38
667.421	73.38
667.624	80.38
667.827	81.38
668.03	83.38
668.232	80.38
668.435	78.38
668.638	78.38
668.841	85.38
669.043	89.38
669.246	79.38
669.449	85.38
669.651	68.38
669.854	81.38
670.057	69.38
670.259	76.38
670.462	66.38
670.665	89.38
670.867	81.38
671.07	78.38
671.272	75.38
671.475	77.38
671.677	65.38
671.88	64.38
672.082	77.38
672.284	93.38
672.487	77.38
672.689	90.38
672.892	80.38
