Data from Ni(NO3)2@0.0625M.TitratingCurve.Agarose3%dH2O.NegLispCup.LampEnergy10.LIBS07252019_HRD10591_18-14-06-569.txt Node
Date: Thu Jul 25 18:14:06 EDT 2019
User: cochatt
Spectrometer: HR+D1059
Trigger mode: 1
Integration Time (sec): 1.000000E-1
Scans to average: 1
Electric dark correction enabled: true
Nonlinearity correction enabled: false
Boxcar width: 0
XAxis mode: Wavelengths
Number of Pixels in Spectrum: 2048
>>>>>Begin Spectral Data<<<<<
223.165	-16.62
223.4	-16.62
223.635	-16.62
223.869	-28.62
224.104	-21.62
224.338	6.38
224.573	-23.62
224.808	-23.62
225.042	-11.62
225.277	2.38
225.511	-3.62
225.746	-2.62
225.98	12.38
226.215	16.38
226.449	22.38
226.683	20.38
226.918	24.38
227.152	27.38
227.387	32.38
227.621	41.38
227.856	39.38
228.09	46.38
228.324	48.38
228.559	59.38
228.793	60.38
229.027	116.38
229.262	117.38
229.496	122.38
229.73	131.38
229.964	125.38
230.199	128.38
230.433	127.38
230.667	131.38
230.901	139.38
231.136	123.38
231.37	133.38
231.604	146.38
231.838	153.38
232.072	151.38
232.306	154.38
232.541	171.38
232.775	158.38
233.009	141.38
233.243	159.38
233.477	162.38
233.711	160.38
233.945	151.38
234.179	142.38
234.413	171.38
234.647	162.38
234.881	156.38
235.115	152.38
235.349	167.38
235.583	154.38
235.817	145.38
236.051	154.38
236.285	162.38
236.519	142.38
236.753	162.38
236.987	174.38
237.221	148.38
237.455	178.38
237.689	152.38
237.922	174.38
238.156	172.38
238.39	170.38
238.624	179.38
238.858	180.38
239.091	188.38
239.325	174.38
239.559	178.38
239.793	186.38
240.027	200.38
240.26	179.38
240.494	181.38
240.728	198.38
240.961	193.38
241.195	196.38
241.429	188.38
241.662	194.38
241.896	202.38
242.13	187.38
242.363	197.38
242.597	203.38
242.83	208.38
243.064	220.38
243.298	206.38
243.531	198.38
243.765	188.38
243.998	209.38
244.232	214.38
244.465	216.38
244.699	208.38
244.932	230.38
245.166	211.38
245.399	217.38
245.633	224.38
245.866	250.38
246.099	236.38
246.333	228.38
246.566	236.38
246.8	224.38
247.033	231.38
247.266	229.38
247.5	244.38
247.733	243.38
247.966	242.38
248.2	250.38
248.433	236.38
248.666	243.38
248.899	248.38
249.133	231.38
249.366	253.38
249.599	262.38
249.832	268.38
250.066	259.38
250.299	272.38
250.532	248.38
250.765	283.38
250.998	256.38
251.231	278.38
251.465	275.38
251.698	269.38
251.931	262.38
252.164	263.38
252.397	266.38
252.63	282.38
252.863	282.38
253.096	273.38
253.329	285.38
253.562	275.38
253.795	288.38
254.028	292.38
254.261	271.38
254.494	289.38
254.727	279.38
254.96	288.38
255.193	292.38
255.426	294.38
255.659	301.38
255.892	317.38
256.124	290.38
256.357	290.38
256.59	315.38
256.823	299.38
257.056	296.38
257.289	302.38
257.521	306.38
257.754	302.38
257.987	320.38
258.22	312.38
258.452	290.38
258.685	297.38
258.918	306.38
259.151	311.38
259.383	324.38
259.616	323.38
259.849	334.38
260.081	317.38
260.314	332.38
260.547	322.38
260.779	329.38
261.012	313.38
261.244	320.38
261.477	330.38
261.71	333.38
261.942	336.38
262.175	339.38
262.407	347.38
262.64	337.38
262.872	341.38
263.105	348.38
263.337	344.38
263.57	342.38
263.802	351.38
264.035	345.38
264.267	354.38
264.499	349.38
264.732	364.38
264.964	371.38
265.197	364.38
265.429	361.38
265.661	354.38
265.894	362.38
266.126	364.38
266.358	378.38
266.591	383.38
266.823	371.38
267.055	396.38
267.287	367.38
267.52	365.38
267.752	364.38
267.984	377.38
268.216	361.38
268.448	379.38
268.681	364.38
268.913	376.38
269.145	380.38
269.377	379.38
269.609	398.38
269.841	381.38
270.073	386.38
270.306	377.38
270.538	380.38
270.77	400.38
271.002	407.38
271.234	398.38
271.466	389.38
271.698	377.38
271.93	382.38
272.162	386.38
272.394	396.38
272.626	387.38
272.858	411.38
273.09	399.38
273.322	421.38
273.553	391.38
273.785	409.38
274.017	399.38
274.249	401.38
274.481	412.38
274.713	407.38
274.945	426.38
275.176	445.38
275.408	412.38
275.64	420.38
275.872	424.38
276.104	455.38
276.335	428.38
276.567	420.38
276.799	418.38
277.031	416.38
277.262	432.38
277.494	428.38
277.726	424.38
277.957	419.38
278.189	434.38
278.421	430.38
278.652	429.38
278.884	447.38
279.115	456.38
279.347	423.38
279.579	427.38
279.81	439.38
280.042	433.38
280.273	442.38
280.505	458.38
280.736	472.38
280.968	458.38
281.199	462.38
281.431	447.38
281.662	460.38
281.894	468.38
282.125	469.38
282.356	469.38
282.588	468.38
282.819	473.38
283.051	470.38
283.282	477.38
283.513	502.38
283.745	466.38
283.976	476.38
284.207	482.38
284.439	484.38
284.67	475.38
284.901	488.38
285.132	515.38
285.364	490.38
285.595	503.38
285.826	506.38
286.057	502.38
286.288	482.38
286.52	505.38
286.751	506.38
286.982	517.38
287.213	504.38
287.444	498.38
287.675	518.38
287.906	509.38
288.138	538.38
288.369	515.38
288.6	518.38
288.831	527.38
289.062	538.38
289.293	532.38
289.524	548.38
289.755	520.38
289.986	512.38
290.217	543.38
290.448	550.38
290.679	525.38
290.91	548.38
291.141	517.38
291.371	521.38
291.602	537.38
291.833	510.38
292.064	527.38
292.295	538.38
292.526	518.38
292.757	534.38
292.987	534.38
293.218	531.38
293.449	536.38
293.68	565.38
293.91	546.38
294.141	562.38
294.372	559.38
294.603	545.38
294.833	545.38
295.064	539.38
295.295	548.38
295.525	549.38
295.756	536.38
295.987	556.38
296.217	555.38
296.448	541.38
296.679	566.38
296.909	573.38
297.14	555.38
297.37	568.38
297.601	591.38
297.831	560.38
298.062	557.38
298.292	589.38
298.523	592.38
298.753	622.38
298.984	586.38
299.214	604.38
299.445	585.38
299.675	585.38
299.905	609.38
300.136	595.38
300.366	606.38
300.597	598.38
300.827	607.38
301.057	616.38
301.288	622.38
301.518	600.38
301.748	621.38
301.979	624.38
302.209	592.38
302.439	629.38
302.669	599.38
302.9	610.38
303.13	610.38
303.36	600.38
303.59	587.38
303.82	591.38
304.051	599.38
304.281	623.38
304.511	603.38
304.741	613.38
304.971	593.38
305.201	610.38
305.431	589.38
305.661	601.38
305.891	590.38
306.121	593.38
306.352	583.38
306.582	563.38
306.812	595.38
307.042	578.38
307.272	599.38
307.502	612.38
307.731	583.38
307.961	573.38
308.191	594.38
308.421	563.38
308.651	579.38
308.881	574.38
309.111	565.38
309.341	587.38
309.571	592.38
309.8	576.38
310.03	590.38
310.26	590.38
310.49	575.38
310.72	590.38
310.949	579.38
311.179	596.38
311.409	594.38
311.639	602.38
311.868	601.38
312.098	589.38
312.328	615.38
312.557	634.38
312.787	600.38
313.017	644.38
313.246	635.38
313.476	628.38
313.706	646.38
313.935	633.38
314.165	648.38
314.394	619.38
314.624	632.38
314.853	616.38
315.083	623.38
315.312	600.38
315.542	619.38
315.771	619.38
316.001	611.38
316.23	616.38
316.46	583.38
316.689	591.38
316.919	606.38
317.148	637.38
317.377	604.38
317.607	594.38
317.836	609.38
318.065	605.38
318.295	598.38
318.524	604.38
318.753	635.38
318.983	596.38
319.212	615.38
319.441	602.38
319.67	616.38
319.9	594.38
320.129	599.38
320.358	642.38
320.587	600.38
320.816	628.38
321.046	605.38
321.275	592.38
321.504	604.38
321.733	640.38
321.962	628.38
322.191	640.38
322.42	633.38
322.649	617.38
322.878	620.38
323.108	618.38
323.337	626.38
323.566	614.38
323.795	622.38
324.024	647.38
324.253	632.38
324.482	642.38
324.71	653.38
324.939	649.38
325.168	641.38
325.397	674.38
325.626	638.38
325.855	670.38
326.084	674.38
326.313	670.38
326.542	671.38
326.77	693.38
326.999	679.38
327.228	675.38
327.457	668.38
327.686	692.38
327.914	692.38
328.143	674.38
328.372	670.38
328.6	688.38
328.829	694.38
329.058	679.38
329.287	690.38
329.515	682.38
329.744	692.38
329.972	662.38
330.201	683.38
330.43	675.38
330.658	679.38
330.887	711.38
331.115	706.38
331.344	708.38
331.572	725.38
331.801	743.38
332.03	747.38
332.258	776.38
332.486	790.38
332.715	782.38
332.943	872.38
333.172	872.38
333.4	919.38
333.629	943.38
333.857	944.38
334.085	904.38
334.314	919.38
334.542	883.38
334.771	871.38
334.999	878.38
335.227	848.38
335.455	848.38
335.684	814.38
335.912	843.38
336.14	812.38
336.369	845.38
336.597	852.38
336.825	825.38
337.053	823.38
337.281	787.38
337.51	790.38
337.738	798.38
337.966	769.38
338.194	754.38
338.422	759.38
338.65	711.38
338.878	743.38
339.106	716.38
339.334	755.38
339.562	730.38
339.79	697.38
340.018	711.38
340.246	701.38
340.474	700.38
340.702	704.38
340.93	711.38
341.158	724.38
341.386	734.38
341.614	710.38
341.842	725.38
342.07	680.38
342.298	688.38
342.526	687.38
342.754	716.38
342.981	717.38
343.209	740.38
343.437	759.38
343.665	774.38
343.893	838.38
344.12	893.38
344.348	864.38
344.576	820.38
344.804	771.38
345.031	724.38
345.259	746.38
345.487	720.38
345.714	707.38
345.942	699.38
346.17	719.38
346.397	722.38
346.625	690.38
346.853	682.38
347.08	683.38
347.308	697.38
347.535	700.38
347.763	723.38
347.99	709.38
348.218	734.38
348.445	711.38
348.673	679.38
348.9	693.38
349.128	682.38
349.355	674.38
349.583	657.38
349.81	659.38
350.037	672.38
350.265	675.38
350.492	663.38
350.72	648.38
350.947	678.38
351.174	672.38
351.402	693.38
351.629	650.38
351.856	663.38
352.083	675.38
352.311	667.38
352.538	654.38
352.765	644.38
352.992	666.38
353.22	640.38
353.447	639.38
353.674	656.38
353.901	646.38
354.128	673.38
354.355	651.38
354.583	674.38
354.81	690.38
355.037	666.38
355.264	679.38
355.491	669.38
355.718	665.38
355.945	680.38
356.172	681.38
356.399	669.38
356.626	670.38
356.853	655.38
357.08	675.38
357.307	685.38
357.534	676.38
357.761	659.38
357.988	654.38
358.215	653.38
358.441	658.38
358.668	658.38
358.895	658.38
359.122	662.38
359.349	649.38
359.576	661.38
359.802	648.38
360.029	666.38
360.256	670.38
360.483	652.38
360.709	674.38
360.936	657.38
361.163	667.38
361.39	662.38
361.616	649.38
361.843	660.38
362.07	653.38
362.296	648.38
362.523	644.38
362.749	682.38
362.976	646.38
363.203	648.38
363.429	640.38
363.656	665.38
363.882	660.38
364.109	647.38
364.335	663.38
364.562	654.38
364.788	649.38
365.015	652.38
365.241	659.38
365.468	666.38
365.694	634.38
365.92	661.38
366.147	652.38
366.373	650.38
366.599	650.38
366.826	665.38
367.052	611.38
367.278	668.38
367.505	652.38
367.731	664.38
367.957	668.38
368.184	667.38
368.41	658.38
368.636	669.38
368.862	692.38
369.089	675.38
369.315	681.38
369.541	698.38
369.767	689.38
369.993	676.38
370.219	707.38
370.445	704.38
370.672	708.38
370.898	720.38
371.124	726.38
371.35	717.38
371.576	749.38
371.802	744.38
372.028	694.38
372.254	736.38
372.48	720.38
372.706	725.38
372.932	758.38
373.158	726.38
373.384	732.38
373.61	721.38
373.835	710.38
374.061	731.38
374.287	723.38
374.513	744.38
374.739	775.38
374.965	790.38
375.191	823.38
375.416	812.38
375.642	776.38
375.868	782.38
376.094	746.38
376.319	765.38
376.545	731.38
376.771	709.38
376.997	729.38
377.222	730.38
377.448	729.38
377.674	719.38
377.899	695.38
378.125	726.38
378.35	710.38
378.576	711.38
378.802	727.38
379.027	721.38
379.253	710.38
379.478	715.38
379.704	718.38
379.929	712.38
380.155	686.38
380.38	721.38
380.606	714.38
380.831	711.38
381.057	735.38
381.282	721.38
381.507	712.38
381.733	706.38
381.958	710.38
382.184	739.38
382.409	775.38
382.634	733.38
382.86	762.38
383.085	741.38
383.31	794.38
383.535	796.38
383.761	797.38
383.986	813.38
384.211	839.38
384.436	844.38
384.662	879.38
384.887	862.38
385.112	882.38
385.337	876.38
385.562	876.38
385.787	871.38
386.013	884.38
386.238	898.38
386.463	878.38
386.688	893.38
386.913	884.38
387.138	868.38
387.363	838.38
387.588	858.38
387.813	854.38
388.038	866.38
388.263	834.38
388.488	898.38
388.713	854.38
388.938	860.38
389.163	852.38
389.387	853.38
389.612	844.38
389.837	885.38
390.062	869.38
390.287	835.38
390.512	866.38
390.736	835.38
390.961	880.38
391.186	862.38
391.411	921.38
391.636	922.38
391.86	966.38
392.085	1014.38
392.31	985.38
392.534	959.38
392.759	929.38
392.984	908.38
393.208	931.38
393.433	916.38
393.658	919.38
393.882	956.38
394.107	934.38
394.331	917.38
394.556	913.38
394.78	950.38
395.005	951.38
395.229	936.38
395.454	940.38
395.678	971.38
395.903	1009.38
396.127	970.38
396.352	910.38
396.576	926.38
396.801	879.38
397.025	923.38
397.249	959.38
397.474	965.38
397.698	950.38
397.922	979.38
398.147	978.38
398.371	992.38
398.595	972.38
398.82	1026.38
399.044	1112.38
399.268	1217.38
399.492	1506.38
399.717	1746.38
399.941	1747.38
400.165	1461.38
400.389	1317.38
400.613	1182.38
400.837	1154.38
401.062	1097.38
401.286	1093.38
401.51	1109.38
401.734	1081.38
401.958	1102.38
402.182	1043.38
402.406	1099.38
402.63	1140.38
402.854	1146.38
403.078	1168.38
403.302	1242.38
403.526	1234.38
403.75	1261.38
403.974	1308.38
404.198	1318.38
404.422	1369.38
404.645	1306.38
404.869	1269.38
405.093	1253.38
405.317	1229.38
405.541	1230.38
405.765	1203.38
405.988	1200.38
406.212	1229.38
406.436	1200.38
406.66	1221.38
406.883	1247.38
407.107	1338.38
407.331	1389.38
407.555	1423.38
407.778	1416.38
408.002	1376.38
408.226	1342.38
408.449	1323.38
408.673	1254.38
408.896	1175.38
409.12	1248.38
409.344	1281.38
409.567	1222.38
409.791	1272.38
410.014	1299.38
410.238	1257.38
410.461	1259.38
410.685	1252.38
410.908	1188.38
411.132	1178.38
411.355	1142.38
411.578	1121.38
411.802	1134.38
412.025	1138.38
412.249	1150.38
412.472	1116.38
412.695	1128.38
412.919	1068.38
413.142	1076.38
413.365	1095.38
413.589	1082.38
413.812	1069.38
414.035	1084.38
414.258	1085.38
414.482	1095.38
414.705	1136.38
414.928	1126.38
415.151	1103.38
415.374	1130.38
415.597	1113.38
415.821	1071.38
416.044	1071.38
416.267	1053.38
416.49	1062.38
416.713	1066.38
416.936	1085.38
417.159	1076.38
417.382	1066.38
417.605	1077.38
417.828	1055.38
418.051	1092.38
418.274	1096.38
418.497	1087.38
418.72	1095.38
418.943	1110.38
419.166	1168.38
419.389	1273.38
419.611	1210.38
419.834	1162.38
420.057	1158.38
420.28	1130.38
420.503	1103.38
420.726	1072.38
420.948	1059.38
421.171	1083.38
421.394	1094.38
421.617	1082.38
421.839	1086.38
422.062	1102.38
422.285	1081.38
422.507	1105.38
422.73	1152.38
422.953	1124.38
423.175	1155.38
423.398	1172.38
423.621	1174.38
423.843	1168.38
424.066	1143.38
424.288	1157.38
424.511	1154.38
424.733	1157.38
424.956	1097.38
425.178	1147.38
425.401	1109.38
425.623	1116.38
425.846	1031.38
426.068	1062.38
426.291	1038.38
426.513	1030.38
426.735	990.38
426.958	1030.38
427.18	969.38
427.402	966.38
427.625	964.38
427.847	947.38
428.069	950.38
428.292	959.38
428.514	947.38
428.736	949.38
428.958	945.38
429.181	944.38
429.403	910.38
429.625	942.38
429.847	930.38
430.069	936.38
430.292	967.38
430.514	934.38
430.736	922.38
430.958	925.38
431.18	947.38
431.402	950.38
431.624	963.38
431.846	978.38
432.068	968.38
432.29	995.38
432.512	944.38
432.734	954.38
432.956	961.38
433.178	966.38
433.4	972.38
433.622	981.38
433.844	975.38
434.066	982.38
434.287	993.38
434.509	1027.38
434.731	1066.38
434.953	1105.38
435.175	1108.38
435.397	1095.38
435.618	1026.38
435.84	1004.38
436.062	996.38
436.284	981.38
436.505	975.38
436.727	971.38
436.949	973.38
437.17	977.38
437.392	946.38
437.614	970.38
437.835	929.38
438.057	924.38
438.278	902.38
438.5	902.38
438.721	925.38
438.943	950.38
439.165	922.38
439.386	958.38
439.608	969.38
439.829	949.38
440.05	973.38
440.272	1004.38
440.493	958.38
440.715	984.38
440.936	1002.38
441.158	997.38
441.379	1034.38
441.6	1110.38
441.822	1150.38
442.043	1108.38
442.264	1086.38
442.486	1040.38
442.707	1044.38
442.928	1084.38
443.149	1060.38
443.371	1086.38
443.592	1084.38
443.813	1073.38
444.034	1106.38
444.255	1135.38
444.476	1190.38
444.698	1310.38
444.919	1383.38
445.14	1394.38
445.361	1232.38
445.582	1137.38
445.803	1047.38
446.024	1041.38
446.245	984.38
446.466	1030.38
446.687	994.38
446.908	994.38
447.129	951.38
447.35	942.38
447.571	927.38
447.792	909.38
448.013	910.38
448.234	900.38
448.455	908.38
448.675	907.38
448.896	887.38
449.117	888.38
449.338	892.38
449.559	883.38
449.779	885.38
450	875.38
450.221	903.38
450.442	886.38
450.662	921.38
450.883	907.38
451.104	943.38
451.324	919.38
451.545	900.38
451.766	910.38
451.986	920.38
452.207	867.38
452.428	900.38
452.648	891.38
452.869	862.38
453.089	866.38
453.31	904.38
453.53	886.38
453.751	873.38
453.971	869.38
454.192	858.38
454.412	852.38
454.633	869.38
454.853	847.38
455.073	866.38
455.294	849.38
455.514	855.38
455.734	830.38
455.955	808.38
456.175	828.38
456.395	808.38
456.616	843.38
456.836	847.38
457.056	832.38
457.276	837.38
457.497	837.38
457.717	822.38
457.937	855.38
458.157	856.38
458.377	868.38
458.598	884.38
458.818	895.38
459.038	923.38
459.258	960.38
459.478	979.38
459.698	993.38
459.918	1043.38
460.138	1083.38
460.358	1165.38
460.578	1156.38
460.798	1197.38
461.018	1175.38
461.238	1125.38
461.458	1132.38
461.678	1155.38
461.898	1168.38
462.118	1166.38
462.338	1271.38
462.558	1255.38
462.777	1273.38
462.997	1418.38
463.217	1592.38
463.437	1640.38
463.657	1472.38
463.876	1383.38
464.096	1368.38
464.316	1374.38
464.536	1405.38
464.755	1346.38
464.975	1274.38
465.195	1211.38
465.414	1144.38
465.634	1048.38
465.854	1045.38
466.073	997.38
466.293	991.38
466.512	947.38
466.732	955.38
466.951	959.38
467.171	943.38
467.391	949.38
467.61	938.38
467.829	946.38
468.049	931.38
468.268	890.38
468.488	879.38
468.707	916.38
468.927	900.38
469.146	889.38
469.365	895.38
469.585	925.38
469.804	913.38
470.023	964.38
470.243	981.38
470.462	966.38
470.681	1010.38
470.901	974.38
471.12	968.38
471.339	937.38
471.558	938.38
471.777	883.38
471.997	862.38
472.216	886.38
472.435	904.38
472.654	854.38
472.873	860.38
473.092	861.38
473.311	847.38
473.53	867.38
473.749	857.38
473.968	856.38
474.187	875.38
474.406	862.38
474.625	890.38
474.844	871.38
475.063	864.38
475.282	875.38
475.501	925.38
475.72	884.38
475.939	898.38
476.158	906.38
476.377	904.38
476.596	892.38
476.814	928.38
477.033	912.38
477.252	941.38
477.471	966.38
477.69	981.38
477.908	989.38
478.127	1017.38
478.346	1064.38
478.564	1036.38
478.783	1084.38
479.002	1096.38
479.22	1094.38
479.439	1109.38
479.658	1096.38
479.876	1100.38
480.095	1126.38
480.313	1186.38
480.532	1193.38
480.751	1183.38
480.969	1089.38
481.188	1087.38
481.406	1061.38
481.624	1043.38
481.843	1034.38
482.061	1005.38
482.28	979.38
482.498	1007.38
482.717	983.38
482.935	986.38
483.153	1000.38
483.372	996.38
483.59	1025.38
483.808	1014.38
484.027	983.38
484.245	1014.38
484.463	997.38
484.681	1036.38
484.9	1012.38
485.118	1028.38
485.336	1041.38
485.554	1056.38
485.772	1100.38
485.99	1042.38
486.209	1037.38
486.427	1042.38
486.645	1075.38
486.863	1080.38
487.081	1066.38
487.299	1072.38
487.517	1044.38
487.735	1063.38
487.953	1023.38
488.171	1044.38
488.389	1038.38
488.607	1032.38
488.825	1043.38
489.043	1038.38
489.261	1004.38
489.479	1040.38
489.696	1076.38
489.914	1048.38
490.132	1047.38
490.35	1046.38
490.568	1052.38
490.786	1038.38
491.003	1039.38
491.221	1042.38
491.439	1042.38
491.657	1057.38
491.874	1053.38
492.092	1034.38
492.31	1059.38
492.527	1055.38
492.745	1030.38
492.963	1070.38
493.18	1077.38
493.398	1064.38
493.615	1084.38
493.833	1080.38
494.05	1098.38
494.268	1109.38
494.485	1092.38
494.703	1128.38
494.92	1104.38
495.138	1100.38
495.355	1081.38
495.573	1121.38
495.79	1099.38
496.008	1093.38
496.225	1101.38
496.442	1150.38
496.66	1155.38
496.877	1152.38
497.094	1152.38
497.312	1178.38
497.529	1215.38
497.746	1225.38
497.963	1245.38
498.181	1312.38
498.398	1371.38
498.615	1421.38
498.832	1568.38
499.049	1653.38
499.267	1826.38
499.484	2008.38
499.701	2235.38
499.918	2466.38
500.135	2837.38
500.352	3416.38
500.569	3643.38
500.786	3575.38
501.003	3288.38
501.22	2893.38
501.437	2498.38
501.654	2172.38
501.871	1974.38
502.088	1770.38
502.305	1659.38
502.522	1606.38
502.739	1527.38
502.956	1432.38
503.172	1360.38
503.389	1295.38
503.606	1279.38
503.823	1267.38
504.04	1228.38
504.256	1286.38
504.473	1317.38
504.69	1364.38
504.907	1347.38
505.123	1237.38
505.34	1155.38
505.557	1114.38
505.773	1102.38
505.99	1059.38
506.207	1051.38
506.423	1014.38
506.64	992.38
506.856	991.38
507.073	999.38
507.289	1000.38
507.506	981.38
507.722	1006.38
507.939	982.38
508.155	966.38
508.372	916.38
508.588	944.38
508.805	921.38
509.021	925.38
509.238	928.38
509.454	919.38
509.67	919.38
509.887	927.38
510.103	907.38
510.319	902.38
510.536	891.38
510.752	883.38
510.968	906.38
511.184	907.38
511.401	917.38
511.617	898.38
511.833	918.38
512.049	890.38
512.265	899.38
512.481	855.38
512.698	894.38
512.914	912.38
513.13	884.38
513.346	906.38
513.562	890.38
513.778	908.38
513.994	885.38
514.21	912.38
514.426	930.38
514.642	905.38
514.858	898.38
515.074	943.38
515.29	913.38
515.506	956.38
515.721	958.38
515.937	990.38
516.153	974.38
516.369	1001.38
516.585	1027.38
516.801	1059.38
517.016	1131.38
517.232	1198.38
517.448	1236.38
517.664	1264.38
517.879	1311.38
518.095	1304.38
518.311	1264.38
518.527	1199.38
518.742	1122.38
518.958	1100.38
519.173	1038.38
519.389	1025.38
519.605	971.38
519.82	954.38
520.036	967.38
520.251	922.38
520.467	934.38
520.682	894.38
520.898	890.38
521.113	921.38
521.329	889.38
521.544	880.38
521.76	908.38
521.975	869.38
522.19	836.38
522.406	866.38
522.621	854.38
522.836	847.38
523.052	874.38
523.267	834.38
523.482	839.38
523.698	854.38
523.913	839.38
524.128	855.38
524.343	834.38
524.559	838.38
524.774	842.38
524.989	826.38
525.204	842.38
525.419	844.38
525.634	825.38
525.849	816.38
526.064	826.38
526.28	842.38
526.495	802.38
526.71	814.38
526.925	815.38
527.14	818.38
527.355	835.38
527.57	814.38
527.785	816.38
527.999	810.38
528.214	828.38
528.429	859.38
528.644	850.38
528.859	825.38
529.074	810.38
529.289	842.38
529.503	820.38
529.718	803.38
529.933	812.38
530.148	815.38
530.363	810.38
530.577	848.38
530.792	820.38
531.007	805.38
531.221	815.38
531.436	823.38
531.651	820.38
531.865	833.38
532.08	826.38
532.295	819.38
532.509	838.38
532.724	842.38
532.938	838.38
533.153	817.38
533.367	823.38
533.582	792.38
533.796	838.38
534.011	807.38
534.225	806.38
534.44	811.38
534.654	815.38
534.868	813.38
535.083	808.38
535.297	792.38
535.511	798.38
535.726	803.38
535.94	787.38
536.154	783.38
536.369	762.38
536.583	745.38
536.797	750.38
537.011	782.38
537.225	764.38
537.44	744.38
537.654	752.38
537.868	756.38
538.082	772.38
538.296	766.38
538.51	748.38
538.724	747.38
538.938	751.38
539.153	743.38
539.367	747.38
539.581	739.38
539.795	735.38
540.009	757.38
540.222	730.38
540.436	729.38
540.65	722.38
540.864	744.38
541.078	720.38
541.292	707.38
541.506	720.38
541.72	730.38
541.934	732.38
542.147	711.38
542.361	736.38
542.575	703.38
542.789	727.38
543.002	713.38
543.216	706.38
543.43	686.38
543.644	716.38
543.857	713.38
544.071	725.38
544.285	735.38
544.498	749.38
544.712	736.38
544.925	720.38
545.139	740.38
545.352	734.38
545.566	762.38
545.779	740.38
545.993	736.38
546.206	774.38
546.42	738.38
546.633	725.38
546.847	735.38
547.06	748.38
547.274	769.38
547.487	728.38
547.7	736.38
547.914	738.38
548.127	788.38
548.34	761.38
548.554	756.38
548.767	764.38
548.98	766.38
549.193	739.38
549.407	778.38
549.62	781.38
549.833	785.38
550.046	783.38
550.259	770.38
550.473	732.38
550.686	730.38
550.899	709.38
551.112	717.38
551.325	723.38
551.538	738.38
551.751	731.38
551.964	731.38
552.177	746.38
552.39	752.38
552.603	779.38
552.816	751.38
553.029	811.38
553.242	840.38
553.455	859.38
553.667	828.38
553.88	839.38
554.093	778.38
554.306	771.38
554.519	767.38
554.732	763.38
554.944	732.38
555.157	727.38
555.37	686.38
555.583	703.38
555.795	707.38
556.008	692.38
556.221	663.38
556.433	701.38
556.646	666.38
556.859	644.38
557.071	622.38
557.284	642.38
557.496	664.38
557.709	659.38
557.921	651.38
558.134	650.38
558.346	644.38
558.559	634.38
558.771	646.38
558.984	642.38
559.196	626.38
559.409	620.38
559.621	624.38
559.833	620.38
560.046	622.38
560.258	624.38
560.47	644.38
560.683	622.38
560.895	611.38
561.107	614.38
561.32	617.38
561.532	610.38
561.744	618.38
561.956	604.38
562.168	600.38
562.381	602.38
562.593	615.38
562.805	620.38
563.017	607.38
563.229	616.38
563.441	603.38
563.653	639.38
563.865	660.38
564.077	635.38
564.289	617.38
564.501	653.38
564.713	680.38
564.925	677.38
565.137	683.38
565.349	683.38
565.561	712.38
565.773	746.38
565.985	770.38
566.197	810.38
566.408	873.38
566.62	910.38
566.832	1007.38
567.044	1065.38
567.255	1018.38
567.467	1065.38
567.679	1132.38
567.891	1247.38
568.102	1291.38
568.314	1252.38
568.526	1079.38
568.737	951.38
568.949	890.38
569.161	822.38
569.372	731.38
569.584	693.38
569.795	696.38
570.007	676.38
570.218	642.38
570.43	656.38
570.641	643.38
570.853	648.38
571.064	636.38
571.276	651.38
571.487	637.38
571.698	612.38
571.91	601.38
572.121	586.38
572.333	536.38
572.544	528.38
572.755	535.38
572.966	536.38
573.178	540.38
573.389	523.38
573.6	524.38
573.811	510.38
574.023	500.38
574.234	521.38
574.445	508.38
574.656	526.38
574.867	514.38
575.078	527.38
575.289	534.38
575.501	479.38
575.712	475.38
575.923	492.38
576.134	490.38
576.345	503.38
576.556	495.38
576.767	483.38
576.978	492.38
577.188	486.38
577.399	467.38
577.61	465.38
577.821	469.38
578.032	479.38
578.243	452.38
578.454	469.38
578.665	454.38
578.875	459.38
579.086	452.38
579.297	445.38
579.508	436.38
579.718	464.38
579.929	454.38
580.14	437.38
580.35	446.38
580.561	473.38
580.772	455.38
580.982	454.38
581.193	430.38
581.403	452.38
581.614	432.38
581.825	427.38
582.035	428.38
582.246	429.38
582.456	440.38
582.667	466.38
582.877	456.38
583.087	429.38
583.298	420.38
583.508	440.38
583.719	412.38
583.929	416.38
584.139	437.38
584.35	419.38
584.56	441.38
584.77	422.38
584.981	431.38
585.191	423.38
585.401	439.38
585.611	432.38
585.821	443.38
586.032	434.38
586.242	413.38
586.452	430.38
586.662	395.38
586.872	415.38
587.082	415.38
587.292	425.38
587.502	410.38
587.713	419.38
587.923	410.38
588.133	416.38
588.343	426.38
588.553	397.38
588.762	420.38
588.972	418.38
589.182	408.38
589.392	421.38
589.602	419.38
589.812	406.38
590.022	425.38
590.232	412.38
590.441	423.38
590.651	413.38
590.861	422.38
591.071	437.38
591.281	428.38
591.49	434.38
591.7	447.38
591.91	475.38
592.119	456.38
592.329	449.38
592.539	472.38
592.748	495.38
592.958	500.38
593.167	506.38
593.377	538.38
593.587	538.38
593.796	531.38
594.006	558.38
594.215	550.38
594.424	569.38
594.634	544.38
594.843	521.38
595.053	472.38
595.262	473.38
595.472	468.38
595.681	452.38
595.89	431.38
596.1	414.38
596.309	396.38
596.518	414.38
596.727	404.38
596.937	393.38
597.146	381.38
597.355	372.38
597.564	384.38
597.774	390.38
597.983	362.38
598.192	380.38
598.401	374.38
598.61	380.38
598.819	378.38
599.028	368.38
599.237	374.38
599.446	374.38
599.655	346.38
599.864	349.38
600.073	350.38
600.282	348.38
600.491	356.38
600.7	366.38
600.909	344.38
601.118	358.38
601.327	345.38
601.536	356.38
601.745	346.38
601.953	334.38
602.162	346.38
602.371	340.38
602.58	352.38
602.789	333.38
602.997	353.38
603.206	337.38
603.415	331.38
603.623	356.38
603.832	344.38
604.041	343.38
604.249	338.38
604.458	336.38
604.666	328.38
604.875	345.38
605.084	336.38
605.292	336.38
605.501	323.38
605.709	327.38
605.918	315.38
606.126	316.38
606.334	332.38
606.543	325.38
606.751	328.38
606.96	323.38
607.168	336.38
607.376	339.38
607.585	308.38
607.793	315.38
608.001	318.38
608.21	342.38
608.418	309.38
608.626	313.38
608.834	314.38
609.043	324.38
609.251	332.38
609.459	303.38
609.667	321.38
609.875	323.38
610.083	317.38
610.291	321.38
610.499	320.38
610.707	326.38
610.916	311.38
611.124	312.38
611.332	309.38
611.54	327.38
611.748	316.38
611.955	311.38
612.163	319.38
612.371	296.38
612.579	290.38
612.787	301.38
612.995	306.38
613.203	322.38
613.411	317.38
613.618	311.38
613.826	296.38
614.034	311.38
614.242	286.38
614.449	287.38
614.657	305.38
614.865	304.38
615.072	297.38
615.28	281.38
615.488	331.38
615.695	306.38
615.903	301.38
616.111	299.38
616.318	308.38
616.526	316.38
616.733	322.38
616.941	289.38
617.148	319.38
617.356	322.38
617.563	309.38
617.771	332.38
617.978	301.38
618.185	313.38
618.393	295.38
618.6	300.38
618.807	298.38
619.015	316.38
619.222	304.38
619.429	302.38
619.637	314.38
619.844	317.38
620.051	297.38
620.258	300.38
620.466	277.38
620.673	276.38
620.88	300.38
621.087	276.38
621.294	280.38
621.501	270.38
621.708	283.38
621.915	284.38
622.122	278.38
622.329	291.38
622.536	272.38
622.743	281.38
622.95	258.38
623.157	275.38
623.364	269.38
623.571	268.38
623.778	240.38
623.985	248.38
624.192	267.38
624.399	270.38
624.606	286.38
624.812	260.38
625.019	274.38
625.226	266.38
625.433	267.38
625.639	244.38
625.846	251.38
626.053	238.38
626.259	265.38
626.466	268.38
626.673	257.38
626.879	244.38
627.086	255.38
627.293	250.38
627.499	255.38
627.706	261.38
627.912	270.38
628.119	265.38
628.325	254.38
628.532	236.38
628.738	246.38
628.945	233.38
629.151	252.38
629.357	252.38
629.564	253.38
629.77	245.38
629.976	229.38
630.183	226.38
630.389	236.38
630.595	249.38
630.802	226.38
631.008	231.38
631.214	225.38
631.42	228.38
631.627	260.38
631.833	224.38
632.039	231.38
632.245	235.38
632.451	224.38
632.657	230.38
632.863	229.38
633.069	227.38
633.275	221.38
633.481	232.38
633.688	226.38
633.893	233.38
634.099	239.38
634.305	230.38
634.511	218.38
634.717	227.38
634.923	226.38
635.129	215.38
635.335	217.38
635.541	224.38
635.747	231.38
635.952	223.38
636.158	231.38
636.364	206.38
636.57	239.38
636.775	220.38
636.981	227.38
637.187	219.38
637.392	222.38
637.598	212.38
637.804	218.38
638.009	207.38
638.215	226.38
638.421	216.38
638.626	221.38
638.832	230.38
639.037	224.38
639.243	221.38
639.448	204.38
639.654	214.38
639.859	211.38
640.065	190.38
640.27	203.38
640.475	212.38
640.681	219.38
640.886	215.38
641.091	196.38
641.297	207.38
641.502	201.38
641.707	191.38
641.913	220.38
642.118	190.38
642.323	180.38
642.528	196.38
642.733	191.38
642.939	199.38
643.144	200.38
643.349	198.38
643.554	188.38
643.759	186.38
643.964	201.38
644.169	184.38
644.374	199.38
644.579	191.38
644.784	208.38
644.989	196.38
645.194	203.38
645.399	186.38
645.604	203.38
645.809	193.38
646.014	191.38
646.219	198.38
646.423	186.38
646.628	205.38
646.833	198.38
647.038	200.38
647.243	200.38
647.447	204.38
647.652	210.38
647.857	226.38
648.062	200.38
648.266	197.38
648.471	204.38
648.676	199.38
648.88	195.38
649.085	214.38
649.289	194.38
649.494	187.38
649.698	203.38
649.903	187.38
650.107	191.38
650.312	194.38
650.516	178.38
650.721	183.38
650.925	171.38
651.13	172.38
651.334	173.38
651.539	191.38
651.743	179.38
651.947	186.38
652.152	167.38
652.356	186.38
652.56	172.38
652.764	166.38
652.969	167.38
653.173	170.38
653.377	171.38
653.581	155.38
653.785	148.38
653.99	169.38
654.194	157.38
654.398	141.38
654.602	150.38
654.806	159.38
655.01	133.38
655.214	131.38
655.418	143.38
655.622	143.38
655.826	157.38
656.03	142.38
656.234	162.38
656.438	160.38
656.642	136.38
656.846	153.38
657.049	144.38
657.253	136.38
657.457	125.38
657.661	128.38
657.865	123.38
658.068	114.38
658.272	114.38
658.476	119.38
658.68	109.38
658.883	116.38
659.087	126.38
659.291	115.38
659.494	97.38
659.698	99.38
659.901	110.38
660.105	95.38
660.309	86.38
660.512	112.38
660.716	110.38
660.919	105.38
661.123	102.38
661.326	91.38
661.53	96.38
661.733	90.38
661.936	89.38
662.14	93.38
662.343	98.38
662.546	93.38
662.75	77.38
662.953	83.38
663.156	86.38
663.36	79.38
663.563	69.38
663.766	78.38
663.969	106.38
664.173	78.38
664.376	86.38
664.579	76.38
664.782	88.38
664.985	99.38
665.188	100.38
665.391	85.38
665.594	98.38
665.797	81.38
666	86.38
666.203	98.38
666.406	95.38
666.609	95.38
666.812	84.38
667.015	74.38
667.218	66.38
667.421	82.38
667.624	81.38
667.827	79.38
668.03	78.38
668.232	91.38
668.435	90.38
668.638	79.38
668.841	106.38
669.043	84.38
669.246	93.38
669.449	83.38
669.651	81.38
669.854	92.38
670.057	91.38
670.259	93.38
670.462	77.38
670.665	71.38
670.867	79.38
671.07	75.38
671.272	88.38
671.475	86.38
671.677	77.38
671.88	86.38
672.082	97.38
672.284	75.38
672.487	75.38
672.689	87.38
672.892	81.38
