Data from Ni(NO3)2@0.125M.TitratingCurve.Agarose3%dH2O.NegLispCup.LampEnergy10.LIBS07252019_HRD10591_18-10-19-568.txt Node
Date: Thu Jul 25 18:10:19 EDT 2019
User: cochatt
Spectrometer: HR+D1059
Trigger mode: 1
Integration Time (sec): 1.000000E-1
Scans to average: 1
Electric dark correction enabled: true
Nonlinearity correction enabled: false
Boxcar width: 0
XAxis mode: Wavelengths
Number of Pixels in Spectrum: 2048
>>>>>Begin Spectral Data<<<<<
223.165	-5.62
223.4	-5.62
223.635	-5.62
223.869	-35.62
224.104	-24.62
224.338	-0.62
224.573	-9.62
224.808	-2.62
225.042	-16.62
225.277	-6.62
225.511	-6.62
225.746	12.38
225.98	11.38
226.215	4.38
226.449	10.38
226.683	21.38
226.918	12.38
227.152	36.38
227.387	28.38
227.621	30.38
227.856	30.38
228.09	39.38
228.324	47.38
228.559	52.38
228.793	69.38
229.027	97.38
229.262	100.38
229.496	107.38
229.73	100.38
229.964	93.38
230.199	92.38
230.433	101.38
230.667	115.38
230.901	120.38
231.136	116.38
231.37	103.38
231.604	108.38
231.838	115.38
232.072	115.38
232.306	124.38
232.541	102.38
232.775	123.38
233.009	119.38
233.243	115.38
233.477	120.38
233.711	119.38
233.945	102.38
234.179	128.38
234.413	105.38
234.647	117.38
234.881	120.38
235.115	126.38
235.349	119.38
235.583	109.38
235.817	116.38
236.051	125.38
236.285	119.38
236.519	114.38
236.753	130.38
236.987	121.38
237.221	114.38
237.455	127.38
237.689	125.38
237.922	112.38
238.156	137.38
238.39	140.38
238.624	132.38
238.858	138.38
239.091	135.38
239.325	128.38
239.559	124.38
239.793	138.38
240.027	137.38
240.26	129.38
240.494	135.38
240.728	129.38
240.961	139.38
241.195	140.38
241.429	128.38
241.662	136.38
241.896	151.38
242.13	150.38
242.363	150.38
242.597	147.38
242.83	141.38
243.064	136.38
243.298	149.38
243.531	152.38
243.765	147.38
243.998	147.38
244.232	160.38
244.465	153.38
244.699	140.38
244.932	152.38
245.166	149.38
245.399	152.38
245.633	165.38
245.866	165.38
246.099	171.38
246.333	160.38
246.566	160.38
246.8	155.38
247.033	168.38
247.266	156.38
247.5	164.38
247.733	164.38
247.966	169.38
248.2	164.38
248.433	151.38
248.666	172.38
248.899	167.38
249.133	170.38
249.366	164.38
249.599	170.38
249.832	176.38
250.066	171.38
250.299	184.38
250.532	182.38
250.765	184.38
250.998	176.38
251.231	177.38
251.465	174.38
251.698	195.38
251.931	188.38
252.164	172.38
252.397	192.38
252.63	189.38
252.863	187.38
253.096	186.38
253.329	207.38
253.562	194.38
253.795	197.38
254.028	196.38
254.261	196.38
254.494	214.38
254.727	200.38
254.96	195.38
255.193	193.38
255.426	189.38
255.659	214.38
255.892	217.38
256.124	207.38
256.357	197.38
256.59	201.38
256.823	216.38
257.056	196.38
257.289	200.38
257.521	206.38
257.754	219.38
257.987	212.38
258.22	216.38
258.452	210.38
258.685	205.38
258.918	225.38
259.151	223.38
259.383	231.38
259.616	234.38
259.849	230.38
260.081	219.38
260.314	219.38
260.547	210.38
260.779	223.38
261.012	205.38
261.244	221.38
261.477	241.38
261.71	244.38
261.942	230.38
262.175	221.38
262.407	249.38
262.64	220.38
262.872	234.38
263.105	217.38
263.337	237.38
263.57	220.38
263.802	214.38
264.035	231.38
264.267	242.38
264.499	248.38
264.732	233.38
264.964	244.38
265.197	240.38
265.429	235.38
265.661	254.38
265.894	231.38
266.126	227.38
266.358	250.38
266.591	250.38
266.823	230.38
267.055	252.38
267.287	247.38
267.52	266.38
267.752	243.38
267.984	244.38
268.216	261.38
268.448	275.38
268.681	252.38
268.913	244.38
269.145	254.38
269.377	281.38
269.609	260.38
269.841	246.38
270.073	259.38
270.306	266.38
270.538	249.38
270.77	271.38
271.002	272.38
271.234	259.38
271.466	262.38
271.698	266.38
271.93	256.38
272.162	269.38
272.394	276.38
272.626	276.38
272.858	267.38
273.09	253.38
273.322	252.38
273.553	282.38
273.785	281.38
274.017	282.38
274.249	263.38
274.481	274.38
274.713	267.38
274.945	262.38
275.176	264.38
275.408	266.38
275.64	292.38
275.872	292.38
276.104	275.38
276.335	285.38
276.567	258.38
276.799	308.38
277.031	281.38
277.262	267.38
277.494	293.38
277.726	288.38
277.957	282.38
278.189	291.38
278.421	315.38
278.652	308.38
278.884	313.38
279.115	282.38
279.347	301.38
279.579	299.38
279.81	301.38
280.042	274.38
280.273	304.38
280.505	309.38
280.736	295.38
280.968	309.38
281.199	316.38
281.431	305.38
281.662	314.38
281.894	305.38
282.125	324.38
282.356	298.38
282.588	310.38
282.819	312.38
283.051	327.38
283.282	316.38
283.513	331.38
283.745	317.38
283.976	309.38
284.207	313.38
284.439	308.38
284.67	345.38
284.901	332.38
285.132	320.38
285.364	337.38
285.595	326.38
285.826	338.38
286.057	322.38
286.288	332.38
286.52	326.38
286.751	340.38
286.982	338.38
287.213	341.38
287.444	337.38
287.675	332.38
287.906	344.38
288.138	323.38
288.369	341.38
288.6	356.38
288.831	344.38
289.062	359.38
289.293	345.38
289.524	336.38
289.755	329.38
289.986	334.38
290.217	337.38
290.448	349.38
290.679	360.38
290.91	352.38
291.141	380.38
291.371	347.38
291.602	359.38
291.833	325.38
292.064	348.38
292.295	362.38
292.526	330.38
292.757	349.38
292.987	346.38
293.218	348.38
293.449	352.38
293.68	339.38
293.91	342.38
294.141	373.38
294.372	344.38
294.603	354.38
294.833	379.38
295.064	375.38
295.295	377.38
295.525	350.38
295.756	348.38
295.987	354.38
296.217	379.38
296.448	360.38
296.679	376.38
296.909	360.38
297.14	390.38
297.37	382.38
297.601	361.38
297.831	370.38
298.062	390.38
298.292	382.38
298.523	393.38
298.753	380.38
298.984	366.38
299.214	374.38
299.445	365.38
299.675	384.38
299.905	380.38
300.136	373.38
300.366	386.38
300.597	380.38
300.827	383.38
301.057	411.38
301.288	395.38
301.518	402.38
301.748	400.38
301.979	396.38
302.209	396.38
302.439	401.38
302.669	384.38
302.9	396.38
303.13	393.38
303.36	402.38
303.59	387.38
303.82	404.38
304.051	395.38
304.281	392.38
304.511	391.38
304.741	397.38
304.971	403.38
305.201	387.38
305.431	407.38
305.661	401.38
305.891	395.38
306.121	382.38
306.352	392.38
306.582	377.38
306.812	398.38
307.042	404.38
307.272	384.38
307.502	378.38
307.731	376.38
307.961	378.38
308.191	389.38
308.421	361.38
308.651	386.38
308.881	383.38
309.111	397.38
309.341	382.38
309.571	402.38
309.8	408.38
310.03	398.38
310.26	387.38
310.49	391.38
310.72	396.38
310.949	396.38
311.179	406.38
311.409	383.38
311.639	400.38
311.868	409.38
312.098	392.38
312.328	398.38
312.557	424.38
312.787	407.38
313.017	412.38
313.246	435.38
313.476	404.38
313.706	413.38
313.935	430.38
314.165	402.38
314.394	436.38
314.624	424.38
314.853	400.38
315.083	402.38
315.312	438.38
315.542	406.38
315.771	425.38
316.001	419.38
316.23	410.38
316.46	418.38
316.689	423.38
316.919	412.38
317.148	407.38
317.377	433.38
317.607	396.38
317.836	408.38
318.065	394.38
318.295	424.38
318.524	409.38
318.753	403.38
318.983	417.38
319.212	388.38
319.441	417.38
319.67	403.38
319.9	412.38
320.129	382.38
320.358	397.38
320.587	397.38
320.816	419.38
321.046	408.38
321.275	419.38
321.504	414.38
321.733	436.38
321.962	388.38
322.191	423.38
322.42	425.38
322.649	413.38
322.878	411.38
323.108	420.38
323.337	422.38
323.566	419.38
323.795	429.38
324.024	438.38
324.253	412.38
324.482	418.38
324.71	397.38
324.939	438.38
325.168	416.38
325.397	429.38
325.626	470.38
325.855	462.38
326.084	437.38
326.313	461.38
326.542	462.38
326.77	462.38
326.999	452.38
327.228	452.38
327.457	449.38
327.686	446.38
327.914	458.38
328.143	442.38
328.372	471.38
328.6	472.38
328.829	456.38
329.058	442.38
329.287	469.38
329.515	461.38
329.744	452.38
329.972	467.38
330.201	440.38
330.43	458.38
330.658	471.38
330.887	477.38
331.115	498.38
331.344	493.38
331.572	490.38
331.801	503.38
332.03	526.38
332.258	529.38
332.486	519.38
332.715	556.38
332.943	584.38
333.172	576.38
333.4	586.38
333.629	629.38
333.857	636.38
334.085	626.38
334.314	606.38
334.542	599.38
334.771	594.38
334.999	583.38
335.227	590.38
335.455	572.38
335.684	583.38
335.912	549.38
336.14	577.38
336.369	563.38
336.597	553.38
336.825	553.38
337.053	559.38
337.281	538.38
337.51	522.38
337.738	522.38
337.966	538.38
338.194	518.38
338.422	495.38
338.65	494.38
338.878	493.38
339.106	518.38
339.334	503.38
339.562	489.38
339.79	465.38
340.018	476.38
340.246	477.38
340.474	457.38
340.702	483.38
340.93	488.38
341.158	480.38
341.386	502.38
341.614	488.38
341.842	491.38
342.07	461.38
342.298	461.38
342.526	484.38
342.754	479.38
342.981	480.38
343.209	494.38
343.437	520.38
343.665	540.38
343.893	609.38
344.12	592.38
344.348	568.38
344.576	523.38
344.804	508.38
345.031	515.38
345.259	483.38
345.487	485.38
345.714	485.38
345.942	469.38
346.17	493.38
346.397	477.38
346.625	475.38
346.853	445.38
347.08	473.38
347.308	469.38
347.535	470.38
347.763	462.38
347.99	499.38
348.218	476.38
348.445	456.38
348.673	470.38
348.9	451.38
349.128	460.38
349.355	458.38
349.583	475.38
349.81	482.38
350.037	457.38
350.265	461.38
350.492	455.38
350.72	445.38
350.947	452.38
351.174	456.38
351.402	456.38
351.629	470.38
351.856	450.38
352.083	470.38
352.311	476.38
352.538	464.38
352.765	445.38
352.992	450.38
353.22	456.38
353.447	453.38
353.674	449.38
353.901	452.38
354.128	461.38
354.355	440.38
354.583	450.38
354.81	484.38
355.037	428.38
355.264	456.38
355.491	456.38
355.718	461.38
355.945	450.38
356.172	468.38
356.399	444.38
356.626	461.38
356.853	468.38
357.08	466.38
357.307	461.38
357.534	445.38
357.761	468.38
357.988	449.38
358.215	436.38
358.441	469.38
358.668	461.38
358.895	447.38
359.122	452.38
359.349	444.38
359.576	468.38
359.802	446.38
360.029	450.38
360.256	456.38
360.483	456.38
360.709	450.38
360.936	465.38
361.163	461.38
361.39	462.38
361.616	452.38
361.843	462.38
362.07	449.38
362.296	453.38
362.523	446.38
362.749	454.38
362.976	451.38
363.203	447.38
363.429	442.38
363.656	442.38
363.882	436.38
364.109	438.38
364.335	444.38
364.562	450.38
364.788	457.38
365.015	467.38
365.241	448.38
365.468	448.38
365.694	457.38
365.92	461.38
366.147	443.38
366.373	456.38
366.599	446.38
366.826	446.38
367.052	452.38
367.278	465.38
367.505	453.38
367.731	452.38
367.957	464.38
368.184	466.38
368.41	463.38
368.636	471.38
368.862	466.38
369.089	475.38
369.315	457.38
369.541	467.38
369.767	492.38
369.993	479.38
370.219	462.38
370.445	477.38
370.672	485.38
370.898	473.38
371.124	505.38
371.35	485.38
371.576	515.38
371.802	489.38
372.028	482.38
372.254	488.38
372.48	492.38
372.706	501.38
372.932	501.38
373.158	499.38
373.384	502.38
373.61	489.38
373.835	497.38
374.061	502.38
374.287	502.38
374.513	494.38
374.739	520.38
374.965	535.38
375.191	536.38
375.416	534.38
375.642	552.38
375.868	510.38
376.094	517.38
376.319	485.38
376.545	488.38
376.771	492.38
376.997	512.38
377.222	514.38
377.448	516.38
377.674	507.38
377.899	496.38
378.125	489.38
378.35	461.38
378.576	504.38
378.802	476.38
379.027	482.38
379.253	492.38
379.478	486.38
379.704	482.38
379.929	491.38
380.155	496.38
380.38	484.38
380.606	486.38
380.831	484.38
381.057	488.38
381.282	486.38
381.507	497.38
381.733	491.38
381.958	510.38
382.184	497.38
382.409	513.38
382.634	507.38
382.86	523.38
383.085	531.38
383.31	537.38
383.535	533.38
383.761	557.38
383.986	584.38
384.211	562.38
384.436	582.38
384.662	579.38
384.887	567.38
385.112	588.38
385.337	604.38
385.562	581.38
385.787	586.38
386.013	598.38
386.238	599.38
386.463	578.38
386.688	599.38
386.913	591.38
387.138	565.38
387.363	564.38
387.588	570.38
387.813	560.38
388.038	575.38
388.263	597.38
388.488	590.38
388.713	589.38
388.938	562.38
389.163	564.38
389.387	583.38
389.612	562.38
389.837	577.38
390.062	570.38
390.287	566.38
390.512	581.38
390.736	583.38
390.961	594.38
391.186	588.38
391.411	627.38
391.636	649.38
391.86	663.38
392.085	678.38
392.31	668.38
392.534	634.38
392.759	639.38
392.984	635.38
393.208	619.38
393.433	601.38
393.658	635.38
393.882	611.38
394.107	640.38
394.331	625.38
394.556	636.38
394.78	625.38
395.005	622.38
395.229	648.38
395.454	628.38
395.678	666.38
395.903	660.38
396.127	664.38
396.352	636.38
396.576	609.38
396.801	640.38
397.025	638.38
397.249	649.38
397.474	657.38
397.698	678.38
397.922	652.38
398.147	654.38
398.371	696.38
398.595	695.38
398.82	701.38
399.044	782.38
399.268	857.38
399.492	1020.38
399.717	1122.38
399.941	1110.38
400.165	954.38
400.389	882.38
400.613	821.38
400.837	753.38
401.062	744.38
401.286	739.38
401.51	730.38
401.734	741.38
401.958	744.38
402.182	754.38
402.406	742.38
402.63	778.38
402.854	794.38
403.078	789.38
403.302	815.38
403.526	834.38
403.75	854.38
403.974	872.38
404.198	856.38
404.422	871.38
404.645	833.38
404.869	828.38
405.093	846.38
405.317	854.38
405.541	830.38
405.765	800.38
405.988	796.38
406.212	790.38
406.436	808.38
406.66	847.38
406.883	838.38
407.107	859.38
407.331	906.38
407.555	976.38
407.778	946.38
408.002	921.38
408.226	887.38
408.449	908.38
408.673	834.38
408.896	848.38
409.12	834.38
409.344	831.38
409.567	825.38
409.791	860.38
410.014	841.38
410.238	832.38
410.461	846.38
410.685	822.38
410.908	780.38
411.132	788.38
411.355	742.38
411.578	758.38
411.802	738.38
412.025	772.38
412.249	808.38
412.472	770.38
412.695	745.38
412.919	717.38
413.142	748.38
413.365	733.38
413.589	769.38
413.812	725.38
414.035	723.38
414.258	701.38
414.482	745.38
414.705	744.38
414.928	745.38
415.151	749.38
415.374	738.38
415.597	746.38
415.821	741.38
416.044	734.38
416.267	718.38
416.49	711.38
416.713	713.38
416.936	737.38
417.159	715.38
417.382	732.38
417.605	725.38
417.828	734.38
418.051	733.38
418.274	708.38
418.497	727.38
418.72	775.38
418.943	758.38
419.166	805.38
419.389	850.38
419.611	820.38
419.834	825.38
420.057	779.38
420.28	733.38
420.503	733.38
420.726	721.38
420.948	712.38
421.171	736.38
421.394	740.38
421.617	702.38
421.839	741.38
422.062	746.38
422.285	731.38
422.507	773.38
422.73	757.38
422.953	772.38
423.175	780.38
423.398	797.38
423.621	776.38
423.843	805.38
424.066	794.38
424.288	783.38
424.511	755.38
424.733	736.38
424.956	733.38
425.178	754.38
425.401	752.38
425.623	743.38
425.846	703.38
426.068	708.38
426.291	690.38
426.513	693.38
426.735	675.38
426.958	699.38
427.18	664.38
427.402	661.38
427.625	688.38
427.847	667.38
428.069	648.38
428.292	674.38
428.514	630.38
428.736	646.38
428.958	654.38
429.181	633.38
429.403	636.38
429.625	663.38
429.847	637.38
430.069	628.38
430.292	642.38
430.514	632.38
430.736	644.38
430.958	644.38
431.18	675.38
431.402	625.38
431.624	642.38
431.846	652.38
432.068	673.38
432.29	667.38
432.512	654.38
432.734	636.38
432.956	652.38
433.178	666.38
433.4	674.38
433.622	696.38
433.844	683.38
434.066	693.38
434.287	684.38
434.509	698.38
434.731	723.38
434.953	732.38
435.175	747.38
435.397	730.38
435.618	706.38
435.84	691.38
436.062	670.38
436.284	661.38
436.505	684.38
436.727	665.38
436.949	685.38
437.17	657.38
437.392	653.38
437.614	661.38
437.835	637.38
438.057	658.38
438.278	619.38
438.5	643.38
438.721	653.38
438.943	660.38
439.165	666.38
439.386	650.38
439.608	642.38
439.829	658.38
440.05	671.38
440.272	656.38
440.493	633.38
440.715	672.38
440.936	652.38
441.158	714.38
441.379	712.38
441.6	769.38
441.822	728.38
442.043	728.38
442.264	753.38
442.486	713.38
442.707	730.38
442.928	725.38
443.149	735.38
443.371	737.38
443.592	727.38
443.813	718.38
444.034	734.38
444.255	803.38
444.476	803.38
444.698	861.38
444.919	881.38
445.14	966.38
445.361	868.38
445.582	734.38
445.803	729.38
446.024	691.38
446.245	682.38
446.466	654.38
446.687	692.38
446.908	701.38
447.129	656.38
447.35	651.38
447.571	636.38
447.792	630.38
448.013	651.38
448.234	627.38
448.455	609.38
448.675	602.38
448.896	629.38
449.117	604.38
449.338	589.38
449.559	605.38
449.779	597.38
450	621.38
450.221	613.38
450.442	605.38
450.662	627.38
450.883	615.38
451.104	633.38
451.324	644.38
451.545	620.38
451.766	634.38
451.986	599.38
452.207	598.38
452.428	586.38
452.648	605.38
452.869	584.38
453.089	598.38
453.31	615.38
453.53	591.38
453.751	607.38
453.971	583.38
454.192	577.38
454.412	584.38
454.633	579.38
454.853	580.38
455.073	604.38
455.294	576.38
455.514	590.38
455.734	581.38
455.955	574.38
456.175	593.38
456.395	548.38
456.616	548.38
456.836	590.38
457.056	565.38
457.276	545.38
457.497	581.38
457.717	584.38
457.937	580.38
458.157	595.38
458.377	597.38
458.598	583.38
458.818	614.38
459.038	625.38
459.258	653.38
459.478	648.38
459.698	676.38
459.918	714.38
460.138	712.38
460.358	762.38
460.578	788.38
460.798	785.38
461.018	797.38
461.238	799.38
461.458	789.38
461.678	747.38
461.898	779.38
462.118	786.38
462.338	828.38
462.558	847.38
462.777	888.38
462.997	961.38
463.217	1056.38
463.437	1059.38
463.657	961.38
463.876	920.38
464.096	933.38
464.316	917.38
464.536	922.38
464.755	891.38
464.975	844.38
465.195	790.38
465.414	772.38
465.634	720.38
465.854	704.38
466.073	692.38
466.293	683.38
466.512	659.38
466.732	667.38
466.951	637.38
467.171	662.38
467.391	631.38
467.61	631.38
467.829	651.38
468.049	643.38
468.268	617.38
468.488	617.38
468.707	615.38
468.927	614.38
469.146	624.38
469.365	626.38
469.585	632.38
469.804	638.38
470.023	652.38
470.243	647.38
470.462	680.38
470.681	678.38
470.901	668.38
471.12	665.38
471.339	664.38
471.558	632.38
471.777	633.38
471.997	618.38
472.216	594.38
472.435	612.38
472.654	612.38
472.873	593.38
473.092	599.38
473.311	614.38
473.53	590.38
473.749	592.38
473.968	584.38
474.187	593.38
474.406	605.38
474.625	597.38
474.844	602.38
475.063	625.38
475.282	595.38
475.501	595.38
475.72	619.38
475.939	607.38
476.158	616.38
476.377	619.38
476.596	612.38
476.814	642.38
477.033	619.38
477.252	647.38
477.471	650.38
477.69	685.38
477.908	688.38
478.127	695.38
478.346	718.38
478.564	724.38
478.783	741.38
479.002	727.38
479.22	738.38
479.439	731.38
479.658	708.38
479.876	721.38
480.095	732.38
480.313	784.38
480.532	790.38
480.751	791.38
480.969	744.38
481.188	732.38
481.406	695.38
481.624	681.38
481.843	683.38
482.061	675.38
482.28	668.38
482.498	691.38
482.717	675.38
482.935	686.38
483.153	712.38
483.372	683.38
483.59	684.38
483.808	688.38
484.027	670.38
484.245	682.38
484.463	678.38
484.681	717.38
484.9	718.38
485.118	699.38
485.336	701.38
485.554	713.38
485.772	723.38
485.99	716.38
486.209	726.38
486.427	721.38
486.645	699.38
486.863	695.38
487.081	694.38
487.299	697.38
487.517	704.38
487.735	724.38
487.953	726.38
488.171	708.38
488.389	720.38
488.607	659.38
488.825	708.38
489.043	676.38
489.261	692.38
489.479	703.38
489.696	697.38
489.914	712.38
490.132	715.38
490.35	711.38
490.568	697.38
490.786	698.38
491.003	708.38
491.221	730.38
491.439	728.38
491.657	693.38
491.874	728.38
492.092	706.38
492.31	737.38
492.527	725.38
492.745	734.38
492.963	748.38
493.18	726.38
493.398	750.38
493.615	740.38
493.833	740.38
494.05	754.38
494.268	740.38
494.485	752.38
494.703	730.38
494.92	764.38
495.138	722.38
495.355	747.38
495.573	764.38
495.79	754.38
496.008	752.38
496.225	746.38
496.442	788.38
496.66	808.38
496.877	803.38
497.094	799.38
497.312	803.38
497.529	835.38
497.746	855.38
497.963	872.38
498.181	891.38
498.398	947.38
498.615	985.38
498.832	1088.38
499.049	1147.38
499.267	1252.38
499.484	1339.38
499.701	1498.38
499.918	1698.38
500.135	1865.38
500.352	2185.38
500.569	2299.38
500.786	2242.38
501.003	2122.38
501.22	1844.38
501.437	1626.38
501.654	1432.38
501.871	1303.38
502.088	1202.38
502.305	1118.38
502.522	1048.38
502.739	1050.38
502.956	961.38
503.172	910.38
503.389	886.38
503.606	847.38
503.823	833.38
504.04	840.38
504.256	838.38
504.473	876.38
504.69	921.38
504.907	883.38
505.123	837.38
505.34	770.38
505.557	755.38
505.773	730.38
505.99	715.38
506.207	718.38
506.423	678.38
506.64	681.38
506.856	691.38
507.073	672.38
507.289	669.38
507.506	674.38
507.722	656.38
507.939	643.38
508.155	635.38
508.372	646.38
508.588	630.38
508.805	633.38
509.021	637.38
509.238	622.38
509.454	626.38
509.67	647.38
509.887	643.38
510.103	628.38
510.319	620.38
510.536	580.38
510.752	595.38
510.968	601.38
511.184	590.38
511.401	621.38
511.617	617.38
511.833	588.38
512.049	607.38
512.265	599.38
512.481	580.38
512.698	578.38
512.914	601.38
513.13	610.38
513.346	592.38
513.562	595.38
513.778	592.38
513.994	608.38
514.21	618.38
514.426	598.38
514.642	593.38
514.858	604.38
515.074	634.38
515.29	631.38
515.506	616.38
515.721	613.38
515.937	643.38
516.153	654.38
516.369	654.38
516.585	675.38
516.801	701.38
517.016	750.38
517.232	796.38
517.448	826.38
517.664	850.38
517.879	848.38
518.095	854.38
518.311	841.38
518.527	786.38
518.742	757.38
518.958	725.38
519.173	678.38
519.389	696.38
519.605	658.38
519.82	649.38
520.036	639.38
520.251	642.38
520.467	618.38
520.682	606.38
520.898	599.38
521.113	579.38
521.329	617.38
521.544	606.38
521.76	581.38
521.975	582.38
522.19	577.38
522.406	583.38
522.621	577.38
522.836	586.38
523.052	588.38
523.267	580.38
523.482	567.38
523.698	550.38
523.913	557.38
524.128	538.38
524.343	567.38
524.559	556.38
524.774	572.38
524.989	564.38
525.204	567.38
525.419	557.38
525.634	551.38
525.849	557.38
526.064	556.38
526.28	557.38
526.495	556.38
526.71	562.38
526.925	566.38
527.14	527.38
527.355	534.38
527.57	544.38
527.785	549.38
527.999	534.38
528.214	569.38
528.429	543.38
528.644	558.38
528.859	542.38
529.074	562.38
529.289	562.38
529.503	562.38
529.718	550.38
529.933	572.38
530.148	549.38
530.363	555.38
530.577	539.38
530.792	540.38
531.007	517.38
531.221	557.38
531.436	542.38
531.651	534.38
531.865	544.38
532.08	557.38
532.295	550.38
532.509	553.38
532.724	551.38
532.938	555.38
533.153	536.38
533.367	532.38
533.582	545.38
533.796	535.38
534.011	538.38
534.225	536.38
534.44	540.38
534.654	524.38
534.868	529.38
535.083	532.38
535.297	515.38
535.511	540.38
535.726	529.38
535.94	525.38
536.154	516.38
536.369	527.38
536.583	511.38
536.797	520.38
537.011	519.38
537.225	489.38
537.44	505.38
537.654	511.38
537.868	514.38
538.082	499.38
538.296	513.38
538.51	502.38
538.724	523.38
538.938	504.38
539.153	505.38
539.367	512.38
539.581	506.38
539.795	513.38
540.009	498.38
540.222	493.38
540.436	478.38
540.65	504.38
540.864	466.38
541.078	514.38
541.292	517.38
541.506	475.38
541.72	489.38
541.934	485.38
542.147	499.38
542.361	499.38
542.575	473.38
542.789	484.38
543.002	478.38
543.216	484.38
543.43	498.38
543.644	489.38
543.857	492.38
544.071	504.38
544.285	496.38
544.498	514.38
544.712	491.38
544.925	477.38
545.139	520.38
545.352	514.38
545.566	527.38
545.779	516.38
545.993	505.38
546.206	530.38
546.42	505.38
546.633	506.38
546.847	525.38
547.06	496.38
547.274	500.38
547.487	509.38
547.7	525.38
547.914	520.38
548.127	502.38
548.34	514.38
548.554	520.38
548.767	512.38
548.98	517.38
549.193	526.38
549.407	517.38
549.62	536.38
549.833	530.38
550.046	527.38
550.259	510.38
550.473	489.38
550.686	487.38
550.899	510.38
551.112	512.38
551.325	481.38
551.538	507.38
551.751	483.38
551.964	509.38
552.177	502.38
552.39	527.38
552.603	538.38
552.816	542.38
553.029	541.38
553.242	545.38
553.455	591.38
553.667	581.38
553.88	594.38
554.093	539.38
554.306	523.38
554.519	516.38
554.732	509.38
554.944	492.38
555.157	478.38
555.37	491.38
555.583	500.38
555.795	478.38
556.008	482.38
556.221	468.38
556.433	453.38
556.646	448.38
556.859	438.38
557.071	444.38
557.284	440.38
557.496	437.38
557.709	456.38
557.921	461.38
558.134	452.38
558.346	431.38
558.559	424.38
558.771	440.38
558.984	422.38
559.196	434.38
559.409	422.38
559.621	423.38
559.833	423.38
560.046	420.38
560.258	414.38
560.47	426.38
560.683	416.38
560.895	415.38
561.107	420.38
561.32	418.38
561.532	421.38
561.744	443.38
561.956	442.38
562.168	412.38
562.381	419.38
562.593	410.38
562.805	444.38
563.017	430.38
563.229	422.38
563.441	422.38
563.653	436.38
563.865	428.38
564.077	432.38
564.289	428.38
564.501	448.38
564.713	443.38
564.925	455.38
565.137	460.38
565.349	480.38
565.561	465.38
565.773	484.38
565.985	530.38
566.197	547.38
566.408	570.38
566.62	626.38
566.832	695.38
567.044	705.38
567.255	680.38
567.467	698.38
567.679	731.38
567.891	797.38
568.102	830.38
568.314	771.38
568.526	679.38
568.737	642.38
568.949	592.38
569.161	525.38
569.372	504.38
569.584	458.38
569.795	453.38
570.007	434.38
570.218	429.38
570.43	432.38
570.641	425.38
570.853	436.38
571.064	427.38
571.276	435.38
571.487	409.38
571.698	418.38
571.91	403.38
572.121	397.38
572.333	389.38
572.544	373.38
572.755	361.38
572.966	376.38
573.178	378.38
573.389	358.38
573.6	345.38
573.811	357.38
574.023	344.38
574.234	354.38
574.445	342.38
574.656	363.38
574.867	346.38
575.078	344.38
575.289	346.38
575.501	352.38
575.712	336.38
575.923	336.38
576.134	327.38
576.345	338.38
576.556	333.38
576.767	333.38
576.978	341.38
577.188	338.38
577.399	327.38
577.61	312.38
577.821	332.38
578.032	314.38
578.243	317.38
578.454	316.38
578.665	326.38
578.875	312.38
579.086	338.38
579.297	308.38
579.508	317.38
579.718	308.38
579.929	284.38
580.14	322.38
580.35	312.38
580.561	317.38
580.772	304.38
580.982	322.38
581.193	304.38
581.403	314.38
581.614	306.38
581.825	313.38
582.035	295.38
582.246	320.38
582.456	294.38
582.667	286.38
582.877	296.38
583.087	298.38
583.298	289.38
583.508	306.38
583.719	279.38
583.929	304.38
584.139	296.38
584.35	284.38
584.56	292.38
584.77	285.38
584.981	313.38
585.191	316.38
585.401	296.38
585.611	296.38
585.821	301.38
586.032	286.38
586.242	282.38
586.452	280.38
586.662	306.38
586.872	278.38
587.082	290.38
587.292	279.38
587.502	285.38
587.713	293.38
587.923	281.38
588.133	292.38
588.343	277.38
588.553	301.38
588.762	281.38
588.972	277.38
589.182	288.38
589.392	287.38
589.602	285.38
589.812	292.38
590.022	269.38
590.232	285.38
590.441	290.38
590.651	295.38
590.861	292.38
591.071	318.38
591.281	289.38
591.49	311.38
591.7	308.38
591.91	308.38
592.119	307.38
592.329	314.38
592.539	328.38
592.748	333.38
592.958	354.38
593.167	361.38
593.377	357.38
593.587	365.38
593.796	361.38
594.006	372.38
594.215	374.38
594.424	357.38
594.634	356.38
594.843	348.38
595.053	326.38
595.262	315.38
595.472	336.38
595.681	304.38
595.89	310.38
596.1	293.38
596.309	280.38
596.518	268.38
596.727	260.38
596.937	257.38
597.146	278.38
597.355	270.38
597.564	258.38
597.774	266.38
597.983	263.38
598.192	245.38
598.401	252.38
598.61	242.38
598.819	248.38
599.028	246.38
599.237	268.38
599.446	262.38
599.655	250.38
599.864	237.38
600.073	248.38
600.282	249.38
600.491	249.38
600.7	235.38
600.909	255.38
601.118	240.38
601.327	260.38
601.536	224.38
601.745	225.38
601.953	246.38
602.162	240.38
602.371	230.38
602.58	224.38
602.789	229.38
602.997	235.38
603.206	260.38
603.415	222.38
603.623	240.38
603.832	230.38
604.041	216.38
604.249	219.38
604.458	239.38
604.666	236.38
604.875	234.38
605.084	232.38
605.292	228.38
605.501	210.38
605.709	235.38
605.918	224.38
606.126	220.38
606.334	223.38
606.543	225.38
606.751	217.38
606.96	230.38
607.168	222.38
607.376	233.38
607.585	242.38
607.793	229.38
608.001	217.38
608.21	233.38
608.418	219.38
608.626	217.38
608.834	223.38
609.043	223.38
609.251	230.38
609.459	226.38
609.667	225.38
609.875	215.38
610.083	221.38
610.291	218.38
610.499	222.38
610.707	219.38
610.916	208.38
611.124	212.38
611.332	233.38
611.54	237.38
611.748	222.38
611.955	211.38
612.163	217.38
612.371	225.38
612.579	219.38
612.787	213.38
612.995	212.38
613.203	225.38
613.411	206.38
613.618	214.38
613.826	224.38
614.034	222.38
614.242	202.38
614.449	234.38
614.657	216.38
614.865	224.38
615.072	219.38
615.28	210.38
615.488	217.38
615.695	227.38
615.903	220.38
616.111	203.38
616.318	219.38
616.526	207.38
616.733	224.38
616.941	227.38
617.148	220.38
617.356	232.38
617.563	245.38
617.771	227.38
617.978	222.38
618.185	220.38
618.393	219.38
618.6	220.38
618.807	204.38
619.015	216.38
619.222	212.38
619.429	227.38
619.637	219.38
619.844	217.38
620.051	212.38
620.258	211.38
620.466	206.38
620.673	201.38
620.88	193.38
621.087	211.38
621.294	209.38
621.501	196.38
621.708	202.38
621.915	192.38
622.122	208.38
622.329	205.38
622.536	197.38
622.743	194.38
622.95	187.38
623.157	195.38
623.364	195.38
623.571	188.38
623.778	193.38
623.985	197.38
624.192	192.38
624.399	180.38
624.606	201.38
624.812	189.38
625.019	171.38
625.226	185.38
625.433	210.38
625.639	198.38
625.846	181.38
626.053	193.38
626.259	198.38
626.466	198.38
626.673	181.38
626.879	175.38
627.086	185.38
627.293	176.38
627.499	189.38
627.706	190.38
627.912	179.38
628.119	193.38
628.325	179.38
628.532	180.38
628.738	172.38
628.945	183.38
629.151	170.38
629.357	194.38
629.564	183.38
629.77	171.38
629.976	172.38
630.183	170.38
630.389	184.38
630.595	184.38
630.802	177.38
631.008	170.38
631.214	165.38
631.42	181.38
631.627	184.38
631.833	171.38
632.039	188.38
632.245	173.38
632.451	181.38
632.657	166.38
632.863	169.38
633.069	177.38
633.275	179.38
633.481	183.38
633.688	182.38
633.893	176.38
634.099	172.38
634.305	178.38
634.511	173.38
634.717	172.38
634.923	165.38
635.129	162.38
635.335	162.38
635.541	164.38
635.747	170.38
635.952	179.38
636.158	186.38
636.364	172.38
636.57	172.38
636.775	165.38
636.981	173.38
637.187	168.38
637.392	170.38
637.598	171.38
637.804	173.38
638.009	174.38
638.215	166.38
638.421	167.38
638.626	178.38
638.832	157.38
639.037	172.38
639.243	162.38
639.448	166.38
639.654	148.38
639.859	150.38
640.065	161.38
640.27	156.38
640.475	156.38
640.681	133.38
640.886	154.38
641.091	146.38
641.297	142.38
641.502	142.38
641.707	152.38
641.913	150.38
642.118	153.38
642.323	162.38
642.528	152.38
642.733	162.38
642.939	161.38
643.144	148.38
643.349	169.38
643.554	153.38
643.759	158.38
643.964	150.38
644.169	156.38
644.374	144.38
644.579	153.38
644.784	146.38
644.989	165.38
645.194	147.38
645.399	152.38
645.604	155.38
645.809	153.38
646.014	149.38
646.219	152.38
646.423	145.38
646.628	159.38
646.833	164.38
647.038	148.38
647.243	152.38
647.447	161.38
647.652	168.38
647.857	169.38
648.062	185.38
648.266	168.38
648.471	160.38
648.676	162.38
648.88	161.38
649.085	150.38
649.289	166.38
649.494	152.38
649.698	164.38
649.903	157.38
650.107	170.38
650.312	144.38
650.516	139.38
650.721	148.38
650.925	137.38
651.13	142.38
651.334	154.38
651.539	142.38
651.743	145.38
651.947	124.38
652.152	148.38
652.356	141.38
652.56	129.38
652.764	137.38
652.969	128.38
653.173	124.38
653.377	116.38
653.581	117.38
653.785	131.38
653.99	140.38
654.194	138.38
654.398	118.38
654.602	117.38
654.806	122.38
655.01	125.38
655.214	121.38
655.418	129.38
655.622	126.38
655.826	133.38
656.03	124.38
656.234	125.38
656.438	123.38
656.642	128.38
656.846	115.38
657.049	140.38
657.253	118.38
657.457	123.38
657.661	104.38
657.865	114.38
658.068	100.38
658.272	99.38
658.476	104.38
658.68	121.38
658.883	111.38
659.087	109.38
659.291	122.38
659.494	98.38
659.698	78.38
659.901	80.38
660.105	74.38
660.309	104.38
660.512	100.38
660.716	93.38
660.919	87.38
661.123	100.38
661.326	87.38
661.53	83.38
661.733	100.38
661.936	81.38
662.14	68.38
662.343	75.38
662.546	96.38
662.75	81.38
662.953	86.38
663.156	78.38
663.36	78.38
663.563	72.38
663.766	87.38
663.969	82.38
664.173	75.38
664.376	100.38
664.579	76.38
664.782	76.38
664.985	78.38
665.188	83.38
665.391	67.38
665.594	88.38
665.797	79.38
666	84.38
666.203	71.38
666.406	76.38
666.609	83.38
666.812	85.38
667.015	75.38
667.218	79.38
667.421	80.38
667.624	88.38
667.827	59.38
668.03	72.38
668.232	75.38
668.435	88.38
668.638	82.38
668.841	76.38
669.043	73.38
669.246	87.38
669.449	86.38
669.651	72.38
669.854	76.38
670.057	73.38
670.259	84.38
670.462	95.38
670.665	73.38
670.867	96.38
671.07	85.38
671.272	77.38
671.475	90.38
671.677	73.38
671.88	72.38
672.082	87.38
672.284	96.38
672.487	85.38
672.689	85.38
672.892	91.38
