Data from Ni(NO3)2@0.0625M.TitratingCurve.Agarose3%dH2O.NegLispCup.LampEnergy10.LIBS07252019_HRD10591_18-14-22-569.txt Node
Date: Thu Jul 25 18:14:22 EDT 2019
User: cochatt
Spectrometer: HR+D1059
Trigger mode: 1
Integration Time (sec): 1.000000E-1
Scans to average: 1
Electric dark correction enabled: true
Nonlinearity correction enabled: false
Boxcar width: 0
XAxis mode: Wavelengths
Number of Pixels in Spectrum: 2048
>>>>>Begin Spectral Data<<<<<
223.165	-4.25
223.4	-4.25
223.635	-4.25
223.869	-21.25
224.104	-2.25
224.338	-14.25
224.573	-26.25
224.808	-20.25
225.042	-17.25
225.277	1.75
225.511	1.75
225.746	3.75
225.98	2.75
226.215	5.75
226.449	11.75
226.683	23.75
226.918	26.75
227.152	27.75
227.387	38.75
227.621	35.75
227.856	49.75
228.09	39.75
228.324	57.75
228.559	51.75
228.793	60.75
229.027	90.75
229.262	99.75
229.496	93.75
229.73	103.75
229.964	122.75
230.199	123.75
230.433	97.75
230.667	110.75
230.901	112.75
231.136	135.75
231.37	133.75
231.604	124.75
231.838	119.75
232.072	126.75
232.306	117.75
232.541	117.75
232.775	123.75
233.009	140.75
233.243	133.75
233.477	131.75
233.711	111.75
233.945	136.75
234.179	127.75
234.413	134.75
234.647	128.75
234.881	132.75
235.115	119.75
235.349	148.75
235.583	134.75
235.817	126.75
236.051	127.75
236.285	143.75
236.519	128.75
236.753	131.75
236.987	133.75
237.221	132.75
237.455	131.75
237.689	131.75
237.922	154.75
238.156	143.75
238.39	139.75
238.624	140.75
238.858	131.75
239.091	145.75
239.325	153.75
239.559	140.75
239.793	154.75
240.027	143.75
240.26	154.75
240.494	141.75
240.728	143.75
240.961	148.75
241.195	151.75
241.429	159.75
241.662	162.75
241.896	164.75
242.13	167.75
242.363	158.75
242.597	162.75
242.83	166.75
243.064	164.75
243.298	174.75
243.531	170.75
243.765	169.75
243.998	169.75
244.232	188.75
244.465	175.75
244.699	153.75
244.932	159.75
245.166	168.75
245.399	192.75
245.633	184.75
245.866	182.75
246.099	183.75
246.333	201.75
246.566	174.75
246.8	174.75
247.033	192.75
247.266	190.75
247.5	184.75
247.733	183.75
247.966	179.75
248.2	193.75
248.433	198.75
248.666	195.75
248.899	189.75
249.133	198.75
249.366	197.75
249.599	206.75
249.832	187.75
250.066	214.75
250.299	206.75
250.532	193.75
250.765	209.75
250.998	198.75
251.231	217.75
251.465	198.75
251.698	214.75
251.931	216.75
252.164	215.75
252.397	210.75
252.63	201.75
252.863	181.75
253.096	217.75
253.329	202.75
253.562	205.75
253.795	211.75
254.028	223.75
254.261	227.75
254.494	220.75
254.727	205.75
254.96	200.75
255.193	207.75
255.426	217.75
255.659	227.75
255.892	211.75
256.124	214.75
256.357	217.75
256.59	232.75
256.823	229.75
257.056	231.75
257.289	225.75
257.521	244.75
257.754	233.75
257.987	261.75
258.22	242.75
258.452	241.75
258.685	241.75
258.918	229.75
259.151	258.75
259.383	246.75
259.616	244.75
259.849	242.75
260.081	247.75
260.314	231.75
260.547	241.75
260.779	228.75
261.012	234.75
261.244	241.75
261.477	257.75
261.71	244.75
261.942	261.75
262.175	267.75
262.407	266.75
262.64	253.75
262.872	247.75
263.105	257.75
263.337	257.75
263.57	250.75
263.802	266.75
264.035	272.75
264.267	265.75
264.499	275.75
264.732	277.75
264.964	274.75
265.197	275.75
265.429	282.75
265.661	274.75
265.894	284.75
266.126	260.75
266.358	255.75
266.591	265.75
266.823	260.75
267.055	265.75
267.287	277.75
267.52	272.75
267.752	266.75
267.984	283.75
268.216	284.75
268.448	275.75
268.681	279.75
268.913	265.75
269.145	291.75
269.377	286.75
269.609	290.75
269.841	290.75
270.073	286.75
270.306	281.75
270.538	284.75
270.77	285.75
271.002	303.75
271.234	269.75
271.466	285.75
271.698	282.75
271.93	287.75
272.162	297.75
272.394	296.75
272.626	305.75
272.858	293.75
273.09	292.75
273.322	310.75
273.553	303.75
273.785	312.75
274.017	282.75
274.249	313.75
274.481	310.75
274.713	311.75
274.945	333.75
275.176	324.75
275.408	313.75
275.64	318.75
275.872	310.75
276.104	331.75
276.335	314.75
276.567	343.75
276.799	307.75
277.031	333.75
277.262	324.75
277.494	339.75
277.726	330.75
277.957	337.75
278.189	322.75
278.421	340.75
278.652	333.75
278.884	324.75
279.115	353.75
279.347	331.75
279.579	318.75
279.81	342.75
280.042	341.75
280.273	344.75
280.505	337.75
280.736	350.75
280.968	346.75
281.199	341.75
281.431	374.75
281.662	342.75
281.894	351.75
282.125	364.75
282.356	350.75
282.588	366.75
282.819	357.75
283.051	363.75
283.282	359.75
283.513	354.75
283.745	349.75
283.976	336.75
284.207	362.75
284.439	369.75
284.67	364.75
284.901	362.75
285.132	374.75
285.364	369.75
285.595	350.75
285.826	373.75
286.057	374.75
286.288	369.75
286.52	387.75
286.751	390.75
286.982	395.75
287.213	390.75
287.444	372.75
287.675	372.75
287.906	392.75
288.138	376.75
288.369	392.75
288.6	400.75
288.831	395.75
289.062	393.75
289.293	393.75
289.524	413.75
289.755	385.75
289.986	369.75
290.217	393.75
290.448	396.75
290.679	403.75
290.91	393.75
291.141	393.75
291.371	393.75
291.602	398.75
291.833	395.75
292.064	372.75
292.295	397.75
292.526	407.75
292.757	403.75
292.987	417.75
293.218	402.75
293.449	409.75
293.68	398.75
293.91	391.75
294.141	383.75
294.372	391.75
294.603	419.75
294.833	437.75
295.064	427.75
295.295	413.75
295.525	419.75
295.756	428.75
295.987	411.75
296.217	432.75
296.448	405.75
296.679	419.75
296.909	427.75
297.14	423.75
297.37	430.75
297.601	425.75
297.831	406.75
298.062	431.75
298.292	447.75
298.523	452.75
298.753	453.75
298.984	439.75
299.214	422.75
299.445	423.75
299.675	435.75
299.905	431.75
300.136	433.75
300.366	437.75
300.597	457.75
300.827	437.75
301.057	464.75
301.288	458.75
301.518	450.75
301.748	450.75
301.979	479.75
302.209	452.75
302.439	441.75
302.669	447.75
302.9	441.75
303.13	437.75
303.36	426.75
303.59	458.75
303.82	428.75
304.051	457.75
304.281	451.75
304.511	442.75
304.741	450.75
304.971	442.75
305.201	461.75
305.431	447.75
305.661	440.75
305.891	438.75
306.121	422.75
306.352	443.75
306.582	427.75
306.812	437.75
307.042	424.75
307.272	435.75
307.502	441.75
307.731	436.75
307.961	437.75
308.191	436.75
308.421	445.75
308.651	432.75
308.881	427.75
309.111	412.75
309.341	434.75
309.571	430.75
309.8	451.75
310.03	445.75
310.26	411.75
310.49	433.75
310.72	414.75
310.949	428.75
311.179	443.75
311.409	455.75
311.639	443.75
311.868	438.75
312.098	440.75
312.328	448.75
312.557	460.75
312.787	454.75
313.017	442.75
313.246	468.75
313.476	463.75
313.706	489.75
313.935	482.75
314.165	461.75
314.394	454.75
314.624	473.75
314.853	454.75
315.083	457.75
315.312	452.75
315.542	484.75
315.771	439.75
316.001	472.75
316.23	453.75
316.46	462.75
316.689	457.75
316.919	453.75
317.148	458.75
317.377	461.75
317.607	475.75
317.836	463.75
318.065	464.75
318.295	452.75
318.524	441.75
318.753	471.75
318.983	471.75
319.212	468.75
319.441	444.75
319.67	465.75
319.9	456.75
320.129	454.75
320.358	456.75
320.587	473.75
320.816	478.75
321.046	475.75
321.275	457.75
321.504	468.75
321.733	457.75
321.962	450.75
322.191	484.75
322.42	464.75
322.649	450.75
322.878	451.75
323.108	463.75
323.337	474.75
323.566	470.75
323.795	454.75
324.024	473.75
324.253	504.75
324.482	467.75
324.71	476.75
324.939	490.75
325.168	471.75
325.397	480.75
325.626	490.75
325.855	502.75
326.084	521.75
326.313	507.75
326.542	520.75
326.77	505.75
326.999	499.75
327.228	490.75
327.457	482.75
327.686	498.75
327.914	494.75
328.143	519.75
328.372	507.75
328.6	495.75
328.829	504.75
329.058	494.75
329.287	526.75
329.515	533.75
329.744	509.75
329.972	526.75
330.201	511.75
330.43	514.75
330.658	517.75
330.887	532.75
331.115	535.75
331.344	529.75
331.572	529.75
331.801	543.75
332.03	550.75
332.258	569.75
332.486	583.75
332.715	607.75
332.943	611.75
333.172	644.75
333.4	689.75
333.629	703.75
333.857	660.75
334.085	678.75
334.314	680.75
334.542	654.75
334.771	637.75
334.999	625.75
335.227	630.75
335.455	655.75
335.684	642.75
335.912	637.75
336.14	620.75
336.369	617.75
336.597	611.75
336.825	604.75
337.053	607.75
337.281	612.75
337.51	588.75
337.738	589.75
337.966	581.75
338.194	583.75
338.422	566.75
338.65	561.75
338.878	562.75
339.106	557.75
339.334	545.75
339.562	571.75
339.79	546.75
340.018	545.75
340.246	524.75
340.474	539.75
340.702	539.75
340.93	532.75
341.158	549.75
341.386	520.75
341.614	513.75
341.842	546.75
342.07	519.75
342.298	527.75
342.526	527.75
342.754	536.75
342.981	553.75
343.209	531.75
343.437	583.75
343.665	607.75
343.893	651.75
344.12	685.75
344.348	627.75
344.576	604.75
344.804	589.75
345.031	583.75
345.259	565.75
345.487	562.75
345.714	533.75
345.942	543.75
346.17	534.75
346.397	535.75
346.625	540.75
346.853	505.75
347.08	523.75
347.308	526.75
347.535	550.75
347.763	545.75
347.99	509.75
348.218	540.75
348.445	534.75
348.673	526.75
348.9	514.75
349.128	538.75
349.355	515.75
349.583	513.75
349.81	508.75
350.037	523.75
350.265	517.75
350.492	486.75
350.72	497.75
350.947	489.75
351.174	527.75
351.402	506.75
351.629	510.75
351.856	512.75
352.083	539.75
352.311	514.75
352.538	504.75
352.765	523.75
352.992	491.75
353.22	515.75
353.447	502.75
353.674	493.75
353.901	507.75
354.128	506.75
354.355	484.75
354.583	501.75
354.81	497.75
355.037	498.75
355.264	524.75
355.491	503.75
355.718	502.75
355.945	497.75
356.172	512.75
356.399	503.75
356.626	479.75
356.853	493.75
357.08	502.75
357.307	509.75
357.534	497.75
357.761	514.75
357.988	510.75
358.215	513.75
358.441	494.75
358.668	521.75
358.895	502.75
359.122	512.75
359.349	494.75
359.576	498.75
359.802	483.75
360.029	511.75
360.256	517.75
360.483	493.75
360.709	517.75
360.936	515.75
361.163	502.75
361.39	500.75
361.616	501.75
361.843	502.75
362.07	493.75
362.296	507.75
362.523	504.75
362.749	511.75
362.976	506.75
363.203	524.75
363.429	488.75
363.656	493.75
363.882	504.75
364.109	487.75
364.335	497.75
364.562	500.75
364.788	484.75
365.015	491.75
365.241	494.75
365.468	490.75
365.694	493.75
365.92	499.75
366.147	475.75
366.373	499.75
366.599	500.75
366.826	483.75
367.052	515.75
367.278	500.75
367.505	486.75
367.731	497.75
367.957	495.75
368.184	494.75
368.41	513.75
368.636	510.75
368.862	521.75
369.089	514.75
369.315	511.75
369.541	510.75
369.767	538.75
369.993	514.75
370.219	525.75
370.445	514.75
370.672	537.75
370.898	515.75
371.124	535.75
371.35	535.75
371.576	546.75
371.802	542.75
372.028	552.75
372.254	556.75
372.48	556.75
372.706	577.75
372.932	589.75
373.158	557.75
373.384	550.75
373.61	543.75
373.835	561.75
374.061	549.75
374.287	581.75
374.513	576.75
374.739	604.75
374.965	588.75
375.191	612.75
375.416	611.75
375.642	595.75
375.868	577.75
376.094	571.75
376.319	557.75
376.545	547.75
376.771	552.75
376.997	542.75
377.222	548.75
377.448	530.75
377.674	556.75
377.899	545.75
378.125	547.75
378.35	526.75
378.576	539.75
378.802	551.75
379.027	543.75
379.253	547.75
379.478	535.75
379.704	550.75
379.929	536.75
380.155	539.75
380.38	540.75
380.606	563.75
380.831	546.75
381.057	565.75
381.282	543.75
381.507	553.75
381.733	555.75
381.958	541.75
382.184	553.75
382.409	552.75
382.634	591.75
382.86	552.75
383.085	566.75
383.31	608.75
383.535	593.75
383.761	605.75
383.986	626.75
384.211	641.75
384.436	646.75
384.662	664.75
384.887	655.75
385.112	674.75
385.337	666.75
385.562	660.75
385.787	634.75
386.013	680.75
386.238	687.75
386.463	672.75
386.688	675.75
386.913	662.75
387.138	625.75
387.363	651.75
387.588	663.75
387.813	675.75
388.038	632.75
388.263	645.75
388.488	667.75
388.713	675.75
388.938	631.75
389.163	630.75
389.387	628.75
389.612	640.75
389.837	646.75
390.062	633.75
390.287	637.75
390.512	614.75
390.736	652.75
390.961	657.75
391.186	661.75
391.411	703.75
391.636	714.75
391.86	730.75
392.085	764.75
392.31	738.75
392.534	715.75
392.759	714.75
392.984	709.75
393.208	683.75
393.433	692.75
393.658	685.75
393.882	708.75
394.107	679.75
394.331	721.75
394.556	697.75
394.78	712.75
395.005	733.75
395.229	690.75
395.454	690.75
395.678	732.75
395.903	739.75
396.127	720.75
396.352	682.75
396.576	694.75
396.801	698.75
397.025	651.75
397.249	717.75
397.474	745.75
397.698	713.75
397.922	709.75
398.147	727.75
398.371	739.75
398.595	760.75
398.82	776.75
399.044	854.75
399.268	956.75
399.492	1125.75
399.717	1272.75
399.941	1275.75
400.165	1130.75
400.389	977.75
400.613	879.75
400.837	833.75
401.062	817.75
401.286	815.75
401.51	804.75
401.734	830.75
401.958	814.75
402.182	842.75
402.406	844.75
402.63	845.75
402.854	882.75
403.078	889.75
403.302	892.75
403.526	931.75
403.75	951.75
403.974	978.75
404.198	971.75
404.422	968.75
404.645	946.75
404.869	939.75
405.093	953.75
405.317	929.75
405.541	917.75
405.765	905.75
405.988	904.75
406.212	908.75
406.436	918.75
406.66	932.75
406.883	931.75
407.107	1010.75
407.331	1047.75
407.555	1089.75
407.778	1058.75
408.002	1057.75
408.226	973.75
408.449	958.75
408.673	941.75
408.896	926.75
409.12	915.75
409.344	949.75
409.567	920.75
409.791	953.75
410.014	970.75
410.238	910.75
410.461	922.75
410.685	918.75
410.908	894.75
411.132	904.75
411.355	882.75
411.578	844.75
411.802	835.75
412.025	864.75
412.249	864.75
412.472	845.75
412.695	825.75
412.919	795.75
413.142	815.75
413.365	803.75
413.589	805.75
413.812	822.75
414.035	775.75
414.258	793.75
414.482	822.75
414.705	847.75
414.928	845.75
415.151	838.75
415.374	820.75
415.597	823.75
415.821	802.75
416.044	806.75
416.267	809.75
416.49	806.75
416.713	802.75
416.936	805.75
417.159	788.75
417.382	795.75
417.605	811.75
417.828	832.75
418.051	820.75
418.274	813.75
418.497	824.75
418.72	844.75
418.943	834.75
419.166	879.75
419.389	946.75
419.611	923.75
419.834	913.75
420.057	854.75
420.28	826.75
420.503	829.75
420.726	808.75
420.948	802.75
421.171	814.75
421.394	815.75
421.617	826.75
421.839	821.75
422.062	830.75
422.285	797.75
422.507	830.75
422.73	835.75
422.953	855.75
423.175	876.75
423.398	867.75
423.621	853.75
423.843	886.75
424.066	894.75
424.288	861.75
424.511	875.75
424.733	871.75
424.956	846.75
425.178	852.75
425.401	807.75
425.623	827.75
425.846	780.75
426.068	788.75
426.291	794.75
426.513	782.75
426.735	750.75
426.958	764.75
427.18	765.75
427.402	745.75
427.625	757.75
427.847	713.75
428.069	716.75
428.292	722.75
428.514	729.75
428.736	724.75
428.958	731.75
429.181	715.75
429.403	708.75
429.625	708.75
429.847	715.75
430.069	722.75
430.292	711.75
430.514	714.75
430.736	717.75
430.958	722.75
431.18	698.75
431.402	715.75
431.624	724.75
431.846	737.75
432.068	739.75
432.29	744.75
432.512	747.75
432.734	735.75
432.956	714.75
433.178	732.75
433.4	727.75
433.622	729.75
433.844	760.75
434.066	722.75
434.287	755.75
434.509	772.75
434.731	815.75
434.953	811.75
435.175	866.75
435.397	806.75
435.618	783.75
435.84	763.75
436.062	731.75
436.284	768.75
436.505	723.75
436.727	730.75
436.949	764.75
437.17	739.75
437.392	724.75
437.614	720.75
437.835	695.75
438.057	719.75
438.278	672.75
438.5	699.75
438.721	711.75
438.943	705.75
439.165	716.75
439.386	719.75
439.608	713.75
439.829	725.75
440.05	723.75
440.272	731.75
440.493	754.75
440.715	753.75
440.936	761.75
441.158	779.75
441.379	814.75
441.6	833.75
441.822	861.75
442.043	826.75
442.264	837.75
442.486	800.75
442.707	854.75
442.928	822.75
443.149	813.75
443.371	819.75
443.592	825.75
443.813	807.75
444.034	868.75
444.255	885.75
444.476	886.75
444.698	981.75
444.919	997.75
445.14	1046.75
445.361	953.75
445.582	861.75
445.803	808.75
446.024	779.75
446.245	750.75
446.466	762.75
446.687	753.75
446.908	726.75
447.129	716.75
447.35	717.75
447.571	719.75
447.792	690.75
448.013	696.75
448.234	705.75
448.455	689.75
448.675	691.75
448.896	683.75
449.117	655.75
449.338	665.75
449.559	662.75
449.779	649.75
450	677.75
450.221	681.75
450.442	695.75
450.662	677.75
450.883	712.75
451.104	704.75
451.324	717.75
451.545	703.75
451.766	687.75
451.986	686.75
452.207	704.75
452.428	684.75
452.648	693.75
452.869	675.75
453.089	659.75
453.31	696.75
453.53	671.75
453.751	657.75
453.971	665.75
454.192	666.75
454.412	635.75
454.633	633.75
454.853	636.75
455.073	632.75
455.294	633.75
455.514	632.75
455.734	633.75
455.955	628.75
456.175	645.75
456.395	654.75
456.616	639.75
456.836	660.75
457.056	637.75
457.276	634.75
457.497	645.75
457.717	638.75
457.937	609.75
458.157	661.75
458.377	654.75
458.598	675.75
458.818	683.75
459.038	706.75
459.258	743.75
459.478	747.75
459.698	769.75
459.918	758.75
460.138	769.75
460.358	858.75
460.578	878.75
460.798	908.75
461.018	898.75
461.238	871.75
461.458	874.75
461.678	862.75
461.898	888.75
462.118	879.75
462.338	942.75
462.558	969.75
462.777	985.75
462.997	1076.75
463.217	1199.75
463.437	1234.75
463.657	1104.75
463.876	1031.75
464.096	1036.75
464.316	1022.75
464.536	1073.75
464.755	1002.75
464.975	970.75
465.195	902.75
465.414	869.75
465.634	804.75
465.854	778.75
466.073	776.75
466.293	743.75
466.512	736.75
466.732	724.75
466.951	678.75
467.171	662.75
467.391	717.75
467.61	733.75
467.829	713.75
468.049	703.75
468.268	659.75
468.488	662.75
468.707	669.75
468.927	653.75
469.146	694.75
469.365	678.75
469.585	690.75
469.804	713.75
470.023	739.75
470.243	736.75
470.462	742.75
470.681	776.75
470.901	728.75
471.12	697.75
471.339	718.75
471.558	706.75
471.777	667.75
471.997	657.75
472.216	687.75
472.435	668.75
472.654	670.75
472.873	650.75
473.092	667.75
473.311	659.75
473.53	662.75
473.749	663.75
473.968	658.75
474.187	655.75
474.406	646.75
474.625	679.75
474.844	676.75
475.063	683.75
475.282	663.75
475.501	655.75
475.72	671.75
475.939	668.75
476.158	667.75
476.377	699.75
476.596	682.75
476.814	688.75
477.033	705.75
477.252	690.75
477.471	725.75
477.69	750.75
477.908	758.75
478.127	785.75
478.346	812.75
478.564	815.75
478.783	829.75
479.002	823.75
479.22	851.75
479.439	828.75
479.658	824.75
479.876	840.75
480.095	846.75
480.313	882.75
480.532	895.75
480.751	910.75
480.969	850.75
481.188	825.75
481.406	781.75
481.624	778.75
481.843	788.75
482.061	745.75
482.28	754.75
482.498	755.75
482.717	735.75
482.935	755.75
483.153	753.75
483.372	765.75
483.59	735.75
483.808	727.75
484.027	759.75
484.245	774.75
484.463	763.75
484.681	789.75
484.9	771.75
485.118	803.75
485.336	772.75
485.554	773.75
485.772	819.75
485.99	850.75
486.209	829.75
486.427	836.75
486.645	824.75
486.863	822.75
487.081	805.75
487.299	801.75
487.517	811.75
487.735	814.75
487.953	783.75
488.171	825.75
488.389	776.75
488.607	787.75
488.825	778.75
489.043	774.75
489.261	785.75
489.479	793.75
489.696	799.75
489.914	806.75
490.132	799.75
490.35	802.75
490.568	795.75
490.786	807.75
491.003	787.75
491.221	798.75
491.439	778.75
491.657	775.75
491.874	821.75
492.092	807.75
492.31	810.75
492.527	822.75
492.745	827.75
492.963	806.75
493.18	812.75
493.398	845.75
493.615	828.75
493.833	847.75
494.05	833.75
494.268	837.75
494.485	839.75
494.703	860.75
494.92	855.75
495.138	849.75
495.355	822.75
495.573	844.75
495.79	849.75
496.008	843.75
496.225	854.75
496.442	863.75
496.66	866.75
496.877	860.75
497.094	883.75
497.312	920.75
497.529	913.75
497.746	915.75
497.963	958.75
498.181	984.75
498.398	1030.75
498.615	1111.75
498.832	1171.75
499.049	1289.75
499.267	1373.75
499.484	1529.75
499.701	1692.75
499.918	1871.75
500.135	2162.75
500.352	2547.75
500.569	2710.75
500.786	2679.75
501.003	2434.75
501.22	2113.75
501.437	1839.75
501.654	1636.75
501.871	1444.75
502.088	1344.75
502.305	1224.75
502.522	1172.75
502.739	1153.75
502.956	1066.75
503.172	1025.75
503.389	984.75
503.606	957.75
503.823	943.75
504.04	970.75
504.256	969.75
504.473	971.75
504.69	1006.75
504.907	1014.75
505.123	918.75
505.34	866.75
505.557	837.75
505.773	823.75
505.99	832.75
506.207	767.75
506.423	780.75
506.64	761.75
506.856	762.75
507.073	773.75
507.289	742.75
507.506	739.75
507.722	763.75
507.939	729.75
508.155	725.75
508.372	700.75
508.588	721.75
508.805	713.75
509.021	699.75
509.238	707.75
509.454	674.75
509.67	691.75
509.887	706.75
510.103	683.75
510.319	689.75
510.536	684.75
510.752	677.75
510.968	678.75
511.184	675.75
511.401	681.75
511.617	669.75
511.833	693.75
512.049	670.75
512.265	681.75
512.481	695.75
512.698	675.75
512.914	667.75
513.13	695.75
513.346	690.75
513.562	681.75
513.778	677.75
513.994	692.75
514.21	701.75
514.426	674.75
514.642	676.75
514.858	712.75
515.074	709.75
515.29	705.75
515.506	700.75
515.721	738.75
515.937	738.75
516.153	741.75
516.369	733.75
516.585	778.75
516.801	790.75
517.016	811.75
517.232	866.75
517.448	931.75
517.664	976.75
517.879	955.75
518.095	981.75
518.311	970.75
518.527	918.75
518.742	870.75
518.958	825.75
519.173	806.75
519.389	775.75
519.605	735.75
519.82	719.75
520.036	707.75
520.251	694.75
520.467	712.75
520.682	685.75
520.898	702.75
521.113	665.75
521.329	677.75
521.544	663.75
521.76	641.75
521.975	649.75
522.19	623.75
522.406	679.75
522.621	658.75
522.836	647.75
523.052	670.75
523.267	617.75
523.482	636.75
523.698	614.75
523.913	613.75
524.128	652.75
524.343	649.75
524.559	637.75
524.774	631.75
524.989	649.75
525.204	612.75
525.419	637.75
525.634	635.75
525.849	614.75
526.064	605.75
526.28	619.75
526.495	620.75
526.71	632.75
526.925	636.75
527.14	621.75
527.355	610.75
527.57	617.75
527.785	609.75
527.999	625.75
528.214	615.75
528.429	635.75
528.644	615.75
528.859	620.75
529.074	619.75
529.289	649.75
529.503	627.75
529.718	639.75
529.933	602.75
530.148	633.75
530.363	631.75
530.577	613.75
530.792	604.75
531.007	626.75
531.221	651.75
531.436	627.75
531.651	623.75
531.865	643.75
532.08	604.75
532.295	635.75
532.509	633.75
532.724	635.75
532.938	617.75
533.153	637.75
533.367	616.75
533.582	618.75
533.796	627.75
534.011	627.75
534.225	611.75
534.44	619.75
534.654	605.75
534.868	601.75
535.083	616.75
535.297	611.75
535.511	603.75
535.726	629.75
535.94	614.75
536.154	625.75
536.369	612.75
536.583	579.75
536.797	581.75
537.011	595.75
537.225	577.75
537.44	585.75
537.654	581.75
537.868	573.75
538.082	557.75
538.296	570.75
538.51	567.75
538.724	582.75
538.938	577.75
539.153	571.75
539.367	585.75
539.581	569.75
539.795	572.75
540.009	577.75
540.222	557.75
540.436	550.75
540.65	544.75
540.864	583.75
541.078	569.75
541.292	570.75
541.506	596.75
541.72	578.75
541.934	553.75
542.147	553.75
542.361	553.75
542.575	573.75
542.789	555.75
543.002	527.75
543.216	541.75
543.43	533.75
543.644	558.75
543.857	566.75
544.071	567.75
544.285	558.75
544.498	563.75
544.712	548.75
544.925	565.75
545.139	581.75
545.352	535.75
545.566	587.75
545.779	573.75
545.993	577.75
546.206	573.75
546.42	580.75
546.633	569.75
546.847	576.75
547.06	570.75
547.274	577.75
547.487	549.75
547.7	558.75
547.914	583.75
548.127	586.75
548.34	571.75
548.554	567.75
548.767	583.75
548.98	578.75
549.193	583.75
549.407	581.75
549.62	597.75
549.833	608.75
550.046	587.75
550.259	606.75
550.473	573.75
550.686	560.75
550.899	571.75
551.112	554.75
551.325	569.75
551.538	575.75
551.751	548.75
551.964	594.75
552.177	571.75
552.39	565.75
552.603	588.75
552.816	610.75
553.029	616.75
553.242	638.75
553.455	661.75
553.667	656.75
553.88	647.75
554.093	589.75
554.306	603.75
554.519	580.75
554.732	554.75
554.944	563.75
555.157	559.75
555.37	548.75
555.583	546.75
555.795	531.75
556.008	519.75
556.221	514.75
556.433	501.75
556.646	500.75
556.859	518.75
557.071	516.75
557.284	516.75
557.496	491.75
557.709	481.75
557.921	482.75
558.134	482.75
558.346	503.75
558.559	504.75
558.771	501.75
558.984	469.75
559.196	478.75
559.409	509.75
559.621	469.75
559.833	486.75
560.046	499.75
560.258	477.75
560.47	497.75
560.683	479.75
560.895	481.75
561.107	468.75
561.32	485.75
561.532	467.75
561.744	470.75
561.956	484.75
562.168	484.75
562.381	459.75
562.593	480.75
562.805	490.75
563.017	455.75
563.229	507.75
563.441	494.75
563.653	481.75
563.865	475.75
564.077	495.75
564.289	528.75
564.501	501.75
564.713	509.75
564.925	512.75
565.137	499.75
565.349	534.75
565.561	539.75
565.773	558.75
565.985	579.75
566.197	607.75
566.408	681.75
566.62	731.75
566.832	798.75
567.044	790.75
567.255	776.75
567.467	804.75
567.679	883.75
567.891	969.75
568.102	969.75
568.314	920.75
568.526	801.75
568.737	746.75
568.949	689.75
569.161	594.75
569.372	572.75
569.584	549.75
569.795	526.75
570.007	525.75
570.218	501.75
570.43	473.75
570.641	477.75
570.853	514.75
571.064	503.75
571.276	509.75
571.487	490.75
571.698	475.75
571.91	459.75
572.121	443.75
572.333	433.75
572.544	428.75
572.755	417.75
572.966	402.75
573.178	418.75
573.389	394.75
573.6	403.75
573.811	395.75
574.023	407.75
574.234	417.75
574.445	411.75
574.656	421.75
574.867	413.75
575.078	416.75
575.289	415.75
575.501	395.75
575.712	404.75
575.923	375.75
576.134	387.75
576.345	377.75
576.556	381.75
576.767	381.75
576.978	400.75
577.188	360.75
577.399	387.75
577.61	358.75
577.821	381.75
578.032	366.75
578.243	365.75
578.454	374.75
578.665	345.75
578.875	364.75
579.086	343.75
579.297	355.75
579.508	356.75
579.718	361.75
579.929	362.75
580.14	350.75
580.35	361.75
580.561	358.75
580.772	370.75
580.982	349.75
581.193	354.75
581.403	346.75
581.614	338.75
581.825	348.75
582.035	352.75
582.246	347.75
582.456	352.75
582.667	344.75
582.877	351.75
583.087	345.75
583.298	339.75
583.508	351.75
583.719	344.75
583.929	346.75
584.139	359.75
584.35	334.75
584.56	331.75
584.77	342.75
584.981	329.75
585.191	334.75
585.401	347.75
585.611	317.75
585.821	343.75
586.032	331.75
586.242	331.75
586.452	343.75
586.662	341.75
586.872	333.75
587.082	321.75
587.292	315.75
587.502	323.75
587.713	324.75
587.923	329.75
588.133	347.75
588.343	325.75
588.553	318.75
588.762	318.75
588.972	312.75
589.182	335.75
589.392	323.75
589.602	330.75
589.812	318.75
590.022	322.75
590.232	320.75
590.441	355.75
590.651	346.75
590.861	334.75
591.071	329.75
591.281	339.75
591.49	346.75
591.7	324.75
591.91	370.75
592.119	344.75
592.329	363.75
592.539	383.75
592.748	376.75
592.958	403.75
593.167	404.75
593.377	405.75
593.587	420.75
593.796	438.75
594.006	412.75
594.215	457.75
594.424	426.75
594.634	396.75
594.843	410.75
595.053	395.75
595.262	381.75
595.472	358.75
595.681	339.75
595.89	335.75
596.1	350.75
596.309	321.75
596.518	331.75
596.727	317.75
596.937	317.75
597.146	293.75
597.355	309.75
597.564	306.75
597.774	303.75
597.983	296.75
598.192	296.75
598.401	314.75
598.61	286.75
598.819	296.75
599.028	292.75
599.237	286.75
599.446	307.75
599.655	309.75
599.864	281.75
600.073	279.75
600.282	278.75
600.491	286.75
600.7	281.75
600.909	273.75
601.118	286.75
601.327	281.75
601.536	278.75
601.745	266.75
601.953	296.75
602.162	270.75
602.371	277.75
602.58	261.75
602.789	272.75
602.997	284.75
603.206	287.75
603.415	269.75
603.623	280.75
603.832	291.75
604.041	273.75
604.249	279.75
604.458	265.75
604.666	271.75
604.875	266.75
605.084	260.75
605.292	258.75
605.501	278.75
605.709	266.75
605.918	263.75
606.126	244.75
606.334	272.75
606.543	251.75
606.751	265.75
606.96	269.75
607.168	271.75
607.376	249.75
607.585	237.75
607.793	255.75
608.001	265.75
608.21	259.75
608.418	263.75
608.626	261.75
608.834	254.75
609.043	255.75
609.251	255.75
609.459	250.75
609.667	233.75
609.875	244.75
610.083	253.75
610.291	253.75
610.499	246.75
610.707	256.75
610.916	246.75
611.124	264.75
611.332	241.75
611.54	253.75
611.748	248.75
611.955	252.75
612.163	245.75
612.371	248.75
612.579	260.75
612.787	245.75
612.995	241.75
613.203	261.75
613.411	253.75
613.618	235.75
613.826	254.75
614.034	247.75
614.242	254.75
614.449	234.75
614.657	233.75
614.865	229.75
615.072	247.75
615.28	257.75
615.488	228.75
615.695	249.75
615.903	257.75
616.111	222.75
616.318	261.75
616.526	256.75
616.733	249.75
616.941	231.75
617.148	267.75
617.356	243.75
617.563	251.75
617.771	264.75
617.978	236.75
618.185	249.75
618.393	243.75
618.6	252.75
618.807	244.75
619.015	254.75
619.222	246.75
619.429	239.75
619.637	257.75
619.844	245.75
620.051	229.75
620.258	231.75
620.466	224.75
620.673	236.75
620.88	227.75
621.087	241.75
621.294	235.75
621.501	244.75
621.708	235.75
621.915	212.75
622.122	211.75
622.329	232.75
622.536	213.75
622.743	221.75
622.95	232.75
623.157	219.75
623.364	233.75
623.571	232.75
623.778	216.75
623.985	226.75
624.192	227.75
624.399	231.75
624.606	226.75
624.812	223.75
625.019	232.75
625.226	230.75
625.433	227.75
625.639	211.75
625.846	205.75
626.053	213.75
626.259	230.75
626.466	227.75
626.673	216.75
626.879	206.75
627.086	222.75
627.293	216.75
627.499	205.75
627.706	211.75
627.912	203.75
628.119	219.75
628.325	214.75
628.532	219.75
628.738	206.75
628.945	191.75
629.151	193.75
629.357	210.75
629.564	197.75
629.77	209.75
629.976	206.75
630.183	193.75
630.389	189.75
630.595	199.75
630.802	209.75
631.008	171.75
631.214	193.75
631.42	201.75
631.627	214.75
631.833	188.75
632.039	197.75
632.245	193.75
632.451	196.75
632.657	197.75
632.863	193.75
633.069	192.75
633.275	195.75
633.481	185.75
633.688	182.75
633.893	217.75
634.099	190.75
634.305	202.75
634.511	189.75
634.717	193.75
634.923	185.75
635.129	186.75
635.335	203.75
635.541	197.75
635.747	194.75
635.952	171.75
636.158	185.75
636.364	190.75
636.57	184.75
636.775	199.75
636.981	189.75
637.187	178.75
637.392	184.75
637.598	197.75
637.804	172.75
638.009	187.75
638.215	185.75
638.421	180.75
638.626	178.75
638.832	188.75
639.037	177.75
639.243	189.75
639.448	190.75
639.654	176.75
639.859	187.75
640.065	163.75
640.27	175.75
640.475	181.75
640.681	179.75
640.886	172.75
641.091	163.75
641.297	171.75
641.502	169.75
641.707	177.75
641.913	183.75
642.118	175.75
642.323	173.75
642.528	160.75
642.733	165.75
642.939	165.75
643.144	169.75
643.349	166.75
643.554	160.75
643.759	163.75
643.964	159.75
644.169	166.75
644.374	166.75
644.579	186.75
644.784	171.75
644.989	163.75
645.194	175.75
645.399	168.75
645.604	161.75
645.809	189.75
646.014	164.75
646.219	165.75
646.423	165.75
646.628	183.75
646.833	172.75
647.038	182.75
647.243	180.75
647.447	165.75
647.652	179.75
647.857	174.75
648.062	188.75
648.266	174.75
648.471	206.75
648.676	186.75
648.88	177.75
649.085	158.75
649.289	179.75
649.494	183.75
649.698	177.75
649.903	177.75
650.107	156.75
650.312	198.75
650.516	159.75
650.721	165.75
650.925	142.75
651.13	168.75
651.334	147.75
651.539	154.75
651.743	155.75
651.947	143.75
652.152	142.75
652.356	156.75
652.56	150.75
652.764	154.75
652.969	150.75
653.173	138.75
653.377	140.75
653.581	148.75
653.785	140.75
653.99	134.75
654.194	142.75
654.398	130.75
654.602	125.75
654.806	148.75
655.01	120.75
655.214	129.75
655.418	133.75
655.622	142.75
655.826	125.75
656.03	133.75
656.234	142.75
656.438	147.75
656.642	131.75
656.846	139.75
657.049	138.75
657.253	123.75
657.457	126.75
657.661	114.75
657.865	117.75
658.068	117.75
658.272	114.75
658.476	126.75
658.68	101.75
658.883	100.75
659.087	120.75
659.291	114.75
659.494	92.75
659.698	95.75
659.901	95.75
660.105	116.75
660.309	101.75
660.512	87.75
660.716	87.75
660.919	100.75
661.123	84.75
661.326	96.75
661.53	84.75
661.733	111.75
661.936	84.75
662.14	96.75
662.343	88.75
662.546	92.75
662.75	90.75
662.953	93.75
663.156	75.75
663.36	88.75
663.563	73.75
663.766	82.75
663.969	87.75
664.173	85.75
664.376	81.75
664.579	85.75
664.782	99.75
664.985	77.75
665.188	86.75
665.391	89.75
665.594	99.75
665.797	75.75
666	84.75
666.203	77.75
666.406	89.75
666.609	93.75
666.812	69.75
667.015	83.75
667.218	93.75
667.421	90.75
667.624	74.75
667.827	80.75
668.03	71.75
668.232	84.75
668.435	75.75
668.638	81.75
668.841	87.75
669.043	80.75
669.246	93.75
669.449	83.75
669.651	79.75
669.854	84.75
670.057	71.75
670.259	92.75
670.462	90.75
670.665	76.75
670.867	88.75
671.07	94.75
671.272	81.75
671.475	89.75
671.677	82.75
671.88	73.75
672.082	93.75
672.284	90.75
672.487	78.75
672.689	86.75
672.892	74.75
