Data from Ni(NO3)2Standard.Agarose3%.GreenCap.LampEnergy5.5.E.O_HRD10591_14-43-07-188.txt Node
Date: Mon Jul 22 14:43:07 EDT 2019
User: cochatt
Spectrometer: HR+D1059
Trigger mode: 1
Integration Time (sec): 1.000000E-1
Scans to average: 1
Electric dark correction enabled: true
Nonlinearity correction enabled: false
Boxcar width: 0
XAxis mode: Wavelengths
Number of Pixels in Spectrum: 2048
>>>>>Begin Spectral Data<<<<<
223.165	-29.31
223.4	-29.31
223.635	-29.31
223.869	-29.31
224.104	-5.31
224.338	-9.31
224.573	-4.31
224.808	3.69
225.042	-9.31
225.277	-3.31
225.511	3.69
225.746	3.69
225.98	7.69
226.215	-4.31
226.449	6.69
226.683	15.69
226.918	24.69
227.152	28.69
227.387	39.69
227.621	30.69
227.856	38.69
228.09	52.69
228.324	47.69
228.559	64.69
228.793	55.69
229.027	59.69
229.262	59.69
229.496	54.69
229.73	60.69
229.964	80.69
230.199	71.69
230.433	79.69
230.667	84.69
230.901	69.69
231.136	70.69
231.37	71.69
231.604	77.69
231.838	86.69
232.072	81.69
232.306	90.69
232.541	84.69
232.775	78.69
233.009	90.69
233.243	87.69
233.477	80.69
233.711	85.69
233.945	86.69
234.179	74.69
234.413	86.69
234.647	86.69
234.881	95.69
235.115	86.69
235.349	89.69
235.583	82.69
235.817	68.69
236.051	87.69
236.285	85.69
236.519	92.69
236.753	76.69
236.987	82.69
237.221	86.69
237.455	69.69
237.689	76.69
237.922	88.69
238.156	71.69
238.39	83.69
238.624	77.69
238.858	69.69
239.091	91.69
239.325	74.69
239.559	70.69
239.793	75.69
240.027	90.69
240.26	78.69
240.494	82.69
240.728	61.69
240.961	69.69
241.195	74.69
241.429	70.69
241.662	83.69
241.896	82.69
242.13	89.69
242.363	80.69
242.597	92.69
242.83	85.69
243.064	83.69
243.298	82.69
243.531	75.69
243.765	71.69
243.998	75.69
244.232	82.69
244.465	86.69
244.699	83.69
244.932	89.69
245.166	62.69
245.399	82.69
245.633	67.69
245.866	75.69
246.099	108.69
246.333	93.69
246.566	72.69
246.8	77.69
247.033	75.69
247.266	84.69
247.5	86.69
247.733	86.69
247.966	90.69
248.2	85.69
248.433	73.69
248.666	80.69
248.899	91.69
249.133	74.69
249.366	82.69
249.599	76.69
249.832	70.69
250.066	80.69
250.299	76.69
250.532	84.69
250.765	83.69
250.998	75.69
251.231	70.69
251.465	90.69
251.698	77.69
251.931	95.69
252.164	90.69
252.397	86.69
252.63	82.69
252.863	69.69
253.096	83.69
253.329	86.69
253.562	87.69
253.795	83.69
254.028	85.69
254.261	92.69
254.494	72.69
254.727	80.69
254.96	78.69
255.193	76.69
255.426	76.69
255.659	78.69
255.892	79.69
256.124	78.69
256.357	79.69
256.59	75.69
256.823	88.69
257.056	74.69
257.289	95.69
257.521	72.69
257.754	77.69
257.987	75.69
258.22	76.69
258.452	91.69
258.685	94.69
258.918	77.69
259.151	84.69
259.383	74.69
259.616	78.69
259.849	87.69
260.081	99.69
260.314	84.69
260.547	81.69
260.779	81.69
261.012	79.69
261.244	76.69
261.477	87.69
261.71	75.69
261.942	87.69
262.175	85.69
262.407	79.69
262.64	79.69
262.872	78.69
263.105	78.69
263.337	73.69
263.57	92.69
263.802	87.69
264.035	89.69
264.267	86.69
264.499	80.69
264.732	106.69
264.964	76.69
265.197	92.69
265.429	83.69
265.661	81.69
265.894	71.69
266.126	93.69
266.358	78.69
266.591	81.69
266.823	73.69
267.055	75.69
267.287	77.69
267.52	91.69
267.752	78.69
267.984	109.69
268.216	92.69
268.448	76.69
268.681	80.69
268.913	83.69
269.145	96.69
269.377	79.69
269.609	70.69
269.841	89.69
270.073	86.69
270.306	69.69
270.538	91.69
270.77	89.69
271.002	80.69
271.234	75.69
271.466	92.69
271.698	68.69
271.93	86.69
272.162	97.69
272.394	83.69
272.626	89.69
272.858	75.69
273.09	87.69
273.322	77.69
273.553	84.69
273.785	73.69
274.017	94.69
274.249	84.69
274.481	86.69
274.713	74.69
274.945	72.69
275.176	74.69
275.408	76.69
275.64	67.69
275.872	79.69
276.104	81.69
276.335	82.69
276.567	79.69
276.799	78.69
277.031	77.69
277.262	72.69
277.494	86.69
277.726	73.69
277.957	83.69
278.189	83.69
278.421	84.69
278.652	90.69
278.884	76.69
279.115	83.69
279.347	84.69
279.579	86.69
279.81	90.69
280.042	88.69
280.273	78.69
280.505	73.69
280.736	91.69
280.968	93.69
281.199	97.69
281.431	90.69
281.662	84.69
281.894	80.69
282.125	85.69
282.356	88.69
282.588	96.69
282.819	82.69
283.051	74.69
283.282	71.69
283.513	73.69
283.745	88.69
283.976	84.69
284.207	88.69
284.439	92.69
284.67	86.69
284.901	83.69
285.132	96.69
285.364	85.69
285.595	88.69
285.826	93.69
286.057	79.69
286.288	79.69
286.52	90.69
286.751	86.69
286.982	102.69
287.213	83.69
287.444	87.69
287.675	84.69
287.906	76.69
288.138	86.69
288.369	100.69
288.6	83.69
288.831	77.69
289.062	96.69
289.293	86.69
289.524	92.69
289.755	90.69
289.986	80.69
290.217	74.69
290.448	94.69
290.679	93.69
290.91	98.69
291.141	86.69
291.371	86.69
291.602	91.69
291.833	84.69
292.064	89.69
292.295	88.69
292.526	79.69
292.757	80.69
292.987	86.69
293.218	74.69
293.449	84.69
293.68	96.69
293.91	90.69
294.141	75.69
294.372	91.69
294.603	95.69
294.833	83.69
295.064	98.69
295.295	86.69
295.525	93.69
295.756	92.69
295.987	91.69
296.217	84.69
296.448	81.69
296.679	90.69
296.909	86.69
297.14	95.69
297.37	101.69
297.601	87.69
297.831	89.69
298.062	80.69
298.292	79.69
298.523	90.69
298.753	95.69
298.984	80.69
299.214	84.69
299.445	84.69
299.675	80.69
299.905	92.69
300.136	84.69
300.366	79.69
300.597	78.69
300.827	93.69
301.057	90.69
301.288	92.69
301.518	92.69
301.748	71.69
301.979	75.69
302.209	90.69
302.439	84.69
302.669	83.69
302.9	95.69
303.13	86.69
303.36	80.69
303.59	80.69
303.82	84.69
304.051	79.69
304.281	99.69
304.511	103.69
304.741	103.69
304.971	92.69
305.201	74.69
305.431	77.69
305.661	77.69
305.891	73.69
306.121	93.69
306.352	103.69
306.582	98.69
306.812	79.69
307.042	86.69
307.272	70.69
307.502	99.69
307.731	84.69
307.961	91.69
308.191	90.69
308.421	96.69
308.651	80.69
308.881	81.69
309.111	77.69
309.341	100.69
309.571	90.69
309.8	98.69
310.03	89.69
310.26	89.69
310.49	78.69
310.72	97.69
310.949	80.69
311.179	103.69
311.409	89.69
311.639	92.69
311.868	94.69
312.098	97.69
312.328	69.69
312.557	99.69
312.787	94.69
313.017	85.69
313.246	79.69
313.476	97.69
313.706	88.69
313.935	102.69
314.165	80.69
314.394	78.69
314.624	86.69
314.853	93.69
315.083	81.69
315.312	86.69
315.542	85.69
315.771	94.69
316.001	89.69
316.23	81.69
316.46	99.69
316.689	80.69
316.919	81.69
317.148	83.69
317.377	88.69
317.607	86.69
317.836	93.69
318.065	98.69
318.295	88.69
318.524	83.69
318.753	86.69
318.983	93.69
319.212	89.69
319.441	86.69
319.67	91.69
319.9	94.69
320.129	90.69
320.358	88.69
320.587	75.69
320.816	79.69
321.046	77.69
321.275	84.69
321.504	91.69
321.733	94.69
321.962	84.69
322.191	78.69
322.42	73.69
322.649	97.69
322.878	94.69
323.108	80.69
323.337	90.69
323.566	86.69
323.795	80.69
324.024	79.69
324.253	83.69
324.482	94.69
324.71	95.69
324.939	77.69
325.168	78.69
325.397	85.69
325.626	79.69
325.855	92.69
326.084	84.69
326.313	86.69
326.542	86.69
326.77	77.69
326.999	87.69
327.228	97.69
327.457	83.69
327.686	93.69
327.914	79.69
328.143	87.69
328.372	75.69
328.6	88.69
328.829	90.69
329.058	91.69
329.287	95.69
329.515	79.69
329.744	87.69
329.972	88.69
330.201	83.69
330.43	70.69
330.658	91.69
330.887	82.69
331.115	94.69
331.344	81.69
331.572	98.69
331.801	74.69
332.03	84.69
332.258	78.69
332.486	76.69
332.715	98.69
332.943	84.69
333.172	94.69
333.4	76.69
333.629	90.69
333.857	89.69
334.085	92.69
334.314	82.69
334.542	93.69
334.771	94.69
334.999	79.69
335.227	87.69
335.455	95.69
335.684	97.69
335.912	90.69
336.14	86.69
336.369	85.69
336.597	87.69
336.825	106.69
337.053	90.69
337.281	86.69
337.51	90.69
337.738	93.69
337.966	77.69
338.194	87.69
338.422	75.69
338.65	79.69
338.878	84.69
339.106	100.69
339.334	95.69
339.562	89.69
339.79	90.69
340.018	84.69
340.246	87.69
340.474	88.69
340.702	88.69
340.93	93.69
341.158	83.69
341.386	90.69
341.614	98.69
341.842	94.69
342.07	94.69
342.298	84.69
342.526	79.69
342.754	80.69
342.981	91.69
343.209	79.69
343.437	73.69
343.665	82.69
343.893	92.69
344.12	102.69
344.348	90.69
344.576	89.69
344.804	87.69
345.031	88.69
345.259	100.69
345.487	102.69
345.714	90.69
345.942	105.69
346.17	78.69
346.397	87.69
346.625	77.69
346.853	79.69
347.08	76.69
347.308	86.69
347.535	83.69
347.763	88.69
347.99	99.69
348.218	76.69
348.445	84.69
348.673	94.69
348.9	80.69
349.128	86.69
349.355	86.69
349.583	89.69
349.81	88.69
350.037	86.69
350.265	82.69
350.492	79.69
350.72	93.69
350.947	88.69
351.174	86.69
351.402	92.69
351.629	75.69
351.856	86.69
352.083	94.69
352.311	96.69
352.538	99.69
352.765	97.69
352.992	77.69
353.22	95.69
353.447	79.69
353.674	84.69
353.901	81.69
354.128	86.69
354.355	88.69
354.583	80.69
354.81	80.69
355.037	75.69
355.264	75.69
355.491	82.69
355.718	80.69
355.945	97.69
356.172	88.69
356.399	83.69
356.626	89.69
356.853	92.69
357.08	77.69
357.307	92.69
357.534	98.69
357.761	82.69
357.988	74.69
358.215	100.69
358.441	95.69
358.668	101.69
358.895	89.69
359.122	81.69
359.349	78.69
359.576	88.69
359.802	91.69
360.029	88.69
360.256	102.69
360.483	92.69
360.709	87.69
360.936	79.69
361.163	76.69
361.39	83.69
361.616	84.69
361.843	88.69
362.07	87.69
362.296	86.69
362.523	101.69
362.749	83.69
362.976	76.69
363.203	86.69
363.429	73.69
363.656	98.69
363.882	87.69
364.109	90.69
364.335	86.69
364.562	92.69
364.788	62.69
365.015	80.69
365.241	91.69
365.468	92.69
365.694	77.69
365.92	81.69
366.147	74.69
366.373	75.69
366.599	98.69
366.826	68.69
367.052	75.69
367.278	81.69
367.505	85.69
367.731	86.69
367.957	85.69
368.184	96.69
368.41	80.69
368.636	86.69
368.862	87.69
369.089	72.69
369.315	85.69
369.541	74.69
369.767	78.69
369.993	77.69
370.219	76.69
370.445	97.69
370.672	80.69
370.898	80.69
371.124	90.69
371.35	86.69
371.576	105.69
371.802	82.69
372.028	94.69
372.254	82.69
372.48	89.69
372.706	73.69
372.932	85.69
373.158	83.69
373.384	91.69
373.61	81.69
373.835	77.69
374.061	81.69
374.287	82.69
374.513	80.69
374.739	78.69
374.965	95.69
375.191	91.69
375.416	95.69
375.642	82.69
375.868	88.69
376.094	85.69
376.319	88.69
376.545	78.69
376.771	74.69
376.997	78.69
377.222	85.69
377.448	77.69
377.674	74.69
377.899	82.69
378.125	77.69
378.35	83.69
378.576	90.69
378.802	86.69
379.027	88.69
379.253	82.69
379.478	86.69
379.704	89.69
379.929	93.69
380.155	89.69
380.38	96.69
380.606	79.69
380.831	85.69
381.057	80.69
381.282	88.69
381.507	84.69
381.733	73.69
381.958	88.69
382.184	89.69
382.409	70.69
382.634	86.69
382.86	80.69
383.085	79.69
383.31	82.69
383.535	81.69
383.761	98.69
383.986	73.69
384.211	84.69
384.436	79.69
384.662	72.69
384.887	86.69
385.112	70.69
385.337	89.69
385.562	79.69
385.787	80.69
386.013	87.69
386.238	80.69
386.463	74.69
386.688	84.69
386.913	81.69
387.138	78.69
387.363	85.69
387.588	86.69
387.813	86.69
388.038	90.69
388.263	92.69
388.488	80.69
388.713	85.69
388.938	81.69
389.163	79.69
389.387	69.69
389.612	78.69
389.837	94.69
390.062	88.69
390.287	83.69
390.512	77.69
390.736	83.69
390.961	85.69
391.186	80.69
391.411	100.69
391.636	84.69
391.86	97.69
392.085	97.69
392.31	86.69
392.534	96.69
392.759	84.69
392.984	91.69
393.208	98.69
393.433	79.69
393.658	75.69
393.882	83.69
394.107	71.69
394.331	74.69
394.556	79.69
394.78	85.69
395.005	94.69
395.229	94.69
395.454	96.69
395.678	85.69
395.903	78.69
396.127	88.69
396.352	83.69
396.576	88.69
396.801	89.69
397.025	83.69
397.249	76.69
397.474	85.69
397.698	97.69
397.922	81.69
398.147	78.69
398.371	89.69
398.595	78.69
398.82	79.69
399.044	85.69
399.268	72.69
399.492	94.69
399.717	84.69
399.941	90.69
400.165	89.69
400.389	80.69
400.613	80.69
400.837	90.69
401.062	93.69
401.286	80.69
401.51	75.69
401.734	81.69
401.958	82.69
402.182	86.69
402.406	90.69
402.63	79.69
402.854	81.69
403.078	80.69
403.302	81.69
403.526	91.69
403.75	88.69
403.974	83.69
404.198	83.69
404.422	77.69
404.645	88.69
404.869	86.69
405.093	87.69
405.317	75.69
405.541	87.69
405.765	73.69
405.988	70.69
406.212	95.69
406.436	90.69
406.66	79.69
406.883	74.69
407.107	72.69
407.331	73.69
407.555	89.69
407.778	91.69
408.002	99.69
408.226	81.69
408.449	83.69
408.673	69.69
408.896	70.69
409.12	103.69
409.344	104.69
409.567	83.69
409.791	106.69
410.014	86.69
410.238	84.69
410.461	80.69
410.685	96.69
410.908	67.69
411.132	82.69
411.355	83.69
411.578	79.69
411.802	89.69
412.025	93.69
412.249	87.69
412.472	80.69
412.695	84.69
412.919	93.69
413.142	89.69
413.365	93.69
413.589	80.69
413.812	96.69
414.035	96.69
414.258	81.69
414.482	90.69
414.705	85.69
414.928	93.69
415.151	79.69
415.374	79.69
415.597	75.69
415.821	72.69
416.044	91.69
416.267	83.69
416.49	80.69
416.713	96.69
416.936	79.69
417.159	78.69
417.382	84.69
417.605	78.69
417.828	90.69
418.051	79.69
418.274	78.69
418.497	82.69
418.72	85.69
418.943	73.69
419.166	82.69
419.389	89.69
419.611	72.69
419.834	74.69
420.057	97.69
420.28	73.69
420.503	77.69
420.726	90.69
420.948	92.69
421.171	103.69
421.394	79.69
421.617	64.69
421.839	86.69
422.062	87.69
422.285	82.69
422.507	87.69
422.73	79.69
422.953	86.69
423.175	80.69
423.398	90.69
423.621	79.69
423.843	88.69
424.066	95.69
424.288	78.69
424.511	82.69
424.733	73.69
424.956	87.69
425.178	86.69
425.401	87.69
425.623	74.69
425.846	85.69
426.068	78.69
426.291	95.69
426.513	100.69
426.735	76.69
426.958	79.69
427.18	93.69
427.402	75.69
427.625	76.69
427.847	88.69
428.069	89.69
428.292	87.69
428.514	89.69
428.736	82.69
428.958	77.69
429.181	84.69
429.403	83.69
429.625	84.69
429.847	87.69
430.069	84.69
430.292	91.69
430.514	90.69
430.736	85.69
430.958	82.69
431.18	81.69
431.402	69.69
431.624	90.69
431.846	91.69
432.068	82.69
432.29	79.69
432.512	84.69
432.734	90.69
432.956	80.69
433.178	66.69
433.4	80.69
433.622	101.69
433.844	75.69
434.066	90.69
434.287	77.69
434.509	85.69
434.731	82.69
434.953	98.69
435.175	88.69
435.397	87.69
435.618	86.69
435.84	87.69
436.062	85.69
436.284	83.69
436.505	84.69
436.727	83.69
436.949	83.69
437.17	100.69
437.392	96.69
437.614	74.69
437.835	81.69
438.057	78.69
438.278	94.69
438.5	88.69
438.721	86.69
438.943	94.69
439.165	73.69
439.386	84.69
439.608	83.69
439.829	89.69
440.05	96.69
440.272	84.69
440.493	83.69
440.715	89.69
440.936	84.69
441.158	86.69
441.379	93.69
441.6	75.69
441.822	95.69
442.043	91.69
442.264	83.69
442.486	95.69
442.707	88.69
442.928	88.69
443.149	72.69
443.371	92.69
443.592	89.69
443.813	88.69
444.034	93.69
444.255	78.69
444.476	90.69
444.698	75.69
444.919	92.69
445.14	219.69
445.361	139.69
445.582	68.69
445.803	82.69
446.024	97.69
446.245	77.69
446.466	83.69
446.687	75.69
446.908	91.69
447.129	90.69
447.35	68.69
447.571	83.69
447.792	89.69
448.013	81.69
448.234	81.69
448.455	95.69
448.675	78.69
448.896	82.69
449.117	84.69
449.338	89.69
449.559	85.69
449.779	82.69
450	91.69
450.221	84.69
450.442	80.69
450.662	81.69
450.883	84.69
451.104	96.69
451.324	88.69
451.545	83.69
451.766	89.69
451.986	89.69
452.207	83.69
452.428	77.69
452.648	82.69
452.869	71.69
453.089	94.69
453.31	82.69
453.53	88.69
453.751	101.69
453.971	86.69
454.192	86.69
454.412	92.69
454.633	87.69
454.853	89.69
455.073	85.69
455.294	87.69
455.514	89.69
455.734	80.69
455.955	75.69
456.175	91.69
456.395	68.69
456.616	86.69
456.836	94.69
457.056	98.69
457.276	78.69
457.497	88.69
457.717	84.69
457.937	92.69
458.157	87.69
458.377	95.69
458.598	80.69
458.818	77.69
459.038	92.69
459.258	84.69
459.478	85.69
459.698	88.69
459.918	83.69
460.138	75.69
460.358	93.69
460.578	80.69
460.798	89.69
461.018	83.69
461.238	83.69
461.458	91.69
461.678	88.69
461.898	86.69
462.118	99.69
462.338	96.69
462.558	99.69
462.777	93.69
462.997	70.69
463.217	78.69
463.437	88.69
463.657	101.69
463.876	89.69
464.096	94.69
464.316	83.69
464.536	87.69
464.755	102.69
464.975	91.69
465.195	83.69
465.414	93.69
465.634	81.69
465.854	71.69
466.073	93.69
466.293	87.69
466.512	88.69
466.732	78.69
466.951	88.69
467.171	81.69
467.391	90.69
467.61	96.69
467.829	87.69
468.049	87.69
468.268	76.69
468.488	84.69
468.707	98.69
468.927	84.69
469.146	85.69
469.365	99.69
469.585	93.69
469.804	84.69
470.023	79.69
470.243	77.69
470.462	102.69
470.681	93.69
470.901	90.69
471.12	86.69
471.339	95.69
471.558	106.69
471.777	77.69
471.997	99.69
472.216	79.69
472.435	98.69
472.654	84.69
472.873	81.69
473.092	81.69
473.311	98.69
473.53	85.69
473.749	89.69
473.968	95.69
474.187	88.69
474.406	88.69
474.625	80.69
474.844	89.69
475.063	97.69
475.282	85.69
475.501	98.69
475.72	84.69
475.939	95.69
476.158	91.69
476.377	92.69
476.596	98.69
476.814	74.69
477.033	103.69
477.252	89.69
477.471	80.69
477.69	87.69
477.908	81.69
478.127	92.69
478.346	96.69
478.564	101.69
478.783	86.69
479.002	76.69
479.22	80.69
479.439	89.69
479.658	85.69
479.876	92.69
480.095	84.69
480.313	76.69
480.532	93.69
480.751	93.69
480.969	75.69
481.188	94.69
481.406	93.69
481.624	86.69
481.843	89.69
482.061	78.69
482.28	86.69
482.498	91.69
482.717	91.69
482.935	96.69
483.153	99.69
483.372	96.69
483.59	96.69
483.808	97.69
484.027	93.69
484.245	98.69
484.463	91.69
484.681	96.69
484.9	102.69
485.118	96.69
485.336	99.69
485.554	86.69
485.772	97.69
485.99	92.69
486.209	100.69
486.427	89.69
486.645	88.69
486.863	92.69
487.081	98.69
487.299	101.69
487.517	91.69
487.735	98.69
487.953	86.69
488.171	91.69
488.389	99.69
488.607	91.69
488.825	87.69
489.043	89.69
489.261	84.69
489.479	90.69
489.696	73.69
489.914	85.69
490.132	87.69
490.35	98.69
490.568	86.69
490.786	94.69
491.003	94.69
491.221	103.69
491.439	95.69
491.657	106.69
491.874	106.69
492.092	99.69
492.31	105.69
492.527	94.69
492.745	103.69
492.963	99.69
493.18	106.69
493.398	81.69
493.615	96.69
493.833	83.69
494.05	93.69
494.268	107.69
494.485	103.69
494.703	89.69
494.92	89.69
495.138	102.69
495.355	90.69
495.573	84.69
495.79	91.69
496.008	98.69
496.225	95.69
496.442	104.69
496.66	89.69
496.877	94.69
497.094	103.69
497.312	87.69
497.529	86.69
497.746	101.69
497.963	101.69
498.181	93.69
498.398	87.69
498.615	93.69
498.832	90.69
499.049	89.69
499.267	109.69
499.484	85.69
499.701	103.69
499.918	116.69
500.135	108.69
500.352	107.69
500.569	116.69
500.786	126.69
501.003	96.69
501.22	98.69
501.437	93.69
501.654	107.69
501.871	88.69
502.088	103.69
502.305	119.69
502.522	80.69
502.739	86.69
502.956	98.69
503.172	89.69
503.389	81.69
503.606	103.69
503.823	95.69
504.04	102.69
504.256	86.69
504.473	77.69
504.69	79.69
504.907	95.69
505.123	96.69
505.34	92.69
505.557	110.69
505.773	93.69
505.99	87.69
506.207	100.69
506.423	102.69
506.64	92.69
506.856	94.69
507.073	90.69
507.289	103.69
507.506	96.69
507.722	83.69
507.939	90.69
508.155	86.69
508.372	96.69
508.588	83.69
508.805	90.69
509.021	77.69
509.238	92.69
509.454	86.69
509.67	91.69
509.887	83.69
510.103	91.69
510.319	98.69
510.536	90.69
510.752	98.69
510.968	86.69
511.184	81.69
511.401	70.69
511.617	77.69
511.833	89.69
512.049	80.69
512.265	96.69
512.481	81.69
512.698	92.69
512.914	82.69
513.13	90.69
513.346	90.69
513.562	94.69
513.778	107.69
513.994	93.69
514.21	102.69
514.426	103.69
514.642	95.69
514.858	82.69
515.074	86.69
515.29	96.69
515.506	96.69
515.721	106.69
515.937	98.69
516.153	92.69
516.369	106.69
516.585	90.69
516.801	99.69
517.016	97.69
517.232	86.69
517.448	98.69
517.664	88.69
517.879	78.69
518.095	118.69
518.311	78.69
518.527	100.69
518.742	91.69
518.958	96.69
519.173	99.69
519.389	93.69
519.605	74.69
519.82	93.69
520.036	88.69
520.251	82.69
520.467	86.69
520.682	98.69
520.898	95.69
521.113	93.69
521.329	91.69
521.544	106.69
521.76	87.69
521.975	83.69
522.19	82.69
522.406	87.69
522.621	94.69
522.836	80.69
523.052	93.69
523.267	80.69
523.482	90.69
523.698	95.69
523.913	87.69
524.128	100.69
524.343	105.69
524.559	88.69
524.774	90.69
524.989	79.69
525.204	88.69
525.419	87.69
525.634	86.69
525.849	80.69
526.064	79.69
526.28	92.69
526.495	105.69
526.71	98.69
526.925	99.69
527.14	84.69
527.355	99.69
527.57	89.69
527.785	100.69
527.999	92.69
528.214	84.69
528.429	79.69
528.644	96.69
528.859	76.69
529.074	100.69
529.289	93.69
529.503	91.69
529.718	85.69
529.933	92.69
530.148	92.69
530.363	96.69
530.577	91.69
530.792	86.69
531.007	84.69
531.221	86.69
531.436	80.69
531.651	93.69
531.865	96.69
532.08	84.69
532.295	100.69
532.509	99.69
532.724	83.69
532.938	97.69
533.153	100.69
533.367	91.69
533.582	93.69
533.796	97.69
534.011	91.69
534.225	82.69
534.44	82.69
534.654	98.69
534.868	107.69
535.083	94.69
535.297	79.69
535.511	96.69
535.726	76.69
535.94	92.69
536.154	96.69
536.369	110.69
536.583	91.69
536.797	92.69
537.011	98.69
537.225	84.69
537.44	83.69
537.654	86.69
537.868	85.69
538.082	100.69
538.296	75.69
538.51	87.69
538.724	77.69
538.938	88.69
539.153	98.69
539.367	83.69
539.581	89.69
539.795	90.69
540.009	104.69
540.222	93.69
540.436	88.69
540.65	110.69
540.864	98.69
541.078	75.69
541.292	87.69
541.506	95.69
541.72	82.69
541.934	90.69
542.147	93.69
542.361	98.69
542.575	79.69
542.789	99.69
543.002	91.69
543.216	84.69
543.43	90.69
543.644	85.69
543.857	79.69
544.071	92.69
544.285	92.69
544.498	100.69
544.712	91.69
544.925	87.69
545.139	98.69
545.352	94.69
545.566	81.69
545.779	105.69
545.993	104.69
546.206	89.69
546.42	86.69
546.633	86.69
546.847	105.69
547.06	79.69
547.274	80.69
547.487	89.69
547.7	103.69
547.914	83.69
548.127	77.69
548.34	91.69
548.554	81.69
548.767	94.69
548.98	91.69
549.193	80.69
549.407	91.69
549.62	93.69
549.833	91.69
550.046	83.69
550.259	104.69
550.473	84.69
550.686	95.69
550.899	80.69
551.112	94.69
551.325	87.69
551.538	105.69
551.751	100.69
551.964	92.69
552.177	95.69
552.39	96.69
552.603	99.69
552.816	92.69
553.029	98.69
553.242	86.69
553.455	96.69
553.667	102.69
553.88	80.69
554.093	95.69
554.306	92.69
554.519	104.69
554.732	110.69
554.944	83.69
555.157	92.69
555.37	98.69
555.583	92.69
555.795	92.69
556.008	94.69
556.221	101.69
556.433	99.69
556.646	81.69
556.859	88.69
557.071	85.69
557.284	102.69
557.496	92.69
557.709	91.69
557.921	95.69
558.134	87.69
558.346	90.69
558.559	94.69
558.771	82.69
558.984	95.69
559.196	89.69
559.409	91.69
559.621	95.69
559.833	74.69
560.046	93.69
560.258	86.69
560.47	97.69
560.683	98.69
560.895	81.69
561.107	91.69
561.32	81.69
561.532	86.69
561.744	90.69
561.956	101.69
562.168	73.69
562.381	90.69
562.593	84.69
562.805	80.69
563.017	104.69
563.229	100.69
563.441	94.69
563.653	83.69
563.865	72.69
564.077	96.69
564.289	83.69
564.501	86.69
564.713	84.69
564.925	73.69
565.137	80.69
565.349	98.69
565.561	95.69
565.773	92.69
565.985	67.69
566.197	101.69
566.408	96.69
566.62	93.69
566.832	90.69
567.044	100.69
567.255	98.69
567.467	99.69
567.679	95.69
567.891	98.69
568.102	88.69
568.314	96.69
568.526	92.69
568.737	91.69
568.949	71.69
569.161	99.69
569.372	78.69
569.584	98.69
569.795	87.69
570.007	85.69
570.218	90.69
570.43	95.69
570.641	95.69
570.853	91.69
571.064	88.69
571.276	87.69
571.487	91.69
571.698	86.69
571.91	88.69
572.121	83.69
572.333	78.69
572.544	91.69
572.755	86.69
572.966	100.69
573.178	81.69
573.389	80.69
573.6	111.69
573.811	84.69
574.023	83.69
574.234	105.69
574.445	99.69
574.656	90.69
574.867	84.69
575.078	92.69
575.289	85.69
575.501	86.69
575.712	85.69
575.923	93.69
576.134	89.69
576.345	79.69
576.556	79.69
576.767	83.69
576.978	79.69
577.188	95.69
577.399	79.69
577.61	86.69
577.821	71.69
578.032	93.69
578.243	94.69
578.454	80.69
578.665	85.69
578.875	90.69
579.086	88.69
579.297	76.69
579.508	96.69
579.718	110.69
579.929	89.69
580.14	90.69
580.35	71.69
580.561	76.69
580.772	76.69
580.982	89.69
581.193	84.69
581.403	98.69
581.614	88.69
581.825	88.69
582.035	84.69
582.246	101.69
582.456	78.69
582.667	98.69
582.877	101.69
583.087	108.69
583.298	90.69
583.508	85.69
583.719	76.69
583.929	84.69
584.139	88.69
584.35	93.69
584.56	88.69
584.77	96.69
584.981	77.69
585.191	88.69
585.401	85.69
585.611	79.69
585.821	105.69
586.032	100.69
586.242	79.69
586.452	73.69
586.662	68.69
586.872	85.69
587.082	79.69
587.292	87.69
587.502	74.69
587.713	78.69
587.923	85.69
588.133	92.69
588.343	98.69
588.553	84.69
588.762	93.69
588.972	89.69
589.182	92.69
589.392	92.69
589.602	72.69
589.812	79.69
590.022	101.69
590.232	101.69
590.441	77.69
590.651	80.69
590.861	98.69
591.071	82.69
591.281	85.69
591.49	90.69
591.7	96.69
591.91	95.69
592.119	82.69
592.329	94.69
592.539	95.69
592.748	83.69
592.958	83.69
593.167	90.69
593.377	93.69
593.587	101.69
593.796	81.69
594.006	97.69
594.215	95.69
594.424	83.69
594.634	98.69
594.843	77.69
595.053	90.69
595.262	84.69
595.472	98.69
595.681	94.69
595.89	82.69
596.1	78.69
596.309	81.69
596.518	90.69
596.727	87.69
596.937	74.69
597.146	81.69
597.355	96.69
597.564	77.69
597.774	76.69
597.983	79.69
598.192	80.69
598.401	82.69
598.61	81.69
598.819	79.69
599.028	77.69
599.237	80.69
599.446	87.69
599.655	90.69
599.864	73.69
600.073	83.69
600.282	86.69
600.491	89.69
600.7	86.69
600.909	98.69
601.118	85.69
601.327	91.69
601.536	87.69
601.745	86.69
601.953	93.69
602.162	89.69
602.371	80.69
602.58	80.69
602.789	66.69
602.997	92.69
603.206	77.69
603.415	78.69
603.623	67.69
603.832	77.69
604.041	75.69
604.249	91.69
604.458	93.69
604.666	77.69
604.875	95.69
605.084	84.69
605.292	71.69
605.501	78.69
605.709	87.69
605.918	83.69
606.126	89.69
606.334	87.69
606.543	100.69
606.751	83.69
606.96	80.69
607.168	95.69
607.376	86.69
607.585	94.69
607.793	86.69
608.001	75.69
608.21	96.69
608.418	88.69
608.626	91.69
608.834	92.69
609.043	115.69
609.251	87.69
609.459	92.69
609.667	86.69
609.875	83.69
610.083	93.69
610.291	84.69
610.499	80.69
610.707	94.69
610.916	88.69
611.124	85.69
611.332	89.69
611.54	78.69
611.748	72.69
611.955	97.69
612.163	98.69
612.371	104.69
612.579	89.69
612.787	102.69
612.995	97.69
613.203	91.69
613.411	69.69
613.618	80.69
613.826	91.69
614.034	76.69
614.242	81.69
614.449	93.69
614.657	67.69
614.865	99.69
615.072	85.69
615.28	83.69
615.488	79.69
615.695	83.69
615.903	88.69
616.111	68.69
616.318	90.69
616.526	91.69
616.733	103.69
616.941	85.69
617.148	87.69
617.356	88.69
617.563	81.69
617.771	90.69
617.978	89.69
618.185	78.69
618.393	78.69
618.6	83.69
618.807	84.69
619.015	100.69
619.222	71.69
619.429	86.69
619.637	84.69
619.844	87.69
620.051	79.69
620.258	69.69
620.466	82.69
620.673	72.69
620.88	81.69
621.087	90.69
621.294	88.69
621.501	79.69
621.708	80.69
621.915	84.69
622.122	86.69
622.329	90.69
622.536	96.69
622.743	83.69
622.95	84.69
623.157	95.69
623.364	88.69
623.571	83.69
623.778	85.69
623.985	87.69
624.192	71.69
624.399	95.69
624.606	92.69
624.812	90.69
625.019	85.69
625.226	79.69
625.433	87.69
625.639	90.69
625.846	94.69
626.053	92.69
626.259	78.69
626.466	87.69
626.673	89.69
626.879	84.69
627.086	100.69
627.293	96.69
627.499	92.69
627.706	85.69
627.912	79.69
628.119	89.69
628.325	87.69
628.532	73.69
628.738	74.69
628.945	79.69
629.151	81.69
629.357	80.69
629.564	90.69
629.77	90.69
629.976	84.69
630.183	79.69
630.389	79.69
630.595	91.69
630.802	77.69
631.008	86.69
631.214	80.69
631.42	99.69
631.627	74.69
631.833	78.69
632.039	82.69
632.245	78.69
632.451	89.69
632.657	92.69
632.863	82.69
633.069	79.69
633.275	88.69
633.481	84.69
633.688	82.69
633.893	94.69
634.099	86.69
634.305	83.69
634.511	82.69
634.717	78.69
634.923	90.69
635.129	95.69
635.335	84.69
635.541	83.69
635.747	78.69
635.952	78.69
636.158	89.69
636.364	91.69
636.57	85.69
636.775	86.69
636.981	87.69
637.187	89.69
637.392	87.69
637.598	86.69
637.804	74.69
638.009	75.69
638.215	84.69
638.421	69.69
638.626	92.69
638.832	87.69
639.037	70.69
639.243	71.69
639.448	92.69
639.654	82.69
639.859	64.69
640.065	97.69
640.27	93.69
640.475	84.69
640.681	83.69
640.886	85.69
641.091	97.69
641.297	85.69
641.502	88.69
641.707	84.69
641.913	78.69
642.118	82.69
642.323	97.69
642.528	92.69
642.733	88.69
642.939	88.69
643.144	85.69
643.349	93.69
643.554	83.69
643.759	81.69
643.964	85.69
644.169	85.69
644.374	82.69
644.579	84.69
644.784	89.69
644.989	94.69
645.194	90.69
645.399	77.69
645.604	90.69
645.809	77.69
646.014	89.69
646.219	74.69
646.423	78.69
646.628	70.69
646.833	91.69
647.038	92.69
647.243	89.69
647.447	103.69
647.652	90.69
647.857	86.69
648.062	85.69
648.266	81.69
648.471	81.69
648.676	93.69
648.88	83.69
649.085	82.69
649.289	77.69
649.494	79.69
649.698	82.69
649.903	85.69
650.107	81.69
650.312	77.69
650.516	78.69
650.721	92.69
650.925	82.69
651.13	85.69
651.334	92.69
651.539	83.69
651.743	85.69
651.947	79.69
652.152	84.69
652.356	87.69
652.56	79.69
652.764	87.69
652.969	89.69
653.173	84.69
653.377	80.69
653.581	88.69
653.785	99.69
653.99	83.69
654.194	73.69
654.398	78.69
654.602	80.69
654.806	82.69
655.01	77.69
655.214	79.69
655.418	78.69
655.622	98.69
655.826	86.69
656.03	87.69
656.234	82.69
656.438	68.69
656.642	75.69
656.846	79.69
657.049	90.69
657.253	82.69
657.457	77.69
657.661	82.69
657.865	86.69
658.068	85.69
658.272	77.69
658.476	96.69
658.68	95.69
658.883	82.69
659.087	84.69
659.291	78.69
659.494	92.69
659.698	88.69
659.901	86.69
660.105	83.69
660.309	67.69
660.512	85.69
660.716	73.69
660.919	90.69
661.123	99.69
661.326	88.69
661.53	91.69
661.733	84.69
661.936	85.69
662.14	94.69
662.343	74.69
662.546	81.69
662.75	90.69
662.953	86.69
663.156	84.69
663.36	84.69
663.563	86.69
663.766	75.69
663.969	74.69
664.173	88.69
664.376	77.69
664.579	78.69
664.782	86.69
664.985	88.69
665.188	89.69
665.391	86.69
665.594	73.69
665.797	88.69
666	67.69
666.203	81.69
666.406	79.69
666.609	68.69
666.812	77.69
667.015	67.69
667.218	85.69
667.421	74.69
667.624	82.69
667.827	69.69
668.03	79.69
668.232	78.69
668.435	92.69
668.638	79.69
668.841	82.69
669.043	85.69
669.246	86.69
669.449	76.69
669.651	84.69
669.854	89.69
670.057	91.69
670.259	85.69
670.462	85.69
670.665	96.69
670.867	83.69
671.07	82.69
671.272	77.69
671.475	96.69
671.677	88.69
671.88	69.69
672.082	87.69
672.284	68.69
672.487	74.69
672.689	87.69
672.892	82.69
