Data from Ni(NO3)2@0.125M.TitratingCurve.Agarose3%dH2O.NegLispCup.LampEnergy10.LIBS07252019_HRD10591_18-11-16-568.txt Node
Date: Thu Jul 25 18:11:16 EDT 2019
User: cochatt
Spectrometer: HR+D1059
Trigger mode: 1
Integration Time (sec): 1.000000E-1
Scans to average: 1
Electric dark correction enabled: true
Nonlinearity correction enabled: false
Boxcar width: 0
XAxis mode: Wavelengths
Number of Pixels in Spectrum: 2048
>>>>>Begin Spectral Data<<<<<
223.165	0.38
223.4	0.38
223.635	0.38
223.869	-21.62
224.104	-22.62
224.338	-1.62
224.573	-17.62
224.808	-22.62
225.042	3.38
225.277	-3.62
225.511	-9.62
225.746	1.38
225.98	12.38
226.215	12.38
226.449	1.38
226.683	11.38
226.918	26.38
227.152	30.38
227.387	33.38
227.621	46.38
227.856	29.38
228.09	48.38
228.324	36.38
228.559	49.38
228.793	71.38
229.027	96.38
229.262	107.38
229.496	114.38
229.73	122.38
229.964	109.38
230.199	116.38
230.433	121.38
230.667	120.38
230.901	120.38
231.136	115.38
231.37	129.38
231.604	139.38
231.838	136.38
232.072	136.38
232.306	134.38
232.541	130.38
232.775	137.38
233.009	123.38
233.243	142.38
233.477	145.38
233.711	147.38
233.945	152.38
234.179	131.38
234.413	146.38
234.647	133.38
234.881	142.38
235.115	148.38
235.349	133.38
235.583	155.38
235.817	150.38
236.051	130.38
236.285	143.38
236.519	148.38
236.753	151.38
236.987	151.38
237.221	147.38
237.455	149.38
237.689	145.38
237.922	154.38
238.156	142.38
238.39	160.38
238.624	139.38
238.858	158.38
239.091	159.38
239.325	151.38
239.559	158.38
239.793	140.38
240.027	154.38
240.26	171.38
240.494	152.38
240.728	164.38
240.961	176.38
241.195	167.38
241.429	179.38
241.662	168.38
241.896	169.38
242.13	194.38
242.363	186.38
242.597	179.38
242.83	185.38
243.064	185.38
243.298	196.38
243.531	181.38
243.765	184.38
243.998	204.38
244.232	188.38
244.465	198.38
244.699	197.38
244.932	209.38
245.166	209.38
245.399	195.38
245.633	213.38
245.866	217.38
246.099	202.38
246.333	199.38
246.566	207.38
246.8	178.38
247.033	204.38
247.266	217.38
247.5	212.38
247.733	199.38
247.966	211.38
248.2	208.38
248.433	209.38
248.666	213.38
248.899	222.38
249.133	220.38
249.366	226.38
249.599	226.38
249.832	229.38
250.066	248.38
250.299	249.38
250.532	238.38
250.765	236.38
250.998	227.38
251.231	258.38
251.465	240.38
251.698	241.38
251.931	236.38
252.164	256.38
252.397	242.38
252.63	240.38
252.863	278.38
253.096	267.38
253.329	256.38
253.562	263.38
253.795	289.38
254.028	256.38
254.261	247.38
254.494	262.38
254.727	265.38
254.96	254.38
255.193	269.38
255.426	274.38
255.659	283.38
255.892	264.38
256.124	260.38
256.357	272.38
256.59	262.38
256.823	273.38
257.056	281.38
257.289	263.38
257.521	282.38
257.754	271.38
257.987	264.38
258.22	297.38
258.452	283.38
258.685	304.38
258.918	312.38
259.151	299.38
259.383	287.38
259.616	293.38
259.849	287.38
260.081	282.38
260.314	302.38
260.547	278.38
260.779	283.38
261.012	282.38
261.244	302.38
261.477	322.38
261.71	298.38
261.942	288.38
262.175	298.38
262.407	296.38
262.64	317.38
262.872	312.38
263.105	288.38
263.337	314.38
263.57	306.38
263.802	330.38
264.035	323.38
264.267	319.38
264.499	319.38
264.732	319.38
264.964	307.38
265.197	321.38
265.429	321.38
265.661	316.38
265.894	344.38
266.126	325.38
266.358	326.38
266.591	349.38
266.823	354.38
267.055	335.38
267.287	338.38
267.52	360.38
267.752	346.38
267.984	351.38
268.216	351.38
268.448	341.38
268.681	346.38
268.913	343.38
269.145	336.38
269.377	321.38
269.609	354.38
269.841	350.38
270.073	357.38
270.306	335.38
270.538	350.38
270.77	349.38
271.002	337.38
271.234	353.38
271.466	369.38
271.698	342.38
271.93	368.38
272.162	370.38
272.394	368.38
272.626	351.38
272.858	366.38
273.09	367.38
273.322	371.38
273.553	384.38
273.785	375.38
274.017	350.38
274.249	382.38
274.481	384.38
274.713	402.38
274.945	376.38
275.176	390.38
275.408	379.38
275.64	376.38
275.872	403.38
276.104	394.38
276.335	378.38
276.567	386.38
276.799	402.38
277.031	418.38
277.262	404.38
277.494	393.38
277.726	398.38
277.957	396.38
278.189	414.38
278.421	398.38
278.652	415.38
278.884	410.38
279.115	416.38
279.347	419.38
279.579	410.38
279.81	405.38
280.042	403.38
280.273	444.38
280.505	430.38
280.736	437.38
280.968	410.38
281.199	434.38
281.431	418.38
281.662	403.38
281.894	399.38
282.125	438.38
282.356	435.38
282.588	450.38
282.819	443.38
283.051	441.38
283.282	435.38
283.513	451.38
283.745	445.38
283.976	447.38
284.207	428.38
284.439	445.38
284.67	465.38
284.901	452.38
285.132	476.38
285.364	459.38
285.595	442.38
285.826	434.38
286.057	468.38
286.288	454.38
286.52	455.38
286.751	467.38
286.982	477.38
287.213	464.38
287.444	463.38
287.675	479.38
287.906	467.38
288.138	477.38
288.369	466.38
288.6	475.38
288.831	483.38
289.062	474.38
289.293	479.38
289.524	471.38
289.755	477.38
289.986	472.38
290.217	487.38
290.448	498.38
290.679	478.38
290.91	497.38
291.141	513.38
291.371	482.38
291.602	484.38
291.833	483.38
292.064	502.38
292.295	483.38
292.526	497.38
292.757	497.38
292.987	495.38
293.218	488.38
293.449	492.38
293.68	500.38
293.91	501.38
294.141	504.38
294.372	486.38
294.603	487.38
294.833	511.38
295.064	498.38
295.295	514.38
295.525	495.38
295.756	502.38
295.987	490.38
296.217	514.38
296.448	514.38
296.679	507.38
296.909	500.38
297.14	533.38
297.37	521.38
297.601	527.38
297.831	532.38
298.062	536.38
298.292	542.38
298.523	550.38
298.753	520.38
298.984	537.38
299.214	548.38
299.445	548.38
299.675	524.38
299.905	515.38
300.136	527.38
300.366	534.38
300.597	542.38
300.827	571.38
301.057	562.38
301.288	558.38
301.518	556.38
301.748	562.38
301.979	575.38
302.209	579.38
302.439	551.38
302.669	560.38
302.9	547.38
303.13	568.38
303.36	553.38
303.59	556.38
303.82	562.38
304.051	554.38
304.281	568.38
304.511	568.38
304.741	580.38
304.971	545.38
305.201	566.38
305.431	547.38
305.661	541.38
305.891	559.38
306.121	552.38
306.352	562.38
306.582	548.38
306.812	562.38
307.042	536.38
307.272	542.38
307.502	539.38
307.731	544.38
307.961	542.38
308.191	556.38
308.421	558.38
308.651	549.38
308.881	536.38
309.111	544.38
309.341	567.38
309.571	558.38
309.8	552.38
310.03	538.38
310.26	531.38
310.49	532.38
310.72	580.38
310.949	546.38
311.179	560.38
311.409	546.38
311.639	571.38
311.868	576.38
312.098	580.38
312.328	561.38
312.557	570.38
312.787	552.38
313.017	568.38
313.246	588.38
313.476	577.38
313.706	586.38
313.935	570.38
314.165	611.38
314.394	595.38
314.624	623.38
314.853	577.38
315.083	594.38
315.312	569.38
315.542	599.38
315.771	586.38
316.001	588.38
316.23	571.38
316.46	588.38
316.689	577.38
316.919	572.38
317.148	577.38
317.377	573.38
317.607	563.38
317.836	578.38
318.065	567.38
318.295	585.38
318.524	563.38
318.753	560.38
318.983	608.38
319.212	596.38
319.441	591.38
319.67	564.38
319.9	583.38
320.129	585.38
320.358	593.38
320.587	594.38
320.816	591.38
321.046	555.38
321.275	571.38
321.504	612.38
321.733	593.38
321.962	608.38
322.191	609.38
322.42	614.38
322.649	611.38
322.878	593.38
323.108	612.38
323.337	619.38
323.566	595.38
323.795	623.38
324.024	610.38
324.253	611.38
324.482	632.38
324.71	612.38
324.939	619.38
325.168	619.38
325.397	616.38
325.626	628.38
325.855	610.38
326.084	618.38
326.313	651.38
326.542	638.38
326.77	655.38
326.999	671.38
327.228	648.38
327.457	641.38
327.686	652.38
327.914	644.38
328.143	666.38
328.372	648.38
328.6	640.38
328.829	628.38
329.058	624.38
329.287	639.38
329.515	644.38
329.744	647.38
329.972	670.38
330.201	677.38
330.43	676.38
330.658	657.38
330.887	669.38
331.115	650.38
331.344	678.38
331.572	681.38
331.801	695.38
332.03	728.38
332.258	742.38
332.486	773.38
332.715	796.38
332.943	818.38
333.172	841.38
333.4	899.38
333.629	878.38
333.857	888.38
334.085	885.38
334.314	874.38
334.542	868.38
334.771	857.38
334.999	822.38
335.227	818.38
335.455	817.38
335.684	810.38
335.912	806.38
336.14	821.38
336.369	775.38
336.597	774.38
336.825	770.38
337.053	778.38
337.281	776.38
337.51	759.38
337.738	732.38
337.966	721.38
338.194	701.38
338.422	707.38
338.65	711.38
338.878	731.38
339.106	706.38
339.334	731.38
339.562	675.38
339.79	687.38
340.018	680.38
340.246	650.38
340.474	670.38
340.702	685.38
340.93	681.38
341.158	705.38
341.386	694.38
341.614	661.38
341.842	681.38
342.07	700.38
342.298	649.38
342.526	678.38
342.754	687.38
342.981	686.38
343.209	680.38
343.437	722.38
343.665	777.38
343.893	822.38
344.12	872.38
344.348	808.38
344.576	773.38
344.804	756.38
345.031	702.38
345.259	702.38
345.487	671.38
345.714	680.38
345.942	672.38
346.17	672.38
346.397	643.38
346.625	651.38
346.853	688.38
347.08	641.38
347.308	658.38
347.535	680.38
347.763	679.38
347.99	661.38
348.218	691.38
348.445	653.38
348.673	666.38
348.9	672.38
349.128	663.38
349.355	646.38
349.583	675.38
349.81	645.38
350.037	621.38
350.265	624.38
350.492	645.38
350.72	628.38
350.947	618.38
351.174	618.38
351.402	635.38
351.629	647.38
351.856	629.38
352.083	628.38
352.311	623.38
352.538	651.38
352.765	620.38
352.992	611.38
353.22	628.38
353.447	646.38
353.674	628.38
353.901	650.38
354.128	634.38
354.355	630.38
354.583	615.38
354.81	624.38
355.037	656.38
355.264	632.38
355.491	659.38
355.718	656.38
355.945	656.38
356.172	651.38
356.399	646.38
356.626	625.38
356.853	631.38
357.08	639.38
357.307	641.38
357.534	651.38
357.761	630.38
357.988	632.38
358.215	633.38
358.441	639.38
358.668	631.38
358.895	638.38
359.122	638.38
359.349	638.38
359.576	650.38
359.802	628.38
360.029	656.38
360.256	611.38
360.483	644.38
360.709	626.38
360.936	638.38
361.163	640.38
361.39	645.38
361.616	631.38
361.843	656.38
362.07	656.38
362.296	617.38
362.523	627.38
362.749	646.38
362.976	644.38
363.203	640.38
363.429	608.38
363.656	632.38
363.882	636.38
364.109	633.38
364.335	624.38
364.562	640.38
364.788	635.38
365.015	632.38
365.241	632.38
365.468	636.38
365.694	651.38
365.92	628.38
366.147	622.38
366.373	612.38
366.599	617.38
366.826	631.38
367.052	625.38
367.278	639.38
367.505	637.38
367.731	652.38
367.957	628.38
368.184	643.38
368.41	638.38
368.636	648.38
368.862	658.38
369.089	636.38
369.315	656.38
369.541	672.38
369.767	688.38
369.993	657.38
370.219	666.38
370.445	675.38
370.672	696.38
370.898	686.38
371.124	678.38
371.35	689.38
371.576	697.38
371.802	678.38
372.028	671.38
372.254	709.38
372.48	698.38
372.706	706.38
372.932	729.38
373.158	724.38
373.384	726.38
373.61	714.38
373.835	715.38
374.061	697.38
374.287	712.38
374.513	707.38
374.739	731.38
374.965	771.38
375.191	770.38
375.416	762.38
375.642	767.38
375.868	737.38
376.094	717.38
376.319	707.38
376.545	689.38
376.771	711.38
376.997	716.38
377.222	688.38
377.448	705.38
377.674	714.38
377.899	697.38
378.125	685.38
378.35	696.38
378.576	685.38
378.802	665.38
379.027	696.38
379.253	678.38
379.478	712.38
379.704	687.38
379.929	702.38
380.155	692.38
380.38	665.38
380.606	667.38
380.831	663.38
381.057	679.38
381.282	709.38
381.507	687.38
381.733	680.38
381.958	688.38
382.184	694.38
382.409	689.38
382.634	747.38
382.86	714.38
383.085	735.38
383.31	750.38
383.535	758.38
383.761	794.38
383.986	796.38
384.211	798.38
384.436	822.38
384.662	827.38
384.887	844.38
385.112	843.38
385.337	822.38
385.562	848.38
385.787	832.38
386.013	866.38
386.238	848.38
386.463	842.38
386.688	846.38
386.913	826.38
387.138	835.38
387.363	820.38
387.588	850.38
387.813	815.38
388.038	819.38
388.263	831.38
388.488	809.38
388.713	845.38
388.938	800.38
389.163	814.38
389.387	847.38
389.612	826.38
389.837	816.38
390.062	828.38
390.287	822.38
390.512	832.38
390.736	822.38
390.961	827.38
391.186	812.38
391.411	871.38
391.636	902.38
391.86	930.38
392.085	948.38
392.31	953.38
392.534	921.38
392.759	881.38
392.984	894.38
393.208	877.38
393.433	887.38
393.658	888.38
393.882	858.38
394.107	892.38
394.331	898.38
394.556	880.38
394.78	894.38
395.005	872.38
395.229	903.38
395.454	927.38
395.678	960.38
395.903	956.38
396.127	916.38
396.352	904.38
396.576	894.38
396.801	897.38
397.025	887.38
397.249	908.38
397.474	914.38
397.698	898.38
397.922	903.38
398.147	912.38
398.371	955.38
398.595	993.38
398.82	1027.38
399.044	1111.38
399.268	1220.38
399.492	1456.38
399.717	1640.38
399.941	1625.38
400.165	1410.38
400.389	1243.38
400.613	1170.38
400.837	1090.38
401.062	1037.38
401.286	1031.38
401.51	1054.38
401.734	1065.38
401.958	1074.38
402.182	1073.38
402.406	1082.38
402.63	1112.38
402.854	1120.38
403.078	1119.38
403.302	1184.38
403.526	1192.38
403.75	1210.38
403.974	1253.38
404.198	1232.38
404.422	1242.38
404.645	1232.38
404.869	1207.38
405.093	1199.38
405.317	1179.38
405.541	1160.38
405.765	1153.38
405.988	1116.38
406.212	1136.38
406.436	1145.38
406.66	1154.38
406.883	1183.38
407.107	1271.38
407.331	1341.38
407.555	1366.38
407.778	1360.38
408.002	1369.38
408.226	1278.38
408.449	1264.38
408.673	1175.38
408.896	1202.38
409.12	1174.38
409.344	1205.38
409.567	1190.38
409.791	1200.38
410.014	1185.38
410.238	1178.38
410.461	1181.38
410.685	1156.38
410.908	1113.38
411.132	1132.38
411.355	1076.38
411.578	1099.38
411.802	1081.38
412.025	1105.38
412.249	1117.38
412.472	1092.38
412.695	1051.38
412.919	1026.38
413.142	1056.38
413.365	1028.38
413.589	1051.38
413.812	1046.38
414.035	1057.38
414.258	1035.38
414.482	1066.38
414.705	1061.38
414.928	1057.38
415.151	1051.38
415.374	1054.38
415.597	1061.38
415.821	1004.38
416.044	996.38
416.267	1011.38
416.49	1033.38
416.713	1032.38
416.936	1024.38
417.159	1023.38
417.382	1001.38
417.605	1016.38
417.828	1003.38
418.051	1044.38
418.274	1033.38
418.497	1051.38
418.72	1076.38
418.943	1074.38
419.166	1123.38
419.389	1182.38
419.611	1168.38
419.834	1147.38
420.057	1105.38
420.28	1035.38
420.503	1033.38
420.726	1024.38
420.948	1010.38
421.171	1013.38
421.394	1024.38
421.617	1030.38
421.839	1061.38
422.062	1062.38
422.285	1026.38
422.507	1089.38
422.73	1079.38
422.953	1067.38
423.175	1084.38
423.398	1123.38
423.621	1146.38
423.843	1139.38
424.066	1118.38
424.288	1122.38
424.511	1086.38
424.733	1095.38
424.956	1064.38
425.178	1063.38
425.401	1031.38
425.623	1036.38
425.846	1015.38
426.068	1006.38
426.291	972.38
426.513	970.38
426.735	967.38
426.958	973.38
427.18	951.38
427.402	938.38
427.625	924.38
427.847	911.38
428.069	889.38
428.292	942.38
428.514	917.38
428.736	928.38
428.958	891.38
429.181	879.38
429.403	869.38
429.625	882.38
429.847	868.38
430.069	882.38
430.292	888.38
430.514	888.38
430.736	895.38
430.958	890.38
431.18	876.38
431.402	894.38
431.624	899.38
431.846	911.38
432.068	934.38
432.29	912.38
432.512	919.38
432.734	944.38
432.956	901.38
433.178	924.38
433.4	916.38
433.622	924.38
433.844	929.38
434.066	946.38
434.287	918.38
434.509	969.38
434.731	990.38
434.953	1049.38
435.175	1030.38
435.397	1019.38
435.618	932.38
435.84	946.38
436.062	929.38
436.284	913.38
436.505	908.38
436.727	894.38
436.949	956.38
437.17	935.38
437.392	928.38
437.614	896.38
437.835	864.38
438.057	889.38
438.278	867.38
438.5	854.38
438.721	855.38
438.943	897.38
439.165	888.38
439.386	902.38
439.608	898.38
439.829	894.38
440.05	914.38
440.272	921.38
440.493	931.38
440.715	960.38
440.936	915.38
441.158	956.38
441.379	972.38
441.6	1066.38
441.822	1091.38
442.043	1051.38
442.264	1032.38
442.486	1028.38
442.707	1016.38
442.928	1040.38
443.149	1056.38
443.371	1037.38
443.592	1008.38
443.813	1055.38
444.034	1052.38
444.255	1080.38
444.476	1136.38
444.698	1235.38
444.919	1280.38
445.14	1268.38
445.361	1194.38
445.582	1075.38
445.803	995.38
446.024	954.38
446.245	960.38
446.466	976.38
446.687	972.38
446.908	923.38
447.129	894.38
447.35	887.38
447.571	908.38
447.792	888.38
448.013	864.38
448.234	855.38
448.455	834.38
448.675	843.38
448.896	837.38
449.117	859.38
449.338	860.38
449.559	831.38
449.779	853.38
450	843.38
450.221	822.38
450.442	855.38
450.662	849.38
450.883	856.38
451.104	869.38
451.324	855.38
451.545	858.38
451.766	849.38
451.986	838.38
452.207	836.38
452.428	820.38
452.648	849.38
452.869	823.38
453.089	826.38
453.31	851.38
453.53	828.38
453.751	810.38
453.971	828.38
454.192	804.38
454.412	781.38
454.633	780.38
454.853	813.38
455.073	828.38
455.294	776.38
455.514	794.38
455.734	782.38
455.955	768.38
456.175	758.38
456.395	808.38
456.616	781.38
456.836	812.38
457.056	794.38
457.276	785.38
457.497	782.38
457.717	777.38
457.937	780.38
458.157	786.38
458.377	806.38
458.598	816.38
458.818	843.38
459.038	868.38
459.258	899.38
459.478	922.38
459.698	952.38
459.918	988.38
460.138	1034.38
460.358	1095.38
460.578	1089.38
460.798	1070.38
461.018	1113.38
461.238	1091.38
461.458	1066.38
461.678	1050.38
461.898	1078.38
462.118	1090.38
462.338	1145.38
462.558	1191.38
462.777	1248.38
462.997	1354.38
463.217	1521.38
463.437	1505.38
463.657	1360.38
463.876	1282.38
464.096	1306.38
464.316	1276.38
464.536	1310.38
464.755	1210.38
464.975	1168.38
465.195	1141.38
465.414	1048.38
465.634	970.38
465.854	975.38
466.073	938.38
466.293	928.38
466.512	909.38
466.732	896.38
466.951	896.38
467.171	886.38
467.391	890.38
467.61	863.38
467.829	896.38
468.049	886.38
468.268	838.38
468.488	855.38
468.707	840.38
468.927	830.38
469.146	850.38
469.365	837.38
469.585	844.38
469.804	863.38
470.023	898.38
470.243	914.38
470.462	920.38
470.681	914.38
470.901	913.38
471.12	895.38
471.339	906.38
471.558	866.38
471.777	866.38
471.997	850.38
472.216	826.38
472.435	812.38
472.654	825.38
472.873	822.38
473.092	810.38
473.311	820.38
473.53	818.38
473.749	811.38
473.968	792.38
474.187	787.38
474.406	784.38
474.625	810.38
474.844	795.38
475.063	826.38
475.282	822.38
475.501	808.38
475.72	799.38
475.939	827.38
476.158	851.38
476.377	849.38
476.596	855.38
476.814	870.38
477.033	890.38
477.252	887.38
477.471	901.38
477.69	928.38
477.908	930.38
478.127	971.38
478.346	990.38
478.564	962.38
478.783	978.38
479.002	1027.38
479.22	1029.38
479.439	1024.38
479.658	1001.38
479.876	1011.38
480.095	1042.38
480.313	1059.38
480.532	1104.38
480.751	1142.38
480.969	1053.38
481.188	972.38
481.406	968.38
481.624	963.38
481.843	943.38
482.061	924.38
482.28	894.38
482.498	934.38
482.717	890.38
482.935	910.38
483.153	924.38
483.372	942.38
483.59	902.38
483.808	906.38
484.027	915.38
484.245	927.38
484.463	944.38
484.681	959.38
484.9	931.38
485.118	970.38
485.336	978.38
485.554	988.38
485.772	990.38
485.99	970.38
486.209	962.38
486.427	985.38
486.645	992.38
486.863	964.38
487.081	1004.38
487.299	996.38
487.517	975.38
487.735	962.38
487.953	981.38
488.171	963.38
488.389	986.38
488.607	935.38
488.825	964.38
489.043	959.38
489.261	948.38
489.479	962.38
489.696	962.38
489.914	956.38
490.132	976.38
490.35	970.38
490.568	942.38
490.786	976.38
491.003	962.38
491.221	944.38
491.439	954.38
491.657	961.38
491.874	1029.38
492.092	996.38
492.31	997.38
492.527	991.38
492.745	987.38
492.963	1029.38
493.18	1019.38
493.398	985.38
493.615	1057.38
493.833	1022.38
494.05	1043.38
494.268	1019.38
494.485	1015.38
494.703	1012.38
494.92	1027.38
495.138	1031.38
495.355	1030.38
495.573	1027.38
495.79	1041.38
496.008	1032.38
496.225	1058.38
496.442	1032.38
496.66	1052.38
496.877	1063.38
497.094	1095.38
497.312	1141.38
497.529	1156.38
497.746	1169.38
497.963	1193.38
498.181	1255.38
498.398	1264.38
498.615	1376.38
498.832	1498.38
499.049	1624.38
499.267	1739.38
499.484	1918.38
499.701	2095.38
499.918	2346.38
500.135	2739.38
500.352	3216.38
500.569	3330.38
500.786	3283.38
501.003	3019.38
501.22	2636.38
501.437	2333.38
501.654	2004.38
501.871	1866.38
502.088	1657.38
502.305	1548.38
502.522	1462.38
502.739	1427.38
502.956	1383.38
503.172	1272.38
503.389	1224.38
503.606	1193.38
503.823	1171.38
504.04	1198.38
504.256	1214.38
504.473	1228.38
504.69	1293.38
504.907	1250.38
505.123	1162.38
505.34	1063.38
505.557	1010.38
505.773	1018.38
505.99	981.38
506.207	959.38
506.423	944.38
506.64	926.38
506.856	922.38
507.073	907.38
507.289	907.38
507.506	915.38
507.722	904.38
507.939	876.38
508.155	880.38
508.372	878.38
508.588	887.38
508.805	870.38
509.021	822.38
509.238	858.38
509.454	876.38
509.67	829.38
509.887	826.38
510.103	836.38
510.319	834.38
510.536	841.38
510.752	808.38
510.968	862.38
511.184	818.38
511.401	827.38
511.617	830.38
511.833	809.38
512.049	839.38
512.265	826.38
512.481	820.38
512.698	816.38
512.914	833.38
513.13	834.38
513.346	803.38
513.562	815.38
513.778	843.38
513.994	832.38
514.21	818.38
514.426	839.38
514.642	828.38
514.858	854.38
515.074	865.38
515.29	867.38
515.506	877.38
515.721	894.38
515.937	879.38
516.153	909.38
516.369	907.38
516.585	959.38
516.801	989.38
517.016	1039.38
517.232	1107.38
517.448	1155.38
517.664	1159.38
517.879	1202.38
518.095	1196.38
518.311	1159.38
518.527	1100.38
518.742	1048.38
518.958	1032.38
519.173	939.38
519.389	932.38
519.605	918.38
519.82	878.38
520.036	875.38
520.251	876.38
520.467	830.38
520.682	853.38
520.898	855.38
521.113	831.38
521.329	817.38
521.544	790.38
521.76	820.38
521.975	795.38
522.19	789.38
522.406	824.38
522.621	794.38
522.836	778.38
523.052	790.38
523.267	791.38
523.482	770.38
523.698	768.38
523.913	757.38
524.128	771.38
524.343	761.38
524.559	778.38
524.774	772.38
524.989	742.38
525.204	746.38
525.419	743.38
525.634	750.38
525.849	737.38
526.064	738.38
526.28	760.38
526.495	756.38
526.71	759.38
526.925	733.38
527.14	728.38
527.355	737.38
527.57	746.38
527.785	747.38
527.999	723.38
528.214	768.38
528.429	763.38
528.644	726.38
528.859	758.38
529.074	751.38
529.289	741.38
529.503	735.38
529.718	742.38
529.933	731.38
530.148	737.38
530.363	740.38
530.577	731.38
530.792	726.38
531.007	750.38
531.221	739.38
531.436	743.38
531.651	764.38
531.865	751.38
532.08	744.38
532.295	758.38
532.509	738.38
532.724	730.38
532.938	754.38
533.153	750.38
533.367	746.38
533.582	741.38
533.796	753.38
534.011	726.38
534.225	746.38
534.44	713.38
534.654	744.38
534.868	739.38
535.083	738.38
535.297	714.38
535.511	742.38
535.726	733.38
535.94	724.38
536.154	713.38
536.369	709.38
536.583	689.38
536.797	693.38
537.011	695.38
537.225	695.38
537.44	704.38
537.654	674.38
537.868	706.38
538.082	707.38
538.296	685.38
538.51	698.38
538.724	648.38
538.938	678.38
539.153	654.38
539.367	663.38
539.581	660.38
539.795	672.38
540.009	678.38
540.222	682.38
540.436	675.38
540.65	658.38
540.864	664.38
541.078	688.38
541.292	661.38
541.506	668.38
541.72	662.38
541.934	651.38
542.147	664.38
542.361	677.38
542.575	666.38
542.789	663.38
543.002	655.38
543.216	676.38
543.43	675.38
543.644	662.38
543.857	670.38
544.071	653.38
544.285	691.38
544.498	664.38
544.712	686.38
544.925	690.38
545.139	692.38
545.352	693.38
545.566	700.38
545.779	680.38
545.993	692.38
546.206	715.38
546.42	687.38
546.633	676.38
546.847	673.38
547.06	703.38
547.274	695.38
547.487	690.38
547.7	688.38
547.914	678.38
548.127	694.38
548.34	706.38
548.554	692.38
548.767	714.38
548.98	681.38
549.193	686.38
549.407	701.38
549.62	685.38
549.833	704.38
550.046	699.38
550.259	708.38
550.473	690.38
550.686	687.38
550.899	700.38
551.112	680.38
551.325	648.38
551.538	653.38
551.751	679.38
551.964	667.38
552.177	692.38
552.39	688.38
552.603	688.38
552.816	737.38
553.029	744.38
553.242	756.38
553.455	777.38
553.667	755.38
553.88	733.38
554.093	721.38
554.306	688.38
554.519	698.38
554.732	706.38
554.944	676.38
555.157	664.38
555.37	666.38
555.583	641.38
555.795	642.38
556.008	632.38
556.221	602.38
556.433	624.38
556.646	626.38
556.859	596.38
557.071	601.38
557.284	585.38
557.496	596.38
557.709	568.38
557.921	581.38
558.134	583.38
558.346	602.38
558.559	586.38
558.771	580.38
558.984	570.38
559.196	573.38
559.409	555.38
559.621	545.38
559.833	580.38
560.046	547.38
560.258	539.38
560.47	567.38
560.683	562.38
560.895	559.38
561.107	552.38
561.32	570.38
561.532	562.38
561.744	557.38
561.956	581.38
562.168	570.38
562.381	547.38
562.593	587.38
562.805	551.38
563.017	587.38
563.229	559.38
563.441	572.38
563.653	603.38
563.865	588.38
564.077	584.38
564.289	585.38
564.501	593.38
564.713	606.38
564.925	638.38
565.137	628.38
565.349	624.38
565.561	659.38
565.773	694.38
565.985	694.38
566.197	763.38
566.408	807.38
566.62	883.38
566.832	944.38
567.044	972.38
567.255	924.38
567.467	971.38
567.679	1034.38
567.891	1153.38
568.102	1184.38
568.314	1155.38
568.526	989.38
568.737	916.38
568.949	809.38
569.161	740.38
569.372	686.38
569.584	634.38
569.795	622.38
570.007	588.38
570.218	579.38
570.43	577.38
570.641	590.38
570.853	570.38
571.064	585.38
571.276	582.38
571.487	572.38
571.698	542.38
571.91	528.38
572.121	525.38
572.333	532.38
572.544	498.38
572.755	494.38
572.966	465.38
573.178	477.38
573.389	510.38
573.6	494.38
573.811	476.38
574.023	468.38
574.234	460.38
574.445	457.38
574.656	477.38
574.867	469.38
575.078	486.38
575.289	457.38
575.501	470.38
575.712	444.38
575.923	460.38
576.134	438.38
576.345	459.38
576.556	436.38
576.767	426.38
576.978	434.38
577.188	447.38
577.399	426.38
577.61	431.38
577.821	424.38
578.032	416.38
578.243	417.38
578.454	437.38
578.665	425.38
578.875	417.38
579.086	419.38
579.297	400.38
579.508	391.38
579.718	424.38
579.929	417.38
580.14	398.38
580.35	423.38
580.561	411.38
580.772	410.38
580.982	407.38
581.193	386.38
581.403	382.38
581.614	390.38
581.825	395.38
582.035	369.38
582.246	401.38
582.456	386.38
582.667	394.38
582.877	386.38
583.087	400.38
583.298	394.38
583.508	410.38
583.719	396.38
583.929	388.38
584.139	383.38
584.35	371.38
584.56	366.38
584.77	392.38
584.981	406.38
585.191	384.38
585.401	378.38
585.611	382.38
585.821	368.38
586.032	377.38
586.242	361.38
586.452	372.38
586.662	370.38
586.872	369.38
587.082	385.38
587.292	369.38
587.502	380.38
587.713	346.38
587.923	367.38
588.133	379.38
588.343	368.38
588.553	366.38
588.762	377.38
588.972	359.38
589.182	360.38
589.392	368.38
589.602	379.38
589.812	373.38
590.022	371.38
590.232	378.38
590.441	375.38
590.651	389.38
590.861	361.38
591.071	382.38
591.281	394.38
591.49	395.38
591.7	398.38
591.91	389.38
592.119	398.38
592.329	429.38
592.539	430.38
592.748	433.38
592.958	465.38
593.167	471.38
593.377	483.38
593.587	484.38
593.796	500.38
594.006	503.38
594.215	527.38
594.424	516.38
594.634	512.38
594.843	482.38
595.053	447.38
595.262	440.38
595.472	408.38
595.681	394.38
595.89	387.38
596.1	362.38
596.309	379.38
596.518	361.38
596.727	366.38
596.937	362.38
597.146	362.38
597.355	341.38
597.564	339.38
597.774	329.38
597.983	339.38
598.192	332.38
598.401	347.38
598.61	333.38
598.819	317.38
599.028	326.38
599.237	326.38
599.446	331.38
599.655	327.38
599.864	314.38
600.073	298.38
600.282	322.38
600.491	305.38
600.7	308.38
600.909	313.38
601.118	319.38
601.327	325.38
601.536	322.38
601.745	321.38
601.953	313.38
602.162	314.38
602.371	299.38
602.58	322.38
602.789	309.38
602.997	312.38
603.206	299.38
603.415	326.38
603.623	302.38
603.832	316.38
604.041	304.38
604.249	305.38
604.458	299.38
604.666	302.38
604.875	319.38
605.084	299.38
605.292	287.38
605.501	289.38
605.709	298.38
605.918	316.38
606.126	293.38
606.334	286.38
606.543	283.38
606.751	289.38
606.96	295.38
607.168	290.38
607.376	292.38
607.585	303.38
607.793	288.38
608.001	294.38
608.21	293.38
608.418	290.38
608.626	288.38
608.834	289.38
609.043	295.38
609.251	291.38
609.459	279.38
609.667	300.38
609.875	290.38
610.083	276.38
610.291	264.38
610.499	307.38
610.707	282.38
610.916	276.38
611.124	292.38
611.332	284.38
611.54	280.38
611.748	284.38
611.955	258.38
612.163	271.38
612.371	297.38
612.579	270.38
612.787	299.38
612.995	271.38
613.203	273.38
613.411	285.38
613.618	263.38
613.826	275.38
614.034	271.38
614.242	285.38
614.449	272.38
614.657	259.38
614.865	262.38
615.072	263.38
615.28	259.38
615.488	280.38
615.695	273.38
615.903	280.38
616.111	294.38
616.318	280.38
616.526	284.38
616.733	295.38
616.941	287.38
617.148	284.38
617.356	275.38
617.563	282.38
617.771	283.38
617.978	279.38
618.185	283.38
618.393	267.38
618.6	268.38
618.807	277.38
619.015	261.38
619.222	256.38
619.429	289.38
619.637	276.38
619.844	287.38
620.051	275.38
620.258	265.38
620.466	256.38
620.673	258.38
620.88	254.38
621.087	235.38
621.294	251.38
621.501	255.38
621.708	251.38
621.915	251.38
622.122	252.38
622.329	258.38
622.536	252.38
622.743	243.38
622.95	240.38
623.157	270.38
623.364	249.38
623.571	250.38
623.778	240.38
623.985	245.38
624.192	251.38
624.399	255.38
624.606	254.38
624.812	239.38
625.019	249.38
625.226	232.38
625.433	243.38
625.639	229.38
625.846	228.38
626.053	239.38
626.259	238.38
626.466	226.38
626.673	240.38
626.879	225.38
627.086	224.38
627.293	244.38
627.499	214.38
627.706	238.38
627.912	223.38
628.119	238.38
628.325	227.38
628.532	230.38
628.738	231.38
628.945	221.38
629.151	226.38
629.357	225.38
629.564	232.38
629.77	235.38
629.976	213.38
630.183	210.38
630.389	212.38
630.595	228.38
630.802	212.38
631.008	207.38
631.214	211.38
631.42	224.38
631.627	190.38
631.833	192.38
632.039	223.38
632.245	217.38
632.451	217.38
632.657	204.38
632.863	209.38
633.069	205.38
633.275	212.38
633.481	198.38
633.688	200.38
633.893	223.38
634.099	207.38
634.305	209.38
634.511	208.38
634.717	204.38
634.923	192.38
635.129	206.38
635.335	198.38
635.541	192.38
635.747	195.38
635.952	201.38
636.158	203.38
636.364	200.38
636.57	200.38
636.775	191.38
636.981	209.38
637.187	197.38
637.392	198.38
637.598	196.38
637.804	211.38
638.009	193.38
638.215	192.38
638.421	203.38
638.626	209.38
638.832	196.38
639.037	179.38
639.243	195.38
639.448	185.38
639.654	197.38
639.859	192.38
640.065	186.38
640.27	191.38
640.475	203.38
640.681	182.38
640.886	198.38
641.091	174.38
641.297	169.38
641.502	185.38
641.707	179.38
641.913	187.38
642.118	189.38
642.323	198.38
642.528	185.38
642.733	179.38
642.939	174.38
643.144	198.38
643.349	188.38
643.554	195.38
643.759	179.38
643.964	164.38
644.169	194.38
644.374	163.38
644.579	176.38
644.784	188.38
644.989	188.38
645.194	182.38
645.399	184.38
645.604	171.38
645.809	194.38
646.014	183.38
646.219	184.38
646.423	174.38
646.628	180.38
646.833	176.38
647.038	183.38
647.243	188.38
647.447	192.38
647.652	190.38
647.857	193.38
648.062	200.38
648.266	197.38
648.471	205.38
648.676	198.38
648.88	180.38
649.085	196.38
649.289	193.38
649.494	190.38
649.698	176.38
649.903	184.38
650.107	175.38
650.312	183.38
650.516	179.38
650.721	171.38
650.925	176.38
651.13	172.38
651.334	170.38
651.539	169.38
651.743	147.38
651.947	135.38
652.152	160.38
652.356	148.38
652.56	159.38
652.764	137.38
652.969	140.38
653.173	151.38
653.377	155.38
653.581	145.38
653.785	132.38
653.99	133.38
654.194	149.38
654.398	144.38
654.602	146.38
654.806	129.38
655.01	127.38
655.214	147.38
655.418	134.38
655.622	115.38
655.826	130.38
656.03	138.38
656.234	131.38
656.438	141.38
656.642	130.38
656.846	134.38
657.049	131.38
657.253	116.38
657.457	123.38
657.661	107.38
657.865	105.38
658.068	104.38
658.272	124.38
658.476	99.38
658.68	115.38
658.883	109.38
659.087	110.38
659.291	104.38
659.494	89.38
659.698	91.38
659.901	88.38
660.105	100.38
660.309	87.38
660.512	88.38
660.716	94.38
660.919	94.38
661.123	103.38
661.326	85.38
661.53	99.38
661.733	95.38
661.936	92.38
662.14	76.38
662.343	98.38
662.546	89.38
662.75	86.38
662.953	96.38
663.156	84.38
663.36	93.38
663.563	88.38
663.766	96.38
663.969	69.38
664.173	74.38
664.376	87.38
664.579	78.38
664.782	73.38
664.985	78.38
665.188	74.38
665.391	81.38
665.594	76.38
665.797	81.38
666	81.38
666.203	69.38
666.406	82.38
666.609	89.38
666.812	84.38
667.015	80.38
667.218	76.38
667.421	83.38
667.624	82.38
667.827	90.38
668.03	82.38
668.232	97.38
668.435	110.38
668.638	67.38
668.841	67.38
669.043	63.38
669.246	77.38
669.449	74.38
669.651	84.38
669.854	86.38
670.057	80.38
670.259	75.38
670.462	88.38
670.665	73.38
670.867	84.38
671.07	79.38
671.272	80.38
671.475	86.38
671.677	68.38
671.88	75.38
672.082	82.38
672.284	82.38
672.487	69.38
672.689	74.38
672.892	80.38
