Data from Ni(NO3)2@0.25M.TitratingCurve.Agarose3%dH2O.NegLispCup.LampEnergy10.LIBS07252019_HRD10591_18-02-50-566.txt Node
Date: Thu Jul 25 18:02:50 EDT 2019
User: cochatt
Spectrometer: HR+D1059
Trigger mode: 1
Integration Time (sec): 1.000000E-1
Scans to average: 1
Electric dark correction enabled: true
Nonlinearity correction enabled: false
Boxcar width: 0
XAxis mode: Wavelengths
Number of Pixels in Spectrum: 2048
>>>>>Begin Spectral Data<<<<<
223.165	-17.75
223.4	-17.75
223.635	-17.75
223.869	-24.75
224.104	-34.75
224.338	-16.75
224.573	-7.75
224.808	-11.75
225.042	5.25
225.277	-15.75
225.511	5.25
225.746	6.25
225.98	19.25
226.215	12.25
226.449	23.25
226.683	21.25
226.918	21.25
227.152	15.25
227.387	44.25
227.621	39.25
227.856	33.25
228.09	64.25
228.324	70.25
228.559	62.25
228.793	81.25
229.027	116.25
229.262	130.25
229.496	118.25
229.73	143.25
229.964	162.25
230.199	185.25
230.433	184.25
230.667	156.25
230.901	170.25
231.136	156.25
231.37	157.25
231.604	162.25
231.838	181.25
232.072	189.25
232.306	191.25
232.541	173.25
232.775	165.25
233.009	157.25
233.243	156.25
233.477	156.25
233.711	176.25
233.945	180.25
234.179	164.25
234.413	157.25
234.647	191.25
234.881	166.25
235.115	172.25
235.349	149.25
235.583	158.25
235.817	163.25
236.051	157.25
236.285	160.25
236.519	160.25
236.753	165.25
236.987	172.25
237.221	181.25
237.455	160.25
237.689	184.25
237.922	169.25
238.156	182.25
238.39	180.25
238.624	178.25
238.858	174.25
239.091	191.25
239.325	187.25
239.559	205.25
239.793	215.25
240.027	228.25
240.26	193.25
240.494	175.25
240.728	177.25
240.961	189.25
241.195	206.25
241.429	195.25
241.662	209.25
241.896	213.25
242.13	216.25
242.363	217.25
242.597	199.25
242.83	205.25
243.064	207.25
243.298	226.25
243.531	217.25
243.765	220.25
243.998	217.25
244.232	242.25
244.465	241.25
244.699	215.25
244.932	247.25
245.166	240.25
245.399	239.25
245.633	250.25
245.866	234.25
246.099	249.25
246.333	261.25
246.566	254.25
246.8	254.25
247.033	257.25
247.266	274.25
247.5	265.25
247.733	268.25
247.966	271.25
248.2	284.25
248.433	298.25
248.666	284.25
248.899	297.25
249.133	305.25
249.366	298.25
249.599	304.25
249.832	319.25
250.066	324.25
250.299	335.25
250.532	315.25
250.765	333.25
250.998	359.25
251.231	354.25
251.465	386.25
251.698	400.25
251.931	391.25
252.164	368.25
252.397	377.25
252.63	394.25
252.863	388.25
253.096	390.25
253.329	390.25
253.562	419.25
253.795	428.25
254.028	403.25
254.261	420.25
254.494	420.25
254.727	439.25
254.96	438.25
255.193	451.25
255.426	446.25
255.659	460.25
255.892	460.25
256.124	473.25
256.357	473.25
256.59	465.25
256.823	492.25
257.056	492.25
257.289	474.25
257.521	495.25
257.754	505.25
257.987	501.25
258.22	484.25
258.452	510.25
258.685	502.25
258.918	520.25
259.151	528.25
259.383	556.25
259.616	545.25
259.849	536.25
260.081	548.25
260.314	529.25
260.547	558.25
260.779	542.25
261.012	556.25
261.244	539.25
261.477	558.25
261.71	589.25
261.942	558.25
262.175	557.25
262.407	599.25
262.64	597.25
262.872	592.25
263.105	608.25
263.337	603.25
263.57	579.25
263.802	593.25
264.035	585.25
264.267	614.25
264.499	603.25
264.732	613.25
264.964	632.25
265.197	610.25
265.429	619.25
265.661	616.25
265.894	620.25
266.126	623.25
266.358	608.25
266.591	615.25
266.823	633.25
267.055	634.25
267.287	628.25
267.52	609.25
267.752	642.25
267.984	651.25
268.216	623.25
268.448	656.25
268.681	638.25
268.913	647.25
269.145	646.25
269.377	639.25
269.609	661.25
269.841	667.25
270.073	657.25
270.306	658.25
270.538	658.25
270.77	676.25
271.002	687.25
271.234	657.25
271.466	673.25
271.698	675.25
271.93	677.25
272.162	683.25
272.394	687.25
272.626	713.25
272.858	698.25
273.09	696.25
273.322	686.25
273.553	680.25
273.785	689.25
274.017	679.25
274.249	694.25
274.481	691.25
274.713	685.25
274.945	689.25
275.176	702.25
275.408	684.25
275.64	718.25
275.872	695.25
276.104	730.25
276.335	719.25
276.567	685.25
276.799	714.25
277.031	705.25
277.262	718.25
277.494	722.25
277.726	722.25
277.957	729.25
278.189	729.25
278.421	727.25
278.652	694.25
278.884	750.25
279.115	705.25
279.347	728.25
279.579	729.25
279.81	745.25
280.042	739.25
280.273	714.25
280.505	746.25
280.736	727.25
280.968	721.25
281.199	744.25
281.431	727.25
281.662	735.25
281.894	739.25
282.125	723.25
282.356	741.25
282.588	738.25
282.819	723.25
283.051	733.25
283.282	741.25
283.513	757.25
283.745	756.25
283.976	744.25
284.207	744.25
284.439	741.25
284.67	762.25
284.901	737.25
285.132	766.25
285.364	736.25
285.595	747.25
285.826	747.25
286.057	752.25
286.288	754.25
286.52	731.25
286.751	750.25
286.982	781.25
287.213	763.25
287.444	775.25
287.675	759.25
287.906	777.25
288.138	760.25
288.369	739.25
288.6	766.25
288.831	759.25
289.062	761.25
289.293	749.25
289.524	736.25
289.755	752.25
289.986	760.25
290.217	785.25
290.448	779.25
290.679	781.25
290.91	757.25
291.141	758.25
291.371	777.25
291.602	780.25
291.833	774.25
292.064	767.25
292.295	753.25
292.526	753.25
292.757	756.25
292.987	777.25
293.218	752.25
293.449	751.25
293.68	758.25
293.91	725.25
294.141	737.25
294.372	747.25
294.603	762.25
294.833	750.25
295.064	740.25
295.295	758.25
295.525	743.25
295.756	776.25
295.987	765.25
296.217	751.25
296.448	779.25
296.679	781.25
296.909	757.25
297.14	783.25
297.37	795.25
297.601	774.25
297.831	789.25
298.062	798.25
298.292	797.25
298.523	808.25
298.753	790.25
298.984	781.25
299.214	797.25
299.445	811.25
299.675	809.25
299.905	788.25
300.136	828.25
300.366	822.25
300.597	820.25
300.827	809.25
301.057	824.25
301.288	827.25
301.518	818.25
301.748	826.25
301.979	854.25
302.209	845.25
302.439	815.25
302.669	819.25
302.9	849.25
303.13	831.25
303.36	839.25
303.59	826.25
303.82	852.25
304.051	863.25
304.281	869.25
304.511	857.25
304.741	845.25
304.971	877.25
305.201	884.25
305.431	862.25
305.661	893.25
305.891	888.25
306.121	912.25
306.352	868.25
306.582	861.25
306.812	879.25
307.042	877.25
307.272	879.25
307.502	897.25
307.731	881.25
307.961	895.25
308.191	900.25
308.421	915.25
308.651	891.25
308.881	909.25
309.111	907.25
309.341	907.25
309.571	897.25
309.8	925.25
310.03	962.25
310.26	952.25
310.49	966.25
310.72	934.25
310.949	948.25
311.179	932.25
311.409	941.25
311.639	996.25
311.868	984.25
312.098	975.25
312.328	1000.25
312.557	995.25
312.787	987.25
313.017	1020.25
313.246	1006.25
313.476	1043.25
313.706	1045.25
313.935	1064.25
314.165	1011.25
314.394	1037.25
314.624	1056.25
314.853	1048.25
315.083	1060.25
315.312	1047.25
315.542	1078.25
315.771	1092.25
316.001	1094.25
316.23	1088.25
316.46	1088.25
316.689	1127.25
316.919	1126.25
317.148	1138.25
317.377	1135.25
317.607	1101.25
317.836	1153.25
318.065	1150.25
318.295	1158.25
318.524	1173.25
318.753	1162.25
318.983	1176.25
319.212	1151.25
319.441	1195.25
319.67	1176.25
319.9	1205.25
320.129	1226.25
320.358	1198.25
320.587	1214.25
320.816	1230.25
321.046	1261.25
321.275	1267.25
321.504	1270.25
321.733	1261.25
321.962	1290.25
322.191	1270.25
322.42	1300.25
322.649	1247.25
322.878	1307.25
323.108	1280.25
323.337	1333.25
323.566	1353.25
323.795	1371.25
324.024	1380.25
324.253	1366.25
324.482	1338.25
324.71	1382.25
324.939	1394.25
325.168	1391.25
325.397	1379.25
325.626	1411.25
325.855	1414.25
326.084	1408.25
326.313	1423.25
326.542	1454.25
326.77	1477.25
326.999	1458.25
327.228	1446.25
327.457	1501.25
327.686	1470.25
327.914	1465.25
328.143	1496.25
328.372	1483.25
328.6	1484.25
328.829	1506.25
329.058	1508.25
329.287	1518.25
329.515	1548.25
329.744	1569.25
329.972	1548.25
330.201	1531.25
330.43	1540.25
330.658	1543.25
330.887	1574.25
331.115	1561.25
331.344	1613.25
331.572	1595.25
331.801	1611.25
332.03	1617.25
332.258	1607.25
332.486	1592.25
332.715	1599.25
332.943	1616.25
333.172	1629.25
333.4	1642.25
333.629	1633.25
333.857	1673.25
334.085	1676.25
334.314	1681.25
334.542	1682.25
334.771	1697.25
334.999	1688.25
335.227	1685.25
335.455	1694.25
335.684	1700.25
335.912	1676.25
336.14	1666.25
336.369	1729.25
336.597	1716.25
336.825	1700.25
337.053	1731.25
337.281	1703.25
337.51	1685.25
337.738	1696.25
337.966	1749.25
338.194	1746.25
338.422	1710.25
338.65	1700.25
338.878	1713.25
339.106	1706.25
339.334	1743.25
339.562	1700.25
339.79	1713.25
340.018	1722.25
340.246	1704.25
340.474	1711.25
340.702	1731.25
340.93	1709.25
341.158	1708.25
341.386	1723.25
341.614	1686.25
341.842	1740.25
342.07	1723.25
342.298	1695.25
342.526	1711.25
342.754	1705.25
342.981	1722.25
343.209	1725.25
343.437	1721.25
343.665	1758.25
343.893	1709.25
344.12	1735.25
344.348	1719.25
344.576	1762.25
344.804	1762.25
345.031	1706.25
345.259	1744.25
345.487	1727.25
345.714	1725.25
345.942	1727.25
346.17	1764.25
346.397	1752.25
346.625	1740.25
346.853	1665.25
347.08	1676.25
347.308	1686.25
347.535	1690.25
347.763	1708.25
347.99	1671.25
348.218	1680.25
348.445	1717.25
348.673	1689.25
348.9	1660.25
349.128	1648.25
349.355	1708.25
349.583	1659.25
349.81	1673.25
350.037	1651.25
350.265	1638.25
350.492	1647.25
350.72	1684.25
350.947	1675.25
351.174	1680.25
351.402	1696.25
351.629	1688.25
351.856	1664.25
352.083	1638.25
352.311	1640.25
352.538	1670.25
352.765	1683.25
352.992	1594.25
353.22	1613.25
353.447	1608.25
353.674	1658.25
353.901	1641.25
354.128	1620.25
354.355	1628.25
354.583	1635.25
354.81	1626.25
355.037	1661.25
355.264	1682.25
355.491	1629.25
355.718	1660.25
355.945	1650.25
356.172	1618.25
356.399	1633.25
356.626	1673.25
356.853	1696.25
357.08	1668.25
357.307	1656.25
357.534	1668.25
357.761	1603.25
357.988	1670.25
358.215	1649.25
358.441	1642.25
358.668	1611.25
358.895	1637.25
359.122	1628.25
359.349	1634.25
359.576	1659.25
359.802	1600.25
360.029	1628.25
360.256	1592.25
360.483	1647.25
360.709	1638.25
360.936	1646.25
361.163	1634.25
361.39	1648.25
361.616	1645.25
361.843	1669.25
362.07	1691.25
362.296	1670.25
362.523	1596.25
362.749	1610.25
362.976	1619.25
363.203	1627.25
363.429	1603.25
363.656	1584.25
363.882	1589.25
364.109	1657.25
364.335	1607.25
364.562	1615.25
364.788	1632.25
365.015	1654.25
365.241	1622.25
365.468	1635.25
365.694	1618.25
365.92	1607.25
366.147	1613.25
366.373	1613.25
366.599	1617.25
366.826	1621.25
367.052	1614.25
367.278	1627.25
367.505	1623.25
367.731	1609.25
367.957	1590.25
368.184	1603.25
368.41	1618.25
368.636	1627.25
368.862	1641.25
369.089	1621.25
369.315	1634.25
369.541	1621.25
369.767	1632.25
369.993	1597.25
370.219	1598.25
370.445	1549.25
370.672	1645.25
370.898	1614.25
371.124	1583.25
371.35	1588.25
371.576	1611.25
371.802	1601.25
372.028	1630.25
372.254	1570.25
372.48	1591.25
372.706	1575.25
372.932	1642.25
373.158	1620.25
373.384	1594.25
373.61	1576.25
373.835	1591.25
374.061	1560.25
374.287	1581.25
374.513	1566.25
374.739	1585.25
374.965	1583.25
375.191	1595.25
375.416	1576.25
375.642	1560.25
375.868	1608.25
376.094	1556.25
376.319	1544.25
376.545	1553.25
376.771	1547.25
376.997	1527.25
377.222	1541.25
377.448	1551.25
377.674	1565.25
377.899	1517.25
378.125	1520.25
378.35	1510.25
378.576	1511.25
378.802	1515.25
379.027	1548.25
379.253	1530.25
379.478	1514.25
379.704	1492.25
379.929	1520.25
380.155	1510.25
380.38	1509.25
380.606	1517.25
380.831	1499.25
381.057	1503.25
381.282	1494.25
381.507	1499.25
381.733	1527.25
381.958	1453.25
382.184	1549.25
382.409	1517.25
382.634	1542.25
382.86	1507.25
383.085	1498.25
383.31	1536.25
383.535	1509.25
383.761	1526.25
383.986	1522.25
384.211	1552.25
384.436	1555.25
384.662	1553.25
384.887	1502.25
385.112	1512.25
385.337	1532.25
385.562	1579.25
385.787	1526.25
386.013	1609.25
386.238	1591.25
386.463	1550.25
386.688	1576.25
386.913	1606.25
387.138	1540.25
387.363	1552.25
387.588	1553.25
387.813	1575.25
388.038	1584.25
388.263	1559.25
388.488	1578.25
388.713	1546.25
388.938	1545.25
389.163	1580.25
389.387	1584.25
389.612	1549.25
389.837	1567.25
390.062	1570.25
390.287	1601.25
390.512	1556.25
390.736	1565.25
390.961	1534.25
391.186	1537.25
391.411	1565.25
391.636	1550.25
391.86	1527.25
392.085	1546.25
392.31	1545.25
392.534	1535.25
392.759	1592.25
392.984	1543.25
393.208	1584.25
393.433	1582.25
393.658	1564.25
393.882	1537.25
394.107	1561.25
394.331	1565.25
394.556	1555.25
394.78	1560.25
395.005	1570.25
395.229	1543.25
395.454	1542.25
395.678	1562.25
395.903	1569.25
396.127	1591.25
396.352	1565.25
396.576	1590.25
396.801	1581.25
397.025	1610.25
397.249	1582.25
397.474	1616.25
397.698	1575.25
397.922	1642.25
398.147	1599.25
398.371	1605.25
398.595	1629.25
398.82	1635.25
399.044	1679.25
399.268	1674.25
399.492	1724.25
399.717	1706.25
399.941	1735.25
400.165	1743.25
400.389	1736.25
400.613	1734.25
400.837	1677.25
401.062	1676.25
401.286	1661.25
401.51	1659.25
401.734	1689.25
401.958	1702.25
402.182	1656.25
402.406	1640.25
402.63	1641.25
402.854	1682.25
403.078	1683.25
403.302	1660.25
403.526	1681.25
403.75	1652.25
403.974	1665.25
404.198	1648.25
404.422	1709.25
404.645	1661.25
404.869	1712.25
405.093	1734.25
405.317	1697.25
405.541	1701.25
405.765	1724.25
405.988	1706.25
406.212	1778.25
406.436	1735.25
406.66	1761.25
406.883	1730.25
407.107	1754.25
407.331	1749.25
407.555	1781.25
407.778	1750.25
408.002	1764.25
408.226	1793.25
408.449	1807.25
408.673	1761.25
408.896	1778.25
409.12	1787.25
409.344	1783.25
409.567	1756.25
409.791	1725.25
410.014	1728.25
410.238	1758.25
410.461	1716.25
410.685	1771.25
410.908	1740.25
411.132	1759.25
411.355	1721.25
411.578	1731.25
411.802	1723.25
412.025	1729.25
412.249	1770.25
412.472	1723.25
412.695	1736.25
412.919	1744.25
413.142	1701.25
413.365	1712.25
413.589	1747.25
413.812	1677.25
414.035	1722.25
414.258	1699.25
414.482	1716.25
414.705	1686.25
414.928	1700.25
415.151	1714.25
415.374	1728.25
415.597	1713.25
415.821	1717.25
416.044	1714.25
416.267	1698.25
416.49	1684.25
416.713	1700.25
416.936	1700.25
417.159	1679.25
417.382	1669.25
417.605	1670.25
417.828	1688.25
418.051	1679.25
418.274	1709.25
418.497	1640.25
418.72	1673.25
418.943	1625.25
419.166	1766.25
419.389	1870.25
419.611	1829.25
419.834	1768.25
420.057	1730.25
420.28	1696.25
420.503	1690.25
420.726	1697.25
420.948	1653.25
421.171	1684.25
421.394	1659.25
421.617	1683.25
421.839	1709.25
422.062	1685.25
422.285	1673.25
422.507	1649.25
422.73	1668.25
422.953	1694.25
423.175	1707.25
423.398	1711.25
423.621	1716.25
423.843	1694.25
424.066	1713.25
424.288	1689.25
424.511	1724.25
424.733	1710.25
424.956	1708.25
425.178	1716.25
425.401	1754.25
425.623	1746.25
425.846	1717.25
426.068	1722.25
426.291	1719.25
426.513	1743.25
426.735	1718.25
426.958	1745.25
427.18	1697.25
427.402	1750.25
427.625	1742.25
427.847	1690.25
428.069	1732.25
428.292	1740.25
428.514	1728.25
428.736	1678.25
428.958	1768.25
429.181	1749.25
429.403	1710.25
429.625	1685.25
429.847	1736.25
430.069	1742.25
430.292	1780.25
430.514	1698.25
430.736	1725.25
430.958	1772.25
431.18	1710.25
431.402	1704.25
431.624	1727.25
431.846	1706.25
432.068	1718.25
432.29	1742.25
432.512	1704.25
432.734	1748.25
432.956	1755.25
433.178	1748.25
433.4	1773.25
433.622	1766.25
433.844	1760.25
434.066	1736.25
434.287	1735.25
434.509	1696.25
434.731	1759.25
434.953	1754.25
435.175	1754.25
435.397	1772.25
435.618	1744.25
435.84	1739.25
436.062	1716.25
436.284	1748.25
436.505	1730.25
436.727	1726.25
436.949	1759.25
437.17	1751.25
437.392	1728.25
437.614	1721.25
437.835	1688.25
438.057	1734.25
438.278	1662.25
438.5	1690.25
438.721	1694.25
438.943	1705.25
439.165	1698.25
439.386	1703.25
439.608	1748.25
439.829	1716.25
440.05	1744.25
440.272	1763.25
440.493	1724.25
440.715	1769.25
440.936	1741.25
441.158	1763.25
441.379	1761.25
441.6	1771.25
441.822	1812.25
442.043	1748.25
442.264	1733.25
442.486	1748.25
442.707	1723.25
442.928	1780.25
443.149	1768.25
443.371	1734.25
443.592	1800.25
443.813	1773.25
444.034	1747.25
444.255	1785.25
444.476	1773.25
444.698	1767.25
444.919	1813.25
445.14	1896.25
445.361	1833.25
445.582	1800.25
445.803	1776.25
446.024	1724.25
446.245	1741.25
446.466	1727.25
446.687	1696.25
446.908	1705.25
447.129	1683.25
447.35	1658.25
447.571	1663.25
447.792	1646.25
448.013	1688.25
448.234	1628.25
448.455	1627.25
448.675	1685.25
448.896	1652.25
449.117	1610.25
449.338	1647.25
449.559	1627.25
449.779	1614.25
450	1619.25
450.221	1633.25
450.442	1602.25
450.662	1612.25
450.883	1647.25
451.104	1641.25
451.324	1615.25
451.545	1582.25
451.766	1617.25
451.986	1604.25
452.207	1580.25
452.428	1630.25
452.648	1594.25
452.869	1565.25
453.089	1564.25
453.31	1578.25
453.53	1580.25
453.751	1598.25
453.971	1580.25
454.192	1574.25
454.412	1592.25
454.633	1555.25
454.853	1594.25
455.073	1594.25
455.294	1612.25
455.514	1559.25
455.734	1618.25
455.955	1602.25
456.175	1584.25
456.395	1530.25
456.616	1545.25
456.836	1553.25
457.056	1591.25
457.276	1550.25
457.497	1572.25
457.717	1571.25
457.937	1583.25
458.157	1578.25
458.377	1567.25
458.598	1568.25
458.818	1603.25
459.038	1584.25
459.258	1616.25
459.478	1660.25
459.698	1689.25
459.918	1722.25
460.138	1700.25
460.358	1713.25
460.578	1686.25
460.798	1734.25
461.018	1781.25
461.238	1745.25
461.458	1719.25
461.678	1679.25
461.898	1718.25
462.118	1705.25
462.338	1726.25
462.558	1746.25
462.777	1794.25
462.997	1783.25
463.217	1777.25
463.437	1887.25
463.657	1833.25
463.876	1754.25
464.096	1788.25
464.316	1753.25
464.536	1765.25
464.755	1764.25
464.975	1727.25
465.195	1697.25
465.414	1702.25
465.634	1729.25
465.854	1707.25
466.073	1702.25
466.293	1672.25
466.512	1650.25
466.732	1716.25
466.951	1702.25
467.171	1673.25
467.391	1686.25
467.61	1679.25
467.829	1694.25
468.049	1693.25
468.268	1655.25
468.488	1660.25
468.707	1673.25
468.927	1690.25
469.146	1712.25
469.365	1691.25
469.585	1666.25
469.804	1704.25
470.023	1692.25
470.243	1670.25
470.462	1681.25
470.681	1693.25
470.901	1748.25
471.12	1693.25
471.339	1702.25
471.558	1707.25
471.777	1700.25
471.997	1717.25
472.216	1732.25
472.435	1722.25
472.654	1737.25
472.873	1718.25
473.092	1739.25
473.311	1757.25
473.53	1767.25
473.749	1734.25
473.968	1752.25
474.187	1738.25
474.406	1730.25
474.625	1754.25
474.844	1791.25
475.063	1770.25
475.282	1844.25
475.501	1810.25
475.72	1825.25
475.939	1851.25
476.158	1848.25
476.377	1868.25
476.596	1862.25
476.814	1927.25
477.033	1872.25
477.252	1887.25
477.471	1911.25
477.69	1924.25
477.908	1936.25
478.127	1919.25
478.346	1963.25
478.564	1997.25
478.783	1990.25
479.002	2078.25
479.22	2080.25
479.439	2021.25
479.658	2057.25
479.876	1989.25
480.095	2040.25
480.313	2034.25
480.532	2096.25
480.751	2052.25
480.969	2032.25
481.188	2039.25
481.406	2010.25
481.624	2074.25
481.843	2079.25
482.061	2082.25
482.28	2121.25
482.498	2077.25
482.717	2101.25
482.935	2138.25
483.153	2124.25
483.372	2170.25
483.59	2147.25
483.808	2148.25
484.027	2140.25
484.245	2153.25
484.463	2142.25
484.681	2141.25
484.9	2125.25
485.118	2151.25
485.336	2172.25
485.554	2140.25
485.772	2141.25
485.99	2151.25
486.209	2177.25
486.427	2174.25
486.645	2194.25
486.863	2154.25
487.081	2206.25
487.299	2184.25
487.517	2200.25
487.735	2246.25
487.953	2266.25
488.171	2253.25
488.389	2235.25
488.607	2176.25
488.825	2187.25
489.043	2216.25
489.261	2196.25
489.479	2184.25
489.696	2191.25
489.914	2221.25
490.132	2249.25
490.35	2237.25
490.568	2276.25
490.786	2230.25
491.003	2237.25
491.221	2272.25
491.439	2277.25
491.657	2271.25
491.874	2281.25
492.092	2333.25
492.31	2292.25
492.527	2322.25
492.745	2285.25
492.963	2253.25
493.18	2284.25
493.398	2253.25
493.615	2278.25
493.833	2257.25
494.05	2258.25
494.268	2312.25
494.485	2296.25
494.703	2261.25
494.92	2320.25
495.138	2314.25
495.355	2306.25
495.573	2341.25
495.79	2306.25
496.008	2351.25
496.225	2337.25
496.442	2377.25
496.66	2398.25
496.877	2398.25
497.094	2354.25
497.312	2386.25
497.529	2369.25
497.746	2395.25
497.963	2366.25
498.181	2417.25
498.398	2453.25
498.615	2480.25
498.832	2490.25
499.049	2484.25
499.267	2544.25
499.484	2557.25
499.701	2579.25
499.918	2573.25
500.135	2622.25
500.352	2721.25
500.569	2680.25
500.786	2669.25
501.003	2649.25
501.22	2621.25
501.437	2640.25
501.654	2557.25
501.871	2548.25
502.088	2506.25
502.305	2504.25
502.522	2488.25
502.739	2455.25
502.956	2406.25
503.172	2372.25
503.389	2380.25
503.606	2385.25
503.823	2346.25
504.04	2294.25
504.256	2297.25
504.473	2293.25
504.69	2333.25
504.907	2229.25
505.123	2234.25
505.34	2263.25
505.557	2208.25
505.773	2202.25
505.99	2122.25
506.207	2145.25
506.423	2121.25
506.64	2136.25
506.856	2093.25
507.073	2120.25
507.289	2121.25
507.506	2063.25
507.722	2068.25
507.939	2040.25
508.155	2125.25
508.372	2063.25
508.588	2042.25
508.805	2008.25
509.021	2017.25
509.238	1994.25
509.454	1986.25
509.67	1946.25
509.887	1929.25
510.103	1978.25
510.319	1936.25
510.536	1906.25
510.752	1954.25
510.968	1972.25
511.184	1924.25
511.401	1959.25
511.617	1945.25
511.833	1921.25
512.049	1933.25
512.265	1917.25
512.481	1903.25
512.698	1917.25
512.914	1944.25
513.13	1937.25
513.346	1917.25
513.562	1930.25
513.778	1906.25
513.994	1923.25
514.21	1896.25
514.426	1902.25
514.642	1932.25
514.858	1923.25
515.074	1927.25
515.29	1931.25
515.506	1873.25
515.721	1906.25
515.937	1931.25
516.153	1901.25
516.369	1886.25
516.585	1940.25
516.801	1881.25
517.016	1896.25
517.232	1937.25
517.448	1942.25
517.664	1916.25
517.879	1949.25
518.095	1929.25
518.311	1848.25
518.527	1899.25
518.742	1877.25
518.958	1888.25
519.173	1877.25
519.389	1867.25
519.605	1868.25
519.82	1877.25
520.036	1844.25
520.251	1832.25
520.467	1831.25
520.682	1859.25
520.898	1817.25
521.113	1800.25
521.329	1801.25
521.544	1834.25
521.76	1834.25
521.975	1826.25
522.19	1800.25
522.406	1791.25
522.621	1780.25
522.836	1757.25
523.052	1815.25
523.267	1824.25
523.482	1777.25
523.698	1783.25
523.913	1761.25
524.128	1782.25
524.343	1799.25
524.559	1783.25
524.774	1789.25
524.989	1728.25
525.204	1775.25
525.419	1743.25
525.634	1742.25
525.849	1749.25
526.064	1702.25
526.28	1724.25
526.495	1740.25
526.71	1693.25
526.925	1710.25
527.14	1706.25
527.355	1726.25
527.57	1728.25
527.785	1719.25
527.999	1688.25
528.214	1692.25
528.429	1677.25
528.644	1706.25
528.859	1733.25
529.074	1716.25
529.289	1682.25
529.503	1699.25
529.718	1709.25
529.933	1697.25
530.148	1687.25
530.363	1659.25
530.577	1669.25
530.792	1660.25
531.007	1649.25
531.221	1674.25
531.436	1629.25
531.651	1652.25
531.865	1632.25
532.08	1649.25
532.295	1623.25
532.509	1613.25
532.724	1619.25
532.938	1600.25
533.153	1623.25
533.367	1631.25
533.582	1611.25
533.796	1634.25
534.011	1628.25
534.225	1633.25
534.44	1599.25
534.654	1606.25
534.868	1634.25
535.083	1627.25
535.297	1575.25
535.511	1576.25
535.726	1595.25
535.94	1593.25
536.154	1546.25
536.369	1565.25
536.583	1535.25
536.797	1569.25
537.011	1599.25
537.225	1531.25
537.44	1545.25
537.654	1558.25
537.868	1544.25
538.082	1482.25
538.296	1527.25
538.51	1508.25
538.724	1549.25
538.938	1519.25
539.153	1536.25
539.367	1540.25
539.581	1510.25
539.795	1457.25
540.009	1467.25
540.222	1487.25
540.436	1486.25
540.65	1519.25
540.864	1477.25
541.078	1497.25
541.292	1512.25
541.506	1476.25
541.72	1489.25
541.934	1554.25
542.147	1538.25
542.361	1499.25
542.575	1481.25
542.789	1455.25
543.002	1430.25
543.216	1492.25
543.43	1462.25
543.644	1455.25
543.857	1473.25
544.071	1465.25
544.285	1462.25
544.498	1465.25
544.712	1448.25
544.925	1453.25
545.139	1464.25
545.352	1466.25
545.566	1453.25
545.779	1416.25
545.993	1439.25
546.206	1476.25
546.42	1418.25
546.633	1452.25
546.847	1406.25
547.06	1427.25
547.274	1455.25
547.487	1416.25
547.7	1430.25
547.914	1394.25
548.127	1464.25
548.34	1424.25
548.554	1402.25
548.767	1419.25
548.98	1432.25
549.193	1408.25
549.407	1368.25
549.62	1396.25
549.833	1415.25
550.046	1414.25
550.259	1398.25
550.473	1384.25
550.686	1408.25
550.899	1407.25
551.112	1393.25
551.325	1372.25
551.538	1389.25
551.751	1352.25
551.964	1377.25
552.177	1374.25
552.39	1363.25
552.603	1387.25
552.816	1348.25
553.029	1372.25
553.242	1332.25
553.455	1334.25
553.667	1350.25
553.88	1354.25
554.093	1359.25
554.306	1321.25
554.519	1334.25
554.732	1309.25
554.944	1313.25
555.157	1342.25
555.37	1304.25
555.583	1256.25
555.795	1269.25
556.008	1278.25
556.221	1282.25
556.433	1239.25
556.646	1257.25
556.859	1262.25
557.071	1277.25
557.284	1261.25
557.496	1238.25
557.709	1269.25
557.921	1248.25
558.134	1244.25
558.346	1246.25
558.559	1237.25
558.771	1210.25
558.984	1240.25
559.196	1221.25
559.409	1226.25
559.621	1235.25
559.833	1180.25
560.046	1188.25
560.258	1193.25
560.47	1192.25
560.683	1205.25
560.895	1192.25
561.107	1188.25
561.32	1142.25
561.532	1164.25
561.744	1157.25
561.956	1166.25
562.168	1171.25
562.381	1150.25
562.593	1140.25
562.805	1145.25
563.017	1180.25
563.229	1137.25
563.441	1154.25
563.653	1156.25
563.865	1174.25
564.077	1158.25
564.289	1148.25
564.501	1191.25
564.713	1170.25
564.925	1190.25
565.137	1163.25
565.349	1175.25
565.561	1154.25
565.773	1164.25
565.985	1198.25
566.197	1171.25
566.408	1216.25
566.62	1162.25
566.832	1176.25
567.044	1195.25
567.255	1172.25
567.467	1190.25
567.679	1178.25
567.891	1180.25
568.102	1155.25
568.314	1154.25
568.526	1150.25
568.737	1101.25
568.949	1110.25
569.161	1103.25
569.372	1103.25
569.584	1069.25
569.795	1085.25
570.007	1080.25
570.218	1048.25
570.43	1050.25
570.641	1032.25
570.853	1058.25
571.064	1000.25
571.276	1036.25
571.487	1010.25
571.698	1007.25
571.91	977.25
572.121	1004.25
572.333	970.25
572.544	975.25
572.755	992.25
572.966	975.25
573.178	932.25
573.389	957.25
573.6	922.25
573.811	920.25
574.023	942.25
574.234	944.25
574.445	932.25
574.656	911.25
574.867	909.25
575.078	905.25
575.289	909.25
575.501	901.25
575.712	868.25
575.923	890.25
576.134	898.25
576.345	893.25
576.556	839.25
576.767	878.25
576.978	884.25
577.188	873.25
577.399	884.25
577.61	870.25
577.821	861.25
578.032	856.25
578.243	844.25
578.454	870.25
578.665	854.25
578.875	849.25
579.086	846.25
579.297	831.25
579.508	835.25
579.718	832.25
579.929	832.25
580.14	822.25
580.35	833.25
580.561	829.25
580.772	791.25
580.982	811.25
581.193	821.25
581.403	811.25
581.614	806.25
581.825	811.25
582.035	792.25
582.246	800.25
582.456	784.25
582.667	782.25
582.877	772.25
583.087	788.25
583.298	779.25
583.508	760.25
583.719	764.25
583.929	787.25
584.139	762.25
584.35	753.25
584.56	772.25
584.77	759.25
584.981	783.25
585.191	761.25
585.401	736.25
585.611	732.25
585.821	740.25
586.032	738.25
586.242	743.25
586.452	735.25
586.662	771.25
586.872	737.25
587.082	735.25
587.292	716.25
587.502	740.25
587.713	738.25
587.923	727.25
588.133	723.25
588.343	721.25
588.553	693.25
588.762	721.25
588.972	704.25
589.182	790.25
589.392	734.25
589.602	713.25
589.812	747.25
590.022	719.25
590.232	724.25
590.441	721.25
590.651	693.25
590.861	712.25
591.071	713.25
591.281	706.25
591.49	717.25
591.7	685.25
591.91	714.25
592.119	687.25
592.329	726.25
592.539	710.25
592.748	693.25
592.958	686.25
593.167	663.25
593.377	674.25
593.587	690.25
593.796	688.25
594.006	684.25
594.215	684.25
594.424	666.25
594.634	661.25
594.843	673.25
595.053	684.25
595.262	655.25
595.472	666.25
595.681	652.25
595.89	650.25
596.1	626.25
596.309	656.25
596.518	647.25
596.727	636.25
596.937	614.25
597.146	632.25
597.355	644.25
597.564	605.25
597.774	621.25
597.983	612.25
598.192	617.25
598.401	604.25
598.61	634.25
598.819	620.25
599.028	589.25
599.237	606.25
599.446	598.25
599.655	608.25
599.864	616.25
600.073	570.25
600.282	592.25
600.491	592.25
600.7	603.25
600.909	593.25
601.118	593.25
601.327	565.25
601.536	593.25
601.745	581.25
601.953	596.25
602.162	592.25
602.371	567.25
602.58	567.25
602.789	593.25
602.997	548.25
603.206	588.25
603.415	570.25
603.623	552.25
603.832	548.25
604.041	582.25
604.249	563.25
604.458	556.25
604.666	551.25
604.875	515.25
605.084	537.25
605.292	552.25
605.501	542.25
605.709	562.25
605.918	563.25
606.126	554.25
606.334	544.25
606.543	540.25
606.751	544.25
606.96	539.25
607.168	542.25
607.376	550.25
607.585	528.25
607.793	533.25
608.001	554.25
608.21	527.25
608.418	526.25
608.626	500.25
608.834	542.25
609.043	527.25
609.251	530.25
609.459	521.25
609.667	504.25
609.875	518.25
610.083	510.25
610.291	536.25
610.499	501.25
610.707	489.25
610.916	504.25
611.124	512.25
611.332	513.25
611.54	500.25
611.748	504.25
611.955	506.25
612.163	508.25
612.371	523.25
612.579	506.25
612.787	516.25
612.995	507.25
613.203	493.25
613.411	491.25
613.618	524.25
613.826	493.25
614.034	528.25
614.242	497.25
614.449	491.25
614.657	487.25
614.865	489.25
615.072	494.25
615.28	511.25
615.488	486.25
615.695	506.25
615.903	481.25
616.111	478.25
616.318	488.25
616.526	497.25
616.733	482.25
616.941	472.25
617.148	480.25
617.356	476.25
617.563	493.25
617.771	469.25
617.978	474.25
618.185	472.25
618.393	469.25
618.6	482.25
618.807	480.25
619.015	456.25
619.222	461.25
619.429	454.25
619.637	456.25
619.844	456.25
620.051	462.25
620.258	470.25
620.466	453.25
620.673	431.25
620.88	424.25
621.087	448.25
621.294	435.25
621.501	429.25
621.708	440.25
621.915	433.25
622.122	444.25
622.329	449.25
622.536	428.25
622.743	440.25
622.95	437.25
623.157	442.25
623.364	432.25
623.571	429.25
623.778	427.25
623.985	430.25
624.192	409.25
624.399	423.25
624.606	439.25
624.812	426.25
625.019	431.25
625.226	422.25
625.433	422.25
625.639	412.25
625.846	411.25
626.053	413.25
626.259	413.25
626.466	405.25
626.673	405.25
626.879	406.25
627.086	389.25
627.293	395.25
627.499	400.25
627.706	417.25
627.912	388.25
628.119	385.25
628.325	428.25
628.532	413.25
628.738	395.25
628.945	385.25
629.151	389.25
629.357	402.25
629.564	401.25
629.77	395.25
629.976	407.25
630.183	383.25
630.389	384.25
630.595	376.25
630.802	383.25
631.008	386.25
631.214	383.25
631.42	395.25
631.627	386.25
631.833	381.25
632.039	368.25
632.245	381.25
632.451	370.25
632.657	386.25
632.863	385.25
633.069	349.25
633.275	344.25
633.481	369.25
633.688	388.25
633.893	363.25
634.099	349.25
634.305	364.25
634.511	359.25
634.717	357.25
634.923	338.25
635.129	358.25
635.335	354.25
635.541	368.25
635.747	360.25
635.952	348.25
636.158	334.25
636.364	339.25
636.57	353.25
636.775	358.25
636.981	338.25
637.187	354.25
637.392	353.25
637.598	337.25
637.804	328.25
638.009	340.25
638.215	335.25
638.421	332.25
638.626	345.25
638.832	326.25
639.037	340.25
639.243	354.25
639.448	331.25
639.654	336.25
639.859	352.25
640.065	329.25
640.27	342.25
640.475	348.25
640.681	339.25
640.886	328.25
641.091	329.25
641.297	327.25
641.502	334.25
641.707	318.25
641.913	333.25
642.118	320.25
642.323	325.25
642.528	334.25
642.733	333.25
642.939	352.25
643.144	330.25
643.349	320.25
643.554	324.25
643.759	330.25
643.964	326.25
644.169	346.25
644.374	326.25
644.579	325.25
644.784	338.25
644.989	301.25
645.194	333.25
645.399	337.25
645.604	344.25
645.809	323.25
646.014	326.25
646.219	332.25
646.423	313.25
646.628	321.25
646.833	313.25
647.038	331.25
647.243	306.25
647.447	326.25
647.652	337.25
647.857	333.25
648.062	320.25
648.266	317.25
648.471	313.25
648.676	336.25
648.88	336.25
649.085	329.25
649.289	337.25
649.494	312.25
649.698	324.25
649.903	337.25
650.107	326.25
650.312	329.25
650.516	325.25
650.721	315.25
650.925	300.25
651.13	304.25
651.334	309.25
651.539	310.25
651.743	303.25
651.947	295.25
652.152	312.25
652.356	317.25
652.56	294.25
652.764	297.25
652.969	284.25
653.173	304.25
653.377	297.25
653.581	274.25
653.785	274.25
653.99	285.25
654.194	280.25
654.398	280.25
654.602	282.25
654.806	264.25
655.01	259.25
655.214	266.25
655.418	251.25
655.622	238.25
655.826	249.25
656.03	262.25
656.234	258.25
656.438	250.25
656.642	261.25
656.846	248.25
657.049	233.25
657.253	210.25
657.457	215.25
657.661	203.25
657.865	204.25
658.068	196.25
658.272	174.25
658.476	174.25
658.68	166.25
658.883	167.25
659.087	175.25
659.291	162.25
659.494	144.25
659.698	152.25
659.901	145.25
660.105	124.25
660.309	135.25
660.512	123.25
660.716	132.25
660.919	132.25
661.123	122.25
661.326	116.25
661.53	115.25
661.733	111.25
661.936	110.25
662.14	112.25
662.343	116.25
662.546	93.25
662.75	108.25
662.953	114.25
663.156	96.25
663.36	82.25
663.563	83.25
663.766	92.25
663.969	94.25
664.173	97.25
664.376	81.25
664.579	91.25
664.782	91.25
664.985	80.25
665.188	87.25
665.391	84.25
665.594	90.25
665.797	95.25
666	88.25
666.203	84.25
666.406	87.25
666.609	75.25
666.812	98.25
667.015	84.25
667.218	83.25
667.421	81.25
667.624	76.25
667.827	98.25
668.03	75.25
668.232	79.25
668.435	90.25
668.638	91.25
668.841	91.25
669.043	82.25
669.246	89.25
669.449	88.25
669.651	84.25
669.854	93.25
670.057	97.25
670.259	87.25
670.462	83.25
670.665	89.25
670.867	82.25
671.07	91.25
671.272	89.25
671.475	89.25
671.677	94.25
671.88	87.25
672.082	92.25
672.284	81.25
672.487	79.25
672.689	75.25
672.892	83.25
