Data from Ni(NO3)2@0.25M.TitratingCurve.Agarose3%dH2O.NegLispCup.LampEnergy10.LIBS07252019_HRD10591_18-05-42-566.txt Node
Date: Thu Jul 25 18:05:42 EDT 2019
User: cochatt
Spectrometer: HR+D1059
Trigger mode: 1
Integration Time (sec): 1.000000E-1
Scans to average: 1
Electric dark correction enabled: true
Nonlinearity correction enabled: false
Boxcar width: 0
XAxis mode: Wavelengths
Number of Pixels in Spectrum: 2048
>>>>>Begin Spectral Data<<<<<
223.165	-18.06
223.4	-18.06
223.635	-18.06
223.869	-1.06
224.104	-19.06
224.338	-16.06
224.573	-25.06
224.808	-16.06
225.042	-15.06
225.277	-3.06
225.511	0.94
225.746	-4.06
225.98	10.94
226.215	11.94
226.449	-2.06
226.683	26.94
226.918	28.94
227.152	39.94
227.387	50.94
227.621	46.94
227.856	51.94
228.09	63.94
228.324	47.94
228.559	60.94
228.793	63.94
229.027	98.94
229.262	103.94
229.496	127.94
229.73	124.94
229.964	114.94
230.199	126.94
230.433	124.94
230.667	141.94
230.901	127.94
231.136	127.94
231.37	139.94
231.604	123.94
231.838	154.94
232.072	148.94
232.306	152.94
232.541	141.94
232.775	140.94
233.009	139.94
233.243	140.94
233.477	141.94
233.711	147.94
233.945	138.94
234.179	143.94
234.413	152.94
234.647	142.94
234.881	148.94
235.115	138.94
235.349	160.94
235.583	139.94
235.817	141.94
236.051	158.94
236.285	160.94
236.519	149.94
236.753	164.94
236.987	142.94
237.221	163.94
237.455	148.94
237.689	135.94
237.922	139.94
238.156	161.94
238.39	149.94
238.624	178.94
238.858	170.94
239.091	168.94
239.325	166.94
239.559	167.94
239.793	191.94
240.027	183.94
240.26	163.94
240.494	184.94
240.728	169.94
240.961	177.94
241.195	170.94
241.429	193.94
241.662	190.94
241.896	183.94
242.13	185.94
242.363	186.94
242.597	197.94
242.83	200.94
243.064	187.94
243.298	211.94
243.531	177.94
243.765	195.94
243.998	197.94
244.232	211.94
244.465	196.94
244.699	214.94
244.932	214.94
245.166	198.94
245.399	197.94
245.633	202.94
245.866	223.94
246.099	212.94
246.333	231.94
246.566	217.94
246.8	206.94
247.033	212.94
247.266	209.94
247.5	216.94
247.733	209.94
247.966	217.94
248.2	218.94
248.433	235.94
248.666	238.94
248.899	231.94
249.133	235.94
249.366	245.94
249.599	237.94
249.832	237.94
250.066	251.94
250.299	243.94
250.532	254.94
250.765	258.94
250.998	246.94
251.231	251.94
251.465	247.94
251.698	264.94
251.931	244.94
252.164	247.94
252.397	264.94
252.63	263.94
252.863	276.94
253.096	275.94
253.329	272.94
253.562	278.94
253.795	271.94
254.028	282.94
254.261	273.94
254.494	271.94
254.727	292.94
254.96	296.94
255.193	271.94
255.426	273.94
255.659	285.94
255.892	300.94
256.124	276.94
256.357	282.94
256.59	294.94
256.823	284.94
257.056	299.94
257.289	286.94
257.521	297.94
257.754	283.94
257.987	293.94
258.22	298.94
258.452	298.94
258.685	300.94
258.918	302.94
259.151	300.94
259.383	300.94
259.616	319.94
259.849	303.94
260.081	323.94
260.314	312.94
260.547	323.94
260.779	315.94
261.012	313.94
261.244	327.94
261.477	320.94
261.71	318.94
261.942	319.94
262.175	332.94
262.407	327.94
262.64	345.94
262.872	338.94
263.105	354.94
263.337	338.94
263.57	331.94
263.802	347.94
264.035	354.94
264.267	357.94
264.499	353.94
264.732	337.94
264.964	360.94
265.197	334.94
265.429	356.94
265.661	364.94
265.894	342.94
266.126	358.94
266.358	375.94
266.591	359.94
266.823	372.94
267.055	358.94
267.287	365.94
267.52	369.94
267.752	372.94
267.984	374.94
268.216	385.94
268.448	374.94
268.681	386.94
268.913	386.94
269.145	387.94
269.377	363.94
269.609	376.94
269.841	374.94
270.073	380.94
270.306	379.94
270.538	384.94
270.77	376.94
271.002	380.94
271.234	382.94
271.466	366.94
271.698	400.94
271.93	395.94
272.162	387.94
272.394	395.94
272.626	375.94
272.858	381.94
273.09	387.94
273.322	387.94
273.553	401.94
273.785	383.94
274.017	407.94
274.249	385.94
274.481	406.94
274.713	411.94
274.945	412.94
275.176	426.94
275.408	407.94
275.64	408.94
275.872	416.94
276.104	437.94
276.335	417.94
276.567	405.94
276.799	432.94
277.031	434.94
277.262	437.94
277.494	425.94
277.726	425.94
277.957	426.94
278.189	429.94
278.421	420.94
278.652	438.94
278.884	434.94
279.115	452.94
279.347	443.94
279.579	438.94
279.81	454.94
280.042	440.94
280.273	455.94
280.505	428.94
280.736	458.94
280.968	455.94
281.199	464.94
281.431	447.94
281.662	473.94
281.894	471.94
282.125	462.94
282.356	461.94
282.588	457.94
282.819	459.94
283.051	464.94
283.282	465.94
283.513	474.94
283.745	475.94
283.976	444.94
284.207	487.94
284.439	486.94
284.67	504.94
284.901	480.94
285.132	463.94
285.364	477.94
285.595	494.94
285.826	500.94
286.057	496.94
286.288	473.94
286.52	459.94
286.751	470.94
286.982	482.94
287.213	484.94
287.444	511.94
287.675	506.94
287.906	511.94
288.138	507.94
288.369	499.94
288.6	515.94
288.831	511.94
289.062	503.94
289.293	494.94
289.524	511.94
289.755	493.94
289.986	511.94
290.217	499.94
290.448	519.94
290.679	505.94
290.91	507.94
291.141	512.94
291.371	532.94
291.602	540.94
291.833	506.94
292.064	525.94
292.295	534.94
292.526	527.94
292.757	526.94
292.987	543.94
293.218	525.94
293.449	538.94
293.68	543.94
293.91	488.94
294.141	516.94
294.372	519.94
294.603	517.94
294.833	513.94
295.064	526.94
295.295	531.94
295.525	525.94
295.756	541.94
295.987	537.94
296.217	535.94
296.448	539.94
296.679	552.94
296.909	544.94
297.14	534.94
297.37	560.94
297.601	547.94
297.831	557.94
298.062	572.94
298.292	578.94
298.523	562.94
298.753	583.94
298.984	569.94
299.214	553.94
299.445	583.94
299.675	570.94
299.905	580.94
300.136	557.94
300.366	583.94
300.597	595.94
300.827	607.94
301.057	595.94
301.288	583.94
301.518	581.94
301.748	596.94
301.979	613.94
302.209	613.94
302.439	602.94
302.669	604.94
302.9	585.94
303.13	583.94
303.36	604.94
303.59	588.94
303.82	599.94
304.051	600.94
304.281	585.94
304.511	586.94
304.741	607.94
304.971	587.94
305.201	589.94
305.431	584.94
305.661	574.94
305.891	584.94
306.121	580.94
306.352	589.94
306.582	576.94
306.812	578.94
307.042	581.94
307.272	579.94
307.502	572.94
307.731	579.94
307.961	586.94
308.191	563.94
308.421	594.94
308.651	569.94
308.881	578.94
309.111	583.94
309.341	564.94
309.571	580.94
309.8	550.94
310.03	599.94
310.26	614.94
310.49	592.94
310.72	610.94
310.949	587.94
311.179	607.94
311.409	605.94
311.639	614.94
311.868	596.94
312.098	619.94
312.328	598.94
312.557	620.94
312.787	618.94
313.017	606.94
313.246	640.94
313.476	629.94
313.706	640.94
313.935	636.94
314.165	640.94
314.394	647.94
314.624	652.94
314.853	614.94
315.083	634.94
315.312	648.94
315.542	636.94
315.771	622.94
316.001	623.94
316.23	643.94
316.46	628.94
316.689	641.94
316.919	624.94
317.148	610.94
317.377	636.94
317.607	619.94
317.836	633.94
318.065	638.94
318.295	631.94
318.524	653.94
318.753	632.94
318.983	613.94
319.212	628.94
319.441	640.94
319.67	596.94
319.9	630.94
320.129	641.94
320.358	645.94
320.587	635.94
320.816	633.94
321.046	613.94
321.275	663.94
321.504	644.94
321.733	626.94
321.962	644.94
322.191	656.94
322.42	657.94
322.649	671.94
322.878	664.94
323.108	659.94
323.337	666.94
323.566	668.94
323.795	659.94
324.024	677.94
324.253	690.94
324.482	668.94
324.71	682.94
324.939	702.94
325.168	653.94
325.397	682.94
325.626	707.94
325.855	692.94
326.084	699.94
326.313	713.94
326.542	706.94
326.77	738.94
326.999	703.94
327.228	723.94
327.457	712.94
327.686	725.94
327.914	724.94
328.143	723.94
328.372	734.94
328.6	729.94
328.829	730.94
329.058	727.94
329.287	719.94
329.515	708.94
329.744	756.94
329.972	763.94
330.201	742.94
330.43	750.94
330.658	747.94
330.887	726.94
331.115	762.94
331.344	771.94
331.572	800.94
331.801	818.94
332.03	802.94
332.258	815.94
332.486	857.94
332.715	903.94
332.943	918.94
333.172	908.94
333.4	960.94
333.629	969.94
333.857	1005.94
334.085	1003.94
334.314	1006.94
334.542	998.94
334.771	964.94
334.999	925.94
335.227	931.94
335.455	910.94
335.684	932.94
335.912	924.94
336.14	895.94
336.369	903.94
336.597	931.94
336.825	904.94
337.053	902.94
337.281	877.94
337.51	869.94
337.738	858.94
337.966	832.94
338.194	862.94
338.422	823.94
338.65	810.94
338.878	812.94
339.106	813.94
339.334	806.94
339.562	801.94
339.79	790.94
340.018	796.94
340.246	800.94
340.474	793.94
340.702	785.94
340.93	796.94
341.158	811.94
341.386	812.94
341.614	780.94
341.842	777.94
342.07	748.94
342.298	806.94
342.526	761.94
342.754	755.94
342.981	777.94
343.209	820.94
343.437	860.94
343.665	875.94
343.893	921.94
344.12	950.94
344.348	913.94
344.576	887.94
344.804	853.94
345.031	813.94
345.259	806.94
345.487	799.94
345.714	801.94
345.942	755.94
346.17	792.94
346.397	797.94
346.625	770.94
346.853	724.94
347.08	752.94
347.308	750.94
347.535	763.94
347.763	768.94
347.99	762.94
348.218	773.94
348.445	749.94
348.673	704.94
348.9	760.94
349.128	751.94
349.355	758.94
349.583	729.94
349.81	729.94
350.037	732.94
350.265	727.94
350.492	746.94
350.72	716.94
350.947	737.94
351.174	727.94
351.402	724.94
351.629	720.94
351.856	745.94
352.083	733.94
352.311	723.94
352.538	700.94
352.765	724.94
352.992	722.94
353.22	728.94
353.447	713.94
353.674	727.94
353.901	707.94
354.128	724.94
354.355	722.94
354.583	719.94
354.81	718.94
355.037	731.94
355.264	744.94
355.491	717.94
355.718	739.94
355.945	736.94
356.172	745.94
356.399	732.94
356.626	717.94
356.853	728.94
357.08	766.94
357.307	735.94
357.534	735.94
357.761	745.94
357.988	723.94
358.215	719.94
358.441	722.94
358.668	718.94
358.895	736.94
359.122	719.94
359.349	743.94
359.576	736.94
359.802	736.94
360.029	722.94
360.256	718.94
360.483	724.94
360.709	722.94
360.936	718.94
361.163	751.94
361.39	725.94
361.616	731.94
361.843	732.94
362.07	750.94
362.296	730.94
362.523	716.94
362.749	724.94
362.976	710.94
363.203	727.94
363.429	723.94
363.656	737.94
363.882	739.94
364.109	711.94
364.335	712.94
364.562	725.94
364.788	718.94
365.015	720.94
365.241	681.94
365.468	720.94
365.694	725.94
365.92	708.94
366.147	702.94
366.373	703.94
366.599	714.94
366.826	718.94
367.052	710.94
367.278	712.94
367.505	719.94
367.731	712.94
367.957	708.94
368.184	743.94
368.41	723.94
368.636	724.94
368.862	731.94
369.089	720.94
369.315	750.94
369.541	728.94
369.767	747.94
369.993	754.94
370.219	749.94
370.445	748.94
370.672	778.94
370.898	748.94
371.124	790.94
371.35	801.94
371.576	795.94
371.802	767.94
372.028	770.94
372.254	777.94
372.48	776.94
372.706	780.94
372.932	818.94
373.158	796.94
373.384	755.94
373.61	792.94
373.835	781.94
374.061	803.94
374.287	809.94
374.513	814.94
374.739	821.94
374.965	876.94
375.191	886.94
375.416	862.94
375.642	852.94
375.868	835.94
376.094	796.94
376.319	803.94
376.545	790.94
376.771	801.94
376.997	800.94
377.222	768.94
377.448	765.94
377.674	777.94
377.899	768.94
378.125	774.94
378.35	783.94
378.576	780.94
378.802	759.94
379.027	760.94
379.253	756.94
379.478	754.94
379.704	774.94
379.929	758.94
380.155	760.94
380.38	742.94
380.606	756.94
380.831	740.94
381.057	752.94
381.282	767.94
381.507	770.94
381.733	788.94
381.958	764.94
382.184	792.94
382.409	812.94
382.634	822.94
382.86	811.94
383.085	822.94
383.31	858.94
383.535	813.94
383.761	819.94
383.986	863.94
384.211	873.94
384.436	897.94
384.662	903.94
384.887	909.94
385.112	941.94
385.337	939.94
385.562	939.94
385.787	918.94
386.013	926.94
386.238	923.94
386.463	945.94
386.688	951.94
386.913	915.94
387.138	927.94
387.363	948.94
387.588	937.94
387.813	953.94
388.038	931.94
388.263	919.94
388.488	922.94
388.713	940.94
388.938	913.94
389.163	903.94
389.387	926.94
389.612	914.94
389.837	900.94
390.062	916.94
390.287	935.94
390.512	903.94
390.736	937.94
390.961	958.94
391.186	959.94
391.411	989.94
391.636	978.94
391.86	1065.94
392.085	1061.94
392.31	1045.94
392.534	1016.94
392.759	1028.94
392.984	1002.94
393.208	1000.94
393.433	985.94
393.658	990.94
393.882	980.94
394.107	981.94
394.331	1003.94
394.556	976.94
394.78	1026.94
395.005	996.94
395.229	983.94
395.454	1049.94
395.678	1046.94
395.903	1059.94
396.127	1036.94
396.352	1019.94
396.576	1018.94
396.801	1011.94
397.025	1023.94
397.249	1053.94
397.474	1079.94
397.698	1092.94
397.922	1087.94
398.147	1072.94
398.371	1115.94
398.595	1140.94
398.82	1182.94
399.044	1284.94
399.268	1392.94
399.492	1578.94
399.717	1707.94
399.941	1774.94
400.165	1592.94
400.389	1444.94
400.613	1339.94
400.837	1270.94
401.062	1210.94
401.286	1202.94
401.51	1214.94
401.734	1210.94
401.958	1260.94
402.182	1230.94
402.406	1215.94
402.63	1253.94
402.854	1282.94
403.078	1279.94
403.302	1296.94
403.526	1328.94
403.75	1379.94
403.974	1362.94
404.198	1340.94
404.422	1344.94
404.645	1333.94
404.869	1328.94
405.093	1357.94
405.317	1298.94
405.541	1334.94
405.765	1325.94
405.988	1306.94
406.212	1306.94
406.436	1313.94
406.66	1368.94
406.883	1372.94
407.107	1424.94
407.331	1453.94
407.555	1542.94
407.778	1533.94
408.002	1535.94
408.226	1461.94
408.449	1426.94
408.673	1342.94
408.896	1376.94
409.12	1329.94
409.344	1346.94
409.567	1332.94
409.791	1368.94
410.014	1327.94
410.238	1300.94
410.461	1306.94
410.685	1311.94
410.908	1274.94
411.132	1242.94
411.355	1239.94
411.578	1268.94
411.802	1250.94
412.025	1223.94
412.249	1264.94
412.472	1277.94
412.695	1224.94
412.919	1210.94
413.142	1196.94
413.365	1212.94
413.589	1212.94
413.812	1180.94
414.035	1208.94
414.258	1190.94
414.482	1223.94
414.705	1204.94
414.928	1243.94
415.151	1202.94
415.374	1221.94
415.597	1198.94
415.821	1177.94
416.044	1161.94
416.267	1179.94
416.49	1189.94
416.713	1181.94
416.936	1177.94
417.159	1165.94
417.382	1129.94
417.605	1156.94
417.828	1158.94
418.051	1189.94
418.274	1189.94
418.497	1182.94
418.72	1247.94
418.943	1220.94
419.166	1314.94
419.389	1378.94
419.611	1339.94
419.834	1283.94
420.057	1240.94
420.28	1204.94
420.503	1189.94
420.726	1195.94
420.948	1142.94
421.171	1176.94
421.394	1219.94
421.617	1187.94
421.839	1213.94
422.062	1205.94
422.285	1189.94
422.507	1221.94
422.73	1226.94
422.953	1216.94
423.175	1238.94
423.398	1243.94
423.621	1258.94
423.843	1267.94
424.066	1250.94
424.288	1206.94
424.511	1222.94
424.733	1205.94
424.956	1193.94
425.178	1232.94
425.401	1211.94
425.623	1235.94
425.846	1180.94
426.068	1172.94
426.291	1162.94
426.513	1121.94
426.735	1135.94
426.958	1139.94
427.18	1086.94
427.402	1119.94
427.625	1098.94
427.847	1071.94
428.069	1078.94
428.292	1094.94
428.514	1054.94
428.736	1072.94
428.958	1055.94
429.181	1046.94
429.403	1045.94
429.625	1015.94
429.847	1029.94
430.069	1021.94
430.292	1019.94
430.514	1045.94
430.736	1038.94
430.958	1060.94
431.18	1036.94
431.402	1054.94
431.624	1049.94
431.846	1042.94
432.068	1074.94
432.29	1077.94
432.512	1039.94
432.734	1088.94
432.956	1038.94
433.178	1103.94
433.4	1061.94
433.622	1082.94
433.844	1094.94
434.066	1109.94
434.287	1088.94
434.509	1133.94
434.731	1168.94
434.953	1196.94
435.175	1238.94
435.397	1179.94
435.618	1175.94
435.84	1112.94
436.062	1074.94
436.284	1083.94
436.505	1121.94
436.727	1074.94
436.949	1071.94
437.17	1093.94
437.392	1059.94
437.614	1026.94
437.835	1013.94
438.057	1025.94
438.278	1019.94
438.5	1028.94
438.721	1016.94
438.943	1036.94
439.165	1051.94
439.386	1044.94
439.608	1068.94
439.829	1049.94
440.05	1063.94
440.272	1078.94
440.493	1058.94
440.715	1074.94
440.936	1125.94
441.158	1122.94
441.379	1147.94
441.6	1214.94
441.822	1222.94
442.043	1190.94
442.264	1187.94
442.486	1162.94
442.707	1157.94
442.928	1191.94
443.149	1187.94
443.371	1174.94
443.592	1204.94
443.813	1195.94
444.034	1231.94
444.255	1295.94
444.476	1318.94
444.698	1382.94
444.919	1439.94
445.14	1491.94
445.361	1403.94
445.582	1251.94
445.803	1208.94
446.024	1188.94
446.245	1143.94
446.466	1109.94
446.687	1116.94
446.908	1102.94
447.129	1066.94
447.35	1077.94
447.571	1034.94
447.792	1026.94
448.013	1007.94
448.234	1012.94
448.455	1028.94
448.675	1011.94
448.896	1017.94
449.117	982.94
449.338	979.94
449.559	954.94
449.779	982.94
450	972.94
450.221	965.94
450.442	980.94
450.662	1018.94
450.883	993.94
451.104	1029.94
451.324	1002.94
451.545	988.94
451.766	987.94
451.986	1005.94
452.207	977.94
452.428	942.94
452.648	974.94
452.869	988.94
453.089	954.94
453.31	949.94
453.53	946.94
453.751	944.94
453.971	892.94
454.192	928.94
454.412	896.94
454.633	908.94
454.853	907.94
455.073	925.94
455.294	915.94
455.514	925.94
455.734	923.94
455.955	864.94
456.175	916.94
456.395	906.94
456.616	884.94
456.836	930.94
457.056	934.94
457.276	870.94
457.497	932.94
457.717	929.94
457.937	918.94
458.157	927.94
458.377	908.94
458.598	986.94
458.818	975.94
459.038	995.94
459.258	1046.94
459.478	1077.94
459.698	1092.94
459.918	1159.94
460.138	1198.94
460.358	1257.94
460.578	1244.94
460.798	1308.94
461.018	1298.94
461.238	1270.94
461.458	1250.94
461.678	1228.94
461.898	1290.94
462.118	1278.94
462.338	1344.94
462.558	1431.94
462.777	1450.94
462.997	1541.94
463.217	1695.94
463.437	1684.94
463.657	1588.94
463.876	1486.94
464.096	1497.94
464.316	1468.94
464.536	1452.94
464.755	1440.94
464.975	1353.94
465.195	1292.94
465.414	1243.94
465.634	1165.94
465.854	1149.94
466.073	1094.94
466.293	1066.94
466.512	1040.94
466.732	1007.94
466.951	1039.94
467.171	1045.94
467.391	1016.94
467.61	1018.94
467.829	1007.94
468.049	998.94
468.268	1012.94
468.488	1002.94
468.707	980.94
468.927	974.94
469.146	963.94
469.365	964.94
469.585	982.94
469.804	998.94
470.023	1054.94
470.243	1044.94
470.462	1060.94
470.681	1052.94
470.901	1036.94
471.12	1064.94
471.339	1030.94
471.558	1008.94
471.777	986.94
471.997	1042.94
472.216	989.94
472.435	974.94
472.654	967.94
472.873	952.94
473.092	956.94
473.311	955.94
473.53	981.94
473.749	973.94
473.968	950.94
474.187	924.94
474.406	967.94
474.625	958.94
474.844	952.94
475.063	957.94
475.282	938.94
475.501	909.94
475.72	958.94
475.939	978.94
476.158	979.94
476.377	1000.94
476.596	977.94
476.814	996.94
477.033	1021.94
477.252	1018.94
477.471	1061.94
477.69	1078.94
477.908	1078.94
478.127	1126.94
478.346	1145.94
478.564	1186.94
478.783	1176.94
479.002	1194.94
479.22	1193.94
479.439	1205.94
479.658	1217.94
479.876	1207.94
480.095	1182.94
480.313	1252.94
480.532	1267.94
480.751	1277.94
480.969	1184.94
481.188	1190.94
481.406	1150.94
481.624	1094.94
481.843	1087.94
482.061	1097.94
482.28	1102.94
482.498	1051.94
482.717	1060.94
482.935	1095.94
483.153	1059.94
483.372	1079.94
483.59	1071.94
483.808	1063.94
484.027	1090.94
484.245	1078.94
484.463	1111.94
484.681	1078.94
484.9	1094.94
485.118	1108.94
485.336	1080.94
485.554	1149.94
485.772	1112.94
485.99	1106.94
486.209	1120.94
486.427	1110.94
486.645	1127.94
486.863	1141.94
487.081	1120.94
487.299	1174.94
487.517	1132.94
487.735	1135.94
487.953	1142.94
488.171	1138.94
488.389	1122.94
488.607	1104.94
488.825	1116.94
489.043	1128.94
489.261	1105.94
489.479	1127.94
489.696	1123.94
489.914	1110.94
490.132	1122.94
490.35	1156.94
490.568	1140.94
490.786	1155.94
491.003	1166.94
491.221	1154.94
491.439	1168.94
491.657	1150.94
491.874	1176.94
492.092	1165.94
492.31	1162.94
492.527	1185.94
492.745	1175.94
492.963	1205.94
493.18	1187.94
493.398	1158.94
493.615	1158.94
493.833	1201.94
494.05	1204.94
494.268	1206.94
494.485	1231.94
494.703	1221.94
494.92	1210.94
495.138	1212.94
495.355	1234.94
495.573	1195.94
495.79	1243.94
496.008	1254.94
496.225	1255.94
496.442	1244.94
496.66	1295.94
496.877	1286.94
497.094	1288.94
497.312	1338.94
497.529	1385.94
497.746	1404.94
497.963	1430.94
498.181	1503.94
498.398	1629.94
498.615	1659.94
498.832	1789.94
499.049	1949.94
499.267	2090.94
499.484	2278.94
499.701	2538.94
499.918	2779.94
500.135	3130.94
500.352	3462.94
500.569	3601.94
500.786	3600.94
501.003	3395.94
501.22	3026.94
501.437	2745.94
501.654	2401.94
501.871	2272.94
502.088	2072.94
502.305	1896.94
502.522	1775.94
502.739	1728.94
502.956	1636.94
503.172	1579.94
503.389	1523.94
503.606	1435.94
503.823	1405.94
504.04	1414.94
504.256	1428.94
504.473	1441.94
504.69	1428.94
504.907	1410.94
505.123	1348.94
505.34	1266.94
505.557	1207.94
505.773	1195.94
505.99	1165.94
506.207	1140.94
506.423	1125.94
506.64	1099.94
506.856	1071.94
507.073	1106.94
507.289	1076.94
507.506	1095.94
507.722	1068.94
507.939	1070.94
508.155	1050.94
508.372	1029.94
508.588	1030.94
508.805	1026.94
509.021	1019.94
509.238	1016.94
509.454	1015.94
509.67	1015.94
509.887	977.94
510.103	991.94
510.319	986.94
510.536	984.94
510.752	965.94
510.968	980.94
511.184	988.94
511.401	979.94
511.617	957.94
511.833	918.94
512.049	958.94
512.265	998.94
512.481	978.94
512.698	987.94
512.914	939.94
513.13	962.94
513.346	973.94
513.562	969.94
513.778	971.94
513.994	989.94
514.21	998.94
514.426	987.94
514.642	981.94
514.858	999.94
515.074	996.94
515.29	1020.94
515.506	1027.94
515.721	1034.94
515.937	1051.94
516.153	1092.94
516.369	1082.94
516.585	1133.94
516.801	1197.94
517.016	1218.94
517.232	1220.94
517.448	1321.94
517.664	1338.94
517.879	1343.94
518.095	1318.94
518.311	1319.94
518.527	1300.94
518.742	1254.94
518.958	1184.94
519.173	1163.94
519.389	1098.94
519.605	1090.94
519.82	1064.94
520.036	1044.94
520.251	1006.94
520.467	1012.94
520.682	999.94
520.898	972.94
521.113	958.94
521.329	955.94
521.544	946.94
521.76	943.94
521.975	919.94
522.19	934.94
522.406	926.94
522.621	927.94
522.836	904.94
523.052	910.94
523.267	903.94
523.482	893.94
523.698	905.94
523.913	890.94
524.128	909.94
524.343	912.94
524.559	906.94
524.774	895.94
524.989	900.94
525.204	902.94
525.419	876.94
525.634	910.94
525.849	897.94
526.064	879.94
526.28	879.94
526.495	867.94
526.71	858.94
526.925	862.94
527.14	888.94
527.355	864.94
527.57	852.94
527.785	850.94
527.999	856.94
528.214	867.94
528.429	842.94
528.644	873.94
528.859	898.94
529.074	877.94
529.289	886.94
529.503	894.94
529.718	899.94
529.933	882.94
530.148	892.94
530.363	864.94
530.577	871.94
530.792	862.94
531.007	873.94
531.221	871.94
531.436	861.94
531.651	871.94
531.865	882.94
532.08	860.94
532.295	839.94
532.509	872.94
532.724	883.94
532.938	879.94
533.153	863.94
533.367	848.94
533.582	859.94
533.796	854.94
534.011	876.94
534.225	876.94
534.44	876.94
534.654	855.94
534.868	848.94
535.083	851.94
535.297	828.94
535.511	832.94
535.726	856.94
535.94	855.94
536.154	819.94
536.369	822.94
536.583	798.94
536.797	826.94
537.011	822.94
537.225	830.94
537.44	797.94
537.654	811.94
537.868	798.94
538.082	803.94
538.296	787.94
538.51	779.94
538.724	781.94
538.938	789.94
539.153	790.94
539.367	804.94
539.581	787.94
539.795	792.94
540.009	790.94
540.222	802.94
540.436	782.94
540.65	766.94
540.864	781.94
541.078	789.94
541.292	805.94
541.506	781.94
541.72	798.94
541.934	830.94
542.147	831.94
542.361	783.94
542.575	765.94
542.789	768.94
543.002	778.94
543.216	795.94
543.43	773.94
543.644	781.94
543.857	748.94
544.071	818.94
544.285	808.94
544.498	806.94
544.712	805.94
544.925	779.94
545.139	804.94
545.352	823.94
545.566	814.94
545.779	834.94
545.993	795.94
546.206	836.94
546.42	791.94
546.633	824.94
546.847	830.94
547.06	795.94
547.274	810.94
547.487	806.94
547.7	805.94
547.914	825.94
548.127	807.94
548.34	835.94
548.554	819.94
548.767	802.94
548.98	834.94
549.193	834.94
549.407	838.94
549.62	830.94
549.833	820.94
550.046	825.94
550.259	815.94
550.473	784.94
550.686	802.94
550.899	793.94
551.112	810.94
551.325	803.94
551.538	806.94
551.751	805.94
551.964	810.94
552.177	831.94
552.39	814.94
552.603	861.94
552.816	868.94
553.029	862.94
553.242	880.94
553.455	861.94
553.667	874.94
553.88	858.94
554.093	827.94
554.306	838.94
554.519	822.94
554.732	813.94
554.944	788.94
555.157	762.94
555.37	771.94
555.583	772.94
555.795	742.94
556.008	740.94
556.221	731.94
556.433	730.94
556.646	727.94
556.859	702.94
557.071	694.94
557.284	691.94
557.496	681.94
557.709	664.94
557.921	678.94
558.134	706.94
558.346	672.94
558.559	704.94
558.771	672.94
558.984	678.94
559.196	685.94
559.409	651.94
559.621	667.94
559.833	663.94
560.046	651.94
560.258	685.94
560.47	665.94
560.683	675.94
560.895	662.94
561.107	668.94
561.32	648.94
561.532	667.94
561.744	661.94
561.956	675.94
562.168	676.94
562.381	662.94
562.593	666.94
562.805	666.94
563.017	674.94
563.229	670.94
563.441	692.94
563.653	700.94
563.865	671.94
564.077	698.94
564.289	715.94
564.501	693.94
564.713	725.94
564.925	710.94
565.137	733.94
565.349	754.94
565.561	805.94
565.773	818.94
565.985	854.94
566.197	888.94
566.408	957.94
566.62	986.94
566.832	1087.94
567.044	1076.94
567.255	1126.94
567.467	1151.94
567.679	1208.94
567.891	1282.94
568.102	1257.94
568.314	1208.94
568.526	1082.94
568.737	1020.94
568.949	956.94
569.161	843.94
569.372	829.94
569.584	774.94
569.795	781.94
570.007	720.94
570.218	686.94
570.43	692.94
570.641	696.94
570.853	695.94
571.064	708.94
571.276	688.94
571.487	672.94
571.698	662.94
571.91	646.94
572.121	586.94
572.333	590.94
572.544	591.94
572.755	574.94
572.966	585.94
573.178	593.94
573.389	570.94
573.6	562.94
573.811	540.94
574.023	542.94
574.234	560.94
574.445	558.94
574.656	525.94
574.867	557.94
575.078	553.94
575.289	539.94
575.501	536.94
575.712	518.94
575.923	525.94
576.134	515.94
576.345	498.94
576.556	514.94
576.767	526.94
576.978	512.94
577.188	510.94
577.399	512.94
577.61	505.94
577.821	525.94
578.032	488.94
578.243	479.94
578.454	479.94
578.665	491.94
578.875	478.94
579.086	484.94
579.297	479.94
579.508	474.94
579.718	461.94
579.929	491.94
580.14	457.94
580.35	463.94
580.561	474.94
580.772	457.94
580.982	458.94
581.193	448.94
581.403	468.94
581.614	467.94
581.825	472.94
582.035	464.94
582.246	478.94
582.456	455.94
582.667	464.94
582.877	443.94
583.087	447.94
583.298	443.94
583.508	461.94
583.719	444.94
583.929	443.94
584.139	448.94
584.35	453.94
584.56	434.94
584.77	450.94
584.981	430.94
585.191	438.94
585.401	434.94
585.611	432.94
585.821	440.94
586.032	450.94
586.242	452.94
586.452	425.94
586.662	428.94
586.872	444.94
587.082	436.94
587.292	456.94
587.502	427.94
587.713	440.94
587.923	433.94
588.133	434.94
588.343	416.94
588.553	419.94
588.762	446.94
588.972	450.94
589.182	435.94
589.392	444.94
589.602	429.94
589.812	442.94
590.022	425.94
590.232	444.94
590.441	439.94
590.651	434.94
590.861	439.94
591.071	439.94
591.281	443.94
591.49	455.94
591.7	467.94
591.91	459.94
592.119	463.94
592.329	482.94
592.539	504.94
592.748	502.94
592.958	505.94
593.167	515.94
593.377	542.94
593.587	553.94
593.796	527.94
594.006	578.94
594.215	545.94
594.424	542.94
594.634	544.94
594.843	549.94
595.053	518.94
595.262	490.94
595.472	477.94
595.681	467.94
595.89	473.94
596.1	443.94
596.309	428.94
596.518	414.94
596.727	407.94
596.937	408.94
597.146	411.94
597.355	424.94
597.564	416.94
597.774	399.94
597.983	376.94
598.192	379.94
598.401	382.94
598.61	384.94
598.819	361.94
599.028	370.94
599.237	382.94
599.446	383.94
599.655	374.94
599.864	355.94
600.073	360.94
600.282	372.94
600.491	345.94
600.7	347.94
600.909	377.94
601.118	356.94
601.327	374.94
601.536	351.94
601.745	360.94
601.953	361.94
602.162	373.94
602.371	355.94
602.58	370.94
602.789	368.94
602.997	343.94
603.206	352.94
603.415	348.94
603.623	335.94
603.832	350.94
604.041	334.94
604.249	339.94
604.458	364.94
604.666	344.94
604.875	347.94
605.084	319.94
605.292	336.94
605.501	341.94
605.709	352.94
605.918	349.94
606.126	356.94
606.334	336.94
606.543	350.94
606.751	333.94
606.96	342.94
607.168	342.94
607.376	330.94
607.585	331.94
607.793	323.94
608.001	326.94
608.21	351.94
608.418	326.94
608.626	344.94
608.834	331.94
609.043	331.94
609.251	323.94
609.459	316.94
609.667	321.94
609.875	320.94
610.083	322.94
610.291	319.94
610.499	318.94
610.707	323.94
610.916	328.94
611.124	313.94
611.332	326.94
611.54	315.94
611.748	320.94
611.955	301.94
612.163	295.94
612.371	320.94
612.579	323.94
612.787	315.94
612.995	315.94
613.203	322.94
613.411	315.94
613.618	326.94
613.826	312.94
614.034	315.94
614.242	310.94
614.449	308.94
614.657	314.94
614.865	328.94
615.072	316.94
615.28	313.94
615.488	313.94
615.695	311.94
615.903	308.94
616.111	312.94
616.318	315.94
616.526	306.94
616.733	328.94
616.941	310.94
617.148	300.94
617.356	304.94
617.563	307.94
617.771	306.94
617.978	324.94
618.185	312.94
618.393	307.94
618.6	300.94
618.807	299.94
619.015	286.94
619.222	319.94
619.429	293.94
619.637	291.94
619.844	287.94
620.051	296.94
620.258	291.94
620.466	292.94
620.673	304.94
620.88	280.94
621.087	296.94
621.294	289.94
621.501	288.94
621.708	290.94
621.915	287.94
622.122	296.94
622.329	297.94
622.536	296.94
622.743	280.94
622.95	312.94
623.157	280.94
623.364	286.94
623.571	271.94
623.778	295.94
623.985	271.94
624.192	280.94
624.399	290.94
624.606	296.94
624.812	278.94
625.019	272.94
625.226	277.94
625.433	251.94
625.639	270.94
625.846	278.94
626.053	280.94
626.259	281.94
626.466	264.94
626.673	280.94
626.879	257.94
627.086	260.94
627.293	260.94
627.499	283.94
627.706	259.94
627.912	262.94
628.119	260.94
628.325	257.94
628.532	245.94
628.738	257.94
628.945	273.94
629.151	240.94
629.357	253.94
629.564	250.94
629.77	268.94
629.976	251.94
630.183	238.94
630.389	261.94
630.595	260.94
630.802	248.94
631.008	241.94
631.214	253.94
631.42	251.94
631.627	263.94
631.833	260.94
632.039	252.94
632.245	250.94
632.451	253.94
632.657	244.94
632.863	248.94
633.069	249.94
633.275	217.94
633.481	239.94
633.688	220.94
633.893	238.94
634.099	250.94
634.305	233.94
634.511	217.94
634.717	229.94
634.923	233.94
635.129	216.94
635.335	219.94
635.541	238.94
635.747	221.94
635.952	217.94
636.158	228.94
636.364	214.94
636.57	224.94
636.775	223.94
636.981	205.94
637.187	233.94
637.392	217.94
637.598	217.94
637.804	233.94
638.009	205.94
638.215	216.94
638.421	219.94
638.626	222.94
638.832	216.94
639.037	207.94
639.243	209.94
639.448	210.94
639.654	213.94
639.859	205.94
640.065	214.94
640.27	202.94
640.475	218.94
640.681	216.94
640.886	209.94
641.091	211.94
641.297	224.94
641.502	198.94
641.707	208.94
641.913	215.94
642.118	212.94
642.323	217.94
642.528	197.94
642.733	190.94
642.939	206.94
643.144	222.94
643.349	182.94
643.554	200.94
643.759	212.94
643.964	203.94
644.169	214.94
644.374	195.94
644.579	207.94
644.784	217.94
644.989	195.94
645.194	202.94
645.399	199.94
645.604	219.94
645.809	208.94
646.014	190.94
646.219	195.94
646.423	196.94
646.628	205.94
646.833	178.94
647.038	203.94
647.243	202.94
647.447	198.94
647.652	215.94
647.857	215.94
648.062	212.94
648.266	208.94
648.471	210.94
648.676	184.94
648.88	214.94
649.085	207.94
649.289	214.94
649.494	199.94
649.698	197.94
649.903	186.94
650.107	199.94
650.312	190.94
650.516	186.94
650.721	192.94
650.925	184.94
651.13	170.94
651.334	180.94
651.539	190.94
651.743	171.94
651.947	171.94
652.152	162.94
652.356	161.94
652.56	180.94
652.764	168.94
652.969	176.94
653.173	163.94
653.377	182.94
653.581	159.94
653.785	175.94
653.99	164.94
654.194	150.94
654.398	140.94
654.602	156.94
654.806	162.94
655.01	165.94
655.214	145.94
655.418	148.94
655.622	153.94
655.826	143.94
656.03	142.94
656.234	127.94
656.438	143.94
656.642	147.94
656.846	145.94
657.049	135.94
657.253	132.94
657.457	130.94
657.661	137.94
657.865	147.94
658.068	118.94
658.272	115.94
658.476	148.94
658.68	107.94
658.883	124.94
659.087	110.94
659.291	113.94
659.494	120.94
659.698	114.94
659.901	114.94
660.105	105.94
660.309	105.94
660.512	115.94
660.716	95.94
660.919	102.94
661.123	93.94
661.326	92.94
661.53	90.94
661.733	101.94
661.936	95.94
662.14	98.94
662.343	94.94
662.546	72.94
662.75	91.94
662.953	96.94
663.156	96.94
663.36	99.94
663.563	97.94
663.766	80.94
663.969	89.94
664.173	93.94
664.376	73.94
664.579	79.94
664.782	76.94
664.985	87.94
665.188	89.94
665.391	84.94
665.594	85.94
665.797	87.94
666	84.94
666.203	84.94
666.406	78.94
666.609	87.94
666.812	89.94
667.015	76.94
667.218	77.94
667.421	79.94
667.624	85.94
667.827	80.94
668.03	80.94
668.232	85.94
668.435	85.94
668.638	79.94
668.841	87.94
669.043	81.94
669.246	76.94
669.449	81.94
669.651	79.94
669.854	70.94
670.057	76.94
670.259	76.94
670.462	84.94
670.665	89.94
670.867	79.94
671.07	89.94
671.272	86.94
671.475	96.94
671.677	80.94
671.88	80.94
672.082	91.94
672.284	90.94
672.487	89.94
672.689	80.94
672.892	83.94
