Data from Ni(NO3)2@0.5M.TitratingCurve.Agarose3%dH2O.NegLispCup.LampEnergy10.LIBS07252019_HRD10591_17-59-02-564.txt Node
Date: Thu Jul 25 17:59:02 EDT 2019
User: cochatt
Spectrometer: HR+D1059
Trigger mode: 1
Integration Time (sec): 1.000000E-1
Scans to average: 1
Electric dark correction enabled: true
Nonlinearity correction enabled: false
Boxcar width: 0
XAxis mode: Wavelengths
Number of Pixels in Spectrum: 2048
>>>>>Begin Spectral Data<<<<<
223.165	-9.19
223.4	-9.19
223.635	-9.19
223.869	-27.19
224.104	-17.19
224.338	-3.19
224.573	-21.19
224.808	-21.19
225.042	-23.19
225.277	-5.19
225.511	7.81
225.746	0.81
225.98	17.81
226.215	10.81
226.449	19.81
226.683	17.81
226.918	31.81
227.152	20.81
227.387	32.81
227.621	38.81
227.856	50.81
228.09	46.81
228.324	54.81
228.559	43.81
228.793	56.81
229.027	86.81
229.262	101.81
229.496	107.81
229.73	113.81
229.964	135.81
230.199	155.81
230.433	159.81
230.667	150.81
230.901	143.81
231.136	125.81
231.37	132.81
231.604	154.81
231.838	158.81
232.072	163.81
232.306	136.81
232.541	152.81
232.775	126.81
233.009	117.81
233.243	147.81
233.477	138.81
233.711	146.81
233.945	154.81
234.179	143.81
234.413	145.81
234.647	138.81
234.881	150.81
235.115	117.81
235.349	135.81
235.583	128.81
235.817	128.81
236.051	150.81
236.285	132.81
236.519	122.81
236.753	140.81
236.987	139.81
237.221	127.81
237.455	134.81
237.689	146.81
237.922	152.81
238.156	131.81
238.39	140.81
238.624	153.81
238.858	142.81
239.091	148.81
239.325	135.81
239.559	163.81
239.793	164.81
240.027	183.81
240.26	159.81
240.494	167.81
240.728	150.81
240.961	166.81
241.195	165.81
241.429	163.81
241.662	146.81
241.896	162.81
242.13	186.81
242.363	165.81
242.597	154.81
242.83	164.81
243.064	150.81
243.298	164.81
243.531	155.81
243.765	168.81
243.998	183.81
244.232	178.81
244.465	172.81
244.699	182.81
244.932	168.81
245.166	185.81
245.399	181.81
245.633	164.81
245.866	174.81
246.099	185.81
246.333	177.81
246.566	171.81
246.8	186.81
247.033	180.81
247.266	178.81
247.5	191.81
247.733	193.81
247.966	188.81
248.2	197.81
248.433	184.81
248.666	186.81
248.899	192.81
249.133	190.81
249.366	185.81
249.599	179.81
249.832	211.81
250.066	189.81
250.299	196.81
250.532	197.81
250.765	188.81
250.998	220.81
251.231	230.81
251.465	232.81
251.698	237.81
251.931	210.81
252.164	217.81
252.397	204.81
252.63	200.81
252.863	223.81
253.096	228.81
253.329	216.81
253.562	215.81
253.795	230.81
254.028	222.81
254.261	224.81
254.494	216.81
254.727	218.81
254.96	238.81
255.193	229.81
255.426	223.81
255.659	238.81
255.892	235.81
256.124	233.81
256.357	231.81
256.59	230.81
256.823	221.81
257.056	249.81
257.289	233.81
257.521	242.81
257.754	232.81
257.987	242.81
258.22	238.81
258.452	241.81
258.685	250.81
258.918	244.81
259.151	223.81
259.383	260.81
259.616	259.81
259.849	256.81
260.081	257.81
260.314	251.81
260.547	250.81
260.779	262.81
261.012	265.81
261.244	256.81
261.477	264.81
261.71	252.81
261.942	257.81
262.175	276.81
262.407	278.81
262.64	278.81
262.872	258.81
263.105	255.81
263.337	250.81
263.57	262.81
263.802	290.81
264.035	281.81
264.267	293.81
264.499	285.81
264.732	290.81
264.964	283.81
265.197	277.81
265.429	271.81
265.661	279.81
265.894	278.81
266.126	279.81
266.358	282.81
266.591	273.81
266.823	284.81
267.055	281.81
267.287	298.81
267.52	292.81
267.752	280.81
267.984	287.81
268.216	299.81
268.448	299.81
268.681	299.81
268.913	312.81
269.145	306.81
269.377	313.81
269.609	308.81
269.841	290.81
270.073	313.81
270.306	299.81
270.538	284.81
270.77	290.81
271.002	292.81
271.234	319.81
271.466	314.81
271.698	320.81
271.93	304.81
272.162	314.81
272.394	327.81
272.626	329.81
272.858	322.81
273.09	316.81
273.322	296.81
273.553	313.81
273.785	326.81
274.017	337.81
274.249	333.81
274.481	323.81
274.713	325.81
274.945	328.81
275.176	322.81
275.408	335.81
275.64	328.81
275.872	323.81
276.104	349.81
276.335	334.81
276.567	323.81
276.799	338.81
277.031	343.81
277.262	331.81
277.494	328.81
277.726	336.81
277.957	335.81
278.189	348.81
278.421	345.81
278.652	351.81
278.884	341.81
279.115	342.81
279.347	347.81
279.579	344.81
279.81	346.81
280.042	348.81
280.273	347.81
280.505	356.81
280.736	338.81
280.968	349.81
281.199	352.81
281.431	367.81
281.662	363.81
281.894	364.81
282.125	361.81
282.356	365.81
282.588	359.81
282.819	374.81
283.051	373.81
283.282	351.81
283.513	378.81
283.745	368.81
283.976	368.81
284.207	377.81
284.439	381.81
284.67	398.81
284.901	378.81
285.132	376.81
285.364	378.81
285.595	384.81
285.826	377.81
286.057	374.81
286.288	369.81
286.52	375.81
286.751	405.81
286.982	406.81
287.213	375.81
287.444	387.81
287.675	389.81
287.906	382.81
288.138	384.81
288.369	387.81
288.6	395.81
288.831	391.81
289.062	397.81
289.293	391.81
289.524	408.81
289.755	385.81
289.986	377.81
290.217	414.81
290.448	414.81
290.679	395.81
290.91	387.81
291.141	390.81
291.371	400.81
291.602	411.81
291.833	416.81
292.064	404.81
292.295	382.81
292.526	382.81
292.757	387.81
292.987	406.81
293.218	388.81
293.449	414.81
293.68	393.81
293.91	409.81
294.141	395.81
294.372	390.81
294.603	394.81
294.833	424.81
295.064	417.81
295.295	400.81
295.525	396.81
295.756	411.81
295.987	399.81
296.217	414.81
296.448	431.81
296.679	407.81
296.909	417.81
297.14	414.81
297.37	433.81
297.601	433.81
297.831	435.81
298.062	417.81
298.292	423.81
298.523	447.81
298.753	439.81
298.984	435.81
299.214	436.81
299.445	415.81
299.675	442.81
299.905	438.81
300.136	448.81
300.366	463.81
300.597	458.81
300.827	454.81
301.057	459.81
301.288	459.81
301.518	455.81
301.748	452.81
301.979	457.81
302.209	447.81
302.439	465.81
302.669	474.81
302.9	444.81
303.13	447.81
303.36	459.81
303.59	458.81
303.82	450.81
304.051	456.81
304.281	457.81
304.511	467.81
304.741	455.81
304.971	474.81
305.201	453.81
305.431	489.81
305.661	470.81
305.891	483.81
306.121	480.81
306.352	476.81
306.582	468.81
306.812	446.81
307.042	445.81
307.272	450.81
307.502	460.81
307.731	473.81
307.961	472.81
308.191	470.81
308.421	458.81
308.651	445.81
308.881	454.81
309.111	465.81
309.341	447.81
309.571	462.81
309.8	476.81
310.03	488.81
310.26	498.81
310.49	498.81
310.72	498.81
310.949	489.81
311.179	467.81
311.409	479.81
311.639	491.81
311.868	486.81
312.098	472.81
312.328	464.81
312.557	476.81
312.787	478.81
313.017	492.81
313.246	497.81
313.476	504.81
313.706	508.81
313.935	483.81
314.165	510.81
314.394	487.81
314.624	517.81
314.853	479.81
315.083	482.81
315.312	503.81
315.542	508.81
315.771	491.81
316.001	496.81
316.23	502.81
316.46	518.81
316.689	514.81
316.919	503.81
317.148	508.81
317.377	503.81
317.607	510.81
317.836	489.81
318.065	513.81
318.295	515.81
318.524	513.81
318.753	507.81
318.983	504.81
319.212	504.81
319.441	524.81
319.67	500.81
319.9	513.81
320.129	522.81
320.358	502.81
320.587	510.81
320.816	514.81
321.046	538.81
321.275	515.81
321.504	519.81
321.733	518.81
321.962	518.81
322.191	527.81
322.42	546.81
322.649	543.81
322.878	521.81
323.108	536.81
323.337	540.81
323.566	529.81
323.795	523.81
324.024	529.81
324.253	521.81
324.482	552.81
324.71	526.81
324.939	548.81
325.168	551.81
325.397	550.81
325.626	549.81
325.855	556.81
326.084	566.81
326.313	570.81
326.542	584.81
326.77	585.81
326.999	564.81
327.228	544.81
327.457	559.81
327.686	584.81
327.914	584.81
328.143	560.81
328.372	564.81
328.6	574.81
328.829	591.81
329.058	573.81
329.287	574.81
329.515	558.81
329.744	570.81
329.972	541.81
330.201	574.81
330.43	569.81
330.658	580.81
330.887	576.81
331.115	576.81
331.344	584.81
331.572	598.81
331.801	598.81
332.03	592.81
332.258	599.81
332.486	609.81
332.715	626.81
332.943	623.81
333.172	634.81
333.4	650.81
333.629	631.81
333.857	655.81
334.085	658.81
334.314	655.81
334.542	657.81
334.771	656.81
334.999	681.81
335.227	677.81
335.455	670.81
335.684	673.81
335.912	650.81
336.14	641.81
336.369	682.81
336.597	677.81
336.825	687.81
337.053	662.81
337.281	682.81
337.51	682.81
337.738	634.81
337.966	661.81
338.194	673.81
338.422	653.81
338.65	639.81
338.878	647.81
339.106	647.81
339.334	670.81
339.562	613.81
339.79	620.81
340.018	624.81
340.246	599.81
340.474	627.81
340.702	615.81
340.93	642.81
341.158	634.81
341.386	666.81
341.614	677.81
341.842	656.81
342.07	639.81
342.298	636.81
342.526	609.81
342.754	615.81
342.981	638.81
343.209	626.81
343.437	632.81
343.665	660.81
343.893	638.81
344.12	658.81
344.348	668.81
344.576	648.81
344.804	682.81
345.031	633.81
345.259	629.81
345.487	629.81
345.714	634.81
345.942	651.81
346.17	665.81
346.397	629.81
346.625	604.81
346.853	627.81
347.08	622.81
347.308	611.81
347.535	607.81
347.763	579.81
347.99	613.81
348.218	584.81
348.445	598.81
348.673	597.81
348.9	603.81
349.128	613.81
349.355	606.81
349.583	634.81
349.81	615.81
350.037	581.81
350.265	585.81
350.492	577.81
350.72	567.81
350.947	600.81
351.174	594.81
351.402	633.81
351.629	632.81
351.856	620.81
352.083	582.81
352.311	623.81
352.538	636.81
352.765	625.81
352.992	585.81
353.22	582.81
353.447	566.81
353.674	582.81
353.901	580.81
354.128	592.81
354.355	571.81
354.583	555.81
354.81	576.81
355.037	563.81
355.264	574.81
355.491	564.81
355.718	578.81
355.945	585.81
356.172	581.81
356.399	585.81
356.626	587.81
356.853	593.81
357.08	615.81
357.307	577.81
357.534	579.81
357.761	599.81
357.988	586.81
358.215	570.81
358.441	574.81
358.668	571.81
358.895	583.81
359.122	588.81
359.349	582.81
359.576	568.81
359.802	599.81
360.029	587.81
360.256	578.81
360.483	584.81
360.709	565.81
360.936	600.81
361.163	595.81
361.39	598.81
361.616	590.81
361.843	606.81
362.07	636.81
362.296	615.81
362.523	566.81
362.749	586.81
362.976	569.81
363.203	595.81
363.429	572.81
363.656	606.81
363.882	570.81
364.109	557.81
364.335	569.81
364.562	549.81
364.788	579.81
365.015	589.81
365.241	586.81
365.468	582.81
365.694	569.81
365.92	588.81
366.147	599.81
366.373	582.81
366.599	592.81
366.826	570.81
367.052	586.81
367.278	603.81
367.505	594.81
367.731	601.81
367.957	599.81
368.184	582.81
368.41	602.81
368.636	589.81
368.862	618.81
369.089	626.81
369.315	593.81
369.541	587.81
369.767	597.81
369.993	583.81
370.219	593.81
370.445	611.81
370.672	617.81
370.898	619.81
371.124	633.81
371.35	620.81
371.576	626.81
371.802	644.81
372.028	631.81
372.254	628.81
372.48	631.81
372.706	627.81
372.932	645.81
373.158	646.81
373.384	616.81
373.61	597.81
373.835	642.81
374.061	603.81
374.287	618.81
374.513	650.81
374.739	642.81
374.965	681.81
375.191	643.81
375.416	665.81
375.642	623.81
375.868	645.81
376.094	608.81
376.319	631.81
376.545	622.81
376.771	613.81
376.997	622.81
377.222	635.81
377.448	600.81
377.674	598.81
377.899	630.81
378.125	629.81
378.35	601.81
378.576	596.81
378.802	615.81
379.027	614.81
379.253	616.81
379.478	605.81
379.704	593.81
379.929	618.81
380.155	587.81
380.38	597.81
380.606	625.81
380.831	603.81
381.057	619.81
381.282	609.81
381.507	607.81
381.733	611.81
381.958	626.81
382.184	620.81
382.409	634.81
382.634	626.81
382.86	615.81
383.085	648.81
383.31	655.81
383.535	643.81
383.761	658.81
383.986	649.81
384.211	649.81
384.436	670.81
384.662	668.81
384.887	687.81
385.112	675.81
385.337	684.81
385.562	669.81
385.787	691.81
386.013	717.81
386.238	728.81
386.463	700.81
386.688	708.81
386.913	694.81
387.138	686.81
387.363	696.81
387.588	709.81
387.813	702.81
388.038	727.81
388.263	715.81
388.488	693.81
388.713	705.81
388.938	688.81
389.163	688.81
389.387	704.81
389.612	710.81
389.837	683.81
390.062	704.81
390.287	693.81
390.512	708.81
390.736	722.81
390.961	721.81
391.186	745.81
391.411	737.81
391.636	725.81
391.86	732.81
392.085	741.81
392.31	720.81
392.534	745.81
392.759	758.81
392.984	738.81
393.208	764.81
393.433	700.81
393.658	729.81
393.882	753.81
394.107	734.81
394.331	706.81
394.556	719.81
394.78	736.81
395.005	746.81
395.229	737.81
395.454	731.81
395.678	758.81
395.903	744.81
396.127	746.81
396.352	764.81
396.576	761.81
396.801	747.81
397.025	755.81
397.249	776.81
397.474	796.81
397.698	772.81
397.922	767.81
398.147	784.81
398.371	793.81
398.595	784.81
398.82	801.81
399.044	869.81
399.268	883.81
399.492	932.81
399.717	967.81
399.941	952.81
400.165	938.81
400.389	904.81
400.613	884.81
400.837	889.81
401.062	856.81
401.286	841.81
401.51	835.81
401.734	843.81
401.958	814.81
402.182	824.81
402.406	834.81
402.63	806.81
402.854	835.81
403.078	829.81
403.302	841.81
403.526	844.81
403.75	869.81
403.974	881.81
404.198	856.81
404.422	871.81
404.645	850.81
404.869	848.81
405.093	873.81
405.317	878.81
405.541	886.81
405.765	879.81
405.988	883.81
406.212	869.81
406.436	865.81
406.66	901.81
406.883	891.81
407.107	934.81
407.331	958.81
407.555	976.81
407.778	986.81
408.002	973.81
408.226	956.81
408.449	949.81
408.673	952.81
408.896	900.81
409.12	901.81
409.344	928.81
409.567	879.81
409.791	894.81
410.014	910.81
410.238	897.81
410.461	898.81
410.685	879.81
410.908	906.81
411.132	885.81
411.355	874.81
411.578	859.81
411.802	884.81
412.025	858.81
412.249	881.81
412.472	876.81
412.695	867.81
412.919	887.81
413.142	870.81
413.365	853.81
413.589	876.81
413.812	834.81
414.035	832.81
414.258	865.81
414.482	832.81
414.705	876.81
414.928	842.81
415.151	813.81
415.374	848.81
415.597	832.81
415.821	836.81
416.044	822.81
416.267	806.81
416.49	817.81
416.713	794.81
416.936	819.81
417.159	814.81
417.382	791.81
417.605	789.81
417.828	800.81
418.051	806.81
418.274	820.81
418.497	810.81
418.72	826.81
418.943	815.81
419.166	878.81
419.389	914.81
419.611	904.81
419.834	853.81
420.057	834.81
420.28	827.81
420.503	786.81
420.726	796.81
420.948	787.81
421.171	803.81
421.394	815.81
421.617	805.81
421.839	810.81
422.062	798.81
422.285	815.81
422.507	808.81
422.73	788.81
422.953	815.81
423.175	799.81
423.398	800.81
423.621	825.81
423.843	820.81
424.066	808.81
424.288	814.81
424.511	817.81
424.733	810.81
424.956	818.81
425.178	823.81
425.401	821.81
425.623	814.81
425.846	800.81
426.068	799.81
426.291	780.81
426.513	775.81
426.735	781.81
426.958	809.81
427.18	743.81
427.402	784.81
427.625	802.81
427.847	770.81
428.069	769.81
428.292	791.81
428.514	778.81
428.736	760.81
428.958	784.81
429.181	769.81
429.403	774.81
429.625	779.81
429.847	776.81
430.069	770.81
430.292	774.81
430.514	754.81
430.736	785.81
430.958	774.81
431.18	752.81
431.402	795.81
431.624	794.81
431.846	781.81
432.068	782.81
432.29	781.81
432.512	796.81
432.734	798.81
432.956	778.81
433.178	811.81
433.4	798.81
433.622	828.81
433.844	832.81
434.066	808.81
434.287	817.81
434.509	808.81
434.731	822.81
434.953	830.81
435.175	836.81
435.397	866.81
435.618	821.81
435.84	815.81
436.062	791.81
436.284	764.81
436.505	790.81
436.727	787.81
436.949	785.81
437.17	811.81
437.392	821.81
437.614	773.81
437.835	750.81
438.057	756.81
438.278	747.81
438.5	766.81
438.721	768.81
438.943	782.81
439.165	764.81
439.386	778.81
439.608	776.81
439.829	802.81
440.05	796.81
440.272	765.81
440.493	794.81
440.715	794.81
440.936	811.81
441.158	820.81
441.379	789.81
441.6	832.81
441.822	859.81
442.043	811.81
442.264	826.81
442.486	798.81
442.707	795.81
442.928	814.81
443.149	824.81
443.371	856.81
443.592	882.81
443.813	883.81
444.034	856.81
444.255	835.81
444.476	870.81
444.698	894.81
444.919	883.81
445.14	937.81
445.361	918.81
445.582	848.81
445.803	828.81
446.024	816.81
446.245	792.81
446.466	796.81
446.687	785.81
446.908	787.81
447.129	754.81
447.35	762.81
447.571	783.81
447.792	735.81
448.013	729.81
448.234	734.81
448.455	743.81
448.675	742.81
448.896	735.81
449.117	716.81
449.338	729.81
449.559	734.81
449.779	718.81
450	709.81
450.221	740.81
450.442	708.81
450.662	719.81
450.883	710.81
451.104	754.81
451.324	739.81
451.545	753.81
451.766	731.81
451.986	701.81
452.207	694.81
452.428	682.81
452.648	718.81
452.869	695.81
453.089	697.81
453.31	688.81
453.53	715.81
453.751	710.81
453.971	696.81
454.192	702.81
454.412	718.81
454.633	703.81
454.853	710.81
455.073	689.81
455.294	689.81
455.514	700.81
455.734	711.81
455.955	711.81
456.175	739.81
456.395	680.81
456.616	695.81
456.836	678.81
457.056	678.81
457.276	675.81
457.497	680.81
457.717	723.81
457.937	740.81
458.157	720.81
458.377	711.81
458.598	714.81
458.818	736.81
459.038	748.81
459.258	751.81
459.478	812.81
459.698	859.81
459.918	857.81
460.138	833.81
460.358	840.81
460.578	845.81
460.798	892.81
461.018	890.81
461.238	844.81
461.458	818.81
461.678	839.81
461.898	857.81
462.118	864.81
462.338	859.81
462.558	912.81
462.777	923.81
462.997	972.81
463.217	965.81
463.437	991.81
463.657	985.81
463.876	977.81
464.096	958.81
464.316	927.81
464.536	946.81
464.755	907.81
464.975	871.81
465.195	881.81
465.414	870.81
465.634	803.81
465.854	807.81
466.073	778.81
466.293	795.81
466.512	789.81
466.732	756.81
466.951	753.81
467.171	744.81
467.391	776.81
467.61	750.81
467.829	731.81
468.049	736.81
468.268	750.81
468.488	752.81
468.707	730.81
468.927	771.81
469.146	755.81
469.365	780.81
469.585	747.81
469.804	745.81
470.023	750.81
470.243	755.81
470.462	780.81
470.681	784.81
470.901	745.81
471.12	772.81
471.339	751.81
471.558	746.81
471.777	754.81
471.997	748.81
472.216	758.81
472.435	748.81
472.654	723.81
472.873	736.81
473.092	746.81
473.311	735.81
473.53	734.81
473.749	751.81
473.968	754.81
474.187	716.81
474.406	738.81
474.625	743.81
474.844	736.81
475.063	731.81
475.282	759.81
475.501	785.81
475.72	764.81
475.939	761.81
476.158	787.81
476.377	790.81
476.596	784.81
476.814	777.81
477.033	777.81
477.252	788.81
477.471	823.81
477.69	832.81
477.908	842.81
478.127	863.81
478.346	843.81
478.564	884.81
478.783	862.81
479.002	878.81
479.22	907.81
479.439	890.81
479.658	848.81
479.876	858.81
480.095	850.81
480.313	867.81
480.532	901.81
480.751	878.81
480.969	840.81
481.188	858.81
481.406	841.81
481.624	864.81
481.843	836.81
482.061	856.81
482.28	843.81
482.498	826.81
482.717	821.81
482.935	850.81
483.153	863.81
483.372	881.81
483.59	924.81
483.808	907.81
484.027	879.81
484.245	893.81
484.463	882.81
484.681	892.81
484.9	897.81
485.118	883.81
485.336	851.81
485.554	893.81
485.772	843.81
485.99	856.81
486.209	864.81
486.427	875.81
486.645	856.81
486.863	871.81
487.081	907.81
487.299	902.81
487.517	878.81
487.735	919.81
487.953	914.81
488.171	909.81
488.389	904.81
488.607	874.81
488.825	870.81
489.043	899.81
489.261	888.81
489.479	895.81
489.696	889.81
489.914	880.81
490.132	890.81
490.35	890.81
490.568	907.81
490.786	902.81
491.003	894.81
491.221	930.81
491.439	914.81
491.657	905.81
491.874	922.81
492.092	940.81
492.31	960.81
492.527	936.81
492.745	947.81
492.963	922.81
493.18	939.81
493.398	923.81
493.615	938.81
493.833	952.81
494.05	925.81
494.268	944.81
494.485	909.81
494.703	936.81
494.92	929.81
495.138	948.81
495.355	961.81
495.573	954.81
495.79	988.81
496.008	958.81
496.225	949.81
496.442	967.81
496.66	977.81
496.877	975.81
497.094	1022.81
497.312	1007.81
497.529	1016.81
497.746	1043.81
497.963	1064.81
498.181	1074.81
498.398	1132.81
498.615	1147.81
498.832	1170.81
499.049	1230.81
499.267	1290.81
499.484	1334.81
499.701	1410.81
499.918	1474.81
500.135	1532.81
500.352	1621.81
500.569	1625.81
500.786	1629.81
501.003	1559.81
501.22	1527.81
501.437	1431.81
501.654	1364.81
501.871	1304.81
502.088	1287.81
502.305	1238.81
502.522	1206.81
502.739	1169.81
502.956	1098.81
503.172	1099.81
503.389	1029.81
503.606	1050.81
503.823	973.81
504.04	996.81
504.256	987.81
504.473	981.81
504.69	949.81
504.907	948.81
505.123	956.81
505.34	920.81
505.557	918.81
505.773	880.81
505.99	892.81
506.207	851.81
506.423	857.81
506.64	870.81
506.856	847.81
507.073	838.81
507.289	866.81
507.506	839.81
507.722	845.81
507.939	821.81
508.155	802.81
508.372	814.81
508.588	794.81
508.805	792.81
509.021	796.81
509.238	770.81
509.454	774.81
509.67	781.81
509.887	787.81
510.103	753.81
510.319	743.81
510.536	758.81
510.752	744.81
510.968	739.81
511.184	768.81
511.401	754.81
511.617	740.81
511.833	728.81
512.049	748.81
512.265	736.81
512.481	752.81
512.698	722.81
512.914	766.81
513.13	746.81
513.346	745.81
513.562	744.81
513.778	752.81
513.994	731.81
514.21	747.81
514.426	747.81
514.642	735.81
514.858	779.81
515.074	745.81
515.29	743.81
515.506	747.81
515.721	798.81
515.937	780.81
516.153	784.81
516.369	774.81
516.585	806.81
516.801	808.81
517.016	826.81
517.232	820.81
517.448	833.81
517.664	859.81
517.879	865.81
518.095	836.81
518.311	826.81
518.527	834.81
518.742	831.81
518.958	789.81
519.173	815.81
519.389	794.81
519.605	779.81
519.82	772.81
520.036	759.81
520.251	729.81
520.467	750.81
520.682	736.81
520.898	720.81
521.113	749.81
521.329	703.81
521.544	715.81
521.76	713.81
521.975	706.81
522.19	705.81
522.406	726.81
522.621	710.81
522.836	672.81
523.052	696.81
523.267	706.81
523.482	685.81
523.698	678.81
523.913	707.81
524.128	684.81
524.343	709.81
524.559	666.81
524.774	681.81
524.989	697.81
525.204	671.81
525.419	699.81
525.634	665.81
525.849	674.81
526.064	672.81
526.28	660.81
526.495	650.81
526.71	666.81
526.925	676.81
527.14	658.81
527.355	658.81
527.57	655.81
527.785	656.81
527.999	643.81
528.214	644.81
528.429	644.81
528.644	650.81
528.859	675.81
529.074	628.81
529.289	691.81
529.503	660.81
529.718	644.81
529.933	634.81
530.148	643.81
530.363	658.81
530.577	655.81
530.792	656.81
531.007	656.81
531.221	635.81
531.436	608.81
531.651	640.81
531.865	648.81
532.08	628.81
532.295	636.81
532.509	630.81
532.724	636.81
532.938	633.81
533.153	628.81
533.367	642.81
533.582	632.81
533.796	636.81
534.011	642.81
534.225	619.81
534.44	612.81
534.654	633.81
534.868	633.81
535.083	645.81
535.297	613.81
535.511	611.81
535.726	623.81
535.94	632.81
536.154	631.81
536.369	613.81
536.583	611.81
536.797	600.81
537.011	617.81
537.225	615.81
537.44	614.81
537.654	584.81
537.868	585.81
538.082	608.81
538.296	604.81
538.51	591.81
538.724	602.81
538.938	618.81
539.153	618.81
539.367	599.81
539.581	567.81
539.795	594.81
540.009	580.81
540.222	589.81
540.436	587.81
540.65	595.81
540.864	600.81
541.078	597.81
541.292	587.81
541.506	610.81
541.72	585.81
541.934	600.81
542.147	602.81
542.361	620.81
542.575	589.81
542.789	591.81
543.002	582.81
543.216	570.81
543.43	585.81
543.644	576.81
543.857	578.81
544.071	587.81
544.285	584.81
544.498	616.81
544.712	602.81
544.925	602.81
545.139	593.81
545.352	587.81
545.566	567.81
545.779	602.81
545.993	608.81
546.206	594.81
546.42	614.81
546.633	586.81
546.847	572.81
547.06	613.81
547.274	615.81
547.487	610.81
547.7	609.81
547.914	611.81
548.127	598.81
548.34	604.81
548.554	579.81
548.767	594.81
548.98	561.81
549.193	590.81
549.407	559.81
549.62	576.81
549.833	589.81
550.046	592.81
550.259	585.81
550.473	584.81
550.686	595.81
550.899	582.81
551.112	577.81
551.325	593.81
551.538	592.81
551.751	587.81
551.964	604.81
552.177	572.81
552.39	582.81
552.603	595.81
552.816	602.81
553.029	596.81
553.242	582.81
553.455	593.81
553.667	628.81
553.88	608.81
554.093	575.81
554.306	547.81
554.519	580.81
554.732	561.81
554.944	570.81
555.157	539.81
555.37	524.81
555.583	547.81
555.795	538.81
556.008	542.81
556.221	524.81
556.433	527.81
556.646	539.81
556.859	511.81
557.071	516.81
557.284	526.81
557.496	520.81
557.709	511.81
557.921	535.81
558.134	520.81
558.346	505.81
558.559	505.81
558.771	501.81
558.984	504.81
559.196	513.81
559.409	518.81
559.621	500.81
559.833	517.81
560.046	500.81
560.258	496.81
560.47	509.81
560.683	511.81
560.895	507.81
561.107	487.81
561.32	497.81
561.532	480.81
561.744	516.81
561.956	510.81
562.168	511.81
562.381	512.81
562.593	498.81
562.805	496.81
563.017	492.81
563.229	510.81
563.441	480.81
563.653	506.81
563.865	497.81
564.077	521.81
564.289	492.81
564.501	500.81
564.713	492.81
564.925	536.81
565.137	540.81
565.349	546.81
565.561	529.81
565.773	540.81
565.985	561.81
566.197	554.81
566.408	584.81
566.62	597.81
566.832	616.81
567.044	598.81
567.255	627.81
567.467	618.81
567.679	631.81
567.891	626.81
568.102	644.81
568.314	600.81
568.526	598.81
568.737	586.81
568.949	564.81
569.161	552.81
569.372	537.81
569.584	524.81
569.795	514.81
570.007	495.81
570.218	486.81
570.43	483.81
570.641	476.81
570.853	480.81
571.064	478.81
571.276	471.81
571.487	436.81
571.698	444.81
571.91	448.81
572.121	459.81
572.333	439.81
572.544	422.81
572.755	405.81
572.966	415.81
573.178	439.81
573.389	407.81
573.6	399.81
573.811	416.81
574.023	410.81
574.234	394.81
574.445	403.81
574.656	386.81
574.867	408.81
575.078	417.81
575.289	399.81
575.501	423.81
575.712	386.81
575.923	374.81
576.134	384.81
576.345	382.81
576.556	378.81
576.767	384.81
576.978	386.81
577.188	378.81
577.399	362.81
577.61	400.81
577.821	378.81
578.032	371.81
578.243	347.81
578.454	390.81
578.665	380.81
578.875	369.81
579.086	377.81
579.297	351.81
579.508	352.81
579.718	351.81
579.929	352.81
580.14	370.81
580.35	361.81
580.561	360.81
580.772	363.81
580.982	356.81
581.193	362.81
581.403	372.81
581.614	377.81
581.825	339.81
582.035	360.81
582.246	354.81
582.456	363.81
582.667	365.81
582.877	340.81
583.087	345.81
583.298	325.81
583.508	346.81
583.719	342.81
583.929	326.81
584.139	343.81
584.35	348.81
584.56	346.81
584.77	348.81
584.981	339.81
585.191	338.81
585.401	338.81
585.611	335.81
585.821	339.81
586.032	353.81
586.242	325.81
586.452	328.81
586.662	350.81
586.872	335.81
587.082	330.81
587.292	323.81
587.502	328.81
587.713	341.81
587.923	337.81
588.133	336.81
588.343	335.81
588.553	328.81
588.762	327.81
588.972	337.81
589.182	340.81
589.392	339.81
589.602	338.81
589.812	357.81
590.022	355.81
590.232	320.81
590.441	324.81
590.651	336.81
590.861	294.81
591.071	323.81
591.281	339.81
591.49	345.81
591.7	339.81
591.91	351.81
592.119	329.81
592.329	332.81
592.539	349.81
592.748	338.81
592.958	343.81
593.167	349.81
593.377	343.81
593.587	373.81
593.796	349.81
594.006	350.81
594.215	344.81
594.424	355.81
594.634	366.81
594.843	338.81
595.053	342.81
595.262	338.81
595.472	344.81
595.681	328.81
595.89	330.81
596.1	335.81
596.309	317.81
596.518	314.81
596.727	315.81
596.937	296.81
597.146	307.81
597.355	316.81
597.564	302.81
597.774	295.81
597.983	305.81
598.192	299.81
598.401	305.81
598.61	286.81
598.819	294.81
599.028	300.81
599.237	285.81
599.446	273.81
599.655	282.81
599.864	270.81
600.073	287.81
600.282	290.81
600.491	289.81
600.7	283.81
600.909	276.81
601.118	266.81
601.327	270.81
601.536	278.81
601.745	281.81
601.953	256.81
602.162	266.81
602.371	270.81
602.58	275.81
602.789	270.81
602.997	277.81
603.206	285.81
603.415	258.81
603.623	273.81
603.832	245.81
604.041	229.81
604.249	264.81
604.458	275.81
604.666	257.81
604.875	259.81
605.084	266.81
605.292	246.81
605.501	277.81
605.709	271.81
605.918	249.81
606.126	264.81
606.334	256.81
606.543	272.81
606.751	256.81
606.96	266.81
607.168	265.81
607.376	262.81
607.585	267.81
607.793	246.81
608.001	246.81
608.21	252.81
608.418	244.81
608.626	259.81
608.834	262.81
609.043	249.81
609.251	270.81
609.459	249.81
609.667	251.81
609.875	252.81
610.083	260.81
610.291	240.81
610.499	250.81
610.707	256.81
610.916	244.81
611.124	241.81
611.332	262.81
611.54	255.81
611.748	259.81
611.955	257.81
612.163	240.81
612.371	241.81
612.579	243.81
612.787	220.81
612.995	258.81
613.203	249.81
613.411	238.81
613.618	254.81
613.826	243.81
614.034	248.81
614.242	266.81
614.449	236.81
614.657	234.81
614.865	246.81
615.072	260.81
615.28	248.81
615.488	235.81
615.695	245.81
615.903	221.81
616.111	236.81
616.318	238.81
616.526	245.81
616.733	256.81
616.941	256.81
617.148	243.81
617.356	236.81
617.563	231.81
617.771	231.81
617.978	218.81
618.185	242.81
618.393	259.81
618.6	241.81
618.807	228.81
619.015	219.81
619.222	230.81
619.429	240.81
619.637	241.81
619.844	242.81
620.051	214.81
620.258	224.81
620.466	223.81
620.673	239.81
620.88	218.81
621.087	228.81
621.294	230.81
621.501	232.81
621.708	214.81
621.915	241.81
622.122	240.81
622.329	220.81
622.536	230.81
622.743	227.81
622.95	220.81
623.157	260.81
623.364	231.81
623.571	222.81
623.778	235.81
623.985	234.81
624.192	211.81
624.399	224.81
624.606	236.81
624.812	227.81
625.019	241.81
625.226	218.81
625.433	210.81
625.639	226.81
625.846	206.81
626.053	208.81
626.259	213.81
626.466	222.81
626.673	216.81
626.879	217.81
627.086	225.81
627.293	197.81
627.499	212.81
627.706	228.81
627.912	204.81
628.119	204.81
628.325	201.81
628.532	210.81
628.738	203.81
628.945	207.81
629.151	199.81
629.357	204.81
629.564	218.81
629.77	211.81
629.976	208.81
630.183	216.81
630.389	195.81
630.595	192.81
630.802	212.81
631.008	190.81
631.214	199.81
631.42	205.81
631.627	207.81
631.833	204.81
632.039	196.81
632.245	203.81
632.451	194.81
632.657	190.81
632.863	209.81
633.069	202.81
633.275	201.81
633.481	199.81
633.688	194.81
633.893	186.81
634.099	196.81
634.305	203.81
634.511	200.81
634.717	202.81
634.923	196.81
635.129	207.81
635.335	199.81
635.541	193.81
635.747	213.81
635.952	195.81
636.158	200.81
636.364	204.81
636.57	188.81
636.775	184.81
636.981	185.81
637.187	192.81
637.392	178.81
637.598	188.81
637.804	190.81
638.009	199.81
638.215	203.81
638.421	204.81
638.626	188.81
638.832	183.81
639.037	195.81
639.243	192.81
639.448	211.81
639.654	203.81
639.859	186.81
640.065	184.81
640.27	177.81
640.475	176.81
640.681	190.81
640.886	187.81
641.091	195.81
641.297	179.81
641.502	188.81
641.707	184.81
641.913	185.81
642.118	180.81
642.323	195.81
642.528	190.81
642.733	188.81
642.939	199.81
643.144	183.81
643.349	190.81
643.554	186.81
643.759	189.81
643.964	186.81
644.169	191.81
644.374	196.81
644.579	192.81
644.784	177.81
644.989	185.81
645.194	200.81
645.399	179.81
645.604	190.81
645.809	187.81
646.014	194.81
646.219	188.81
646.423	183.81
646.628	192.81
646.833	180.81
647.038	193.81
647.243	191.81
647.447	191.81
647.652	178.81
647.857	181.81
648.062	199.81
648.266	191.81
648.471	195.81
648.676	197.81
648.88	205.81
649.085	209.81
649.289	196.81
649.494	182.81
649.698	207.81
649.903	180.81
650.107	172.81
650.312	191.81
650.516	188.81
650.721	190.81
650.925	186.81
651.13	200.81
651.334	178.81
651.539	178.81
651.743	172.81
651.947	177.81
652.152	170.81
652.356	174.81
652.56	170.81
652.764	161.81
652.969	156.81
653.173	179.81
653.377	167.81
653.581	182.81
653.785	180.81
653.99	158.81
654.194	171.81
654.398	164.81
654.602	171.81
654.806	167.81
655.01	174.81
655.214	176.81
655.418	167.81
655.622	171.81
655.826	181.81
656.03	180.81
656.234	162.81
656.438	159.81
656.642	162.81
656.846	169.81
657.049	158.81
657.253	143.81
657.457	154.81
657.661	147.81
657.865	138.81
658.068	146.81
658.272	120.81
658.476	136.81
658.68	128.81
658.883	115.81
659.087	105.81
659.291	120.81
659.494	116.81
659.698	111.81
659.901	118.81
660.105	108.81
660.309	98.81
660.512	105.81
660.716	98.81
660.919	103.81
661.123	107.81
661.326	91.81
661.53	93.81
661.733	82.81
661.936	86.81
662.14	89.81
662.343	82.81
662.546	97.81
662.75	82.81
662.953	90.81
663.156	88.81
663.36	86.81
663.563	69.81
663.766	90.81
663.969	85.81
664.173	69.81
664.376	78.81
664.579	70.81
664.782	66.81
664.985	70.81
665.188	99.81
665.391	83.81
665.594	68.81
665.797	73.81
666	74.81
666.203	68.81
666.406	68.81
666.609	62.81
666.812	75.81
667.015	75.81
667.218	74.81
667.421	80.81
667.624	69.81
667.827	76.81
668.03	82.81
668.232	78.81
668.435	88.81
668.638	85.81
668.841	76.81
669.043	86.81
669.246	83.81
669.449	81.81
669.651	83.81
669.854	72.81
670.057	72.81
670.259	92.81
670.462	86.81
670.665	84.81
670.867	76.81
671.07	85.81
671.272	75.81
671.475	76.81
671.677	90.81
671.88	82.81
672.082	90.81
672.284	67.81
672.487	87.81
672.689	80.81
672.892	85.81
