Data from Ni(NO3)2@0.25M.TitratingCurve.Agarose3%dH2O.NegLispCup.LampEnergy10.LIBS07252019_HRD10591_18-03-07-565.txt Node
Date: Thu Jul 25 18:03:07 EDT 2019
User: cochatt
Spectrometer: HR+D1059
Trigger mode: 1
Integration Time (sec): 1.000000E-1
Scans to average: 1
Electric dark correction enabled: true
Nonlinearity correction enabled: false
Boxcar width: 0
XAxis mode: Wavelengths
Number of Pixels in Spectrum: 2048
>>>>>Begin Spectral Data<<<<<
223.165	-25.38
223.4	-25.38
223.635	-25.38
223.869	-15.38
224.104	-27.38
224.338	-16.38
224.573	-3.38
224.808	-17.38
225.042	-0.38
225.277	2.62
225.511	1.62
225.746	2.62
225.98	-5.38
226.215	12.62
226.449	18.62
226.683	19.62
226.918	28.62
227.152	24.62
227.387	41.62
227.621	43.62
227.856	44.62
228.09	53.62
228.324	47.62
228.559	45.62
228.793	66.62
229.027	70.62
229.262	88.62
229.496	83.62
229.73	102.62
229.964	82.62
230.199	86.62
230.433	86.62
230.667	97.62
230.901	92.62
231.136	94.62
231.37	94.62
231.604	103.62
231.838	90.62
232.072	104.62
232.306	111.62
232.541	90.62
232.775	111.62
233.009	91.62
233.243	95.62
233.477	94.62
233.711	98.62
233.945	88.62
234.179	104.62
234.413	86.62
234.647	88.62
234.881	102.62
235.115	102.62
235.349	96.62
235.583	78.62
235.817	82.62
236.051	98.62
236.285	95.62
236.519	111.62
236.753	101.62
236.987	93.62
237.221	85.62
237.455	96.62
237.689	93.62
237.922	88.62
238.156	96.62
238.39	87.62
238.624	94.62
238.858	91.62
239.091	86.62
239.325	95.62
239.559	97.62
239.793	91.62
240.027	111.62
240.26	96.62
240.494	104.62
240.728	106.62
240.961	112.62
241.195	92.62
241.429	99.62
241.662	102.62
241.896	108.62
242.13	96.62
242.363	102.62
242.597	106.62
242.83	99.62
243.064	97.62
243.298	103.62
243.531	112.62
243.765	95.62
243.998	116.62
244.232	106.62
244.465	115.62
244.699	105.62
244.932	120.62
245.166	113.62
245.399	130.62
245.633	113.62
245.866	111.62
246.099	106.62
246.333	107.62
246.566	117.62
246.8	112.62
247.033	134.62
247.266	139.62
247.5	128.62
247.733	130.62
247.966	140.62
248.2	152.62
248.433	137.62
248.666	141.62
248.899	152.62
249.133	154.62
249.366	142.62
249.599	163.62
249.832	157.62
250.066	163.62
250.299	171.62
250.532	172.62
250.765	163.62
250.998	171.62
251.231	192.62
251.465	201.62
251.698	201.62
251.931	193.62
252.164	203.62
252.397	209.62
252.63	208.62
252.863	205.62
253.096	213.62
253.329	208.62
253.562	226.62
253.795	236.62
254.028	235.62
254.261	224.62
254.494	212.62
254.727	248.62
254.96	242.62
255.193	241.62
255.426	257.62
255.659	263.62
255.892	260.62
256.124	261.62
256.357	269.62
256.59	272.62
256.823	274.62
257.056	276.62
257.289	288.62
257.521	284.62
257.754	290.62
257.987	297.62
258.22	304.62
258.452	305.62
258.685	291.62
258.918	319.62
259.151	306.62
259.383	321.62
259.616	308.62
259.849	326.62
260.081	309.62
260.314	323.62
260.547	311.62
260.779	330.62
261.012	302.62
261.244	337.62
261.477	328.62
261.71	326.62
261.942	329.62
262.175	341.62
262.407	331.62
262.64	345.62
262.872	353.62
263.105	348.62
263.337	345.62
263.57	352.62
263.802	375.62
264.035	343.62
264.267	348.62
264.499	353.62
264.732	374.62
264.964	351.62
265.197	358.62
265.429	370.62
265.661	367.62
265.894	349.62
266.126	367.62
266.358	362.62
266.591	354.62
266.823	352.62
267.055	353.62
267.287	348.62
267.52	364.62
267.752	370.62
267.984	360.62
268.216	355.62
268.448	352.62
268.681	385.62
268.913	373.62
269.145	368.62
269.377	401.62
269.609	370.62
269.841	386.62
270.073	372.62
270.306	371.62
270.538	389.62
270.77	364.62
271.002	354.62
271.234	388.62
271.466	389.62
271.698	386.62
271.93	389.62
272.162	387.62
272.394	376.62
272.626	375.62
272.858	358.62
273.09	373.62
273.322	381.62
273.553	388.62
273.785	365.62
274.017	393.62
274.249	397.62
274.481	381.62
274.713	381.62
274.945	379.62
275.176	388.62
275.408	396.62
275.64	395.62
275.872	386.62
276.104	385.62
276.335	370.62
276.567	381.62
276.799	393.62
277.031	377.62
277.262	377.62
277.494	381.62
277.726	368.62
277.957	374.62
278.189	388.62
278.421	380.62
278.652	364.62
278.884	383.62
279.115	404.62
279.347	376.62
279.579	363.62
279.81	395.62
280.042	395.62
280.273	368.62
280.505	385.62
280.736	381.62
280.968	371.62
281.199	381.62
281.431	359.62
281.662	391.62
281.894	383.62
282.125	369.62
282.356	386.62
282.588	383.62
282.819	380.62
283.051	382.62
283.282	373.62
283.513	385.62
283.745	379.62
283.976	375.62
284.207	377.62
284.439	364.62
284.67	385.62
284.901	379.62
285.132	384.62
285.364	383.62
285.595	364.62
285.826	362.62
286.057	377.62
286.288	376.62
286.52	384.62
286.751	389.62
286.982	369.62
287.213	380.62
287.444	362.62
287.675	389.62
287.906	380.62
288.138	383.62
288.369	369.62
288.6	364.62
288.831	387.62
289.062	371.62
289.293	374.62
289.524	372.62
289.755	375.62
289.986	379.62
290.217	378.62
290.448	368.62
290.679	367.62
290.91	357.62
291.141	360.62
291.371	345.62
291.602	359.62
291.833	373.62
292.064	383.62
292.295	345.62
292.526	375.62
292.757	357.62
292.987	378.62
293.218	346.62
293.449	350.62
293.68	353.62
293.91	379.62
294.141	351.62
294.372	359.62
294.603	357.62
294.833	369.62
295.064	362.62
295.295	361.62
295.525	341.62
295.756	367.62
295.987	343.62
296.217	348.62
296.448	367.62
296.679	374.62
296.909	356.62
297.14	369.62
297.37	364.62
297.601	377.62
297.831	363.62
298.062	362.62
298.292	363.62
298.523	367.62
298.753	352.62
298.984	351.62
299.214	393.62
299.445	369.62
299.675	369.62
299.905	380.62
300.136	370.62
300.366	364.62
300.597	378.62
300.827	377.62
301.057	371.62
301.288	393.62
301.518	375.62
301.748	365.62
301.979	377.62
302.209	395.62
302.439	384.62
302.669	375.62
302.9	380.62
303.13	387.62
303.36	383.62
303.59	397.62
303.82	396.62
304.051	411.62
304.281	406.62
304.511	428.62
304.741	393.62
304.971	411.62
305.201	405.62
305.431	392.62
305.661	398.62
305.891	394.62
306.121	399.62
306.352	433.62
306.582	431.62
306.812	408.62
307.042	409.62
307.272	420.62
307.502	421.62
307.731	391.62
307.961	417.62
308.191	429.62
308.421	444.62
308.651	446.62
308.881	424.62
309.111	426.62
309.341	410.62
309.571	439.62
309.8	447.62
310.03	442.62
310.26	474.62
310.49	454.62
310.72	466.62
310.949	480.62
311.179	456.62
311.409	472.62
311.639	467.62
311.868	485.62
312.098	515.62
312.328	483.62
312.557	492.62
312.787	516.62
313.017	507.62
313.246	516.62
313.476	489.62
313.706	504.62
313.935	523.62
314.165	543.62
314.394	548.62
314.624	539.62
314.853	542.62
315.083	546.62
315.312	556.62
315.542	567.62
315.771	545.62
316.001	594.62
316.23	590.62
316.46	564.62
316.689	601.62
316.919	602.62
317.148	597.62
317.377	626.62
317.607	590.62
317.836	580.62
318.065	623.62
318.295	629.62
318.524	635.62
318.753	633.62
318.983	622.62
319.212	629.62
319.441	645.62
319.67	664.62
319.9	653.62
320.129	641.62
320.358	681.62
320.587	665.62
320.816	701.62
321.046	715.62
321.275	696.62
321.504	722.62
321.733	711.62
321.962	719.62
322.191	761.62
322.42	719.62
322.649	717.62
322.878	752.62
323.108	744.62
323.337	746.62
323.566	773.62
323.795	772.62
324.024	796.62
324.253	794.62
324.482	799.62
324.71	793.62
324.939	798.62
325.168	797.62
325.397	808.62
325.626	823.62
325.855	820.62
326.084	856.62
326.313	858.62
326.542	870.62
326.77	859.62
326.999	866.62
327.228	866.62
327.457	873.62
327.686	874.62
327.914	892.62
328.143	912.62
328.372	905.62
328.6	947.62
328.829	930.62
329.058	902.62
329.287	931.62
329.515	943.62
329.744	964.62
329.972	958.62
330.201	938.62
330.43	994.62
330.658	972.62
330.887	971.62
331.115	975.62
331.344	974.62
331.572	966.62
331.801	989.62
332.03	1007.62
332.258	970.62
332.486	1005.62
332.715	997.62
332.943	997.62
333.172	1037.62
333.4	1031.62
333.629	1046.62
333.857	1033.62
334.085	1055.62
334.314	1041.62
334.542	1035.62
334.771	1041.62
334.999	1050.62
335.227	1049.62
335.455	1060.62
335.684	1065.62
335.912	1095.62
336.14	1069.62
336.369	1097.62
336.597	1079.62
336.825	1061.62
337.053	1107.62
337.281	1061.62
337.51	1115.62
337.738	1092.62
337.966	1075.62
338.194	1082.62
338.422	1105.62
338.65	1091.62
338.878	1097.62
339.106	1088.62
339.334	1129.62
339.562	1096.62
339.79	1073.62
340.018	1093.62
340.246	1101.62
340.474	1088.62
340.702	1084.62
340.93	1076.62
341.158	1101.62
341.386	1076.62
341.614	1071.62
341.842	1095.62
342.07	1083.62
342.298	1095.62
342.526	1097.62
342.754	1092.62
342.981	1092.62
343.209	1087.62
343.437	1123.62
343.665	1117.62
343.893	1119.62
344.12	1130.62
344.348	1112.62
344.576	1149.62
344.804	1108.62
345.031	1100.62
345.259	1100.62
345.487	1102.62
345.714	1149.62
345.942	1085.62
346.17	1105.62
346.397	1110.62
346.625	1088.62
346.853	1085.62
347.08	1098.62
347.308	1113.62
347.535	1103.62
347.763	1094.62
347.99	1078.62
348.218	1089.62
348.445	1063.62
348.673	1067.62
348.9	1084.62
349.128	1103.62
349.355	1043.62
349.583	1062.62
349.81	1073.62
350.037	1064.62
350.265	1051.62
350.492	1075.62
350.72	1095.62
350.947	1055.62
351.174	1062.62
351.402	1059.62
351.629	1076.62
351.856	1051.62
352.083	1055.62
352.311	1058.62
352.538	1066.62
352.765	1061.62
352.992	1057.62
353.22	1051.62
353.447	1043.62
353.674	1044.62
353.901	1057.62
354.128	1071.62
354.355	1053.62
354.583	1050.62
354.81	1033.62
355.037	1035.62
355.264	1036.62
355.491	1037.62
355.718	1091.62
355.945	1058.62
356.172	1067.62
356.399	1040.62
356.626	1055.62
356.853	1035.62
357.08	1056.62
357.307	1012.62
357.534	1067.62
357.761	1023.62
357.988	1029.62
358.215	1033.62
358.441	1048.62
358.668	1045.62
358.895	1024.62
359.122	1048.62
359.349	1045.62
359.576	1032.62
359.802	1050.62
360.029	1013.62
360.256	1031.62
360.483	1036.62
360.709	1009.62
360.936	1031.62
361.163	1061.62
361.39	1039.62
361.616	1032.62
361.843	1037.62
362.07	1059.62
362.296	1016.62
362.523	1043.62
362.749	1016.62
362.976	992.62
363.203	1007.62
363.429	1010.62
363.656	1013.62
363.882	995.62
364.109	1068.62
364.335	1023.62
364.562	1012.62
364.788	1000.62
365.015	1002.62
365.241	1028.62
365.468	1011.62
365.694	1019.62
365.92	1024.62
366.147	968.62
366.373	1008.62
366.599	1029.62
366.826	994.62
367.052	1021.62
367.278	1005.62
367.505	1005.62
367.731	1024.62
367.957	1004.62
368.184	994.62
368.41	1005.62
368.636	969.62
368.862	1022.62
369.089	995.62
369.315	1012.62
369.541	1006.62
369.767	1019.62
369.993	988.62
370.219	1002.62
370.445	984.62
370.672	984.62
370.898	1010.62
371.124	1010.62
371.35	988.62
371.576	994.62
371.802	993.62
372.028	973.62
372.254	992.62
372.48	1012.62
372.706	995.62
372.932	1010.62
373.158	994.62
373.384	996.62
373.61	963.62
373.835	980.62
374.061	963.62
374.287	972.62
374.513	949.62
374.739	969.62
374.965	968.62
375.191	964.62
375.416	951.62
375.642	957.62
375.868	972.62
376.094	945.62
376.319	937.62
376.545	943.62
376.771	932.62
376.997	945.62
377.222	932.62
377.448	929.62
377.674	930.62
377.899	915.62
378.125	915.62
378.35	909.62
378.576	893.62
378.802	925.62
379.027	904.62
379.253	909.62
379.478	915.62
379.704	938.62
379.929	910.62
380.155	913.62
380.38	896.62
380.606	899.62
380.831	912.62
381.057	907.62
381.282	895.62
381.507	912.62
381.733	937.62
381.958	923.62
382.184	910.62
382.409	916.62
382.634	907.62
382.86	905.62
383.085	886.62
383.31	891.62
383.535	907.62
383.761	900.62
383.986	893.62
384.211	904.62
384.436	923.62
384.662	893.62
384.887	943.62
385.112	918.62
385.337	919.62
385.562	906.62
385.787	943.62
386.013	936.62
386.238	933.62
386.463	908.62
386.688	930.62
386.913	934.62
387.138	930.62
387.363	923.62
387.588	909.62
387.813	952.62
388.038	924.62
388.263	932.62
388.488	899.62
388.713	902.62
388.938	931.62
389.163	897.62
389.387	913.62
389.612	916.62
389.837	921.62
390.062	915.62
390.287	916.62
390.512	929.62
390.736	965.62
390.961	925.62
391.186	903.62
391.411	919.62
391.636	910.62
391.86	939.62
392.085	913.62
392.31	960.62
392.534	913.62
392.759	954.62
392.984	945.62
393.208	931.62
393.433	933.62
393.658	948.62
393.882	922.62
394.107	915.62
394.331	916.62
394.556	919.62
394.78	951.62
395.005	921.62
395.229	928.62
395.454	930.62
395.678	924.62
395.903	970.62
396.127	938.62
396.352	930.62
396.576	951.62
396.801	947.62
397.025	935.62
397.249	933.62
397.474	949.62
397.698	970.62
397.922	960.62
398.147	950.62
398.371	968.62
398.595	983.62
398.82	1003.62
399.044	1014.62
399.268	998.62
399.492	1049.62
399.717	1075.62
399.941	1067.62
400.165	1021.62
400.389	1036.62
400.613	1022.62
400.837	1032.62
401.062	1047.62
401.286	1044.62
401.51	1041.62
401.734	1016.62
401.958	1053.62
402.182	1053.62
402.406	1038.62
402.63	1051.62
402.854	1017.62
403.078	1027.62
403.302	1001.62
403.526	1058.62
403.75	1068.62
403.974	1065.62
404.198	1062.62
404.422	1049.62
404.645	1055.62
404.869	1036.62
405.093	1062.62
405.317	1046.62
405.541	1104.62
405.765	1044.62
405.988	1040.62
406.212	1074.62
406.436	1074.62
406.66	1065.62
406.883	1055.62
407.107	1093.62
407.331	1097.62
407.555	1152.62
407.778	1123.62
408.002	1093.62
408.226	1099.62
408.449	1117.62
408.673	1101.62
408.896	1120.62
409.12	1129.62
409.344	1129.62
409.567	1132.62
409.791	1114.62
410.014	1092.62
410.238	1100.62
410.461	1133.62
410.685	1133.62
410.908	1102.62
411.132	1108.62
411.355	1101.62
411.578	1107.62
411.802	1109.62
412.025	1099.62
412.249	1099.62
412.472	1088.62
412.695	1089.62
412.919	1112.62
413.142	1080.62
413.365	1101.62
413.589	1091.62
413.812	1112.62
414.035	1118.62
414.258	1104.62
414.482	1104.62
414.705	1105.62
414.928	1107.62
415.151	1131.62
415.374	1129.62
415.597	1120.62
415.821	1119.62
416.044	1113.62
416.267	1080.62
416.49	1112.62
416.713	1118.62
416.936	1102.62
417.159	1139.62
417.382	1069.62
417.605	1078.62
417.828	1094.62
418.051	1098.62
418.274	1119.62
418.497	1081.62
418.72	1088.62
418.943	1116.62
419.166	1131.62
419.389	1224.62
419.611	1195.62
419.834	1171.62
420.057	1129.62
420.28	1128.62
420.503	1083.62
420.726	1088.62
420.948	1113.62
421.171	1101.62
421.394	1110.62
421.617	1094.62
421.839	1148.62
422.062	1149.62
422.285	1083.62
422.507	1146.62
422.73	1126.62
422.953	1144.62
423.175	1137.62
423.398	1150.62
423.621	1109.62
423.843	1121.62
424.066	1141.62
424.288	1125.62
424.511	1132.62
424.733	1157.62
424.956	1157.62
425.178	1141.62
425.401	1152.62
425.623	1169.62
425.846	1143.62
426.068	1173.62
426.291	1148.62
426.513	1165.62
426.735	1196.62
426.958	1179.62
427.18	1153.62
427.402	1153.62
427.625	1204.62
427.847	1159.62
428.069	1175.62
428.292	1177.62
428.514	1167.62
428.736	1170.62
428.958	1163.62
429.181	1165.62
429.403	1175.62
429.625	1173.62
429.847	1164.62
430.069	1171.62
430.292	1203.62
430.514	1192.62
430.736	1215.62
430.958	1205.62
431.18	1168.62
431.402	1193.62
431.624	1153.62
431.846	1172.62
432.068	1171.62
432.29	1185.62
432.512	1177.62
432.734	1198.62
432.956	1187.62
433.178	1176.62
433.4	1212.62
433.622	1232.62
433.844	1196.62
434.066	1198.62
434.287	1189.62
434.509	1174.62
434.731	1180.62
434.953	1171.62
435.175	1203.62
435.397	1207.62
435.618	1186.62
435.84	1179.62
436.062	1205.62
436.284	1194.62
436.505	1204.62
436.727	1207.62
436.949	1183.62
437.17	1163.62
437.392	1179.62
437.614	1176.62
437.835	1125.62
438.057	1199.62
438.278	1178.62
438.5	1181.62
438.721	1202.62
438.943	1205.62
439.165	1169.62
439.386	1210.62
439.608	1239.62
439.829	1204.62
440.05	1209.62
440.272	1187.62
440.493	1193.62
440.715	1201.62
440.936	1177.62
441.158	1212.62
441.379	1187.62
441.6	1195.62
441.822	1203.62
442.043	1219.62
442.264	1231.62
442.486	1186.62
442.707	1188.62
442.928	1234.62
443.149	1258.62
443.371	1200.62
443.592	1208.62
443.813	1224.62
444.034	1219.62
444.255	1234.62
444.476	1240.62
444.698	1241.62
444.919	1259.62
445.14	1332.62
445.361	1249.62
445.582	1207.62
445.803	1180.62
446.024	1195.62
446.245	1184.62
446.466	1203.62
446.687	1204.62
446.908	1187.62
447.129	1171.62
447.35	1156.62
447.571	1163.62
447.792	1136.62
448.013	1159.62
448.234	1135.62
448.455	1144.62
448.675	1142.62
448.896	1133.62
449.117	1140.62
449.338	1117.62
449.559	1130.62
449.779	1107.62
450	1120.62
450.221	1130.62
450.442	1139.62
450.662	1137.62
450.883	1146.62
451.104	1136.62
451.324	1149.62
451.545	1107.62
451.766	1129.62
451.986	1135.62
452.207	1139.62
452.428	1108.62
452.648	1102.62
452.869	1116.62
453.089	1083.62
453.31	1138.62
453.53	1111.62
453.751	1097.62
453.971	1073.62
454.192	1100.62
454.412	1133.62
454.633	1103.62
454.853	1067.62
455.073	1058.62
455.294	1078.62
455.514	1103.62
455.734	1052.62
455.955	1068.62
456.175	1099.62
456.395	1092.62
456.616	1092.62
456.836	1084.62
457.056	1111.62
457.276	1054.62
457.497	1089.62
457.717	1079.62
457.937	1124.62
458.157	1093.62
458.377	1065.62
458.598	1098.62
458.818	1159.62
459.038	1111.62
459.258	1110.62
459.478	1121.62
459.698	1133.62
459.918	1144.62
460.138	1157.62
460.358	1172.62
460.578	1152.62
460.798	1180.62
461.018	1220.62
461.238	1171.62
461.458	1181.62
461.678	1188.62
461.898	1194.62
462.118	1172.62
462.338	1194.62
462.558	1217.62
462.777	1216.62
462.997	1193.62
463.217	1255.62
463.437	1280.62
463.657	1231.62
463.876	1226.62
464.096	1257.62
464.316	1256.62
464.536	1219.62
464.755	1209.62
464.975	1234.62
465.195	1194.62
465.414	1203.62
465.634	1204.62
465.854	1175.62
466.073	1180.62
466.293	1153.62
466.512	1163.62
466.732	1185.62
466.951	1189.62
467.171	1164.62
467.391	1177.62
467.61	1167.62
467.829	1149.62
468.049	1173.62
468.268	1155.62
468.488	1132.62
468.707	1186.62
468.927	1173.62
469.146	1171.62
469.365	1187.62
469.585	1179.62
469.804	1177.62
470.023	1187.62
470.243	1158.62
470.462	1183.62
470.681	1177.62
470.901	1196.62
471.12	1183.62
471.339	1186.62
471.558	1206.62
471.777	1208.62
471.997	1185.62
472.216	1213.62
472.435	1199.62
472.654	1174.62
472.873	1197.62
473.092	1205.62
473.311	1233.62
473.53	1225.62
473.749	1180.62
473.968	1243.62
474.187	1236.62
474.406	1243.62
474.625	1259.62
474.844	1256.62
475.063	1214.62
475.282	1224.62
475.501	1279.62
475.72	1256.62
475.939	1256.62
476.158	1299.62
476.377	1289.62
476.596	1283.62
476.814	1307.62
477.033	1253.62
477.252	1279.62
477.471	1324.62
477.69	1351.62
477.908	1335.62
478.127	1393.62
478.346	1357.62
478.564	1368.62
478.783	1327.62
479.002	1409.62
479.22	1401.62
479.439	1412.62
479.658	1391.62
479.876	1413.62
480.095	1362.62
480.313	1415.62
480.532	1396.62
480.751	1404.62
480.969	1407.62
481.188	1418.62
481.406	1386.62
481.624	1482.62
481.843	1455.62
482.061	1434.62
482.28	1420.62
482.498	1443.62
482.717	1391.62
482.935	1416.62
483.153	1459.62
483.372	1470.62
483.59	1473.62
483.808	1464.62
484.027	1465.62
484.245	1462.62
484.463	1457.62
484.681	1469.62
484.9	1507.62
485.118	1485.62
485.336	1476.62
485.554	1443.62
485.772	1493.62
485.99	1505.62
486.209	1475.62
486.427	1494.62
486.645	1503.62
486.863	1472.62
487.081	1508.62
487.299	1535.62
487.517	1539.62
487.735	1564.62
487.953	1567.62
488.171	1539.62
488.389	1540.62
488.607	1500.62
488.825	1513.62
489.043	1527.62
489.261	1512.62
489.479	1519.62
489.696	1540.62
489.914	1525.62
490.132	1530.62
490.35	1553.62
490.568	1569.62
490.786	1579.62
491.003	1569.62
491.221	1561.62
491.439	1627.62
491.657	1587.62
491.874	1588.62
492.092	1606.62
492.31	1593.62
492.527	1606.62
492.745	1628.62
492.963	1601.62
493.18	1621.62
493.398	1601.62
493.615	1591.62
493.833	1620.62
494.05	1613.62
494.268	1587.62
494.485	1609.62
494.703	1636.62
494.92	1657.62
495.138	1647.62
495.355	1628.62
495.573	1657.62
495.79	1596.62
496.008	1642.62
496.225	1670.62
496.442	1653.62
496.66	1683.62
496.877	1652.62
497.094	1661.62
497.312	1691.62
497.529	1704.62
497.746	1669.62
497.963	1681.62
498.181	1730.62
498.398	1715.62
498.615	1728.62
498.832	1754.62
499.049	1812.62
499.267	1798.62
499.484	1799.62
499.701	1842.62
499.918	1858.62
500.135	1922.62
500.352	1919.62
500.569	1894.62
500.786	1927.62
501.003	1913.62
501.22	1859.62
501.437	1862.62
501.654	1814.62
501.871	1761.62
502.088	1810.62
502.305	1780.62
502.522	1793.62
502.739	1727.62
502.956	1698.62
503.172	1692.62
503.389	1707.62
503.606	1676.62
503.823	1713.62
504.04	1660.62
504.256	1621.62
504.473	1621.62
504.69	1603.62
504.907	1656.62
505.123	1613.62
505.34	1555.62
505.557	1569.62
505.773	1540.62
505.99	1559.62
506.207	1506.62
506.423	1521.62
506.64	1495.62
506.856	1487.62
507.073	1495.62
507.289	1455.62
507.506	1463.62
507.722	1475.62
507.939	1449.62
508.155	1438.62
508.372	1450.62
508.588	1450.62
508.805	1429.62
509.021	1404.62
509.238	1421.62
509.454	1433.62
509.67	1430.62
509.887	1396.62
510.103	1388.62
510.319	1393.62
510.536	1409.62
510.752	1372.62
510.968	1393.62
511.184	1349.62
511.401	1345.62
511.617	1388.62
511.833	1409.62
512.049	1347.62
512.265	1392.62
512.481	1375.62
512.698	1341.62
512.914	1372.62
513.13	1360.62
513.346	1329.62
513.562	1387.62
513.778	1379.62
513.994	1391.62
514.21	1371.62
514.426	1339.62
514.642	1394.62
514.858	1364.62
515.074	1400.62
515.29	1333.62
515.506	1373.62
515.721	1393.62
515.937	1368.62
516.153	1364.62
516.369	1373.62
516.585	1344.62
516.801	1383.62
517.016	1367.62
517.232	1395.62
517.448	1398.62
517.664	1404.62
517.879	1367.62
518.095	1377.62
518.311	1395.62
518.527	1401.62
518.742	1372.62
518.958	1370.62
519.173	1359.62
519.389	1364.62
519.605	1361.62
519.82	1353.62
520.036	1312.62
520.251	1335.62
520.467	1336.62
520.682	1313.62
520.898	1322.62
521.113	1283.62
521.329	1311.62
521.544	1321.62
521.76	1319.62
521.975	1289.62
522.19	1268.62
522.406	1269.62
522.621	1276.62
522.836	1261.62
523.052	1324.62
523.267	1282.62
523.482	1277.62
523.698	1259.62
523.913	1289.62
524.128	1288.62
524.343	1285.62
524.559	1251.62
524.774	1249.62
524.989	1275.62
525.204	1267.62
525.419	1244.62
525.634	1242.62
525.849	1276.62
526.064	1264.62
526.28	1227.62
526.495	1250.62
526.71	1236.62
526.925	1234.62
527.14	1224.62
527.355	1221.62
527.57	1234.62
527.785	1230.62
527.999	1244.62
528.214	1252.62
528.429	1254.62
528.644	1209.62
528.859	1241.62
529.074	1257.62
529.289	1255.62
529.503	1250.62
529.718	1208.62
529.933	1192.62
530.148	1234.62
530.363	1228.62
530.577	1192.62
530.792	1193.62
531.007	1211.62
531.221	1224.62
531.436	1187.62
531.651	1173.62
531.865	1209.62
532.08	1199.62
532.295	1196.62
532.509	1155.62
532.724	1157.62
532.938	1181.62
533.153	1166.62
533.367	1175.62
533.582	1183.62
533.796	1172.62
534.011	1185.62
534.225	1155.62
534.44	1129.62
534.654	1143.62
534.868	1147.62
535.083	1152.62
535.297	1132.62
535.511	1163.62
535.726	1168.62
535.94	1161.62
536.154	1128.62
536.369	1140.62
536.583	1127.62
536.797	1115.62
537.011	1124.62
537.225	1130.62
537.44	1103.62
537.654	1130.62
537.868	1105.62
538.082	1116.62
538.296	1105.62
538.51	1081.62
538.724	1110.62
538.938	1128.62
539.153	1096.62
539.367	1094.62
539.581	1130.62
539.795	1035.62
540.009	1105.62
540.222	1081.62
540.436	1103.62
540.65	1103.62
540.864	1095.62
541.078	1122.62
541.292	1110.62
541.506	1083.62
541.72	1098.62
541.934	1117.62
542.147	1113.62
542.361	1103.62
542.575	1081.62
542.789	1098.62
543.002	1080.62
543.216	1045.62
543.43	1075.62
543.644	1063.62
543.857	1060.62
544.071	1064.62
544.285	1072.62
544.498	1072.62
544.712	1067.62
544.925	1065.62
545.139	1049.62
545.352	1092.62
545.566	1091.62
545.779	1068.62
545.993	1063.62
546.206	1054.62
546.42	1041.62
546.633	1076.62
546.847	1053.62
547.06	1076.62
547.274	1062.62
547.487	1052.62
547.7	1075.62
547.914	1061.62
548.127	1063.62
548.34	1046.62
548.554	1040.62
548.767	1027.62
548.98	1045.62
549.193	1057.62
549.407	1043.62
549.62	1032.62
549.833	1053.62
550.046	1017.62
550.259	1032.62
550.473	1012.62
550.686	1041.62
550.899	1035.62
551.112	1047.62
551.325	1033.62
551.538	1020.62
551.751	1018.62
551.964	987.62
552.177	992.62
552.39	994.62
552.603	1040.62
552.816	995.62
553.029	998.62
553.242	988.62
553.455	1008.62
553.667	1025.62
553.88	989.62
554.093	982.62
554.306	973.62
554.519	988.62
554.732	983.62
554.944	969.62
555.157	968.62
555.37	957.62
555.583	954.62
555.795	957.62
556.008	984.62
556.221	922.62
556.433	944.62
556.646	946.62
556.859	947.62
557.071	921.62
557.284	923.62
557.496	935.62
557.709	916.62
557.921	914.62
558.134	951.62
558.346	910.62
558.559	925.62
558.771	929.62
558.984	921.62
559.196	895.62
559.409	897.62
559.621	912.62
559.833	910.62
560.046	865.62
560.258	852.62
560.47	899.62
560.683	895.62
560.895	885.62
561.107	869.62
561.32	878.62
561.532	873.62
561.744	875.62
561.956	896.62
562.168	860.62
562.381	872.62
562.593	885.62
562.805	887.62
563.017	855.62
563.229	863.62
563.441	848.62
563.653	872.62
563.865	852.62
564.077	877.62
564.289	836.62
564.501	852.62
564.713	839.62
564.925	874.62
565.137	829.62
565.349	852.62
565.561	887.62
565.773	885.62
565.985	873.62
566.197	849.62
566.408	883.62
566.62	867.62
566.832	873.62
567.044	875.62
567.255	897.62
567.467	879.62
567.679	887.62
567.891	869.62
568.102	863.62
568.314	860.62
568.526	868.62
568.737	855.62
568.949	817.62
569.161	821.62
569.372	797.62
569.584	800.62
569.795	775.62
570.007	794.62
570.218	790.62
570.43	791.62
570.641	782.62
570.853	794.62
571.064	765.62
571.276	718.62
571.487	740.62
571.698	737.62
571.91	763.62
572.121	745.62
572.333	731.62
572.544	735.62
572.755	736.62
572.966	748.62
573.178	704.62
573.389	699.62
573.6	727.62
573.811	704.62
574.023	709.62
574.234	698.62
574.445	681.62
574.656	689.62
574.867	700.62
575.078	687.62
575.289	658.62
575.501	687.62
575.712	671.62
575.923	666.62
576.134	664.62
576.345	645.62
576.556	665.62
576.767	678.62
576.978	650.62
577.188	645.62
577.399	660.62
577.61	627.62
577.821	651.62
578.032	662.62
578.243	639.62
578.454	653.62
578.665	656.62
578.875	631.62
579.086	626.62
579.297	611.62
579.508	624.62
579.718	637.62
579.929	638.62
580.14	617.62
580.35	604.62
580.561	619.62
580.772	627.62
580.982	629.62
581.193	594.62
581.403	599.62
581.614	621.62
581.825	598.62
582.035	615.62
582.246	588.62
582.456	581.62
582.667	589.62
582.877	583.62
583.087	575.62
583.298	584.62
583.508	576.62
583.719	573.62
583.929	593.62
584.139	581.62
584.35	580.62
584.56	587.62
584.77	569.62
584.981	582.62
585.191	554.62
585.401	540.62
585.611	581.62
585.821	561.62
586.032	549.62
586.242	549.62
586.452	553.62
586.662	582.62
586.872	557.62
587.082	569.62
587.292	535.62
587.502	537.62
587.713	546.62
587.923	548.62
588.133	558.62
588.343	554.62
588.553	548.62
588.762	529.62
588.972	536.62
589.182	550.62
589.392	539.62
589.602	541.62
589.812	540.62
590.022	538.62
590.232	539.62
590.441	525.62
590.651	535.62
590.861	548.62
591.071	537.62
591.281	533.62
591.49	554.62
591.7	517.62
591.91	517.62
592.119	520.62
592.329	521.62
592.539	508.62
592.748	529.62
592.958	492.62
593.167	517.62
593.377	525.62
593.587	523.62
593.796	525.62
594.006	528.62
594.215	501.62
594.424	511.62
594.634	511.62
594.843	515.62
595.053	490.62
595.262	483.62
595.472	480.62
595.681	495.62
595.89	508.62
596.1	512.62
596.309	480.62
596.518	465.62
596.727	460.62
596.937	478.62
597.146	491.62
597.355	492.62
597.564	481.62
597.774	448.62
597.983	463.62
598.192	443.62
598.401	471.62
598.61	480.62
598.819	463.62
599.028	471.62
599.237	450.62
599.446	466.62
599.655	471.62
599.864	461.62
600.073	467.62
600.282	440.62
600.491	454.62
600.7	458.62
600.909	458.62
601.118	465.62
601.327	442.62
601.536	432.62
601.745	447.62
601.953	448.62
602.162	454.62
602.371	435.62
602.58	449.62
602.789	449.62
602.997	439.62
603.206	429.62
603.415	434.62
603.623	445.62
603.832	428.62
604.041	417.62
604.249	420.62
604.458	426.62
604.666	422.62
604.875	424.62
605.084	418.62
605.292	420.62
605.501	432.62
605.709	439.62
605.918	398.62
606.126	417.62
606.334	396.62
606.543	420.62
606.751	428.62
606.96	433.62
607.168	420.62
607.376	395.62
607.585	405.62
607.793	401.62
608.001	403.62
608.21	389.62
608.418	398.62
608.626	404.62
608.834	401.62
609.043	401.62
609.251	400.62
609.459	410.62
609.667	407.62
609.875	392.62
610.083	394.62
610.291	400.62
610.499	397.62
610.707	381.62
610.916	387.62
611.124	386.62
611.332	394.62
611.54	394.62
611.748	410.62
611.955	403.62
612.163	403.62
612.371	386.62
612.579	385.62
612.787	377.62
612.995	391.62
613.203	386.62
613.411	382.62
613.618	384.62
613.826	365.62
614.034	370.62
614.242	395.62
614.449	393.62
614.657	367.62
614.865	357.62
615.072	375.62
615.28	376.62
615.488	363.62
615.695	359.62
615.903	357.62
616.111	362.62
616.318	364.62
616.526	371.62
616.733	378.62
616.941	359.62
617.148	373.62
617.356	377.62
617.563	358.62
617.771	348.62
617.978	359.62
618.185	380.62
618.393	358.62
618.6	373.62
618.807	363.62
619.015	365.62
619.222	337.62
619.429	335.62
619.637	358.62
619.844	359.62
620.051	359.62
620.258	357.62
620.466	331.62
620.673	346.62
620.88	352.62
621.087	332.62
621.294	347.62
621.501	337.62
621.708	339.62
621.915	346.62
622.122	351.62
622.329	341.62
622.536	340.62
622.743	349.62
622.95	333.62
623.157	333.62
623.364	332.62
623.571	334.62
623.778	329.62
623.985	340.62
624.192	323.62
624.399	329.62
624.606	335.62
624.812	316.62
625.019	336.62
625.226	348.62
625.433	309.62
625.639	314.62
625.846	318.62
626.053	315.62
626.259	318.62
626.466	309.62
626.673	312.62
626.879	294.62
627.086	313.62
627.293	309.62
627.499	325.62
627.706	315.62
627.912	311.62
628.119	307.62
628.325	306.62
628.532	315.62
628.738	305.62
628.945	304.62
629.151	313.62
629.357	288.62
629.564	304.62
629.77	315.62
629.976	310.62
630.183	299.62
630.389	305.62
630.595	309.62
630.802	314.62
631.008	298.62
631.214	292.62
631.42	288.62
631.627	305.62
631.833	294.62
632.039	287.62
632.245	267.62
632.451	290.62
632.657	286.62
632.863	288.62
633.069	295.62
633.275	285.62
633.481	276.62
633.688	281.62
633.893	300.62
634.099	274.62
634.305	287.62
634.511	285.62
634.717	286.62
634.923	275.62
635.129	282.62
635.335	269.62
635.541	283.62
635.747	283.62
635.952	268.62
636.158	275.62
636.364	268.62
636.57	284.62
636.775	275.62
636.981	273.62
637.187	282.62
637.392	261.62
637.598	265.62
637.804	256.62
638.009	261.62
638.215	273.62
638.421	281.62
638.626	269.62
638.832	275.62
639.037	259.62
639.243	268.62
639.448	258.62
639.654	274.62
639.859	267.62
640.065	255.62
640.27	275.62
640.475	242.62
640.681	231.62
640.886	265.62
641.091	263.62
641.297	268.62
641.502	276.62
641.707	245.62
641.913	243.62
642.118	277.62
642.323	262.62
642.528	258.62
642.733	254.62
642.939	260.62
643.144	258.62
643.349	264.62
643.554	246.62
643.759	255.62
643.964	246.62
644.169	259.62
644.374	237.62
644.579	243.62
644.784	251.62
644.989	231.62
645.194	236.62
645.399	242.62
645.604	249.62
645.809	257.62
646.014	235.62
646.219	231.62
646.423	259.62
646.628	257.62
646.833	259.62
647.038	259.62
647.243	252.62
647.447	249.62
647.652	258.62
647.857	240.62
648.062	232.62
648.266	236.62
648.471	251.62
648.676	263.62
648.88	258.62
649.085	257.62
649.289	240.62
649.494	236.62
649.698	227.62
649.903	226.62
650.107	239.62
650.312	234.62
650.516	243.62
650.721	222.62
650.925	252.62
651.13	233.62
651.334	243.62
651.539	240.62
651.743	220.62
651.947	219.62
652.152	226.62
652.356	195.62
652.56	220.62
652.764	215.62
652.969	214.62
653.173	208.62
653.377	211.62
653.581	202.62
653.785	197.62
653.99	208.62
654.194	217.62
654.398	200.62
654.602	191.62
654.806	187.62
655.01	193.62
655.214	195.62
655.418	187.62
655.622	188.62
655.826	180.62
656.03	189.62
656.234	181.62
656.438	181.62
656.642	173.62
656.846	167.62
657.049	147.62
657.253	165.62
657.457	157.62
657.661	146.62
657.865	145.62
658.068	135.62
658.272	117.62
658.476	141.62
658.68	131.62
658.883	135.62
659.087	130.62
659.291	127.62
659.494	139.62
659.698	113.62
659.901	114.62
660.105	108.62
660.309	112.62
660.512	119.62
660.716	103.62
660.919	94.62
661.123	107.62
661.326	100.62
661.53	108.62
661.733	102.62
661.936	105.62
662.14	79.62
662.343	80.62
662.546	102.62
662.75	75.62
662.953	106.62
663.156	94.62
663.36	93.62
663.563	103.62
663.766	82.62
663.969	81.62
664.173	92.62
664.376	83.62
664.579	84.62
664.782	87.62
664.985	86.62
665.188	86.62
665.391	74.62
665.594	73.62
665.797	83.62
666	83.62
666.203	77.62
666.406	72.62
666.609	80.62
666.812	81.62
667.015	79.62
667.218	89.62
667.421	81.62
667.624	81.62
667.827	97.62
668.03	87.62
668.232	95.62
668.435	85.62
668.638	69.62
668.841	87.62
669.043	87.62
669.246	93.62
669.449	74.62
669.651	83.62
669.854	83.62
670.057	91.62
670.259	74.62
670.462	84.62
670.665	83.62
670.867	79.62
671.07	74.62
671.272	79.62
671.475	68.62
671.677	79.62
671.88	100.62
672.082	76.62
672.284	81.62
672.487	77.62
672.689	77.62
672.892	82.62
