Data from Ni(NO3)2@0.5M.TitratingCurve.Agarose3%dH2O.NegLispCup.LampEnergy10.LIBS07252019_HRD10591_17-58-19-564.txt Node
Date: Thu Jul 25 17:58:19 EDT 2019
User: cochatt
Spectrometer: HR+D1059
Trigger mode: 1
Integration Time (sec): 1.000000E-1
Scans to average: 1
Electric dark correction enabled: true
Nonlinearity correction enabled: false
Boxcar width: 0
XAxis mode: Wavelengths
Number of Pixels in Spectrum: 2048
>>>>>Begin Spectral Data<<<<<
223.165	-11.19
223.4	-11.19
223.635	-11.19
223.869	-29.19
224.104	-24.19
224.338	-0.19
224.573	-16.19
224.808	-12.19
225.042	7.81
225.277	-8.19
225.511	4.81
225.746	-1.19
225.98	-10.19
226.215	17.81
226.449	16.81
226.683	13.81
226.918	18.81
227.152	32.81
227.387	20.81
227.621	25.81
227.856	43.81
228.09	54.81
228.324	61.81
228.559	57.81
228.793	79.81
229.027	121.81
229.262	159.81
229.496	154.81
229.73	172.81
229.964	207.81
230.199	228.81
230.433	230.81
230.667	238.81
230.901	208.81
231.136	198.81
231.37	181.81
231.604	215.81
231.838	243.81
232.072	255.81
232.306	236.81
232.541	213.81
232.775	219.81
233.009	186.81
233.243	186.81
233.477	181.81
233.711	181.81
233.945	208.81
234.179	199.81
234.413	195.81
234.647	199.81
234.881	204.81
235.115	192.81
235.349	195.81
235.583	197.81
235.817	186.81
236.051	183.81
236.285	195.81
236.519	188.81
236.753	192.81
236.987	201.81
237.221	189.81
237.455	202.81
237.689	215.81
237.922	226.81
238.156	201.81
238.39	201.81
238.624	209.81
238.858	209.81
239.091	212.81
239.325	219.81
239.559	235.81
239.793	276.81
240.027	277.81
240.26	241.81
240.494	234.81
240.728	236.81
240.961	237.81
241.195	232.81
241.429	257.81
241.662	243.81
241.896	268.81
242.13	305.81
242.363	259.81
242.597	250.81
242.83	263.81
243.064	236.81
243.298	233.81
243.531	244.81
243.765	263.81
243.998	287.81
244.232	303.81
244.465	281.81
244.699	272.81
244.932	275.81
245.166	272.81
245.399	291.81
245.633	267.81
245.866	279.81
246.099	263.81
246.333	294.81
246.566	264.81
246.8	279.81
247.033	299.81
247.266	291.81
247.5	284.81
247.733	292.81
247.966	295.81
248.2	321.81
248.433	321.81
248.666	320.81
248.899	305.81
249.133	314.81
249.366	323.81
249.599	327.81
249.832	322.81
250.066	328.81
250.299	322.81
250.532	337.81
250.765	324.81
250.998	368.81
251.231	370.81
251.465	376.81
251.698	379.81
251.931	361.81
252.164	363.81
252.397	358.81
252.63	369.81
252.863	352.81
253.096	365.81
253.329	367.81
253.562	368.81
253.795	375.81
254.028	368.81
254.261	384.81
254.494	404.81
254.727	398.81
254.96	377.81
255.193	411.81
255.426	379.81
255.659	393.81
255.892	412.81
256.124	398.81
256.357	413.81
256.59	422.81
256.823	401.81
257.056	415.81
257.289	426.81
257.521	433.81
257.754	423.81
257.987	433.81
258.22	434.81
258.452	426.81
258.685	434.81
258.918	437.81
259.151	426.81
259.383	429.81
259.616	442.81
259.849	466.81
260.081	450.81
260.314	447.81
260.547	465.81
260.779	460.81
261.012	467.81
261.244	455.81
261.477	461.81
261.71	483.81
261.942	476.81
262.175	469.81
262.407	463.81
262.64	462.81
262.872	497.81
263.105	473.81
263.337	460.81
263.57	492.81
263.802	489.81
264.035	485.81
264.267	492.81
264.499	478.81
264.732	490.81
264.964	489.81
265.197	504.81
265.429	509.81
265.661	515.81
265.894	516.81
266.126	507.81
266.358	533.81
266.591	509.81
266.823	500.81
267.055	529.81
267.287	505.81
267.52	534.81
267.752	533.81
267.984	521.81
268.216	531.81
268.448	539.81
268.681	535.81
268.913	535.81
269.145	564.81
269.377	539.81
269.609	532.81
269.841	547.81
270.073	537.81
270.306	551.81
270.538	539.81
270.77	544.81
271.002	550.81
271.234	555.81
271.466	570.81
271.698	578.81
271.93	562.81
272.162	574.81
272.394	591.81
272.626	596.81
272.858	571.81
273.09	586.81
273.322	591.81
273.553	580.81
273.785	594.81
274.017	601.81
274.249	611.81
274.481	588.81
274.713	593.81
274.945	590.81
275.176	621.81
275.408	593.81
275.64	617.81
275.872	603.81
276.104	589.81
276.335	608.81
276.567	622.81
276.799	623.81
277.031	625.81
277.262	616.81
277.494	607.81
277.726	592.81
277.957	647.81
278.189	627.81
278.421	643.81
278.652	640.81
278.884	650.81
279.115	659.81
279.347	626.81
279.579	637.81
279.81	647.81
280.042	662.81
280.273	659.81
280.505	651.81
280.736	646.81
280.968	673.81
281.199	654.81
281.431	693.81
281.662	677.81
281.894	666.81
282.125	662.81
282.356	668.81
282.588	666.81
282.819	664.81
283.051	671.81
283.282	663.81
283.513	687.81
283.745	692.81
283.976	694.81
284.207	715.81
284.439	694.81
284.67	704.81
284.901	684.81
285.132	665.81
285.364	703.81
285.595	692.81
285.826	710.81
286.057	695.81
286.288	706.81
286.52	741.81
286.751	691.81
286.982	733.81
287.213	724.81
287.444	706.81
287.675	703.81
287.906	717.81
288.138	726.81
288.369	713.81
288.6	709.81
288.831	713.81
289.062	700.81
289.293	703.81
289.524	714.81
289.755	718.81
289.986	719.81
290.217	745.81
290.448	736.81
290.679	716.81
290.91	729.81
291.141	730.81
291.371	718.81
291.602	757.81
291.833	721.81
292.064	730.81
292.295	764.81
292.526	722.81
292.757	719.81
292.987	731.81
293.218	733.81
293.449	775.81
293.68	763.81
293.91	729.81
294.141	741.81
294.372	751.81
294.603	748.81
294.833	763.81
295.064	746.81
295.295	769.81
295.525	739.81
295.756	767.81
295.987	747.81
296.217	757.81
296.448	781.81
296.679	784.81
296.909	765.81
297.14	766.81
297.37	788.81
297.601	777.81
297.831	769.81
298.062	798.81
298.292	783.81
298.523	812.81
298.753	809.81
298.984	795.81
299.214	810.81
299.445	791.81
299.675	807.81
299.905	824.81
300.136	829.81
300.366	840.81
300.597	853.81
300.827	832.81
301.057	843.81
301.288	856.81
301.518	879.81
301.748	833.81
301.979	845.81
302.209	849.81
302.439	833.81
302.669	825.81
302.9	837.81
303.13	842.81
303.36	827.81
303.59	844.81
303.82	849.81
304.051	852.81
304.281	868.81
304.511	842.81
304.741	859.81
304.971	889.81
305.201	897.81
305.431	921.81
305.661	906.81
305.891	868.81
306.121	876.81
306.352	872.81
306.582	848.81
306.812	863.81
307.042	871.81
307.272	882.81
307.502	869.81
307.731	867.81
307.961	872.81
308.191	883.81
308.421	883.81
308.651	868.81
308.881	887.81
309.111	883.81
309.341	879.81
309.571	908.81
309.8	919.81
310.03	940.81
310.26	951.81
310.49	947.81
310.72	907.81
310.949	899.81
311.179	895.81
311.409	917.81
311.639	882.81
311.868	905.81
312.098	898.81
312.328	885.81
312.557	903.81
312.787	940.81
313.017	937.81
313.246	948.81
313.476	940.81
313.706	966.81
313.935	952.81
314.165	962.81
314.394	941.81
314.624	951.81
314.853	962.81
315.083	963.81
315.312	940.81
315.542	969.81
315.771	948.81
316.001	959.81
316.23	961.81
316.46	969.81
316.689	1004.81
316.919	1005.81
317.148	988.81
317.377	1000.81
317.607	955.81
317.836	985.81
318.065	973.81
318.295	994.81
318.524	972.81
318.753	972.81
318.983	978.81
319.212	1000.81
319.441	1001.81
319.67	1020.81
319.9	1023.81
320.129	1027.81
320.358	1018.81
320.587	993.81
320.816	1025.81
321.046	1029.81
321.275	1045.81
321.504	1065.81
321.733	1059.81
321.962	1061.81
322.191	1068.81
322.42	1058.81
322.649	1041.81
322.878	1072.81
323.108	1054.81
323.337	1072.81
323.566	1081.81
323.795	1095.81
324.024	1076.81
324.253	1079.81
324.482	1093.81
324.71	1068.81
324.939	1068.81
325.168	1083.81
325.397	1092.81
325.626	1081.81
325.855	1079.81
326.084	1101.81
326.313	1097.81
326.542	1071.81
326.77	1143.81
326.999	1111.81
327.228	1104.81
327.457	1157.81
327.686	1130.81
327.914	1151.81
328.143	1116.81
328.372	1153.81
328.6	1129.81
328.829	1116.81
329.058	1134.81
329.287	1125.81
329.515	1144.81
329.744	1131.81
329.972	1139.81
330.201	1148.81
330.43	1145.81
330.658	1144.81
330.887	1175.81
331.115	1187.81
331.344	1177.81
331.572	1183.81
331.801	1168.81
332.03	1179.81
332.258	1188.81
332.486	1210.81
332.715	1215.81
332.943	1202.81
333.172	1191.81
333.4	1196.81
333.629	1280.81
333.857	1233.81
334.085	1269.81
334.314	1239.81
334.542	1252.81
334.771	1283.81
334.999	1277.81
335.227	1275.81
335.455	1282.81
335.684	1265.81
335.912	1315.81
336.14	1279.81
336.369	1289.81
336.597	1304.81
336.825	1349.81
337.053	1313.81
337.281	1335.81
337.51	1284.81
337.738	1287.81
337.966	1293.81
338.194	1282.81
338.422	1293.81
338.65	1285.81
338.878	1282.81
339.106	1279.81
339.334	1285.81
339.562	1269.81
339.79	1225.81
340.018	1227.81
340.246	1256.81
340.474	1265.81
340.702	1262.81
340.93	1256.81
341.158	1265.81
341.386	1306.81
341.614	1366.81
341.842	1322.81
342.07	1293.81
342.298	1260.81
342.526	1246.81
342.754	1226.81
342.981	1246.81
343.209	1243.81
343.437	1295.81
343.665	1260.81
343.893	1298.81
344.12	1315.81
344.348	1319.81
344.576	1310.81
344.804	1331.81
345.031	1305.81
345.259	1289.81
345.487	1300.81
345.714	1256.81
345.942	1341.81
346.17	1332.81
346.397	1283.81
346.625	1274.81
346.853	1223.81
347.08	1220.81
347.308	1239.81
347.535	1215.81
347.763	1225.81
347.99	1251.81
348.218	1196.81
348.445	1232.81
348.673	1204.81
348.9	1221.81
349.128	1217.81
349.355	1240.81
349.583	1246.81
349.81	1195.81
350.037	1162.81
350.265	1192.81
350.492	1177.81
350.72	1207.81
350.947	1239.81
351.174	1241.81
351.402	1255.81
351.629	1253.81
351.856	1261.81
352.083	1236.81
352.311	1234.81
352.538	1244.81
352.765	1278.81
352.992	1167.81
353.22	1208.81
353.447	1166.81
353.674	1177.81
353.901	1178.81
354.128	1175.81
354.355	1156.81
354.583	1189.81
354.81	1155.81
355.037	1189.81
355.264	1180.81
355.491	1170.81
355.718	1158.81
355.945	1157.81
356.172	1184.81
356.399	1220.81
356.626	1251.81
356.853	1270.81
357.08	1209.81
357.307	1184.81
357.534	1204.81
357.761	1205.81
357.988	1188.81
358.215	1169.81
358.441	1175.81
358.668	1177.81
358.895	1190.81
359.122	1205.81
359.349	1171.81
359.576	1165.81
359.802	1181.81
360.029	1196.81
360.256	1197.81
360.483	1181.81
360.709	1178.81
360.936	1220.81
361.163	1228.81
361.39	1175.81
361.616	1224.81
361.843	1246.81
362.07	1258.81
362.296	1232.81
362.523	1170.81
362.749	1211.81
362.976	1184.81
363.203	1181.81
363.429	1179.81
363.656	1191.81
363.882	1207.81
364.109	1171.81
364.335	1166.81
364.562	1180.81
364.788	1201.81
365.015	1209.81
365.241	1189.81
365.468	1201.81
365.694	1199.81
365.92	1210.81
366.147	1190.81
366.373	1189.81
366.599	1212.81
366.826	1181.81
367.052	1201.81
367.278	1192.81
367.505	1217.81
367.731	1230.81
367.957	1192.81
368.184	1212.81
368.41	1221.81
368.636	1220.81
368.862	1216.81
369.089	1218.81
369.315	1225.81
369.541	1213.81
369.767	1250.81
369.993	1219.81
370.219	1227.81
370.445	1235.81
370.672	1258.81
370.898	1242.81
371.124	1253.81
371.35	1258.81
371.576	1240.81
371.802	1260.81
372.028	1243.81
372.254	1240.81
372.48	1248.81
372.706	1252.81
372.932	1309.81
373.158	1263.81
373.384	1252.81
373.61	1243.81
373.835	1249.81
374.061	1248.81
374.287	1272.81
374.513	1255.81
374.739	1286.81
374.965	1297.81
375.191	1277.81
375.416	1259.81
375.642	1252.81
375.868	1299.81
376.094	1287.81
376.319	1251.81
376.545	1256.81
376.771	1250.81
376.997	1211.81
377.222	1255.81
377.448	1232.81
377.674	1222.81
377.899	1243.81
378.125	1203.81
378.35	1263.81
378.576	1207.81
378.802	1196.81
379.027	1273.81
379.253	1251.81
379.478	1207.81
379.704	1176.81
379.929	1245.81
380.155	1201.81
380.38	1218.81
380.606	1238.81
380.831	1263.81
381.057	1264.81
381.282	1245.81
381.507	1244.81
381.733	1244.81
381.958	1229.81
382.184	1258.81
382.409	1259.81
382.634	1260.81
382.86	1264.81
383.085	1274.81
383.31	1272.81
383.535	1270.81
383.761	1279.81
383.986	1293.81
384.211	1284.81
384.436	1291.81
384.662	1282.81
384.887	1303.81
385.112	1282.81
385.337	1313.81
385.562	1295.81
385.787	1329.81
386.013	1371.81
386.238	1347.81
386.463	1334.81
386.688	1329.81
386.913	1341.81
387.138	1369.81
387.363	1390.81
387.588	1355.81
387.813	1347.81
388.038	1346.81
388.263	1333.81
388.488	1366.81
388.713	1359.81
388.938	1353.81
389.163	1335.81
389.387	1368.81
389.612	1371.81
389.837	1361.81
390.062	1311.81
390.287	1361.81
390.512	1351.81
390.736	1367.81
390.961	1396.81
391.186	1347.81
391.411	1386.81
391.636	1371.81
391.86	1400.81
392.085	1384.81
392.31	1382.81
392.534	1373.81
392.759	1413.81
392.984	1389.81
393.208	1398.81
393.433	1413.81
393.658	1383.81
393.882	1380.81
394.107	1416.81
394.331	1381.81
394.556	1365.81
394.78	1375.81
395.005	1407.81
395.229	1401.81
395.454	1422.81
395.678	1443.81
395.903	1417.81
396.127	1391.81
396.352	1445.81
396.576	1405.81
396.801	1443.81
397.025	1411.81
397.249	1431.81
397.474	1433.81
397.698	1443.81
397.922	1471.81
398.147	1462.81
398.371	1494.81
398.595	1498.81
398.82	1503.81
399.044	1535.81
399.268	1582.81
399.492	1638.81
399.717	1634.81
399.941	1650.81
400.165	1646.81
400.389	1614.81
400.613	1615.81
400.837	1589.81
401.062	1563.81
401.286	1560.81
401.51	1559.81
401.734	1524.81
401.958	1551.81
402.182	1515.81
402.406	1494.81
402.63	1520.81
402.854	1518.81
403.078	1535.81
403.302	1516.81
403.526	1517.81
403.75	1536.81
403.974	1561.81
404.198	1509.81
404.422	1575.81
404.645	1533.81
404.869	1536.81
405.093	1547.81
405.317	1514.81
405.541	1561.81
405.765	1596.81
405.988	1571.81
406.212	1612.81
406.436	1572.81
406.66	1626.81
406.883	1598.81
407.107	1672.81
407.331	1617.81
407.555	1698.81
407.778	1697.81
408.002	1654.81
408.226	1674.81
408.449	1677.81
408.673	1643.81
408.896	1635.81
409.12	1659.81
409.344	1637.81
409.567	1611.81
409.791	1604.81
410.014	1584.81
410.238	1612.81
410.461	1627.81
410.685	1610.81
410.908	1582.81
411.132	1619.81
411.355	1539.81
411.578	1594.81
411.802	1559.81
412.025	1547.81
412.249	1570.81
412.472	1603.81
412.695	1578.81
412.919	1547.81
413.142	1515.81
413.365	1516.81
413.589	1563.81
413.812	1507.81
414.035	1544.81
414.258	1560.81
414.482	1521.81
414.705	1504.81
414.928	1534.81
415.151	1512.81
415.374	1550.81
415.597	1531.81
415.821	1467.81
416.044	1497.81
416.267	1461.81
416.49	1477.81
416.713	1465.81
416.936	1482.81
417.159	1468.81
417.382	1507.81
417.605	1468.81
417.828	1492.81
418.051	1471.81
418.274	1456.81
418.497	1439.81
418.72	1482.81
418.943	1464.81
419.166	1556.81
419.389	1644.81
419.611	1595.81
419.834	1528.81
420.057	1524.81
420.28	1495.81
420.503	1452.81
420.726	1429.81
420.948	1459.81
421.171	1462.81
421.394	1439.81
421.617	1446.81
421.839	1480.81
422.062	1487.81
422.285	1423.81
422.507	1444.81
422.73	1443.81
422.953	1443.81
423.175	1505.81
423.398	1506.81
423.621	1434.81
423.843	1457.81
424.066	1463.81
424.288	1456.81
424.511	1444.81
424.733	1451.81
424.956	1424.81
425.178	1490.81
425.401	1472.81
425.623	1479.81
425.846	1413.81
426.068	1467.81
426.291	1468.81
426.513	1486.81
426.735	1451.81
426.958	1459.81
427.18	1418.81
427.402	1440.81
427.625	1451.81
427.847	1437.81
428.069	1444.81
428.292	1454.81
428.514	1405.81
428.736	1439.81
428.958	1420.81
429.181	1429.81
429.403	1430.81
429.625	1455.81
429.847	1447.81
430.069	1450.81
430.292	1445.81
430.514	1403.81
430.736	1461.81
430.958	1432.81
431.18	1447.81
431.402	1407.81
431.624	1438.81
431.846	1435.81
432.068	1407.81
432.29	1471.81
432.512	1411.81
432.734	1462.81
432.956	1428.81
433.178	1438.81
433.4	1477.81
433.622	1489.81
433.844	1499.81
434.066	1485.81
434.287	1507.81
434.509	1500.81
434.731	1479.81
434.953	1487.81
435.175	1531.81
435.397	1549.81
435.618	1503.81
435.84	1505.81
436.062	1461.81
436.284	1447.81
436.505	1475.81
436.727	1482.81
436.949	1434.81
437.17	1460.81
437.392	1437.81
437.614	1420.81
437.835	1421.81
438.057	1396.81
438.278	1358.81
438.5	1399.81
438.721	1409.81
438.943	1410.81
439.165	1402.81
439.386	1419.81
439.608	1446.81
439.829	1405.81
440.05	1405.81
440.272	1457.81
440.493	1442.81
440.715	1459.81
440.936	1447.81
441.158	1466.81
441.379	1475.81
441.6	1486.81
441.822	1521.81
442.043	1480.81
442.264	1500.81
442.486	1462.81
442.707	1503.81
442.928	1466.81
443.149	1498.81
443.371	1516.81
443.592	1597.81
443.813	1571.81
444.034	1501.81
444.255	1493.81
444.476	1542.81
444.698	1528.81
444.919	1563.81
445.14	1664.81
445.361	1608.81
445.582	1544.81
445.803	1546.81
446.024	1497.81
446.245	1491.81
446.466	1452.81
446.687	1401.81
446.908	1429.81
447.129	1408.81
447.35	1405.81
447.571	1394.81
447.792	1364.81
448.013	1383.81
448.234	1378.81
448.455	1338.81
448.675	1396.81
448.896	1360.81
449.117	1314.81
449.338	1328.81
449.559	1345.81
449.779	1372.81
450	1324.81
450.221	1361.81
450.442	1362.81
450.662	1333.81
450.883	1343.81
451.104	1355.81
451.324	1367.81
451.545	1336.81
451.766	1323.81
451.986	1304.81
452.207	1301.81
452.428	1320.81
452.648	1360.81
452.869	1301.81
453.089	1304.81
453.31	1357.81
453.53	1315.81
453.751	1310.81
453.971	1325.81
454.192	1361.81
454.412	1341.81
454.633	1333.81
454.853	1295.81
455.073	1296.81
455.294	1298.81
455.514	1337.81
455.734	1359.81
455.955	1348.81
456.175	1359.81
456.395	1307.81
456.616	1271.81
456.836	1302.81
457.056	1272.81
457.276	1279.81
457.497	1353.81
457.717	1359.81
457.937	1361.81
458.157	1323.81
458.377	1372.81
458.598	1363.81
458.818	1351.81
459.038	1341.81
459.258	1367.81
459.478	1461.81
459.698	1563.81
459.918	1541.81
460.138	1523.81
460.358	1542.81
460.578	1529.81
460.798	1585.81
461.018	1597.81
461.238	1507.81
461.458	1517.81
461.678	1482.81
461.898	1506.81
462.118	1492.81
462.338	1560.81
462.558	1588.81
462.777	1624.81
462.997	1624.81
463.217	1642.81
463.437	1717.81
463.657	1737.81
463.876	1658.81
464.096	1621.81
464.316	1571.81
464.536	1599.81
464.755	1589.81
464.975	1511.81
465.195	1504.81
465.414	1532.81
465.634	1474.81
465.854	1449.81
466.073	1451.81
466.293	1443.81
466.512	1415.81
466.732	1407.81
466.951	1416.81
467.171	1437.81
467.391	1417.81
467.61	1409.81
467.829	1400.81
468.049	1406.81
468.268	1376.81
468.488	1389.81
468.707	1394.81
468.927	1419.81
469.146	1428.81
469.365	1441.81
469.585	1402.81
469.804	1419.81
470.023	1389.81
470.243	1420.81
470.462	1379.81
470.681	1416.81
470.901	1380.81
471.12	1412.81
471.339	1387.81
471.558	1417.81
471.777	1444.81
471.997	1374.81
472.216	1399.81
472.435	1403.81
472.654	1382.81
472.873	1367.81
473.092	1429.81
473.311	1411.81
473.53	1410.81
473.749	1386.81
473.968	1395.81
474.187	1392.81
474.406	1430.81
474.625	1455.81
474.844	1457.81
475.063	1442.81
475.282	1468.81
475.501	1498.81
475.72	1449.81
475.939	1476.81
476.158	1494.81
476.377	1475.81
476.596	1490.81
476.814	1502.81
477.033	1507.81
477.252	1525.81
477.471	1511.81
477.69	1572.81
477.908	1563.81
478.127	1593.81
478.346	1554.81
478.564	1605.81
478.783	1644.81
479.002	1661.81
479.22	1693.81
479.439	1707.81
479.658	1637.81
479.876	1643.81
480.095	1620.81
480.313	1677.81
480.532	1669.81
480.751	1705.81
480.969	1637.81
481.188	1631.81
481.406	1615.81
481.624	1660.81
481.843	1615.81
482.061	1661.81
482.28	1689.81
482.498	1659.81
482.717	1661.81
482.935	1665.81
483.153	1671.81
483.372	1709.81
483.59	1759.81
483.808	1717.81
484.027	1686.81
484.245	1655.81
484.463	1677.81
484.681	1690.81
484.9	1714.81
485.118	1689.81
485.336	1671.81
485.554	1694.81
485.772	1702.81
485.99	1675.81
486.209	1693.81
486.427	1711.81
486.645	1700.81
486.863	1725.81
487.081	1682.81
487.299	1693.81
487.517	1740.81
487.735	1763.81
487.953	1745.81
488.171	1760.81
488.389	1729.81
488.607	1728.81
488.825	1748.81
489.043	1724.81
489.261	1729.81
489.479	1706.81
489.696	1692.81
489.914	1699.81
490.132	1753.81
490.35	1730.81
490.568	1725.81
490.786	1748.81
491.003	1788.81
491.221	1751.81
491.439	1798.81
491.657	1760.81
491.874	1765.81
492.092	1747.81
492.31	1752.81
492.527	1796.81
492.745	1797.81
492.963	1763.81
493.18	1801.81
493.398	1768.81
493.615	1787.81
493.833	1781.81
494.05	1799.81
494.268	1839.81
494.485	1811.81
494.703	1829.81
494.92	1830.81
495.138	1855.81
495.355	1815.81
495.573	1845.81
495.79	1832.81
496.008	1836.81
496.225	1858.81
496.442	1856.81
496.66	1875.81
496.877	1853.81
497.094	1908.81
497.312	1881.81
497.529	1892.81
497.746	1927.81
497.963	1961.81
498.181	1988.81
498.398	1976.81
498.615	2114.81
498.832	2144.81
499.049	2144.81
499.267	2197.81
499.484	2201.81
499.701	2287.81
499.918	2367.81
500.135	2423.81
500.352	2491.81
500.569	2492.81
500.786	2498.81
501.003	2445.81
501.22	2420.81
501.437	2333.81
501.654	2329.81
501.871	2233.81
502.088	2235.81
502.305	2141.81
502.522	2162.81
502.739	2114.81
502.956	2064.81
503.172	2003.81
503.389	1956.81
503.606	1940.81
503.823	1907.81
504.04	1872.81
504.256	1885.81
504.473	1803.81
504.69	1841.81
504.907	1841.81
505.123	1841.81
505.34	1749.81
505.557	1793.81
505.773	1704.81
505.99	1720.81
506.207	1673.81
506.423	1696.81
506.64	1693.81
506.856	1673.81
507.073	1653.81
507.289	1642.81
507.506	1619.81
507.722	1596.81
507.939	1617.81
508.155	1613.81
508.372	1591.81
508.588	1573.81
508.805	1582.81
509.021	1591.81
509.238	1558.81
509.454	1560.81
509.67	1537.81
509.887	1529.81
510.103	1517.81
510.319	1502.81
510.536	1492.81
510.752	1503.81
510.968	1459.81
511.184	1479.81
511.401	1486.81
511.617	1499.81
511.833	1491.81
512.049	1459.81
512.265	1491.81
512.481	1486.81
512.698	1475.81
512.914	1459.81
513.13	1493.81
513.346	1475.81
513.562	1463.81
513.778	1452.81
513.994	1439.81
514.21	1428.81
514.426	1467.81
514.642	1475.81
514.858	1480.81
515.074	1458.81
515.29	1471.81
515.506	1496.81
515.721	1501.81
515.937	1521.81
516.153	1503.81
516.369	1532.81
516.585	1531.81
516.801	1545.81
517.016	1520.81
517.232	1524.81
517.448	1544.81
517.664	1565.81
517.879	1526.81
518.095	1513.81
518.311	1518.81
518.527	1487.81
518.742	1554.81
518.958	1506.81
519.173	1491.81
519.389	1491.81
519.605	1451.81
519.82	1439.81
520.036	1448.81
520.251	1425.81
520.467	1388.81
520.682	1407.81
520.898	1417.81
521.113	1371.81
521.329	1380.81
521.544	1391.81
521.76	1415.81
521.975	1389.81
522.19	1376.81
522.406	1401.81
522.621	1397.81
522.836	1380.81
523.052	1363.81
523.267	1364.81
523.482	1345.81
523.698	1343.81
523.913	1323.81
524.128	1347.81
524.343	1382.81
524.559	1371.81
524.774	1340.81
524.989	1346.81
525.204	1352.81
525.419	1337.81
525.634	1356.81
525.849	1367.81
526.064	1323.81
526.28	1325.81
526.495	1306.81
526.71	1325.81
526.925	1284.81
527.14	1269.81
527.355	1257.81
527.57	1303.81
527.785	1277.81
527.999	1285.81
528.214	1272.81
528.429	1311.81
528.644	1303.81
528.859	1321.81
529.074	1313.81
529.289	1309.81
529.503	1290.81
529.718	1284.81
529.933	1276.81
530.148	1264.81
530.363	1291.81
530.577	1247.81
530.792	1277.81
531.007	1227.81
531.221	1279.81
531.436	1254.81
531.651	1260.81
531.865	1273.81
532.08	1261.81
532.295	1287.81
532.509	1208.81
532.724	1246.81
532.938	1282.81
533.153	1231.81
533.367	1194.81
533.582	1244.81
533.796	1211.81
534.011	1253.81
534.225	1229.81
534.44	1227.81
534.654	1215.81
534.868	1203.81
535.083	1189.81
535.297	1227.81
535.511	1180.81
535.726	1214.81
535.94	1194.81
536.154	1205.81
536.369	1208.81
536.583	1196.81
536.797	1193.81
537.011	1217.81
537.225	1179.81
537.44	1171.81
537.654	1172.81
537.868	1152.81
538.082	1168.81
538.296	1176.81
538.51	1155.81
538.724	1163.81
538.938	1167.81
539.153	1142.81
539.367	1136.81
539.581	1173.81
539.795	1133.81
540.009	1163.81
540.222	1132.81
540.436	1128.81
540.65	1153.81
540.864	1142.81
541.078	1169.81
541.292	1141.81
541.506	1160.81
541.72	1140.81
541.934	1169.81
542.147	1193.81
542.361	1154.81
542.575	1111.81
542.789	1139.81
543.002	1147.81
543.216	1131.81
543.43	1139.81
543.644	1147.81
543.857	1137.81
544.071	1154.81
544.285	1147.81
544.498	1108.81
544.712	1127.81
544.925	1123.81
545.139	1152.81
545.352	1115.81
545.566	1137.81
545.779	1125.81
545.993	1108.81
546.206	1122.81
546.42	1119.81
546.633	1093.81
546.847	1100.81
547.06	1104.81
547.274	1141.81
547.487	1104.81
547.7	1141.81
547.914	1103.81
548.127	1129.81
548.34	1091.81
548.554	1071.81
548.767	1104.81
548.98	1128.81
549.193	1100.81
549.407	1100.81
549.62	1093.81
549.833	1094.81
550.046	1092.81
550.259	1063.81
550.473	1067.81
550.686	1079.81
550.899	1097.81
551.112	1091.81
551.325	1103.81
551.538	1078.81
551.751	1057.81
551.964	1082.81
552.177	1116.81
552.39	1077.81
552.603	1079.81
552.816	1090.81
553.029	1108.81
553.242	1109.81
553.455	1060.81
553.667	1092.81
553.88	1051.81
554.093	1048.81
554.306	1029.81
554.519	1031.81
554.732	1033.81
554.944	1025.81
555.157	1014.81
555.37	1030.81
555.583	1025.81
555.795	1014.81
556.008	989.81
556.221	975.81
556.433	1007.81
556.646	988.81
556.859	957.81
557.071	1002.81
557.284	990.81
557.496	983.81
557.709	986.81
557.921	978.81
558.134	947.81
558.346	924.81
558.559	960.81
558.771	967.81
558.984	945.81
559.196	955.81
559.409	929.81
559.621	941.81
559.833	919.81
560.046	932.81
560.258	934.81
560.47	922.81
560.683	922.81
560.895	922.81
561.107	936.81
561.32	915.81
561.532	943.81
561.744	918.81
561.956	928.81
562.168	937.81
562.381	925.81
562.593	926.81
562.805	926.81
563.017	945.81
563.229	941.81
563.441	927.81
563.653	956.81
563.865	938.81
564.077	925.81
564.289	927.81
564.501	945.81
564.713	958.81
564.925	944.81
565.137	967.81
565.349	971.81
565.561	979.81
565.773	966.81
565.985	968.81
566.197	987.81
566.408	990.81
566.62	986.81
566.832	1041.81
567.044	1052.81
567.255	982.81
567.467	1007.81
567.679	1035.81
567.891	1045.81
568.102	1009.81
568.314	991.81
568.526	977.81
568.737	953.81
568.949	948.81
569.161	932.81
569.372	914.81
569.584	917.81
569.795	911.81
570.007	865.81
570.218	852.81
570.43	871.81
570.641	885.81
570.853	839.81
571.064	865.81
571.276	852.81
571.487	860.81
571.698	830.81
571.91	816.81
572.121	797.81
572.333	799.81
572.544	806.81
572.755	759.81
572.966	776.81
573.178	778.81
573.389	760.81
573.6	757.81
573.811	727.81
574.023	764.81
574.234	738.81
574.445	737.81
574.656	740.81
574.867	741.81
575.078	736.81
575.289	725.81
575.501	719.81
575.712	689.81
575.923	713.81
576.134	699.81
576.345	700.81
576.556	684.81
576.767	707.81
576.978	700.81
577.188	716.81
577.399	697.81
577.61	694.81
577.821	685.81
578.032	663.81
578.243	689.81
578.454	688.81
578.665	677.81
578.875	675.81
579.086	694.81
579.297	664.81
579.508	645.81
579.718	640.81
579.929	672.81
580.14	668.81
580.35	661.81
580.561	662.81
580.772	635.81
580.982	659.81
581.193	628.81
581.403	649.81
581.614	620.81
581.825	631.81
582.035	649.81
582.246	639.81
582.456	634.81
582.667	634.81
582.877	630.81
583.087	620.81
583.298	615.81
583.508	637.81
583.719	605.81
583.929	618.81
584.139	627.81
584.35	607.81
584.56	611.81
584.77	618.81
584.981	601.81
585.191	611.81
585.401	629.81
585.611	589.81
585.821	618.81
586.032	601.81
586.242	615.81
586.452	604.81
586.662	596.81
586.872	591.81
587.082	584.81
587.292	611.81
587.502	587.81
587.713	598.81
587.923	589.81
588.133	623.81
588.343	594.81
588.553	600.81
588.762	589.81
588.972	586.81
589.182	687.81
589.392	674.81
589.602	608.81
589.812	662.81
590.022	613.81
590.232	586.81
590.441	594.81
590.651	588.81
590.861	586.81
591.071	576.81
591.281	588.81
591.49	590.81
591.7	574.81
591.91	585.81
592.119	572.81
592.329	573.81
592.539	575.81
592.748	593.81
592.958	580.81
593.167	549.81
593.377	576.81
593.587	580.81
593.796	596.81
594.006	588.81
594.215	581.81
594.424	561.81
594.634	559.81
594.843	570.81
595.053	581.81
595.262	530.81
595.472	576.81
595.681	538.81
595.89	562.81
596.1	542.81
596.309	523.81
596.518	545.81
596.727	516.81
596.937	524.81
597.146	535.81
597.355	508.81
597.564	516.81
597.774	536.81
597.983	516.81
598.192	515.81
598.401	499.81
598.61	521.81
598.819	512.81
599.028	509.81
599.237	503.81
599.446	495.81
599.655	479.81
599.864	485.81
600.073	488.81
600.282	487.81
600.491	492.81
600.7	475.81
600.909	480.81
601.118	480.81
601.327	469.81
601.536	469.81
601.745	458.81
601.953	495.81
602.162	486.81
602.371	481.81
602.58	482.81
602.789	463.81
602.997	474.81
603.206	507.81
603.415	456.81
603.623	447.81
603.832	474.81
604.041	466.81
604.249	438.81
604.458	450.81
604.666	443.81
604.875	454.81
605.084	451.81
605.292	472.81
605.501	468.81
605.709	451.81
605.918	437.81
606.126	444.81
606.334	444.81
606.543	457.81
606.751	464.81
606.96	464.81
607.168	427.81
607.376	428.81
607.585	419.81
607.793	442.81
608.001	465.81
608.21	429.81
608.418	417.81
608.626	437.81
608.834	430.81
609.043	434.81
609.251	442.81
609.459	441.81
609.667	450.81
609.875	427.81
610.083	422.81
610.291	428.81
610.499	450.81
610.707	434.81
610.916	405.81
611.124	432.81
611.332	427.81
611.54	414.81
611.748	410.81
611.955	420.81
612.163	396.81
612.371	418.81
612.579	437.81
612.787	433.81
612.995	412.81
613.203	421.81
613.411	409.81
613.618	401.81
613.826	426.81
614.034	417.81
614.242	417.81
614.449	381.81
614.657	392.81
614.865	401.81
615.072	419.81
615.28	421.81
615.488	405.81
615.695	416.81
615.903	383.81
616.111	407.81
616.318	402.81
616.526	417.81
616.733	405.81
616.941	407.81
617.148	406.81
617.356	396.81
617.563	389.81
617.771	392.81
617.978	401.81
618.185	397.81
618.393	398.81
618.6	379.81
618.807	405.81
619.015	388.81
619.222	391.81
619.429	386.81
619.637	383.81
619.844	395.81
620.051	368.81
620.258	403.81
620.466	395.81
620.673	376.81
620.88	368.81
621.087	385.81
621.294	365.81
621.501	369.81
621.708	365.81
621.915	375.81
622.122	375.81
622.329	362.81
622.536	386.81
622.743	388.81
622.95	375.81
623.157	375.81
623.364	370.81
623.571	376.81
623.778	374.81
623.985	344.81
624.192	372.81
624.399	349.81
624.606	354.81
624.812	353.81
625.019	369.81
625.226	353.81
625.433	359.81
625.639	349.81
625.846	372.81
626.053	347.81
626.259	345.81
626.466	343.81
626.673	344.81
626.879	362.81
627.086	340.81
627.293	338.81
627.499	353.81
627.706	332.81
627.912	334.81
628.119	333.81
628.325	335.81
628.532	328.81
628.738	340.81
628.945	341.81
629.151	341.81
629.357	329.81
629.564	325.81
629.77	312.81
629.976	340.81
630.183	340.81
630.389	331.81
630.595	314.81
630.802	313.81
631.008	331.81
631.214	324.81
631.42	321.81
631.627	323.81
631.833	315.81
632.039	315.81
632.245	311.81
632.451	319.81
632.657	330.81
632.863	320.81
633.069	327.81
633.275	329.81
633.481	293.81
633.688	307.81
633.893	303.81
634.099	316.81
634.305	314.81
634.511	311.81
634.717	299.81
634.923	309.81
635.129	308.81
635.335	315.81
635.541	299.81
635.747	291.81
635.952	283.81
636.158	303.81
636.364	303.81
636.57	299.81
636.775	301.81
636.981	300.81
637.187	304.81
637.392	325.81
637.598	289.81
637.804	291.81
638.009	297.81
638.215	295.81
638.421	279.81
638.626	287.81
638.832	292.81
639.037	282.81
639.243	282.81
639.448	285.81
639.654	297.81
639.859	281.81
640.065	303.81
640.27	283.81
640.475	259.81
640.681	303.81
640.886	301.81
641.091	285.81
641.297	291.81
641.502	289.81
641.707	294.81
641.913	283.81
642.118	282.81
642.323	272.81
642.528	276.81
642.733	297.81
642.939	290.81
643.144	298.81
643.349	281.81
643.554	287.81
643.759	292.81
643.964	280.81
644.169	293.81
644.374	290.81
644.579	267.81
644.784	277.81
644.989	275.81
645.194	260.81
645.399	288.81
645.604	292.81
645.809	288.81
646.014	276.81
646.219	292.81
646.423	275.81
646.628	287.81
646.833	276.81
647.038	272.81
647.243	291.81
647.447	288.81
647.652	285.81
647.857	267.81
648.062	261.81
648.266	273.81
648.471	288.81
648.676	268.81
648.88	283.81
649.085	280.81
649.289	287.81
649.494	275.81
649.698	284.81
649.903	267.81
650.107	277.81
650.312	287.81
650.516	268.81
650.721	265.81
650.925	277.81
651.13	257.81
651.334	266.81
651.539	275.81
651.743	259.81
651.947	260.81
652.152	267.81
652.356	261.81
652.56	253.81
652.764	259.81
652.969	267.81
653.173	241.81
653.377	240.81
653.581	234.81
653.785	229.81
653.99	223.81
654.194	240.81
654.398	223.81
654.602	239.81
654.806	241.81
655.01	235.81
655.214	212.81
655.418	234.81
655.622	235.81
655.826	215.81
656.03	230.81
656.234	218.81
656.438	212.81
656.642	219.81
656.846	197.81
657.049	200.81
657.253	203.81
657.457	187.81
657.661	190.81
657.865	175.81
658.068	177.81
658.272	173.81
658.476	166.81
658.68	156.81
658.883	153.81
659.087	152.81
659.291	137.81
659.494	135.81
659.698	136.81
659.901	125.81
660.105	118.81
660.309	124.81
660.512	111.81
660.716	123.81
660.919	118.81
661.123	104.81
661.326	111.81
661.53	109.81
661.733	105.81
661.936	98.81
662.14	102.81
662.343	97.81
662.546	93.81
662.75	92.81
662.953	84.81
663.156	75.81
663.36	90.81
663.563	83.81
663.766	88.81
663.969	88.81
664.173	88.81
664.376	83.81
664.579	71.81
664.782	79.81
664.985	85.81
665.188	79.81
665.391	83.81
665.594	92.81
665.797	87.81
666	86.81
666.203	84.81
666.406	91.81
666.609	84.81
666.812	75.81
667.015	82.81
667.218	81.81
667.421	68.81
667.624	79.81
667.827	78.81
668.03	79.81
668.232	86.81
668.435	82.81
668.638	67.81
668.841	85.81
669.043	82.81
669.246	86.81
669.449	67.81
669.651	73.81
669.854	83.81
670.057	95.81
670.259	89.81
670.462	70.81
670.665	84.81
670.867	81.81
671.07	89.81
671.272	78.81
671.475	81.81
671.677	77.81
671.88	92.81
672.082	95.81
672.284	66.81
672.487	72.81
672.689	85.81
672.892	98.81
