Data from Ni(NO3)2@0.5M.TitratingCurve.Agarose3%dH2O.NegLispCup.LampEnergy10.LIBS07252019_HRD10591_17-59-39-565.txt Node
Date: Thu Jul 25 17:59:39 EDT 2019
User: cochatt
Spectrometer: HR+D1059
Trigger mode: 1
Integration Time (sec): 1.000000E-1
Scans to average: 1
Electric dark correction enabled: true
Nonlinearity correction enabled: false
Boxcar width: 0
XAxis mode: Wavelengths
Number of Pixels in Spectrum: 2048
>>>>>Begin Spectral Data<<<<<
223.165	-11.19
223.4	-11.19
223.635	-11.19
223.869	-27.19
224.104	-21.19
224.338	-2.19
224.573	-27.19
224.808	-18.19
225.042	-1.19
225.277	1.81
225.511	-13.19
225.746	-3.19
225.98	9.81
226.215	13.81
226.449	19.81
226.683	20.81
226.918	27.81
227.152	30.81
227.387	31.81
227.621	43.81
227.856	44.81
228.09	53.81
228.324	59.81
228.559	39.81
228.793	69.81
229.027	83.81
229.262	97.81
229.496	108.81
229.73	106.81
229.964	124.81
230.199	140.81
230.433	141.81
230.667	138.81
230.901	144.81
231.136	135.81
231.37	142.81
231.604	128.81
231.838	142.81
232.072	155.81
232.306	139.81
232.541	139.81
232.775	124.81
233.009	126.81
233.243	123.81
233.477	128.81
233.711	114.81
233.945	105.81
234.179	114.81
234.413	134.81
234.647	144.81
234.881	138.81
235.115	139.81
235.349	124.81
235.583	126.81
235.817	120.81
236.051	135.81
236.285	127.81
236.519	127.81
236.753	121.81
236.987	127.81
237.221	128.81
237.455	131.81
237.689	110.81
237.922	130.81
238.156	133.81
238.39	137.81
238.624	129.81
238.858	133.81
239.091	132.81
239.325	141.81
239.559	136.81
239.793	156.81
240.027	151.81
240.26	127.81
240.494	144.81
240.728	136.81
240.961	145.81
241.195	158.81
241.429	136.81
241.662	154.81
241.896	159.81
242.13	160.81
242.363	142.81
242.597	133.81
242.83	141.81
243.064	137.81
243.298	140.81
243.531	150.81
243.765	155.81
243.998	168.81
244.232	155.81
244.465	166.81
244.699	162.81
244.932	153.81
245.166	160.81
245.399	164.81
245.633	169.81
245.866	158.81
246.099	155.81
246.333	165.81
246.566	154.81
246.8	157.81
247.033	170.81
247.266	166.81
247.5	181.81
247.733	172.81
247.966	171.81
248.2	179.81
248.433	190.81
248.666	173.81
248.899	162.81
249.133	185.81
249.366	165.81
249.599	182.81
249.832	178.81
250.066	184.81
250.299	170.81
250.532	173.81
250.765	184.81
250.998	203.81
251.231	188.81
251.465	183.81
251.698	180.81
251.931	190.81
252.164	184.81
252.397	187.81
252.63	198.81
252.863	202.81
253.096	203.81
253.329	196.81
253.562	197.81
253.795	194.81
254.028	193.81
254.261	196.81
254.494	187.81
254.727	192.81
254.96	190.81
255.193	192.81
255.426	192.81
255.659	200.81
255.892	193.81
256.124	212.81
256.357	197.81
256.59	209.81
256.823	213.81
257.056	204.81
257.289	204.81
257.521	216.81
257.754	226.81
257.987	238.81
258.22	213.81
258.452	199.81
258.685	223.81
258.918	212.81
259.151	219.81
259.383	216.81
259.616	203.81
259.849	220.81
260.081	221.81
260.314	222.81
260.547	237.81
260.779	223.81
261.012	244.81
261.244	218.81
261.477	260.81
261.71	245.81
261.942	242.81
262.175	227.81
262.407	203.81
262.64	224.81
262.872	235.81
263.105	243.81
263.337	230.81
263.57	245.81
263.802	248.81
264.035	234.81
264.267	234.81
264.499	247.81
264.732	239.81
264.964	250.81
265.197	242.81
265.429	240.81
265.661	270.81
265.894	236.81
266.126	260.81
266.358	258.81
266.591	260.81
266.823	250.81
267.055	254.81
267.287	243.81
267.52	242.81
267.752	250.81
267.984	255.81
268.216	247.81
268.448	270.81
268.681	260.81
268.913	256.81
269.145	275.81
269.377	273.81
269.609	278.81
269.841	260.81
270.073	259.81
270.306	270.81
270.538	272.81
270.77	271.81
271.002	262.81
271.234	272.81
271.466	280.81
271.698	266.81
271.93	278.81
272.162	278.81
272.394	275.81
272.626	304.81
272.858	276.81
273.09	291.81
273.322	286.81
273.553	271.81
273.785	283.81
274.017	295.81
274.249	277.81
274.481	307.81
274.713	282.81
274.945	283.81
275.176	282.81
275.408	294.81
275.64	269.81
275.872	291.81
276.104	301.81
276.335	292.81
276.567	295.81
276.799	280.81
277.031	293.81
277.262	302.81
277.494	294.81
277.726	314.81
277.957	307.81
278.189	292.81
278.421	311.81
278.652	307.81
278.884	319.81
279.115	317.81
279.347	312.81
279.579	310.81
279.81	323.81
280.042	310.81
280.273	307.81
280.505	301.81
280.736	315.81
280.968	309.81
281.199	315.81
281.431	306.81
281.662	318.81
281.894	311.81
282.125	307.81
282.356	316.81
282.588	304.81
282.819	332.81
283.051	328.81
283.282	315.81
283.513	316.81
283.745	329.81
283.976	330.81
284.207	332.81
284.439	306.81
284.67	328.81
284.901	328.81
285.132	333.81
285.364	335.81
285.595	337.81
285.826	316.81
286.057	339.81
286.288	329.81
286.52	334.81
286.751	342.81
286.982	344.81
287.213	328.81
287.444	326.81
287.675	343.81
287.906	338.81
288.138	348.81
288.369	344.81
288.6	330.81
288.831	364.81
289.062	348.81
289.293	341.81
289.524	343.81
289.755	347.81
289.986	348.81
290.217	350.81
290.448	354.81
290.679	341.81
290.91	330.81
291.141	354.81
291.371	348.81
291.602	339.81
291.833	344.81
292.064	360.81
292.295	348.81
292.526	354.81
292.757	362.81
292.987	347.81
293.218	344.81
293.449	374.81
293.68	372.81
293.91	351.81
294.141	363.81
294.372	367.81
294.603	362.81
294.833	362.81
295.064	357.81
295.295	355.81
295.525	362.81
295.756	352.81
295.987	338.81
296.217	370.81
296.448	357.81
296.679	360.81
296.909	367.81
297.14	375.81
297.37	382.81
297.601	351.81
297.831	358.81
298.062	354.81
298.292	384.81
298.523	404.81
298.753	370.81
298.984	389.81
299.214	372.81
299.445	383.81
299.675	400.81
299.905	386.81
300.136	399.81
300.366	428.81
300.597	418.81
300.827	396.81
301.057	396.81
301.288	415.81
301.518	422.81
301.748	402.81
301.979	399.81
302.209	411.81
302.439	389.81
302.669	400.81
302.9	394.81
303.13	411.81
303.36	400.81
303.59	391.81
303.82	426.81
304.051	430.81
304.281	415.81
304.511	386.81
304.741	405.81
304.971	419.81
305.201	427.81
305.431	429.81
305.661	411.81
305.891	408.81
306.121	410.81
306.352	399.81
306.582	398.81
306.812	406.81
307.042	413.81
307.272	387.81
307.502	394.81
307.731	404.81
307.961	393.81
308.191	413.81
308.421	404.81
308.651	410.81
308.881	387.81
309.111	396.81
309.341	409.81
309.571	434.81
309.8	406.81
310.03	404.81
310.26	435.81
310.49	454.81
310.72	420.81
310.949	414.81
311.179	399.81
311.409	431.81
311.639	410.81
311.868	449.81
312.098	430.81
312.328	420.81
312.557	415.81
312.787	418.81
313.017	430.81
313.246	452.81
313.476	444.81
313.706	448.81
313.935	431.81
314.165	444.81
314.394	419.81
314.624	440.81
314.853	450.81
315.083	422.81
315.312	446.81
315.542	449.81
315.771	448.81
316.001	435.81
316.23	457.81
316.46	444.81
316.689	453.81
316.919	432.81
317.148	452.81
317.377	443.81
317.607	435.81
317.836	435.81
318.065	441.81
318.295	452.81
318.524	445.81
318.753	442.81
318.983	441.81
319.212	451.81
319.441	435.81
319.67	454.81
319.9	456.81
320.129	453.81
320.358	444.81
320.587	459.81
320.816	456.81
321.046	455.81
321.275	459.81
321.504	454.81
321.733	462.81
321.962	455.81
322.191	468.81
322.42	460.81
322.649	476.81
322.878	465.81
323.108	466.81
323.337	476.81
323.566	456.81
323.795	476.81
324.024	477.81
324.253	504.81
324.482	468.81
324.71	476.81
324.939	475.81
325.168	482.81
325.397	485.81
325.626	489.81
325.855	488.81
326.084	477.81
326.313	496.81
326.542	477.81
326.77	483.81
326.999	494.81
327.228	499.81
327.457	491.81
327.686	485.81
327.914	486.81
328.143	487.81
328.372	481.81
328.6	508.81
328.829	499.81
329.058	487.81
329.287	490.81
329.515	509.81
329.744	511.81
329.972	496.81
330.201	485.81
330.43	513.81
330.658	517.81
330.887	515.81
331.115	496.81
331.344	524.81
331.572	526.81
331.801	541.81
332.03	544.81
332.258	532.81
332.486	545.81
332.715	542.81
332.943	544.81
333.172	549.81
333.4	549.81
333.629	582.81
333.857	583.81
334.085	605.81
334.314	578.81
334.542	589.81
334.771	581.81
334.999	591.81
335.227	594.81
335.455	592.81
335.684	582.81
335.912	596.81
336.14	590.81
336.369	589.81
336.597	576.81
336.825	580.81
337.053	575.81
337.281	575.81
337.51	583.81
337.738	563.81
337.966	594.81
338.194	584.81
338.422	546.81
338.65	535.81
338.878	535.81
339.106	546.81
339.334	572.81
339.562	567.81
339.79	553.81
340.018	541.81
340.246	540.81
340.474	523.81
340.702	536.81
340.93	544.81
341.158	550.81
341.386	541.81
341.614	580.81
341.842	573.81
342.07	542.81
342.298	546.81
342.526	545.81
342.754	542.81
342.981	567.81
343.209	555.81
343.437	574.81
343.665	578.81
343.893	580.81
344.12	609.81
344.348	598.81
344.576	593.81
344.804	600.81
345.031	554.81
345.259	526.81
345.487	560.81
345.714	585.81
345.942	554.81
346.17	575.81
346.397	556.81
346.625	556.81
346.853	535.81
347.08	549.81
347.308	557.81
347.535	526.81
347.763	535.81
347.99	529.81
348.218	536.81
348.445	527.81
348.673	507.81
348.9	504.81
349.128	538.81
349.355	538.81
349.583	541.81
349.81	521.81
350.037	524.81
350.265	495.81
350.492	523.81
350.72	509.81
350.947	518.81
351.174	525.81
351.402	536.81
351.629	551.81
351.856	540.81
352.083	532.81
352.311	527.81
352.538	538.81
352.765	528.81
352.992	522.81
353.22	509.81
353.447	471.81
353.674	525.81
353.901	504.81
354.128	487.81
354.355	508.81
354.583	494.81
354.81	498.81
355.037	502.81
355.264	508.81
355.491	510.81
355.718	476.81
355.945	487.81
356.172	510.81
356.399	508.81
356.626	518.81
356.853	528.81
357.08	511.81
357.307	489.81
357.534	481.81
357.761	514.81
357.988	514.81
358.215	497.81
358.441	489.81
358.668	502.81
358.895	498.81
359.122	495.81
359.349	516.81
359.576	508.81
359.802	498.81
360.029	491.81
360.256	517.81
360.483	490.81
360.709	520.81
360.936	518.81
361.163	520.81
361.39	505.81
361.616	551.81
361.843	528.81
362.07	556.81
362.296	530.81
362.523	530.81
362.749	513.81
362.976	522.81
363.203	509.81
363.429	481.81
363.656	502.81
363.882	511.81
364.109	517.81
364.335	509.81
364.562	513.81
364.788	525.81
365.015	507.81
365.241	536.81
365.468	508.81
365.694	503.81
365.92	525.81
366.147	526.81
366.373	532.81
366.599	511.81
366.826	506.81
367.052	504.81
367.278	533.81
367.505	516.81
367.731	520.81
367.957	514.81
368.184	516.81
368.41	519.81
368.636	518.81
368.862	547.81
369.089	535.81
369.315	535.81
369.541	526.81
369.767	516.81
369.993	532.81
370.219	531.81
370.445	536.81
370.672	516.81
370.898	543.81
371.124	546.81
371.35	550.81
371.576	553.81
371.802	558.81
372.028	533.81
372.254	538.81
372.48	562.81
372.706	551.81
372.932	551.81
373.158	543.81
373.384	565.81
373.61	548.81
373.835	551.81
374.061	560.81
374.287	563.81
374.513	577.81
374.739	569.81
374.965	571.81
375.191	583.81
375.416	582.81
375.642	563.81
375.868	564.81
376.094	573.81
376.319	534.81
376.545	557.81
376.771	555.81
376.997	550.81
377.222	540.81
377.448	536.81
377.674	563.81
377.899	527.81
378.125	524.81
378.35	536.81
378.576	540.81
378.802	550.81
379.027	534.81
379.253	543.81
379.478	560.81
379.704	555.81
379.929	528.81
380.155	548.81
380.38	541.81
380.606	539.81
380.831	536.81
381.057	552.81
381.282	540.81
381.507	550.81
381.733	544.81
381.958	560.81
382.184	554.81
382.409	564.81
382.634	559.81
382.86	552.81
383.085	549.81
383.31	546.81
383.535	586.81
383.761	564.81
383.986	580.81
384.211	583.81
384.436	580.81
384.662	597.81
384.887	594.81
385.112	589.81
385.337	582.81
385.562	588.81
385.787	636.81
386.013	628.81
386.238	653.81
386.463	611.81
386.688	610.81
386.913	605.81
387.138	617.81
387.363	611.81
387.588	607.81
387.813	627.81
388.038	630.81
388.263	618.81
388.488	635.81
388.713	611.81
388.938	636.81
389.163	613.81
389.387	633.81
389.612	609.81
389.837	635.81
390.062	623.81
390.287	620.81
390.512	624.81
390.736	656.81
390.961	663.81
391.186	642.81
391.411	640.81
391.636	635.81
391.86	662.81
392.085	660.81
392.31	660.81
392.534	647.81
392.759	659.81
392.984	646.81
393.208	654.81
393.433	692.81
393.658	656.81
393.882	644.81
394.107	639.81
394.331	653.81
394.556	681.81
394.78	648.81
395.005	638.81
395.229	650.81
395.454	653.81
395.678	657.81
395.903	686.81
396.127	694.81
396.352	662.81
396.576	674.81
396.801	672.81
397.025	685.81
397.249	685.81
397.474	718.81
397.698	681.81
397.922	686.81
398.147	713.81
398.371	709.81
398.595	738.81
398.82	736.81
399.044	774.81
399.268	792.81
399.492	852.81
399.717	866.81
399.941	906.81
400.165	850.81
400.389	817.81
400.613	793.81
400.837	790.81
401.062	755.81
401.286	743.81
401.51	745.81
401.734	746.81
401.958	728.81
402.182	740.81
402.406	741.81
402.63	737.81
402.854	757.81
403.078	750.81
403.302	759.81
403.526	731.81
403.75	728.81
403.974	751.81
404.198	749.81
404.422	717.81
404.645	754.81
404.869	758.81
405.093	729.81
405.317	758.81
405.541	766.81
405.765	763.81
405.988	765.81
406.212	797.81
406.436	785.81
406.66	801.81
406.883	806.81
407.107	808.81
407.331	850.81
407.555	864.81
407.778	834.81
408.002	853.81
408.226	835.81
408.449	828.81
408.673	803.81
408.896	831.81
409.12	815.81
409.344	822.81
409.567	778.81
409.791	796.81
410.014	787.81
410.238	764.81
410.461	805.81
410.685	799.81
410.908	781.81
411.132	765.81
411.355	774.81
411.578	775.81
411.802	778.81
412.025	746.81
412.249	757.81
412.472	750.81
412.695	747.81
412.919	766.81
413.142	740.81
413.365	738.81
413.589	752.81
413.812	739.81
414.035	748.81
414.258	750.81
414.482	749.81
414.705	760.81
414.928	736.81
415.151	770.81
415.374	728.81
415.597	760.81
415.821	732.81
416.044	727.81
416.267	719.81
416.49	711.81
416.713	706.81
416.936	731.81
417.159	718.81
417.382	718.81
417.605	709.81
417.828	708.81
418.051	711.81
418.274	701.81
418.497	704.81
418.72	729.81
418.943	732.81
419.166	775.81
419.389	788.81
419.611	767.81
419.834	783.81
420.057	723.81
420.28	686.81
420.503	718.81
420.726	724.81
420.948	718.81
421.171	702.81
421.394	715.81
421.617	692.81
421.839	712.81
422.062	744.81
422.285	692.81
422.507	715.81
422.73	697.81
422.953	708.81
423.175	713.81
423.398	732.81
423.621	701.81
423.843	730.81
424.066	720.81
424.288	722.81
424.511	724.81
424.733	711.81
424.956	688.81
425.178	719.81
425.401	714.81
425.623	734.81
425.846	699.81
426.068	687.81
426.291	683.81
426.513	714.81
426.735	696.81
426.958	703.81
427.18	681.81
427.402	695.81
427.625	670.81
427.847	684.81
428.069	675.81
428.292	685.81
428.514	692.81
428.736	682.81
428.958	692.81
429.181	662.81
429.403	686.81
429.625	678.81
429.847	676.81
430.069	663.81
430.292	670.81
430.514	657.81
430.736	676.81
430.958	669.81
431.18	692.81
431.402	691.81
431.624	684.81
431.846	693.81
432.068	673.81
432.29	698.81
432.512	687.81
432.734	669.81
432.956	680.81
433.178	721.81
433.4	736.81
433.622	714.81
433.844	709.81
434.066	707.81
434.287	696.81
434.509	719.81
434.731	732.81
434.953	731.81
435.175	734.81
435.397	754.81
435.618	714.81
435.84	702.81
436.062	688.81
436.284	687.81
436.505	684.81
436.727	675.81
436.949	701.81
437.17	704.81
437.392	693.81
437.614	669.81
437.835	681.81
438.057	655.81
438.278	658.81
438.5	650.81
438.721	671.81
438.943	671.81
439.165	679.81
439.386	669.81
439.608	689.81
439.829	698.81
440.05	692.81
440.272	678.81
440.493	696.81
440.715	710.81
440.936	691.81
441.158	692.81
441.379	708.81
441.6	744.81
441.822	740.81
442.043	726.81
442.264	712.81
442.486	695.81
442.707	707.81
442.928	704.81
443.149	726.81
443.371	713.81
443.592	803.81
443.813	741.81
444.034	728.81
444.255	731.81
444.476	761.81
444.698	790.81
444.919	777.81
445.14	854.81
445.361	808.81
445.582	713.81
445.803	728.81
446.024	692.81
446.245	720.81
446.466	712.81
446.687	693.81
446.908	710.81
447.129	668.81
447.35	686.81
447.571	674.81
447.792	650.81
448.013	664.81
448.234	651.81
448.455	630.81
448.675	655.81
448.896	669.81
449.117	655.81
449.338	622.81
449.559	620.81
449.779	631.81
450	638.81
450.221	621.81
450.442	631.81
450.662	642.81
450.883	646.81
451.104	664.81
451.324	639.81
451.545	631.81
451.766	620.81
451.986	614.81
452.207	634.81
452.428	623.81
452.648	630.81
452.869	623.81
453.089	600.81
453.31	637.81
453.53	616.81
453.751	594.81
453.971	611.81
454.192	594.81
454.412	616.81
454.633	620.81
454.853	592.81
455.073	599.81
455.294	624.81
455.514	608.81
455.734	578.81
455.955	606.81
456.175	621.81
456.395	597.81
456.616	603.81
456.836	602.81
457.056	604.81
457.276	602.81
457.497	604.81
457.717	583.81
457.937	616.81
458.157	622.81
458.377	616.81
458.598	638.81
458.818	638.81
459.038	643.81
459.258	645.81
459.478	669.81
459.698	754.81
459.918	760.81
460.138	723.81
460.358	724.81
460.578	739.81
460.798	761.81
461.018	768.81
461.238	759.81
461.458	727.81
461.678	752.81
461.898	758.81
462.118	754.81
462.338	777.81
462.558	797.81
462.777	811.81
462.997	862.81
463.217	882.81
463.437	896.81
463.657	867.81
463.876	810.81
464.096	776.81
464.316	820.81
464.536	814.81
464.755	805.81
464.975	769.81
465.195	746.81
465.414	733.81
465.634	734.81
465.854	711.81
466.073	674.81
466.293	679.81
466.512	667.81
466.732	660.81
466.951	679.81
467.171	680.81
467.391	650.81
467.61	661.81
467.829	636.81
468.049	663.81
468.268	653.81
468.488	648.81
468.707	656.81
468.927	648.81
469.146	660.81
469.365	666.81
469.585	637.81
469.804	687.81
470.023	655.81
470.243	654.81
470.462	676.81
470.681	670.81
470.901	651.81
471.12	670.81
471.339	652.81
471.558	652.81
471.777	647.81
471.997	635.81
472.216	659.81
472.435	631.81
472.654	642.81
472.873	657.81
473.092	653.81
473.311	641.81
473.53	648.81
473.749	659.81
473.968	643.81
474.187	640.81
474.406	635.81
474.625	657.81
474.844	638.81
475.063	660.81
475.282	664.81
475.501	656.81
475.72	632.81
475.939	673.81
476.158	660.81
476.377	660.81
476.596	675.81
476.814	679.81
477.033	679.81
477.252	693.81
477.471	694.81
477.69	716.81
477.908	721.81
478.127	732.81
478.346	741.81
478.564	750.81
478.783	735.81
479.002	782.81
479.22	820.81
479.439	790.81
479.658	766.81
479.876	778.81
480.095	753.81
480.313	794.81
480.532	764.81
480.751	772.81
480.969	781.81
481.188	790.81
481.406	768.81
481.624	761.81
481.843	781.81
482.061	745.81
482.28	773.81
482.498	773.81
482.717	749.81
482.935	746.81
483.153	779.81
483.372	782.81
483.59	822.81
483.808	760.81
484.027	766.81
484.245	760.81
484.463	785.81
484.681	762.81
484.9	776.81
485.118	785.81
485.336	787.81
485.554	760.81
485.772	790.81
485.99	789.81
486.209	791.81
486.427	762.81
486.645	782.81
486.863	808.81
487.081	790.81
487.299	793.81
487.517	817.81
487.735	820.81
487.953	821.81
488.171	800.81
488.389	797.81
488.607	779.81
488.825	792.81
489.043	792.81
489.261	797.81
489.479	788.81
489.696	805.81
489.914	784.81
490.132	780.81
490.35	823.81
490.568	795.81
490.786	804.81
491.003	807.81
491.221	821.81
491.439	801.81
491.657	782.81
491.874	804.81
492.092	805.81
492.31	798.81
492.527	819.81
492.745	814.81
492.963	824.81
493.18	775.81
493.398	793.81
493.615	803.81
493.833	792.81
494.05	807.81
494.268	823.81
494.485	837.81
494.703	843.81
494.92	829.81
495.138	808.81
495.355	831.81
495.573	811.81
495.79	851.81
496.008	847.81
496.225	870.81
496.442	850.81
496.66	845.81
496.877	851.81
497.094	872.81
497.312	899.81
497.529	886.81
497.746	924.81
497.963	894.81
498.181	953.81
498.398	972.81
498.615	995.81
498.832	1051.81
499.049	1078.81
499.267	1141.81
499.484	1178.81
499.701	1254.81
499.918	1286.81
500.135	1406.81
500.352	1416.81
500.569	1489.81
500.786	1485.81
501.003	1433.81
501.22	1391.81
501.437	1322.81
501.654	1226.81
501.871	1166.81
502.088	1113.81
502.305	1094.81
502.522	1038.81
502.739	1026.81
502.956	967.81
503.172	949.81
503.389	904.81
503.606	904.81
503.823	924.81
504.04	898.81
504.256	869.81
504.473	854.81
504.69	866.81
504.907	873.81
505.123	840.81
505.34	797.81
505.557	790.81
505.773	780.81
505.99	784.81
506.207	742.81
506.423	748.81
506.64	755.81
506.856	719.81
507.073	735.81
507.289	735.81
507.506	730.81
507.722	710.81
507.939	731.81
508.155	696.81
508.372	673.81
508.588	683.81
508.805	710.81
509.021	692.81
509.238	682.81
509.454	690.81
509.67	669.81
509.887	681.81
510.103	657.81
510.319	647.81
510.536	660.81
510.752	646.81
510.968	643.81
511.184	638.81
511.401	655.81
511.617	642.81
511.833	638.81
512.049	651.81
512.265	620.81
512.481	631.81
512.698	642.81
512.914	660.81
513.13	652.81
513.346	648.81
513.562	633.81
513.778	636.81
513.994	653.81
514.21	666.81
514.426	662.81
514.642	659.81
514.858	648.81
515.074	647.81
515.29	650.81
515.506	674.81
515.721	681.81
515.937	664.81
516.153	659.81
516.369	695.81
516.585	705.81
516.801	708.81
517.016	736.81
517.232	745.81
517.448	730.81
517.664	750.81
517.879	735.81
518.095	740.81
518.311	743.81
518.527	733.81
518.742	704.81
518.958	707.81
519.173	701.81
519.389	680.81
519.605	679.81
519.82	662.81
520.036	674.81
520.251	645.81
520.467	638.81
520.682	635.81
520.898	616.81
521.113	630.81
521.329	610.81
521.544	628.81
521.76	620.81
521.975	610.81
522.19	633.81
522.406	607.81
522.621	605.81
522.836	602.81
523.052	597.81
523.267	593.81
523.482	586.81
523.698	571.81
523.913	604.81
524.128	584.81
524.343	591.81
524.559	571.81
524.774	574.81
524.989	594.81
525.204	589.81
525.419	602.81
525.634	578.81
525.849	573.81
526.064	580.81
526.28	577.81
526.495	585.81
526.71	574.81
526.925	586.81
527.14	557.81
527.355	578.81
527.57	572.81
527.785	556.81
527.999	562.81
528.214	569.81
528.429	570.81
528.644	545.81
528.859	582.81
529.074	583.81
529.289	562.81
529.503	574.81
529.718	579.81
529.933	581.81
530.148	582.81
530.363	580.81
530.577	546.81
530.792	583.81
531.007	542.81
531.221	573.81
531.436	540.81
531.651	589.81
531.865	570.81
532.08	562.81
532.295	564.81
532.509	548.81
532.724	551.81
532.938	556.81
533.153	560.81
533.367	568.81
533.582	552.81
533.796	543.81
534.011	556.81
534.225	542.81
534.44	546.81
534.654	539.81
534.868	551.81
535.083	554.81
535.297	549.81
535.511	549.81
535.726	558.81
535.94	536.81
536.154	544.81
536.369	543.81
536.583	520.81
536.797	537.81
537.011	538.81
537.225	525.81
537.44	522.81
537.654	531.81
537.868	517.81
538.082	526.81
538.296	549.81
538.51	528.81
538.724	530.81
538.938	510.81
539.153	525.81
539.367	531.81
539.581	509.81
539.795	531.81
540.009	531.81
540.222	495.81
540.436	509.81
540.65	507.81
540.864	516.81
541.078	528.81
541.292	515.81
541.506	511.81
541.72	527.81
541.934	523.81
542.147	519.81
542.361	546.81
542.575	536.81
542.789	506.81
543.002	487.81
543.216	514.81
543.43	514.81
543.644	499.81
543.857	518.81
544.071	505.81
544.285	507.81
544.498	493.81
544.712	512.81
544.925	511.81
545.139	546.81
545.352	544.81
545.566	525.81
545.779	517.81
545.993	524.81
546.206	522.81
546.42	516.81
546.633	547.81
546.847	528.81
547.06	529.81
547.274	504.81
547.487	522.81
547.7	516.81
547.914	518.81
548.127	511.81
548.34	507.81
548.554	491.81
548.767	512.81
548.98	501.81
549.193	498.81
549.407	539.81
549.62	519.81
549.833	526.81
550.046	507.81
550.259	501.81
550.473	498.81
550.686	508.81
550.899	522.81
551.112	515.81
551.325	515.81
551.538	512.81
551.751	498.81
551.964	507.81
552.177	517.81
552.39	511.81
552.603	542.81
552.816	530.81
553.029	550.81
553.242	526.81
553.455	521.81
553.667	512.81
553.88	510.81
554.093	496.81
554.306	518.81
554.519	511.81
554.732	500.81
554.944	492.81
555.157	474.81
555.37	473.81
555.583	460.81
555.795	466.81
556.008	477.81
556.221	458.81
556.433	454.81
556.646	452.81
556.859	466.81
557.071	462.81
557.284	460.81
557.496	457.81
557.709	439.81
557.921	446.81
558.134	456.81
558.346	462.81
558.559	454.81
558.771	458.81
558.984	442.81
559.196	435.81
559.409	431.81
559.621	442.81
559.833	416.81
560.046	452.81
560.258	445.81
560.47	424.81
560.683	438.81
560.895	466.81
561.107	427.81
561.32	438.81
561.532	412.81
561.744	413.81
561.956	432.81
562.168	441.81
562.381	445.81
562.593	452.81
562.805	448.81
563.017	435.81
563.229	438.81
563.441	434.81
563.653	441.81
563.865	431.81
564.077	439.81
564.289	454.81
564.501	451.81
564.713	471.81
564.925	452.81
565.137	461.81
565.349	479.81
565.561	490.81
565.773	494.81
565.985	475.81
566.197	534.81
566.408	526.81
566.62	532.81
566.832	570.81
567.044	571.81
567.255	565.81
567.467	575.81
567.679	584.81
567.891	591.81
568.102	567.81
568.314	559.81
568.526	570.81
568.737	499.81
568.949	501.81
569.161	493.81
569.372	477.81
569.584	457.81
569.795	454.81
570.007	430.81
570.218	438.81
570.43	414.81
570.641	413.81
570.853	438.81
571.064	416.81
571.276	419.81
571.487	396.81
571.698	405.81
571.91	398.81
572.121	399.81
572.333	402.81
572.544	397.81
572.755	357.81
572.966	370.81
573.178	373.81
573.389	377.81
573.6	370.81
573.811	368.81
574.023	363.81
574.234	362.81
574.445	332.81
574.656	370.81
574.867	358.81
575.078	355.81
575.289	346.81
575.501	351.81
575.712	342.81
575.923	359.81
576.134	348.81
576.345	349.81
576.556	346.81
576.767	355.81
576.978	352.81
577.188	333.81
577.399	358.81
577.61	342.81
577.821	352.81
578.032	338.81
578.243	334.81
578.454	316.81
578.665	315.81
578.875	326.81
579.086	330.81
579.297	344.81
579.508	332.81
579.718	315.81
579.929	319.81
580.14	311.81
580.35	328.81
580.561	312.81
580.772	320.81
580.982	314.81
581.193	323.81
581.403	318.81
581.614	320.81
581.825	330.81
582.035	333.81
582.246	291.81
582.456	308.81
582.667	301.81
582.877	314.81
583.087	299.81
583.298	314.81
583.508	314.81
583.719	319.81
583.929	310.81
584.139	315.81
584.35	282.81
584.56	302.81
584.77	298.81
584.981	290.81
585.191	300.81
585.401	291.81
585.611	306.81
585.821	291.81
586.032	285.81
586.242	291.81
586.452	324.81
586.662	270.81
586.872	301.81
587.082	304.81
587.292	301.81
587.502	294.81
587.713	291.81
587.923	312.81
588.133	277.81
588.343	288.81
588.553	302.81
588.762	297.81
588.972	298.81
589.182	322.81
589.392	325.81
589.602	303.81
589.812	312.81
590.022	316.81
590.232	300.81
590.441	303.81
590.651	283.81
590.861	301.81
591.071	312.81
591.281	302.81
591.49	306.81
591.7	294.81
591.91	307.81
592.119	301.81
592.329	298.81
592.539	313.81
592.748	314.81
592.958	307.81
593.167	309.81
593.377	310.81
593.587	313.81
593.796	310.81
594.006	314.81
594.215	302.81
594.424	287.81
594.634	304.81
594.843	320.81
595.053	300.81
595.262	309.81
595.472	291.81
595.681	291.81
595.89	298.81
596.1	278.81
596.309	292.81
596.518	288.81
596.727	282.81
596.937	286.81
597.146	284.81
597.355	267.81
597.564	270.81
597.774	279.81
597.983	250.81
598.192	252.81
598.401	258.81
598.61	265.81
598.819	253.81
599.028	258.81
599.237	268.81
599.446	265.81
599.655	242.81
599.864	247.81
600.073	248.81
600.282	243.81
600.491	265.81
600.7	274.81
600.909	257.81
601.118	258.81
601.327	248.81
601.536	240.81
601.745	248.81
601.953	247.81
602.162	248.81
602.371	254.81
602.58	246.81
602.789	239.81
602.997	250.81
603.206	235.81
603.415	247.81
603.623	234.81
603.832	242.81
604.041	242.81
604.249	246.81
604.458	232.81
604.666	234.81
604.875	225.81
605.084	263.81
605.292	236.81
605.501	249.81
605.709	242.81
605.918	231.81
606.126	234.81
606.334	235.81
606.543	244.81
606.751	250.81
606.96	233.81
607.168	242.81
607.376	228.81
607.585	235.81
607.793	235.81
608.001	227.81
608.21	237.81
608.418	237.81
608.626	229.81
608.834	228.81
609.043	220.81
609.251	243.81
609.459	219.81
609.667	212.81
609.875	237.81
610.083	228.81
610.291	228.81
610.499	231.81
610.707	246.81
610.916	219.81
611.124	236.81
611.332	245.81
611.54	222.81
611.748	218.81
611.955	226.81
612.163	216.81
612.371	233.81
612.579	230.81
612.787	236.81
612.995	246.81
613.203	235.81
613.411	228.81
613.618	227.81
613.826	219.81
614.034	219.81
614.242	227.81
614.449	214.81
614.657	219.81
614.865	236.81
615.072	213.81
615.28	203.81
615.488	205.81
615.695	217.81
615.903	215.81
616.111	217.81
616.318	222.81
616.526	219.81
616.733	223.81
616.941	228.81
617.148	224.81
617.356	218.81
617.563	217.81
617.771	215.81
617.978	201.81
618.185	217.81
618.393	216.81
618.6	196.81
618.807	202.81
619.015	205.81
619.222	212.81
619.429	229.81
619.637	203.81
619.844	215.81
620.051	207.81
620.258	208.81
620.466	187.81
620.673	203.81
620.88	208.81
621.087	210.81
621.294	206.81
621.501	195.81
621.708	195.81
621.915	218.81
622.122	219.81
622.329	203.81
622.536	207.81
622.743	205.81
622.95	202.81
623.157	215.81
623.364	206.81
623.571	202.81
623.778	199.81
623.985	219.81
624.192	213.81
624.399	208.81
624.606	207.81
624.812	207.81
625.019	205.81
625.226	188.81
625.433	187.81
625.639	202.81
625.846	195.81
626.053	198.81
626.259	196.81
626.466	187.81
626.673	213.81
626.879	186.81
627.086	197.81
627.293	203.81
627.499	197.81
627.706	199.81
627.912	185.81
628.119	190.81
628.325	178.81
628.532	189.81
628.738	173.81
628.945	195.81
629.151	196.81
629.357	197.81
629.564	199.81
629.77	189.81
629.976	199.81
630.183	197.81
630.389	200.81
630.595	195.81
630.802	188.81
631.008	199.81
631.214	182.81
631.42	187.81
631.627	195.81
631.833	188.81
632.039	189.81
632.245	182.81
632.451	180.81
632.657	187.81
632.863	170.81
633.069	181.81
633.275	182.81
633.481	172.81
633.688	200.81
633.893	196.81
634.099	191.81
634.305	171.81
634.511	189.81
634.717	173.81
634.923	178.81
635.129	174.81
635.335	182.81
635.541	180.81
635.747	161.81
635.952	170.81
636.158	168.81
636.364	173.81
636.57	179.81
636.775	182.81
636.981	178.81
637.187	164.81
637.392	180.81
637.598	184.81
637.804	186.81
638.009	179.81
638.215	188.81
638.421	168.81
638.626	185.81
638.832	187.81
639.037	159.81
639.243	172.81
639.448	164.81
639.654	173.81
639.859	168.81
640.065	187.81
640.27	192.81
640.475	176.81
640.681	168.81
640.886	171.81
641.091	182.81
641.297	170.81
641.502	176.81
641.707	158.81
641.913	183.81
642.118	183.81
642.323	182.81
642.528	176.81
642.733	174.81
642.939	163.81
643.144	180.81
643.349	189.81
643.554	170.81
643.759	174.81
643.964	175.81
644.169	178.81
644.374	160.81
644.579	167.81
644.784	180.81
644.989	170.81
645.194	198.81
645.399	189.81
645.604	164.81
645.809	156.81
646.014	196.81
646.219	176.81
646.423	165.81
646.628	196.81
646.833	178.81
647.038	152.81
647.243	181.81
647.447	175.81
647.652	178.81
647.857	164.81
648.062	172.81
648.266	183.81
648.471	185.81
648.676	191.81
648.88	170.81
649.085	200.81
649.289	182.81
649.494	166.81
649.698	177.81
649.903	168.81
650.107	180.81
650.312	164.81
650.516	164.81
650.721	149.81
650.925	182.81
651.13	171.81
651.334	174.81
651.539	183.81
651.743	185.81
651.947	188.81
652.152	174.81
652.356	178.81
652.56	192.81
652.764	174.81
652.969	172.81
653.173	167.81
653.377	167.81
653.581	170.81
653.785	166.81
653.99	163.81
654.194	182.81
654.398	178.81
654.602	166.81
654.806	174.81
655.01	181.81
655.214	191.81
655.418	195.81
655.622	179.81
655.826	189.81
656.03	193.81
656.234	194.81
656.438	185.81
656.642	174.81
656.846	188.81
657.049	197.81
657.253	173.81
657.457	174.81
657.661	179.81
657.865	166.81
658.068	134.81
658.272	141.81
658.476	135.81
658.68	125.81
658.883	128.81
659.087	129.81
659.291	121.81
659.494	130.81
659.698	114.81
659.901	111.81
660.105	122.81
660.309	109.81
660.512	116.81
660.716	117.81
660.919	103.81
661.123	114.81
661.326	104.81
661.53	101.81
661.733	97.81
661.936	82.81
662.14	95.81
662.343	87.81
662.546	89.81
662.75	88.81
662.953	98.81
663.156	84.81
663.36	84.81
663.563	96.81
663.766	85.81
663.969	80.81
664.173	82.81
664.376	75.81
664.579	96.81
664.782	95.81
664.985	94.81
665.188	88.81
665.391	79.81
665.594	91.81
665.797	89.81
666	85.81
666.203	95.81
666.406	70.81
666.609	94.81
666.812	76.81
667.015	76.81
667.218	85.81
667.421	87.81
667.624	86.81
667.827	73.81
668.03	89.81
668.232	82.81
668.435	76.81
668.638	78.81
668.841	75.81
669.043	87.81
669.246	91.81
669.449	96.81
669.651	89.81
669.854	85.81
670.057	89.81
670.259	85.81
670.462	83.81
670.665	76.81
670.867	93.81
671.07	78.81
671.272	83.81
671.475	98.81
671.677	73.81
671.88	85.81
672.082	88.81
672.284	91.81
672.487	85.81
672.689	67.81
672.892	68.81
