Data from Ni(NO3)2Standard.Agarose3%.GreenCap.LampEnergy5.5.E.O_HRD10591_14-39-07-189.txt Node
Date: Mon Jul 22 14:39:07 EDT 2019
User: cochatt
Spectrometer: HR+D1059
Trigger mode: 1
Integration Time (sec): 1.000000E-1
Scans to average: 1
Electric dark correction enabled: true
Nonlinearity correction enabled: false
Boxcar width: 0
XAxis mode: Wavelengths
Number of Pixels in Spectrum: 2048
>>>>>Begin Spectral Data<<<<<
223.165	-7.62
223.4	-7.62
223.635	-7.62
223.869	-12.62
224.104	-23.62
224.338	-10.62
224.573	-14.62
224.808	-9.62
225.042	-15.62
225.277	-6.62
225.511	5.38
225.746	2.38
225.98	1.38
226.215	8.38
226.449	23.38
226.683	18.38
226.918	18.38
227.152	23.38
227.387	25.38
227.621	33.38
227.856	57.38
228.09	49.38
228.324	39.38
228.559	54.38
228.793	67.38
229.027	57.38
229.262	65.38
229.496	66.38
229.73	76.38
229.964	60.38
230.199	89.38
230.433	77.38
230.667	78.38
230.901	82.38
231.136	84.38
231.37	74.38
231.604	79.38
231.838	81.38
232.072	88.38
232.306	90.38
232.541	90.38
232.775	85.38
233.009	88.38
233.243	74.38
233.477	78.38
233.711	86.38
233.945	88.38
234.179	81.38
234.413	80.38
234.647	85.38
234.881	77.38
235.115	80.38
235.349	78.38
235.583	86.38
235.817	82.38
236.051	82.38
236.285	75.38
236.519	76.38
236.753	73.38
236.987	82.38
237.221	78.38
237.455	76.38
237.689	80.38
237.922	90.38
238.156	83.38
238.39	88.38
238.624	85.38
238.858	87.38
239.091	67.38
239.325	72.38
239.559	65.38
239.793	76.38
240.027	82.38
240.26	73.38
240.494	83.38
240.728	82.38
240.961	80.38
241.195	70.38
241.429	84.38
241.662	82.38
241.896	77.38
242.13	81.38
242.363	86.38
242.597	86.38
242.83	74.38
243.064	69.38
243.298	95.38
243.531	67.38
243.765	77.38
243.998	96.38
244.232	87.38
244.465	78.38
244.699	75.38
244.932	89.38
245.166	83.38
245.399	78.38
245.633	74.38
245.866	88.38
246.099	103.38
246.333	84.38
246.566	91.38
246.8	90.38
247.033	79.38
247.266	63.38
247.5	79.38
247.733	76.38
247.966	71.38
248.2	68.38
248.433	84.38
248.666	77.38
248.899	69.38
249.133	86.38
249.366	82.38
249.599	62.38
249.832	83.38
250.066	85.38
250.299	79.38
250.532	75.38
250.765	84.38
250.998	86.38
251.231	77.38
251.465	79.38
251.698	74.38
251.931	77.38
252.164	67.38
252.397	87.38
252.63	87.38
252.863	77.38
253.096	75.38
253.329	90.38
253.562	82.38
253.795	84.38
254.028	86.38
254.261	94.38
254.494	80.38
254.727	84.38
254.96	99.38
255.193	72.38
255.426	74.38
255.659	74.38
255.892	82.38
256.124	75.38
256.357	90.38
256.59	84.38
256.823	75.38
257.056	91.38
257.289	90.38
257.521	70.38
257.754	76.38
257.987	92.38
258.22	87.38
258.452	88.38
258.685	78.38
258.918	85.38
259.151	90.38
259.383	79.38
259.616	78.38
259.849	82.38
260.081	86.38
260.314	79.38
260.547	85.38
260.779	86.38
261.012	90.38
261.244	89.38
261.477	97.38
261.71	83.38
261.942	83.38
262.175	86.38
262.407	71.38
262.64	79.38
262.872	89.38
263.105	97.38
263.337	97.38
263.57	78.38
263.802	98.38
264.035	84.38
264.267	66.38
264.499	87.38
264.732	75.38
264.964	81.38
265.197	83.38
265.429	75.38
265.661	104.38
265.894	88.38
266.126	81.38
266.358	91.38
266.591	82.38
266.823	79.38
267.055	83.38
267.287	88.38
267.52	82.38
267.752	80.38
267.984	86.38
268.216	85.38
268.448	63.38
268.681	88.38
268.913	74.38
269.145	89.38
269.377	77.38
269.609	85.38
269.841	94.38
270.073	99.38
270.306	88.38
270.538	86.38
270.77	79.38
271.002	86.38
271.234	91.38
271.466	97.38
271.698	91.38
271.93	87.38
272.162	85.38
272.394	89.38
272.626	88.38
272.858	91.38
273.09	85.38
273.322	87.38
273.553	78.38
273.785	84.38
274.017	72.38
274.249	85.38
274.481	83.38
274.713	91.38
274.945	94.38
275.176	92.38
275.408	90.38
275.64	85.38
275.872	81.38
276.104	92.38
276.335	90.38
276.567	89.38
276.799	70.38
277.031	84.38
277.262	94.38
277.494	87.38
277.726	86.38
277.957	98.38
278.189	86.38
278.421	83.38
278.652	84.38
278.884	91.38
279.115	76.38
279.347	93.38
279.579	84.38
279.81	76.38
280.042	84.38
280.273	70.38
280.505	83.38
280.736	90.38
280.968	98.38
281.199	94.38
281.431	85.38
281.662	72.38
281.894	89.38
282.125	87.38
282.356	82.38
282.588	79.38
282.819	91.38
283.051	77.38
283.282	96.38
283.513	98.38
283.745	95.38
283.976	74.38
284.207	83.38
284.439	91.38
284.67	84.38
284.901	98.38
285.132	86.38
285.364	97.38
285.595	76.38
285.826	79.38
286.057	91.38
286.288	93.38
286.52	76.38
286.751	87.38
286.982	90.38
287.213	82.38
287.444	79.38
287.675	87.38
287.906	83.38
288.138	85.38
288.369	84.38
288.6	93.38
288.831	86.38
289.062	76.38
289.293	95.38
289.524	87.38
289.755	96.38
289.986	79.38
290.217	88.38
290.448	93.38
290.679	89.38
290.91	85.38
291.141	79.38
291.371	99.38
291.602	79.38
291.833	88.38
292.064	71.38
292.295	81.38
292.526	85.38
292.757	85.38
292.987	87.38
293.218	84.38
293.449	78.38
293.68	85.38
293.91	82.38
294.141	90.38
294.372	83.38
294.603	85.38
294.833	87.38
295.064	95.38
295.295	82.38
295.525	81.38
295.756	102.38
295.987	85.38
296.217	90.38
296.448	91.38
296.679	75.38
296.909	90.38
297.14	89.38
297.37	87.38
297.601	90.38
297.831	99.38
298.062	96.38
298.292	91.38
298.523	85.38
298.753	88.38
298.984	97.38
299.214	74.38
299.445	84.38
299.675	86.38
299.905	84.38
300.136	92.38
300.366	91.38
300.597	86.38
300.827	100.38
301.057	98.38
301.288	90.38
301.518	84.38
301.748	89.38
301.979	95.38
302.209	95.38
302.439	87.38
302.669	83.38
302.9	81.38
303.13	91.38
303.36	89.38
303.59	98.38
303.82	87.38
304.051	84.38
304.281	85.38
304.511	98.38
304.741	106.38
304.971	86.38
305.201	87.38
305.431	86.38
305.661	83.38
305.891	100.38
306.121	101.38
306.352	83.38
306.582	94.38
306.812	87.38
307.042	92.38
307.272	87.38
307.502	88.38
307.731	82.38
307.961	95.38
308.191	79.38
308.421	90.38
308.651	82.38
308.881	78.38
309.111	83.38
309.341	87.38
309.571	80.38
309.8	85.38
310.03	89.38
310.26	94.38
310.49	98.38
310.72	81.38
310.949	88.38
311.179	98.38
311.409	91.38
311.639	97.38
311.868	94.38
312.098	101.38
312.328	93.38
312.557	92.38
312.787	85.38
313.017	86.38
313.246	93.38
313.476	90.38
313.706	91.38
313.935	84.38
314.165	74.38
314.394	81.38
314.624	80.38
314.853	78.38
315.083	83.38
315.312	87.38
315.542	90.38
315.771	79.38
316.001	82.38
316.23	96.38
316.46	91.38
316.689	95.38
316.919	84.38
317.148	94.38
317.377	88.38
317.607	91.38
317.836	79.38
318.065	90.38
318.295	89.38
318.524	82.38
318.753	87.38
318.983	92.38
319.212	80.38
319.441	79.38
319.67	88.38
319.9	75.38
320.129	88.38
320.358	94.38
320.587	83.38
320.816	84.38
321.046	74.38
321.275	99.38
321.504	95.38
321.733	89.38
321.962	87.38
322.191	92.38
322.42	92.38
322.649	88.38
322.878	94.38
323.108	95.38
323.337	85.38
323.566	82.38
323.795	94.38
324.024	90.38
324.253	75.38
324.482	91.38
324.71	84.38
324.939	100.38
325.168	87.38
325.397	65.38
325.626	93.38
325.855	78.38
326.084	83.38
326.313	78.38
326.542	85.38
326.77	84.38
326.999	97.38
327.228	88.38
327.457	81.38
327.686	104.38
327.914	93.38
328.143	94.38
328.372	85.38
328.6	99.38
328.829	85.38
329.058	81.38
329.287	66.38
329.515	85.38
329.744	84.38
329.972	85.38
330.201	86.38
330.43	79.38
330.658	92.38
330.887	97.38
331.115	89.38
331.344	82.38
331.572	94.38
331.801	85.38
332.03	94.38
332.258	81.38
332.486	83.38
332.715	89.38
332.943	88.38
333.172	81.38
333.4	89.38
333.629	90.38
333.857	85.38
334.085	86.38
334.314	91.38
334.542	76.38
334.771	88.38
334.999	88.38
335.227	99.38
335.455	88.38
335.684	77.38
335.912	99.38
336.14	88.38
336.369	100.38
336.597	87.38
336.825	91.38
337.053	98.38
337.281	92.38
337.51	97.38
337.738	81.38
337.966	77.38
338.194	94.38
338.422	75.38
338.65	78.38
338.878	98.38
339.106	95.38
339.334	78.38
339.562	87.38
339.79	81.38
340.018	85.38
340.246	83.38
340.474	78.38
340.702	79.38
340.93	80.38
341.158	91.38
341.386	82.38
341.614	74.38
341.842	78.38
342.07	74.38
342.298	82.38
342.526	82.38
342.754	80.38
342.981	101.38
343.209	87.38
343.437	86.38
343.665	78.38
343.893	88.38
344.12	93.38
344.348	86.38
344.576	71.38
344.804	79.38
345.031	89.38
345.259	88.38
345.487	85.38
345.714	88.38
345.942	72.38
346.17	98.38
346.397	92.38
346.625	79.38
346.853	87.38
347.08	93.38
347.308	82.38
347.535	94.38
347.763	84.38
347.99	90.38
348.218	100.38
348.445	94.38
348.673	81.38
348.9	83.38
349.128	89.38
349.355	71.38
349.583	84.38
349.81	89.38
350.037	89.38
350.265	99.38
350.492	82.38
350.72	84.38
350.947	83.38
351.174	89.38
351.402	83.38
351.629	80.38
351.856	98.38
352.083	85.38
352.311	99.38
352.538	91.38
352.765	85.38
352.992	88.38
353.22	90.38
353.447	97.38
353.674	87.38
353.901	88.38
354.128	92.38
354.355	82.38
354.583	81.38
354.81	93.38
355.037	89.38
355.264	95.38
355.491	83.38
355.718	91.38
355.945	86.38
356.172	78.38
356.399	93.38
356.626	81.38
356.853	99.38
357.08	89.38
357.307	89.38
357.534	79.38
357.761	92.38
357.988	88.38
358.215	88.38
358.441	84.38
358.668	78.38
358.895	90.38
359.122	74.38
359.349	94.38
359.576	86.38
359.802	74.38
360.029	88.38
360.256	82.38
360.483	89.38
360.709	75.38
360.936	83.38
361.163	87.38
361.39	95.38
361.616	83.38
361.843	103.38
362.07	97.38
362.296	87.38
362.523	82.38
362.749	87.38
362.976	85.38
363.203	100.38
363.429	70.38
363.656	91.38
363.882	81.38
364.109	93.38
364.335	82.38
364.562	91.38
364.788	99.38
365.015	91.38
365.241	83.38
365.468	97.38
365.694	85.38
365.92	81.38
366.147	87.38
366.373	78.38
366.599	80.38
366.826	87.38
367.052	100.38
367.278	87.38
367.505	98.38
367.731	97.38
367.957	83.38
368.184	91.38
368.41	81.38
368.636	90.38
368.862	87.38
369.089	78.38
369.315	89.38
369.541	87.38
369.767	98.38
369.993	91.38
370.219	88.38
370.445	76.38
370.672	84.38
370.898	81.38
371.124	77.38
371.35	93.38
371.576	89.38
371.802	101.38
372.028	83.38
372.254	75.38
372.48	78.38
372.706	83.38
372.932	83.38
373.158	88.38
373.384	76.38
373.61	85.38
373.835	77.38
374.061	82.38
374.287	99.38
374.513	83.38
374.739	87.38
374.965	76.38
375.191	97.38
375.416	96.38
375.642	79.38
375.868	91.38
376.094	88.38
376.319	78.38
376.545	79.38
376.771	84.38
376.997	77.38
377.222	78.38
377.448	84.38
377.674	95.38
377.899	84.38
378.125	91.38
378.35	86.38
378.576	88.38
378.802	93.38
379.027	88.38
379.253	86.38
379.478	95.38
379.704	97.38
379.929	86.38
380.155	88.38
380.38	75.38
380.606	76.38
380.831	84.38
381.057	91.38
381.282	99.38
381.507	93.38
381.733	89.38
381.958	84.38
382.184	91.38
382.409	83.38
382.634	89.38
382.86	76.38
383.085	91.38
383.31	84.38
383.535	98.38
383.761	84.38
383.986	81.38
384.211	77.38
384.436	95.38
384.662	81.38
384.887	84.38
385.112	85.38
385.337	77.38
385.562	78.38
385.787	82.38
386.013	93.38
386.238	78.38
386.463	89.38
386.688	84.38
386.913	84.38
387.138	99.38
387.363	98.38
387.588	89.38
387.813	95.38
388.038	95.38
388.263	90.38
388.488	92.38
388.713	72.38
388.938	100.38
389.163	95.38
389.387	81.38
389.612	80.38
389.837	68.38
390.062	77.38
390.287	80.38
390.512	83.38
390.736	74.38
390.961	93.38
391.186	92.38
391.411	78.38
391.636	98.38
391.86	88.38
392.085	102.38
392.31	87.38
392.534	92.38
392.759	74.38
392.984	93.38
393.208	81.38
393.433	99.38
393.658	95.38
393.882	99.38
394.107	80.38
394.331	85.38
394.556	82.38
394.78	77.38
395.005	81.38
395.229	85.38
395.454	82.38
395.678	88.38
395.903	85.38
396.127	97.38
396.352	78.38
396.576	87.38
396.801	93.38
397.025	86.38
397.249	99.38
397.474	95.38
397.698	84.38
397.922	87.38
398.147	100.38
398.371	81.38
398.595	94.38
398.82	74.38
399.044	84.38
399.268	65.38
399.492	95.38
399.717	105.38
399.941	98.38
400.165	90.38
400.389	79.38
400.613	85.38
400.837	103.38
401.062	72.38
401.286	90.38
401.51	96.38
401.734	87.38
401.958	76.38
402.182	82.38
402.406	90.38
402.63	99.38
402.854	83.38
403.078	92.38
403.302	95.38
403.526	83.38
403.75	82.38
403.974	67.38
404.198	77.38
404.422	83.38
404.645	83.38
404.869	75.38
405.093	93.38
405.317	79.38
405.541	77.38
405.765	92.38
405.988	68.38
406.212	83.38
406.436	81.38
406.66	93.38
406.883	95.38
407.107	88.38
407.331	90.38
407.555	90.38
407.778	94.38
408.002	84.38
408.226	95.38
408.449	87.38
408.673	79.38
408.896	79.38
409.12	103.38
409.344	101.38
409.567	87.38
409.791	93.38
410.014	79.38
410.238	84.38
410.461	96.38
410.685	91.38
410.908	90.38
411.132	99.38
411.355	87.38
411.578	91.38
411.802	89.38
412.025	83.38
412.249	86.38
412.472	85.38
412.695	87.38
412.919	84.38
413.142	96.38
413.365	86.38
413.589	81.38
413.812	88.38
414.035	90.38
414.258	83.38
414.482	84.38
414.705	88.38
414.928	89.38
415.151	107.38
415.374	83.38
415.597	91.38
415.821	88.38
416.044	87.38
416.267	84.38
416.49	104.38
416.713	86.38
416.936	75.38
417.159	92.38
417.382	78.38
417.605	77.38
417.828	85.38
418.051	94.38
418.274	88.38
418.497	83.38
418.72	78.38
418.943	97.38
419.166	90.38
419.389	90.38
419.611	90.38
419.834	86.38
420.057	77.38
420.28	72.38
420.503	94.38
420.726	90.38
420.948	77.38
421.171	90.38
421.394	91.38
421.617	84.38
421.839	83.38
422.062	86.38
422.285	89.38
422.507	89.38
422.73	90.38
422.953	90.38
423.175	91.38
423.398	87.38
423.621	91.38
423.843	81.38
424.066	86.38
424.288	85.38
424.511	86.38
424.733	79.38
424.956	74.38
425.178	89.38
425.401	92.38
425.623	79.38
425.846	82.38
426.068	87.38
426.291	70.38
426.513	83.38
426.735	85.38
426.958	88.38
427.18	90.38
427.402	86.38
427.625	72.38
427.847	96.38
428.069	93.38
428.292	96.38
428.514	74.38
428.736	88.38
428.958	87.38
429.181	100.38
429.403	94.38
429.625	76.38
429.847	92.38
430.069	88.38
430.292	75.38
430.514	83.38
430.736	67.38
430.958	103.38
431.18	85.38
431.402	82.38
431.624	71.38
431.846	84.38
432.068	87.38
432.29	91.38
432.512	91.38
432.734	95.38
432.956	85.38
433.178	98.38
433.4	85.38
433.622	93.38
433.844	89.38
434.066	95.38
434.287	76.38
434.509	85.38
434.731	88.38
434.953	92.38
435.175	86.38
435.397	91.38
435.618	85.38
435.84	78.38
436.062	87.38
436.284	96.38
436.505	87.38
436.727	94.38
436.949	87.38
437.17	94.38
437.392	94.38
437.614	86.38
437.835	89.38
438.057	85.38
438.278	90.38
438.5	82.38
438.721	86.38
438.943	109.38
439.165	100.38
439.386	84.38
439.608	86.38
439.829	90.38
440.05	91.38
440.272	83.38
440.493	84.38
440.715	73.38
440.936	74.38
441.158	84.38
441.379	78.38
441.6	87.38
441.822	93.38
442.043	86.38
442.264	94.38
442.486	83.38
442.707	79.38
442.928	97.38
443.149	85.38
443.371	94.38
443.592	68.38
443.813	85.38
444.034	94.38
444.255	87.38
444.476	93.38
444.698	87.38
444.919	76.38
445.14	201.38
445.361	149.38
445.582	88.38
445.803	80.38
446.024	82.38
446.245	78.38
446.466	91.38
446.687	102.38
446.908	89.38
447.129	90.38
447.35	82.38
447.571	79.38
447.792	79.38
448.013	86.38
448.234	96.38
448.455	89.38
448.675	95.38
448.896	76.38
449.117	91.38
449.338	89.38
449.559	93.38
449.779	101.38
450	88.38
450.221	96.38
450.442	79.38
450.662	89.38
450.883	83.38
451.104	108.38
451.324	85.38
451.545	79.38
451.766	78.38
451.986	97.38
452.207	85.38
452.428	98.38
452.648	98.38
452.869	88.38
453.089	88.38
453.31	87.38
453.53	84.38
453.751	87.38
453.971	81.38
454.192	81.38
454.412	95.38
454.633	68.38
454.853	80.38
455.073	86.38
455.294	81.38
455.514	85.38
455.734	98.38
455.955	88.38
456.175	80.38
456.395	77.38
456.616	89.38
456.836	86.38
457.056	92.38
457.276	70.38
457.497	78.38
457.717	96.38
457.937	86.38
458.157	81.38
458.377	84.38
458.598	89.38
458.818	73.38
459.038	88.38
459.258	90.38
459.478	92.38
459.698	79.38
459.918	96.38
460.138	97.38
460.358	90.38
460.578	91.38
460.798	85.38
461.018	99.38
461.238	88.38
461.458	91.38
461.678	94.38
461.898	79.38
462.118	86.38
462.338	73.38
462.558	73.38
462.777	74.38
462.997	87.38
463.217	105.38
463.437	93.38
463.657	91.38
463.876	90.38
464.096	98.38
464.316	83.38
464.536	92.38
464.755	77.38
464.975	86.38
465.195	97.38
465.414	79.38
465.634	101.38
465.854	85.38
466.073	88.38
466.293	90.38
466.512	80.38
466.732	89.38
466.951	84.38
467.171	88.38
467.391	79.38
467.61	87.38
467.829	82.38
468.049	90.38
468.268	102.38
468.488	91.38
468.707	89.38
468.927	72.38
469.146	86.38
469.365	87.38
469.585	84.38
469.804	88.38
470.023	74.38
470.243	93.38
470.462	96.38
470.681	81.38
470.901	84.38
471.12	98.38
471.339	91.38
471.558	95.38
471.777	81.38
471.997	104.38
472.216	90.38
472.435	78.38
472.654	84.38
472.873	97.38
473.092	88.38
473.311	74.38
473.53	94.38
473.749	96.38
473.968	91.38
474.187	95.38
474.406	89.38
474.625	91.38
474.844	78.38
475.063	83.38
475.282	85.38
475.501	98.38
475.72	90.38
475.939	110.38
476.158	100.38
476.377	90.38
476.596	96.38
476.814	82.38
477.033	91.38
477.252	93.38
477.471	90.38
477.69	101.38
477.908	95.38
478.127	105.38
478.346	91.38
478.564	74.38
478.783	83.38
479.002	87.38
479.22	100.38
479.439	100.38
479.658	91.38
479.876	90.38
480.095	83.38
480.313	107.38
480.532	99.38
480.751	84.38
480.969	84.38
481.188	105.38
481.406	92.38
481.624	83.38
481.843	86.38
482.061	89.38
482.28	89.38
482.498	86.38
482.717	94.38
482.935	92.38
483.153	102.38
483.372	100.38
483.59	99.38
483.808	97.38
484.027	85.38
484.245	105.38
484.463	90.38
484.681	90.38
484.9	107.38
485.118	98.38
485.336	102.38
485.554	89.38
485.772	88.38
485.99	91.38
486.209	76.38
486.427	91.38
486.645	95.38
486.863	104.38
487.081	98.38
487.299	82.38
487.517	89.38
487.735	94.38
487.953	102.38
488.171	113.38
488.389	89.38
488.607	79.38
488.825	90.38
489.043	99.38
489.261	98.38
489.479	86.38
489.696	94.38
489.914	99.38
490.132	94.38
490.35	105.38
490.568	91.38
490.786	104.38
491.003	86.38
491.221	108.38
491.439	89.38
491.657	89.38
491.874	94.38
492.092	104.38
492.31	116.38
492.527	107.38
492.745	103.38
492.963	110.38
493.18	108.38
493.398	90.38
493.615	98.38
493.833	115.38
494.05	92.38
494.268	85.38
494.485	96.38
494.703	93.38
494.92	113.38
495.138	103.38
495.355	100.38
495.573	116.38
495.79	96.38
496.008	88.38
496.225	102.38
496.442	95.38
496.66	103.38
496.877	92.38
497.094	101.38
497.312	95.38
497.529	107.38
497.746	106.38
497.963	108.38
498.181	99.38
498.398	109.38
498.615	103.38
498.832	107.38
499.049	97.38
499.267	94.38
499.484	105.38
499.701	106.38
499.918	107.38
500.135	110.38
500.352	100.38
500.569	113.38
500.786	119.38
501.003	115.38
501.22	104.38
501.437	107.38
501.654	97.38
501.871	105.38
502.088	84.38
502.305	95.38
502.522	109.38
502.739	102.38
502.956	93.38
503.172	105.38
503.389	78.38
503.606	95.38
503.823	106.38
504.04	98.38
504.256	99.38
504.473	103.38
504.69	102.38
504.907	87.38
505.123	84.38
505.34	108.38
505.557	110.38
505.773	104.38
505.99	96.38
506.207	87.38
506.423	82.38
506.64	84.38
506.856	94.38
507.073	101.38
507.289	92.38
507.506	100.38
507.722	98.38
507.939	90.38
508.155	84.38
508.372	97.38
508.588	95.38
508.805	86.38
509.021	87.38
509.238	94.38
509.454	80.38
509.67	72.38
509.887	87.38
510.103	93.38
510.319	95.38
510.536	92.38
510.752	76.38
510.968	86.38
511.184	86.38
511.401	83.38
511.617	88.38
511.833	87.38
512.049	97.38
512.265	96.38
512.481	90.38
512.698	99.38
512.914	101.38
513.13	90.38
513.346	85.38
513.562	91.38
513.778	90.38
513.994	101.38
514.21	86.38
514.426	86.38
514.642	90.38
514.858	100.38
515.074	101.38
515.29	90.38
515.506	82.38
515.721	94.38
515.937	88.38
516.153	91.38
516.369	98.38
516.585	86.38
516.801	99.38
517.016	99.38
517.232	95.38
517.448	84.38
517.664	102.38
517.879	98.38
518.095	96.38
518.311	90.38
518.527	91.38
518.742	95.38
518.958	102.38
519.173	82.38
519.389	99.38
519.605	96.38
519.82	99.38
520.036	90.38
520.251	90.38
520.467	93.38
520.682	88.38
520.898	93.38
521.113	83.38
521.329	97.38
521.544	86.38
521.76	83.38
521.975	90.38
522.19	88.38
522.406	102.38
522.621	93.38
522.836	87.38
523.052	93.38
523.267	93.38
523.482	86.38
523.698	85.38
523.913	90.38
524.128	96.38
524.343	91.38
524.559	104.38
524.774	87.38
524.989	101.38
525.204	92.38
525.419	78.38
525.634	103.38
525.849	93.38
526.064	93.38
526.28	83.38
526.495	80.38
526.71	92.38
526.925	87.38
527.14	84.38
527.355	86.38
527.57	86.38
527.785	92.38
527.999	87.38
528.214	97.38
528.429	85.38
528.644	95.38
528.859	91.38
529.074	105.38
529.289	97.38
529.503	84.38
529.718	90.38
529.933	92.38
530.148	94.38
530.363	88.38
530.577	77.38
530.792	87.38
531.007	93.38
531.221	94.38
531.436	89.38
531.651	83.38
531.865	86.38
532.08	98.38
532.295	89.38
532.509	84.38
532.724	78.38
532.938	99.38
533.153	92.38
533.367	89.38
533.582	90.38
533.796	91.38
534.011	94.38
534.225	94.38
534.44	89.38
534.654	94.38
534.868	85.38
535.083	91.38
535.297	82.38
535.511	85.38
535.726	89.38
535.94	96.38
536.154	89.38
536.369	90.38
536.583	81.38
536.797	78.38
537.011	97.38
537.225	108.38
537.44	114.38
537.654	87.38
537.868	97.38
538.082	106.38
538.296	88.38
538.51	79.38
538.724	91.38
538.938	90.38
539.153	97.38
539.367	88.38
539.581	90.38
539.795	91.38
540.009	96.38
540.222	89.38
540.436	85.38
540.65	92.38
540.864	95.38
541.078	83.38
541.292	93.38
541.506	96.38
541.72	102.38
541.934	89.38
542.147	93.38
542.361	94.38
542.575	90.38
542.789	94.38
543.002	100.38
543.216	87.38
543.43	103.38
543.644	94.38
543.857	86.38
544.071	93.38
544.285	85.38
544.498	97.38
544.712	90.38
544.925	93.38
545.139	86.38
545.352	96.38
545.566	114.38
545.779	107.38
545.993	82.38
546.206	97.38
546.42	89.38
546.633	100.38
546.847	87.38
547.06	98.38
547.274	102.38
547.487	97.38
547.7	87.38
547.914	101.38
548.127	96.38
548.34	99.38
548.554	92.38
548.767	94.38
548.98	102.38
549.193	90.38
549.407	102.38
549.62	101.38
549.833	92.38
550.046	99.38
550.259	92.38
550.473	98.38
550.686	106.38
550.899	91.38
551.112	106.38
551.325	92.38
551.538	98.38
551.751	98.38
551.964	89.38
552.177	101.38
552.39	89.38
552.603	91.38
552.816	94.38
553.029	93.38
553.242	91.38
553.455	103.38
553.667	94.38
553.88	94.38
554.093	103.38
554.306	99.38
554.519	98.38
554.732	93.38
554.944	102.38
555.157	87.38
555.37	93.38
555.583	88.38
555.795	89.38
556.008	101.38
556.221	85.38
556.433	79.38
556.646	85.38
556.859	90.38
557.071	93.38
557.284	97.38
557.496	92.38
557.709	93.38
557.921	90.38
558.134	105.38
558.346	100.38
558.559	86.38
558.771	101.38
558.984	98.38
559.196	97.38
559.409	78.38
559.621	93.38
559.833	91.38
560.046	108.38
560.258	93.38
560.47	97.38
560.683	98.38
560.895	85.38
561.107	84.38
561.32	79.38
561.532	90.38
561.744	89.38
561.956	81.38
562.168	95.38
562.381	95.38
562.593	97.38
562.805	91.38
563.017	77.38
563.229	76.38
563.441	102.38
563.653	87.38
563.865	89.38
564.077	91.38
564.289	93.38
564.501	98.38
564.713	105.38
564.925	97.38
565.137	76.38
565.349	92.38
565.561	93.38
565.773	100.38
565.985	92.38
566.197	92.38
566.408	104.38
566.62	79.38
566.832	83.38
567.044	94.38
567.255	93.38
567.467	90.38
567.679	102.38
567.891	90.38
568.102	91.38
568.314	93.38
568.526	79.38
568.737	82.38
568.949	90.38
569.161	86.38
569.372	85.38
569.584	92.38
569.795	90.38
570.007	93.38
570.218	91.38
570.43	75.38
570.641	88.38
570.853	91.38
571.064	83.38
571.276	90.38
571.487	79.38
571.698	86.38
571.91	86.38
572.121	96.38
572.333	83.38
572.544	82.38
572.755	92.38
572.966	86.38
573.178	72.38
573.389	88.38
573.6	102.38
573.811	87.38
574.023	96.38
574.234	89.38
574.445	89.38
574.656	94.38
574.867	84.38
575.078	104.38
575.289	86.38
575.501	83.38
575.712	78.38
575.923	98.38
576.134	82.38
576.345	91.38
576.556	93.38
576.767	87.38
576.978	100.38
577.188	97.38
577.399	82.38
577.61	84.38
577.821	95.38
578.032	90.38
578.243	89.38
578.454	85.38
578.665	76.38
578.875	78.38
579.086	84.38
579.297	92.38
579.508	86.38
579.718	91.38
579.929	78.38
580.14	85.38
580.35	97.38
580.561	91.38
580.772	80.38
580.982	87.38
581.193	98.38
581.403	84.38
581.614	99.38
581.825	83.38
582.035	80.38
582.246	89.38
582.456	83.38
582.667	86.38
582.877	89.38
583.087	85.38
583.298	75.38
583.508	89.38
583.719	86.38
583.929	89.38
584.139	97.38
584.35	79.38
584.56	89.38
584.77	89.38
584.981	85.38
585.191	82.38
585.401	71.38
585.611	85.38
585.821	102.38
586.032	94.38
586.242	84.38
586.452	85.38
586.662	83.38
586.872	93.38
587.082	85.38
587.292	81.38
587.502	77.38
587.713	99.38
587.923	84.38
588.133	104.38
588.343	95.38
588.553	86.38
588.762	92.38
588.972	70.38
589.182	94.38
589.392	75.38
589.602	82.38
589.812	97.38
590.022	96.38
590.232	89.38
590.441	84.38
590.651	83.38
590.861	87.38
591.071	83.38
591.281	85.38
591.49	81.38
591.7	89.38
591.91	91.38
592.119	96.38
592.329	88.38
592.539	76.38
592.748	87.38
592.958	95.38
593.167	82.38
593.377	85.38
593.587	104.38
593.796	89.38
594.006	92.38
594.215	89.38
594.424	82.38
594.634	73.38
594.843	76.38
595.053	80.38
595.262	84.38
595.472	86.38
595.681	94.38
595.89	72.38
596.1	99.38
596.309	81.38
596.518	82.38
596.727	84.38
596.937	92.38
597.146	95.38
597.355	94.38
597.564	84.38
597.774	76.38
597.983	77.38
598.192	86.38
598.401	75.38
598.61	85.38
598.819	90.38
599.028	94.38
599.237	85.38
599.446	97.38
599.655	86.38
599.864	94.38
600.073	84.38
600.282	77.38
600.491	90.38
600.7	78.38
600.909	84.38
601.118	91.38
601.327	97.38
601.536	93.38
601.745	86.38
601.953	79.38
602.162	72.38
602.371	97.38
602.58	86.38
602.789	77.38
602.997	96.38
603.206	84.38
603.415	87.38
603.623	87.38
603.832	83.38
604.041	78.38
604.249	78.38
604.458	86.38
604.666	85.38
604.875	85.38
605.084	84.38
605.292	100.38
605.501	92.38
605.709	94.38
605.918	81.38
606.126	88.38
606.334	83.38
606.543	79.38
606.751	87.38
606.96	86.38
607.168	91.38
607.376	80.38
607.585	85.38
607.793	92.38
608.001	83.38
608.21	94.38
608.418	77.38
608.626	102.38
608.834	97.38
609.043	89.38
609.251	86.38
609.459	87.38
609.667	72.38
609.875	81.38
610.083	79.38
610.291	77.38
610.499	85.38
610.707	81.38
610.916	88.38
611.124	88.38
611.332	101.38
611.54	91.38
611.748	79.38
611.955	87.38
612.163	82.38
612.371	97.38
612.579	87.38
612.787	87.38
612.995	87.38
613.203	90.38
613.411	78.38
613.618	79.38
613.826	86.38
614.034	86.38
614.242	80.38
614.449	78.38
614.657	102.38
614.865	96.38
615.072	85.38
615.28	87.38
615.488	80.38
615.695	83.38
615.903	83.38
616.111	80.38
616.318	88.38
616.526	83.38
616.733	91.38
616.941	81.38
617.148	72.38
617.356	77.38
617.563	89.38
617.771	93.38
617.978	97.38
618.185	85.38
618.393	74.38
618.6	91.38
618.807	89.38
619.015	82.38
619.222	90.38
619.429	77.38
619.637	86.38
619.844	74.38
620.051	76.38
620.258	81.38
620.466	96.38
620.673	91.38
620.88	90.38
621.087	75.38
621.294	94.38
621.501	85.38
621.708	100.38
621.915	85.38
622.122	85.38
622.329	82.38
622.536	90.38
622.743	91.38
622.95	95.38
623.157	86.38
623.364	96.38
623.571	82.38
623.778	82.38
623.985	97.38
624.192	77.38
624.399	87.38
624.606	84.38
624.812	78.38
625.019	71.38
625.226	84.38
625.433	83.38
625.639	84.38
625.846	72.38
626.053	70.38
626.259	93.38
626.466	93.38
626.673	75.38
626.879	82.38
627.086	88.38
627.293	92.38
627.499	94.38
627.706	78.38
627.912	82.38
628.119	83.38
628.325	92.38
628.532	69.38
628.738	74.38
628.945	90.38
629.151	86.38
629.357	67.38
629.564	73.38
629.77	92.38
629.976	84.38
630.183	87.38
630.389	102.38
630.595	88.38
630.802	73.38
631.008	105.38
631.214	98.38
631.42	80.38
631.627	80.38
631.833	86.38
632.039	76.38
632.245	90.38
632.451	102.38
632.657	79.38
632.863	72.38
633.069	74.38
633.275	90.38
633.481	86.38
633.688	85.38
633.893	84.38
634.099	75.38
634.305	86.38
634.511	79.38
634.717	91.38
634.923	75.38
635.129	81.38
635.335	77.38
635.541	77.38
635.747	95.38
635.952	79.38
636.158	85.38
636.364	83.38
636.57	83.38
636.775	78.38
636.981	90.38
637.187	80.38
637.392	74.38
637.598	78.38
637.804	94.38
638.009	90.38
638.215	78.38
638.421	78.38
638.626	101.38
638.832	73.38
639.037	78.38
639.243	89.38
639.448	77.38
639.654	96.38
639.859	83.38
640.065	88.38
640.27	103.38
640.475	91.38
640.681	83.38
640.886	68.38
641.091	84.38
641.297	93.38
641.502	85.38
641.707	91.38
641.913	79.38
642.118	82.38
642.323	79.38
642.528	84.38
642.733	86.38
642.939	85.38
643.144	87.38
643.349	91.38
643.554	82.38
643.759	95.38
643.964	78.38
644.169	82.38
644.374	87.38
644.579	77.38
644.784	99.38
644.989	93.38
645.194	91.38
645.399	87.38
645.604	85.38
645.809	81.38
646.014	85.38
646.219	79.38
646.423	89.38
646.628	93.38
646.833	100.38
647.038	96.38
647.243	92.38
647.447	85.38
647.652	78.38
647.857	93.38
648.062	86.38
648.266	85.38
648.471	75.38
648.676	83.38
648.88	97.38
649.085	82.38
649.289	74.38
649.494	79.38
649.698	76.38
649.903	75.38
650.107	75.38
650.312	74.38
650.516	72.38
650.721	65.38
650.925	88.38
651.13	78.38
651.334	82.38
651.539	76.38
651.743	76.38
651.947	94.38
652.152	95.38
652.356	99.38
652.56	81.38
652.764	98.38
652.969	82.38
653.173	93.38
653.377	82.38
653.581	98.38
653.785	88.38
653.99	83.38
654.194	83.38
654.398	76.38
654.602	77.38
654.806	80.38
655.01	83.38
655.214	69.38
655.418	79.38
655.622	81.38
655.826	76.38
656.03	75.38
656.234	91.38
656.438	104.38
656.642	80.38
656.846	85.38
657.049	76.38
657.253	83.38
657.457	91.38
657.661	77.38
657.865	82.38
658.068	86.38
658.272	83.38
658.476	72.38
658.68	90.38
658.883	77.38
659.087	76.38
659.291	78.38
659.494	81.38
659.698	81.38
659.901	95.38
660.105	95.38
660.309	86.38
660.512	68.38
660.716	88.38
660.919	82.38
661.123	85.38
661.326	79.38
661.53	89.38
661.733	74.38
661.936	81.38
662.14	76.38
662.343	83.38
662.546	73.38
662.75	79.38
662.953	75.38
663.156	85.38
663.36	70.38
663.563	81.38
663.766	85.38
663.969	97.38
664.173	79.38
664.376	80.38
664.579	85.38
664.782	79.38
664.985	90.38
665.188	79.38
665.391	85.38
665.594	82.38
665.797	87.38
666	83.38
666.203	95.38
666.406	74.38
666.609	78.38
666.812	83.38
667.015	96.38
667.218	79.38
667.421	89.38
667.624	84.38
667.827	83.38
668.03	86.38
668.232	83.38
668.435	69.38
668.638	81.38
668.841	86.38
669.043	82.38
669.246	78.38
669.449	91.38
669.651	85.38
669.854	87.38
670.057	75.38
670.259	74.38
670.462	78.38
670.665	83.38
670.867	83.38
671.07	90.38
671.272	74.38
671.475	62.38
671.677	61.38
671.88	85.38
672.082	78.38
672.284	79.38
672.487	84.38
672.689	76.38
672.892	77.38
