Data from Ni(NO3)2@0.125M.TitratingCurve.Agarose3%dH2O.NegLispCup.LampEnergy10.LIBS07252019_HRD10591_18-08-47-567.txt Node
Date: Thu Jul 25 18:08:47 EDT 2019
User: cochatt
Spectrometer: HR+D1059
Trigger mode: 1
Integration Time (sec): 1.000000E-1
Scans to average: 1
Electric dark correction enabled: true
Nonlinearity correction enabled: false
Boxcar width: 0
XAxis mode: Wavelengths
Number of Pixels in Spectrum: 2048
>>>>>Begin Spectral Data<<<<<
223.165	-21.38
223.4	-21.38
223.635	-21.38
223.869	-26.38
224.104	-9.38
224.338	-17.38
224.573	-9.38
224.808	-6.38
225.042	-8.38
225.277	-1.38
225.511	4.62
225.746	8.62
225.98	4.62
226.215	12.62
226.449	18.62
226.683	14.62
226.918	10.62
227.152	25.62
227.387	38.62
227.621	37.62
227.856	57.62
228.09	55.62
228.324	49.62
228.559	59.62
228.793	77.62
229.027	107.62
229.262	99.62
229.496	120.62
229.73	131.62
229.964	120.62
230.199	121.62
230.433	127.62
230.667	129.62
230.901	127.62
231.136	120.62
231.37	125.62
231.604	120.62
231.838	141.62
232.072	135.62
232.306	127.62
232.541	137.62
232.775	145.62
233.009	141.62
233.243	151.62
233.477	153.62
233.711	151.62
233.945	145.62
234.179	153.62
234.413	138.62
234.647	155.62
234.881	151.62
235.115	132.62
235.349	125.62
235.583	139.62
235.817	147.62
236.051	148.62
236.285	143.62
236.519	153.62
236.753	153.62
236.987	154.62
237.221	155.62
237.455	143.62
237.689	152.62
237.922	130.62
238.156	163.62
238.39	167.62
238.624	152.62
238.858	151.62
239.091	169.62
239.325	168.62
239.559	159.62
239.793	162.62
240.027	166.62
240.26	170.62
240.494	175.62
240.728	164.62
240.961	154.62
241.195	173.62
241.429	178.62
241.662	174.62
241.896	180.62
242.13	172.62
242.363	180.62
242.597	183.62
242.83	198.62
243.064	179.62
243.298	179.62
243.531	181.62
243.765	179.62
243.998	203.62
244.232	197.62
244.465	204.62
244.699	190.62
244.932	206.62
245.166	212.62
245.399	201.62
245.633	188.62
245.866	203.62
246.099	211.62
246.333	206.62
246.566	207.62
246.8	211.62
247.033	210.62
247.266	217.62
247.5	210.62
247.733	224.62
247.966	230.62
248.2	225.62
248.433	232.62
248.666	213.62
248.899	213.62
249.133	222.62
249.366	217.62
249.599	234.62
249.832	230.62
250.066	237.62
250.299	225.62
250.532	238.62
250.765	246.62
250.998	246.62
251.231	258.62
251.465	253.62
251.698	259.62
251.931	263.62
252.164	266.62
252.397	250.62
252.63	270.62
252.863	287.62
253.096	259.62
253.329	277.62
253.562	262.62
253.795	264.62
254.028	282.62
254.261	268.62
254.494	283.62
254.727	277.62
254.96	281.62
255.193	272.62
255.426	276.62
255.659	272.62
255.892	264.62
256.124	299.62
256.357	279.62
256.59	278.62
256.823	281.62
257.056	281.62
257.289	283.62
257.521	305.62
257.754	299.62
257.987	303.62
258.22	297.62
258.452	279.62
258.685	286.62
258.918	308.62
259.151	312.62
259.383	326.62
259.616	303.62
259.849	298.62
260.081	297.62
260.314	319.62
260.547	295.62
260.779	315.62
261.012	326.62
261.244	310.62
261.477	327.62
261.71	314.62
261.942	322.62
262.175	329.62
262.407	313.62
262.64	312.62
262.872	319.62
263.105	313.62
263.337	327.62
263.57	318.62
263.802	328.62
264.035	369.62
264.267	329.62
264.499	333.62
264.732	324.62
264.964	332.62
265.197	346.62
265.429	333.62
265.661	349.62
265.894	361.62
266.126	349.62
266.358	346.62
266.591	345.62
266.823	358.62
267.055	366.62
267.287	348.62
267.52	339.62
267.752	364.62
267.984	358.62
268.216	360.62
268.448	380.62
268.681	343.62
268.913	375.62
269.145	350.62
269.377	373.62
269.609	359.62
269.841	365.62
270.073	349.62
270.306	375.62
270.538	381.62
270.77	367.62
271.002	375.62
271.234	377.62
271.466	369.62
271.698	379.62
271.93	381.62
272.162	380.62
272.394	394.62
272.626	366.62
272.858	358.62
273.09	381.62
273.322	379.62
273.553	391.62
273.785	385.62
274.017	384.62
274.249	383.62
274.481	397.62
274.713	383.62
274.945	388.62
275.176	398.62
275.408	393.62
275.64	382.62
275.872	398.62
276.104	413.62
276.335	411.62
276.567	419.62
276.799	417.62
277.031	394.62
277.262	403.62
277.494	417.62
277.726	416.62
277.957	397.62
278.189	389.62
278.421	402.62
278.652	411.62
278.884	435.62
279.115	421.62
279.347	420.62
279.579	411.62
279.81	413.62
280.042	414.62
280.273	405.62
280.505	428.62
280.736	425.62
280.968	423.62
281.199	445.62
281.431	443.62
281.662	442.62
281.894	433.62
282.125	432.62
282.356	436.62
282.588	463.62
282.819	452.62
283.051	432.62
283.282	454.62
283.513	469.62
283.745	465.62
283.976	461.62
284.207	447.62
284.439	448.62
284.67	465.62
284.901	453.62
285.132	465.62
285.364	469.62
285.595	467.62
285.826	468.62
286.057	471.62
286.288	456.62
286.52	473.62
286.751	463.62
286.982	463.62
287.213	475.62
287.444	483.62
287.675	482.62
287.906	488.62
288.138	493.62
288.369	475.62
288.6	489.62
288.831	470.62
289.062	493.62
289.293	486.62
289.524	506.62
289.755	495.62
289.986	475.62
290.217	509.62
290.448	487.62
290.679	469.62
290.91	483.62
291.141	482.62
291.371	503.62
291.602	503.62
291.833	506.62
292.064	507.62
292.295	493.62
292.526	493.62
292.757	490.62
292.987	502.62
293.218	479.62
293.449	486.62
293.68	495.62
293.91	503.62
294.141	516.62
294.372	494.62
294.603	533.62
294.833	505.62
295.064	501.62
295.295	510.62
295.525	502.62
295.756	513.62
295.987	529.62
296.217	497.62
296.448	491.62
296.679	534.62
296.909	529.62
297.14	528.62
297.37	554.62
297.601	544.62
297.831	548.62
298.062	537.62
298.292	556.62
298.523	585.62
298.753	577.62
298.984	557.62
299.214	542.62
299.445	553.62
299.675	534.62
299.905	543.62
300.136	562.62
300.366	555.62
300.597	544.62
300.827	549.62
301.057	545.62
301.288	562.62
301.518	555.62
301.748	581.62
301.979	555.62
302.209	584.62
302.439	576.62
302.669	577.62
302.9	541.62
303.13	553.62
303.36	571.62
303.59	550.62
303.82	538.62
304.051	563.62
304.281	559.62
304.511	558.62
304.741	561.62
304.971	563.62
305.201	548.62
305.431	561.62
305.661	558.62
305.891	557.62
306.121	539.62
306.352	563.62
306.582	559.62
306.812	550.62
307.042	540.62
307.272	542.62
307.502	523.62
307.731	539.62
307.961	523.62
308.191	551.62
308.421	563.62
308.651	576.62
308.881	534.62
309.111	546.62
309.341	550.62
309.571	544.62
309.8	548.62
310.03	552.62
310.26	558.62
310.49	550.62
310.72	544.62
310.949	546.62
311.179	562.62
311.409	550.62
311.639	578.62
311.868	564.62
312.098	579.62
312.328	558.62
312.557	565.62
312.787	569.62
313.017	581.62
313.246	593.62
313.476	590.62
313.706	588.62
313.935	580.62
314.165	593.62
314.394	596.62
314.624	598.62
314.853	591.62
315.083	594.62
315.312	608.62
315.542	606.62
315.771	584.62
316.001	583.62
316.23	576.62
316.46	590.62
316.689	568.62
316.919	575.62
317.148	582.62
317.377	584.62
317.607	588.62
317.836	586.62
318.065	578.62
318.295	570.62
318.524	600.62
318.753	595.62
318.983	585.62
319.212	579.62
319.441	580.62
319.67	587.62
319.9	558.62
320.129	586.62
320.358	573.62
320.587	554.62
320.816	591.62
321.046	590.62
321.275	588.62
321.504	617.62
321.733	615.62
321.962	589.62
322.191	590.62
322.42	583.62
322.649	604.62
322.878	613.62
323.108	597.62
323.337	604.62
323.566	612.62
323.795	599.62
324.024	638.62
324.253	625.62
324.482	621.62
324.71	587.62
324.939	636.62
325.168	626.62
325.397	630.62
325.626	653.62
325.855	631.62
326.084	649.62
326.313	653.62
326.542	673.62
326.77	679.62
326.999	637.62
327.228	663.62
327.457	674.62
327.686	652.62
327.914	660.62
328.143	660.62
328.372	651.62
328.6	649.62
328.829	657.62
329.058	681.62
329.287	681.62
329.515	661.62
329.744	680.62
329.972	685.62
330.201	696.62
330.43	663.62
330.658	676.62
330.887	676.62
331.115	678.62
331.344	701.62
331.572	700.62
331.801	715.62
332.03	711.62
332.258	760.62
332.486	763.62
332.715	793.62
332.943	854.62
333.172	892.62
333.4	887.62
333.629	922.62
333.857	910.62
334.085	929.62
334.314	881.62
334.542	890.62
334.771	864.62
334.999	839.62
335.227	795.62
335.455	813.62
335.684	812.62
335.912	828.62
336.14	809.62
336.369	827.62
336.597	810.62
336.825	820.62
337.053	819.62
337.281	796.62
337.51	769.62
337.738	782.62
337.966	766.62
338.194	739.62
338.422	729.62
338.65	743.62
338.878	736.62
339.106	732.62
339.334	749.62
339.562	713.62
339.79	679.62
340.018	693.62
340.246	689.62
340.474	700.62
340.702	721.62
340.93	695.62
341.158	725.62
341.386	713.62
341.614	722.62
341.842	707.62
342.07	699.62
342.298	703.62
342.526	686.62
342.754	689.62
342.981	705.62
343.209	730.62
343.437	739.62
343.665	766.62
343.893	851.62
344.12	895.62
344.348	829.62
344.576	793.62
344.804	758.62
345.031	763.62
345.259	734.62
345.487	701.62
345.714	703.62
345.942	677.62
346.17	710.62
346.397	670.62
346.625	681.62
346.853	709.62
347.08	703.62
347.308	693.62
347.535	697.62
347.763	694.62
347.99	698.62
348.218	717.62
348.445	711.62
348.673	699.62
348.9	711.62
349.128	690.62
349.355	668.62
349.583	659.62
349.81	651.62
350.037	657.62
350.265	675.62
350.492	667.62
350.72	663.62
350.947	637.62
351.174	646.62
351.402	662.62
351.629	640.62
351.856	677.62
352.083	667.62
352.311	631.62
352.538	665.62
352.765	655.62
352.992	645.62
353.22	656.62
353.447	629.62
353.674	679.62
353.901	664.62
354.128	654.62
354.355	669.62
354.583	651.62
354.81	655.62
355.037	669.62
355.264	662.62
355.491	661.62
355.718	669.62
355.945	659.62
356.172	673.62
356.399	642.62
356.626	657.62
356.853	677.62
357.08	637.62
357.307	648.62
357.534	645.62
357.761	650.62
357.988	655.62
358.215	660.62
358.441	639.62
358.668	633.62
358.895	639.62
359.122	647.62
359.349	662.62
359.576	652.62
359.802	664.62
360.029	646.62
360.256	686.62
360.483	654.62
360.709	652.62
360.936	656.62
361.163	675.62
361.39	644.62
361.616	643.62
361.843	649.62
362.07	671.62
362.296	631.62
362.523	649.62
362.749	649.62
362.976	659.62
363.203	655.62
363.429	643.62
363.656	648.62
363.882	648.62
364.109	658.62
364.335	643.62
364.562	621.62
364.788	619.62
365.015	639.62
365.241	624.62
365.468	634.62
365.694	643.62
365.92	667.62
366.147	630.62
366.373	641.62
366.599	642.62
366.826	641.62
367.052	639.62
367.278	645.62
367.505	654.62
367.731	666.62
367.957	652.62
368.184	660.62
368.41	648.62
368.636	639.62
368.862	673.62
369.089	678.62
369.315	656.62
369.541	679.62
369.767	669.62
369.993	667.62
370.219	668.62
370.445	660.62
370.672	703.62
370.898	690.62
371.124	710.62
371.35	725.62
371.576	699.62
371.802	707.62
372.028	704.62
372.254	697.62
372.48	694.62
372.706	724.62
372.932	742.62
373.158	747.62
373.384	736.62
373.61	723.62
373.835	695.62
374.061	718.62
374.287	735.62
374.513	719.62
374.739	761.62
374.965	769.62
375.191	775.62
375.416	794.62
375.642	767.62
375.868	781.62
376.094	739.62
376.319	694.62
376.545	711.62
376.771	710.62
376.997	694.62
377.222	691.62
377.448	694.62
377.674	697.62
377.899	701.62
378.125	694.62
378.35	671.62
378.576	671.62
378.802	695.62
379.027	699.62
379.253	697.62
379.478	663.62
379.704	705.62
379.929	695.62
380.155	707.62
380.38	682.62
380.606	667.62
380.831	679.62
381.057	694.62
381.282	701.62
381.507	692.62
381.733	706.62
381.958	677.62
382.184	703.62
382.409	737.62
382.634	737.62
382.86	742.62
383.085	765.62
383.31	737.62
383.535	754.62
383.761	775.62
383.986	779.62
384.211	820.62
384.436	837.62
384.662	822.62
384.887	806.62
385.112	836.62
385.337	853.62
385.562	808.62
385.787	810.62
386.013	842.62
386.238	831.62
386.463	866.62
386.688	869.62
386.913	801.62
387.138	818.62
387.363	831.62
387.588	796.62
387.813	823.62
388.038	793.62
388.263	845.62
388.488	833.62
388.713	802.62
388.938	809.62
389.163	833.62
389.387	813.62
389.612	807.62
389.837	798.62
390.062	797.62
390.287	788.62
390.512	814.62
390.736	828.62
390.961	836.62
391.186	826.62
391.411	855.62
391.636	890.62
391.86	885.62
392.085	932.62
392.31	965.62
392.534	910.62
392.759	883.62
392.984	901.62
393.208	904.62
393.433	882.62
393.658	908.62
393.882	869.62
394.107	883.62
394.331	887.62
394.556	892.62
394.78	893.62
395.005	898.62
395.229	918.62
395.454	954.62
395.678	955.62
395.903	949.62
396.127	918.62
396.352	893.62
396.576	858.62
396.801	889.62
397.025	847.62
397.249	884.62
397.474	933.62
397.698	911.62
397.922	924.62
398.147	910.62
398.371	943.62
398.595	970.62
398.82	1023.62
399.044	1081.62
399.268	1161.62
399.492	1388.62
399.717	1601.62
399.941	1607.62
400.165	1400.62
400.389	1220.62
400.613	1142.62
400.837	1074.62
401.062	1069.62
401.286	1045.62
401.51	1040.62
401.734	1016.62
401.958	1050.62
402.182	1054.62
402.406	1079.62
402.63	1087.62
402.854	1103.62
403.078	1142.62
403.302	1155.62
403.526	1180.62
403.75	1181.62
403.974	1199.62
404.198	1226.62
404.422	1221.62
404.645	1247.62
404.869	1195.62
405.093	1210.62
405.317	1148.62
405.541	1153.62
405.765	1134.62
405.988	1133.62
406.212	1148.62
406.436	1124.62
406.66	1160.62
406.883	1169.62
407.107	1273.62
407.331	1323.62
407.555	1371.62
407.778	1395.62
408.002	1307.62
408.226	1289.62
408.449	1255.62
408.673	1186.62
408.896	1181.62
409.12	1164.62
409.344	1206.62
409.567	1152.62
409.791	1176.62
410.014	1210.62
410.238	1205.62
410.461	1191.62
410.685	1160.62
410.908	1148.62
411.132	1131.62
411.355	1084.62
411.578	1081.62
411.802	1074.62
412.025	1088.62
412.249	1111.62
412.472	1114.62
412.695	1050.62
412.919	1043.62
413.142	1037.62
413.365	1046.62
413.589	1059.62
413.812	1013.62
414.035	1021.62
414.258	1055.62
414.482	1044.62
414.705	1029.62
414.928	1065.62
415.151	1069.62
415.374	1059.62
415.597	1081.62
415.821	1044.62
416.044	1020.62
416.267	1041.62
416.49	1009.62
416.713	1018.62
416.936	1063.62
417.159	1049.62
417.382	1046.62
417.605	1029.62
417.828	1027.62
418.051	1042.62
418.274	1059.62
418.497	1059.62
418.72	1078.62
418.943	1105.62
419.166	1119.62
419.389	1199.62
419.611	1192.62
419.834	1169.62
420.057	1119.62
420.28	1069.62
420.503	1019.62
420.726	1044.62
420.948	1053.62
421.171	1040.62
421.394	1060.62
421.617	1064.62
421.839	1052.62
422.062	1045.62
422.285	1033.62
422.507	1073.62
422.73	1054.62
422.953	1077.62
423.175	1130.62
423.398	1150.62
423.621	1115.62
423.843	1175.62
424.066	1161.62
424.288	1140.62
424.511	1146.62
424.733	1121.62
424.956	1090.62
425.178	1079.62
425.401	1092.62
425.623	1072.62
425.846	1023.62
426.068	1008.62
426.291	995.62
426.513	1016.62
426.735	991.62
426.958	1015.62
427.18	955.62
427.402	970.62
427.625	979.62
427.847	967.62
428.069	939.62
428.292	1005.62
428.514	940.62
428.736	926.62
428.958	949.62
429.181	925.62
429.403	937.62
429.625	920.62
429.847	949.62
430.069	943.62
430.292	936.62
430.514	925.62
430.736	926.62
430.958	910.62
431.18	955.62
431.402	929.62
431.624	940.62
431.846	948.62
432.068	935.62
432.29	965.62
432.512	953.62
432.734	921.62
432.956	939.62
433.178	957.62
433.4	947.62
433.622	987.62
433.844	984.62
434.066	1001.62
434.287	969.62
434.509	977.62
434.731	1057.62
434.953	1069.62
435.175	1101.62
435.397	1055.62
435.618	1006.62
435.84	964.62
436.062	988.62
436.284	941.62
436.505	971.62
436.727	983.62
436.949	968.62
437.17	967.62
437.392	937.62
437.614	931.62
437.835	936.62
438.057	893.62
438.278	920.62
438.5	923.62
438.721	917.62
438.943	942.62
439.165	945.62
439.386	933.62
439.608	971.62
439.829	939.62
440.05	957.62
440.272	956.62
440.493	980.62
440.715	1006.62
440.936	991.62
441.158	1002.62
441.379	1046.62
441.6	1079.62
441.822	1090.62
442.043	1116.62
442.264	1068.62
442.486	1073.62
442.707	1079.62
442.928	1076.62
443.149	1074.62
443.371	1060.62
443.592	1075.62
443.813	1081.62
444.034	1101.62
444.255	1122.62
444.476	1181.62
444.698	1235.62
444.919	1325.62
445.14	1420.62
445.361	1225.62
445.582	1110.62
445.803	1069.62
446.024	1047.62
446.245	1017.62
446.466	987.62
446.687	988.62
446.908	987.62
447.129	966.62
447.35	921.62
447.571	918.62
447.792	914.62
448.013	919.62
448.234	915.62
448.455	894.62
448.675	882.62
448.896	914.62
449.117	895.62
449.338	889.62
449.559	885.62
449.779	870.62
450	891.62
450.221	886.62
450.442	885.62
450.662	885.62
450.883	894.62
451.104	917.62
451.324	921.62
451.545	895.62
451.766	903.62
451.986	887.62
452.207	903.62
452.428	897.62
452.648	890.62
452.869	885.62
453.089	866.62
453.31	877.62
453.53	852.62
453.751	858.62
453.971	863.62
454.192	873.62
454.412	839.62
454.633	845.62
454.853	842.62
455.073	837.62
455.294	854.62
455.514	836.62
455.734	826.62
455.955	806.62
456.175	804.62
456.395	810.62
456.616	814.62
456.836	818.62
457.056	824.62
457.276	818.62
457.497	832.62
457.717	827.62
457.937	841.62
458.157	851.62
458.377	859.62
458.598	876.62
458.818	889.62
459.038	893.62
459.258	949.62
459.478	956.62
459.698	996.62
459.918	1009.62
460.138	1037.62
460.358	1127.62
460.578	1155.62
460.798	1146.62
461.018	1121.62
461.238	1110.62
461.458	1110.62
461.678	1114.62
461.898	1139.62
462.118	1128.62
462.338	1230.62
462.558	1234.62
462.777	1287.62
462.997	1396.62
463.217	1541.62
463.437	1622.62
463.657	1426.62
463.876	1335.62
464.096	1371.62
464.316	1339.62
464.536	1370.62
464.755	1330.62
464.975	1240.62
465.195	1164.62
465.414	1122.62
465.634	1026.62
465.854	1006.62
466.073	996.62
466.293	969.62
466.512	970.62
466.732	901.62
466.951	911.62
467.171	921.62
467.391	931.62
467.61	909.62
467.829	910.62
468.049	922.62
468.268	910.62
468.488	888.62
468.707	882.62
468.927	874.62
469.146	894.62
469.365	900.62
469.585	911.62
469.804	933.62
470.023	953.62
470.243	939.62
470.462	952.62
470.681	954.62
470.901	933.62
471.12	953.62
471.339	950.62
471.558	923.62
471.777	901.62
471.997	928.62
472.216	921.62
472.435	865.62
472.654	879.62
472.873	866.62
473.092	863.62
473.311	874.62
473.53	875.62
473.749	872.62
473.968	862.62
474.187	868.62
474.406	873.62
474.625	852.62
474.844	866.62
475.063	863.62
475.282	858.62
475.501	862.62
475.72	884.62
475.939	887.62
476.158	888.62
476.377	883.62
476.596	901.62
476.814	893.62
477.033	909.62
477.252	939.62
477.471	950.62
477.69	986.62
477.908	989.62
478.127	1035.62
478.346	1051.62
478.564	1068.62
478.783	1058.62
479.002	1082.62
479.22	1083.62
479.439	1079.62
479.658	1107.62
479.876	1086.62
480.095	1081.62
480.313	1178.62
480.532	1160.62
480.751	1158.62
480.969	1154.62
481.188	1068.62
481.406	1035.62
481.624	1012.62
481.843	1003.62
482.061	978.62
482.28	974.62
482.498	991.62
482.717	974.62
482.935	1002.62
483.153	988.62
483.372	990.62
483.59	987.62
483.808	1000.62
484.027	975.62
484.245	984.62
484.463	1000.62
484.681	1029.62
484.9	1012.62
485.118	995.62
485.336	1005.62
485.554	1045.62
485.772	1013.62
485.99	1047.62
486.209	1038.62
486.427	1083.62
486.645	1060.62
486.863	1058.62
487.081	1029.62
487.299	1025.62
487.517	1047.62
487.735	1030.62
487.953	1040.62
488.171	1005.62
488.389	1023.62
488.607	1036.62
488.825	1032.62
489.043	1015.62
489.261	1034.62
489.479	1019.62
489.696	1023.62
489.914	1024.62
490.132	1053.62
490.35	1065.62
490.568	1041.62
490.786	1044.62
491.003	1092.62
491.221	1061.62
491.439	1065.62
491.657	1071.62
491.874	1059.62
492.092	1085.62
492.31	1057.62
492.527	1079.62
492.745	1073.62
492.963	1099.62
493.18	1116.62
493.398	1094.62
493.615	1082.62
493.833	1098.62
494.05	1114.62
494.268	1080.62
494.485	1082.62
494.703	1118.62
494.92	1087.62
495.138	1099.62
495.355	1108.62
495.573	1107.62
495.79	1129.62
496.008	1121.62
496.225	1143.62
496.442	1133.62
496.66	1145.62
496.877	1166.62
497.094	1165.62
497.312	1227.62
497.529	1217.62
497.746	1252.62
497.963	1231.62
498.181	1317.62
498.398	1400.62
498.615	1469.62
498.832	1551.62
499.049	1684.62
499.267	1829.62
499.484	1987.62
499.701	2206.62
499.918	2476.62
500.135	2867.62
500.352	3315.62
500.569	3543.62
500.786	3489.62
501.003	3233.62
501.22	2820.62
501.437	2456.62
501.654	2157.62
501.871	1965.62
502.088	1774.62
502.305	1649.62
502.522	1580.62
502.739	1516.62
502.956	1394.62
503.172	1360.62
503.389	1302.62
503.606	1267.62
503.823	1237.62
504.04	1271.62
504.256	1260.62
504.473	1324.62
504.69	1366.62
504.907	1324.62
505.123	1203.62
505.34	1163.62
505.557	1124.62
505.773	1085.62
505.99	1063.62
506.207	1030.62
506.423	1028.62
506.64	1010.62
506.856	991.62
507.073	983.62
507.289	981.62
507.506	977.62
507.722	993.62
507.939	972.62
508.155	960.62
508.372	924.62
508.588	934.62
508.805	933.62
509.021	955.62
509.238	921.62
509.454	915.62
509.67	901.62
509.887	919.62
510.103	907.62
510.319	876.62
510.536	886.62
510.752	837.62
510.968	876.62
511.184	871.62
511.401	895.62
511.617	885.62
511.833	931.62
512.049	895.62
512.265	883.62
512.481	902.62
512.698	898.62
512.914	895.62
513.13	885.62
513.346	867.62
513.562	898.62
513.778	897.62
513.994	900.62
514.21	898.62
514.426	895.62
514.642	903.62
514.858	890.62
515.074	933.62
515.29	937.62
515.506	934.62
515.721	948.62
515.937	956.62
516.153	977.62
516.369	981.62
516.585	1023.62
516.801	1057.62
517.016	1100.62
517.232	1165.62
517.448	1211.62
517.664	1243.62
517.879	1239.62
518.095	1310.62
518.311	1244.62
518.527	1169.62
518.742	1110.62
518.958	1077.62
519.173	1042.62
519.389	1021.62
519.605	989.62
519.82	964.62
520.036	964.62
520.251	916.62
520.467	927.62
520.682	910.62
520.898	880.62
521.113	886.62
521.329	862.62
521.544	888.62
521.76	857.62
521.975	880.62
522.19	846.62
522.406	830.62
522.621	853.62
522.836	850.62
523.052	846.62
523.267	852.62
523.482	826.62
523.698	830.62
523.913	815.62
524.128	825.62
524.343	804.62
524.559	815.62
524.774	834.62
524.989	850.62
525.204	843.62
525.419	829.62
525.634	816.62
525.849	819.62
526.064	817.62
526.28	842.62
526.495	803.62
526.71	814.62
526.925	812.62
527.14	810.62
527.355	812.62
527.57	809.62
527.785	798.62
527.999	812.62
528.214	828.62
528.429	828.62
528.644	830.62
528.859	805.62
529.074	841.62
529.289	837.62
529.503	824.62
529.718	842.62
529.933	806.62
530.148	805.62
530.363	803.62
530.577	811.62
530.792	827.62
531.007	835.62
531.221	834.62
531.436	805.62
531.651	804.62
531.865	805.62
532.08	809.62
532.295	809.62
532.509	823.62
532.724	799.62
532.938	791.62
533.153	826.62
533.367	849.62
533.582	801.62
533.796	826.62
534.011	800.62
534.225	806.62
534.44	836.62
534.654	801.62
534.868	797.62
535.083	812.62
535.297	783.62
535.511	802.62
535.726	775.62
535.94	794.62
536.154	793.62
536.369	762.62
536.583	761.62
536.797	760.62
537.011	758.62
537.225	758.62
537.44	760.62
537.654	750.62
537.868	763.62
538.082	722.62
538.296	745.62
538.51	746.62
538.724	749.62
538.938	726.62
539.153	717.62
539.367	714.62
539.581	729.62
539.795	733.62
540.009	743.62
540.222	727.62
540.436	714.62
540.65	725.62
540.864	737.62
541.078	715.62
541.292	724.62
541.506	745.62
541.72	721.62
541.934	761.62
542.147	745.62
542.361	740.62
542.575	709.62
542.789	708.62
543.002	726.62
543.216	718.62
543.43	732.62
543.644	705.62
543.857	742.62
544.071	739.62
544.285	729.62
544.498	740.62
544.712	724.62
544.925	770.62
545.139	751.62
545.352	765.62
545.566	743.62
545.779	772.62
545.993	744.62
546.206	773.62
546.42	734.62
546.633	738.62
546.847	733.62
547.06	727.62
547.274	750.62
547.487	725.62
547.7	764.62
547.914	759.62
548.127	758.62
548.34	765.62
548.554	743.62
548.767	755.62
548.98	750.62
549.193	767.62
549.407	763.62
549.62	762.62
549.833	776.62
550.046	781.62
550.259	771.62
550.473	737.62
550.686	740.62
550.899	733.62
551.112	737.62
551.325	706.62
551.538	729.62
551.751	718.62
551.964	733.62
552.177	737.62
552.39	734.62
552.603	747.62
552.816	799.62
553.029	804.62
553.242	819.62
553.455	859.62
553.667	839.62
553.88	832.62
554.093	773.62
554.306	771.62
554.519	759.62
554.732	760.62
554.944	728.62
555.157	718.62
555.37	715.62
555.583	722.62
555.795	713.62
556.008	680.62
556.221	681.62
556.433	666.62
556.646	630.62
556.859	656.62
557.071	653.62
557.284	651.62
557.496	645.62
557.709	641.62
557.921	643.62
558.134	615.62
558.346	622.62
558.559	642.62
558.771	637.62
558.984	616.62
559.196	623.62
559.409	631.62
559.621	634.62
559.833	605.62
560.046	623.62
560.258	611.62
560.47	629.62
560.683	613.62
560.895	635.62
561.107	633.62
561.32	613.62
561.532	609.62
561.744	607.62
561.956	617.62
562.168	628.62
562.381	631.62
562.593	611.62
562.805	628.62
563.017	611.62
563.229	611.62
563.441	637.62
563.653	643.62
563.865	627.62
564.077	633.62
564.289	634.62
564.501	633.62
564.713	669.62
564.925	650.62
565.137	665.62
565.349	663.62
565.561	700.62
565.773	732.62
565.985	760.62
566.197	803.62
566.408	859.62
566.62	928.62
566.832	998.62
567.044	1028.62
567.255	1003.62
567.467	1037.62
567.679	1116.62
567.891	1198.62
568.102	1238.62
568.314	1165.62
568.526	1037.62
568.737	938.62
568.949	876.62
569.161	798.62
569.372	711.62
569.584	683.62
569.795	650.62
570.007	641.62
570.218	645.62
570.43	626.62
570.641	629.62
570.853	608.62
571.064	645.62
571.276	638.62
571.487	632.62
571.698	598.62
571.91	577.62
572.121	548.62
572.333	565.62
572.544	546.62
572.755	542.62
572.966	531.62
573.178	520.62
573.389	531.62
573.6	513.62
573.811	505.62
574.023	520.62
574.234	530.62
574.445	515.62
574.656	501.62
574.867	515.62
575.078	526.62
575.289	511.62
575.501	482.62
575.712	493.62
575.923	489.62
576.134	474.62
576.345	507.62
576.556	475.62
576.767	466.62
576.978	500.62
577.188	478.62
577.399	465.62
577.61	480.62
577.821	462.62
578.032	462.62
578.243	466.62
578.454	482.62
578.665	461.62
578.875	466.62
579.086	468.62
579.297	462.62
579.508	459.62
579.718	444.62
579.929	441.62
580.14	447.62
580.35	431.62
580.561	448.62
580.772	431.62
580.982	433.62
581.193	442.62
581.403	427.62
581.614	417.62
581.825	433.62
582.035	433.62
582.246	422.62
582.456	411.62
582.667	431.62
582.877	431.62
583.087	426.62
583.298	400.62
583.508	417.62
583.719	431.62
583.929	439.62
584.139	409.62
584.35	434.62
584.56	392.62
584.77	393.62
584.981	419.62
585.191	440.62
585.401	428.62
585.611	397.62
585.821	419.62
586.032	417.62
586.242	414.62
586.452	403.62
586.662	398.62
586.872	410.62
587.082	401.62
587.292	415.62
587.502	400.62
587.713	397.62
587.923	427.62
588.133	427.62
588.343	386.62
588.553	406.62
588.762	425.62
588.972	399.62
589.182	423.62
589.392	396.62
589.602	404.62
589.812	414.62
590.022	421.62
590.232	404.62
590.441	402.62
590.651	438.62
590.861	431.62
591.071	411.62
591.281	425.62
591.49	435.62
591.7	430.62
591.91	407.62
592.119	442.62
592.329	429.62
592.539	455.62
592.748	465.62
592.958	485.62
593.167	507.62
593.377	513.62
593.587	522.62
593.796	521.62
594.006	517.62
594.215	551.62
594.424	518.62
594.634	511.62
594.843	525.62
595.053	487.62
595.262	461.62
595.472	442.62
595.681	444.62
595.89	427.62
596.1	417.62
596.309	412.62
596.518	419.62
596.727	396.62
596.937	382.62
597.146	393.62
597.355	370.62
597.564	370.62
597.774	350.62
597.983	365.62
598.192	353.62
598.401	342.62
598.61	362.62
598.819	340.62
599.028	369.62
599.237	335.62
599.446	357.62
599.655	354.62
599.864	370.62
600.073	349.62
600.282	335.62
600.491	351.62
600.7	333.62
600.909	340.62
601.118	334.62
601.327	347.62
601.536	338.62
601.745	341.62
601.953	339.62
602.162	339.62
602.371	344.62
602.58	335.62
602.789	335.62
602.997	334.62
603.206	331.62
603.415	333.62
603.623	336.62
603.832	321.62
604.041	340.62
604.249	313.62
604.458	324.62
604.666	324.62
604.875	322.62
605.084	318.62
605.292	322.62
605.501	330.62
605.709	318.62
605.918	318.62
606.126	305.62
606.334	326.62
606.543	313.62
606.751	341.62
606.96	307.62
607.168	334.62
607.376	314.62
607.585	319.62
607.793	318.62
608.001	330.62
608.21	313.62
608.418	318.62
608.626	300.62
608.834	318.62
609.043	316.62
609.251	302.62
609.459	313.62
609.667	325.62
609.875	314.62
610.083	315.62
610.291	299.62
610.499	304.62
610.707	333.62
610.916	316.62
611.124	298.62
611.332	302.62
611.54	302.62
611.748	301.62
611.955	300.62
612.163	315.62
612.371	305.62
612.579	294.62
612.787	298.62
612.995	293.62
613.203	305.62
613.411	289.62
613.618	300.62
613.826	298.62
614.034	316.62
614.242	302.62
614.449	292.62
614.657	287.62
614.865	298.62
615.072	306.62
615.28	315.62
615.488	292.62
615.695	300.62
615.903	296.62
616.111	300.62
616.318	314.62
616.526	292.62
616.733	299.62
616.941	310.62
617.148	294.62
617.356	306.62
617.563	311.62
617.771	293.62
617.978	300.62
618.185	273.62
618.393	281.62
618.6	305.62
618.807	291.62
619.015	298.62
619.222	281.62
619.429	277.62
619.637	307.62
619.844	289.62
620.051	289.62
620.258	283.62
620.466	266.62
620.673	277.62
620.88	275.62
621.087	266.62
621.294	287.62
621.501	281.62
621.708	268.62
621.915	284.62
622.122	266.62
622.329	277.62
622.536	297.62
622.743	285.62
622.95	280.62
623.157	274.62
623.364	257.62
623.571	263.62
623.778	271.62
623.985	243.62
624.192	261.62
624.399	265.62
624.606	272.62
624.812	264.62
625.019	249.62
625.226	269.62
625.433	268.62
625.639	265.62
625.846	261.62
626.053	253.62
626.259	247.62
626.466	264.62
626.673	263.62
626.879	247.62
627.086	254.62
627.293	241.62
627.499	250.62
627.706	265.62
627.912	258.62
628.119	251.62
628.325	239.62
628.532	247.62
628.738	229.62
628.945	252.62
629.151	229.62
629.357	235.62
629.564	234.62
629.77	249.62
629.976	234.62
630.183	265.62
630.389	258.62
630.595	241.62
630.802	232.62
631.008	219.62
631.214	213.62
631.42	234.62
631.627	230.62
631.833	240.62
632.039	231.62
632.245	212.62
632.451	220.62
632.657	222.62
632.863	222.62
633.069	226.62
633.275	235.62
633.481	223.62
633.688	214.62
633.893	211.62
634.099	233.62
634.305	246.62
634.511	224.62
634.717	215.62
634.923	223.62
635.129	233.62
635.335	222.62
635.541	210.62
635.747	203.62
635.952	215.62
636.158	220.62
636.364	213.62
636.57	217.62
636.775	216.62
636.981	214.62
637.187	225.62
637.392	211.62
637.598	213.62
637.804	213.62
638.009	222.62
638.215	219.62
638.421	212.62
638.626	205.62
638.832	211.62
639.037	203.62
639.243	193.62
639.448	212.62
639.654	195.62
639.859	206.62
640.065	191.62
640.27	215.62
640.475	214.62
640.681	218.62
640.886	222.62
641.091	200.62
641.297	214.62
641.502	209.62
641.707	217.62
641.913	217.62
642.118	202.62
642.323	193.62
642.528	186.62
642.733	203.62
642.939	200.62
643.144	204.62
643.349	208.62
643.554	206.62
643.759	207.62
643.964	194.62
644.169	205.62
644.374	198.62
644.579	179.62
644.784	190.62
644.989	187.62
645.194	197.62
645.399	188.62
645.604	198.62
645.809	185.62
646.014	194.62
646.219	194.62
646.423	191.62
646.628	195.62
646.833	191.62
647.038	182.62
647.243	196.62
647.447	193.62
647.652	193.62
647.857	214.62
648.062	204.62
648.266	212.62
648.471	197.62
648.676	186.62
648.88	189.62
649.085	183.62
649.289	199.62
649.494	182.62
649.698	187.62
649.903	196.62
650.107	204.62
650.312	177.62
650.516	194.62
650.721	187.62
650.925	159.62
651.13	167.62
651.334	171.62
651.539	175.62
651.743	173.62
651.947	163.62
652.152	159.62
652.356	153.62
652.56	148.62
652.764	157.62
652.969	153.62
653.173	163.62
653.377	151.62
653.581	153.62
653.785	159.62
653.99	159.62
654.194	142.62
654.398	146.62
654.602	151.62
654.806	160.62
655.01	145.62
655.214	138.62
655.418	156.62
655.622	131.62
655.826	133.62
656.03	125.62
656.234	141.62
656.438	153.62
656.642	135.62
656.846	124.62
657.049	139.62
657.253	114.62
657.457	116.62
657.661	121.62
657.865	130.62
658.068	118.62
658.272	118.62
658.476	115.62
658.68	115.62
658.883	110.62
659.087	96.62
659.291	117.62
659.494	118.62
659.698	100.62
659.901	103.62
660.105	94.62
660.309	103.62
660.512	99.62
660.716	85.62
660.919	90.62
661.123	102.62
661.326	89.62
661.53	93.62
661.733	82.62
661.936	81.62
662.14	79.62
662.343	93.62
662.546	74.62
662.75	77.62
662.953	79.62
663.156	76.62
663.36	77.62
663.563	97.62
663.766	95.62
663.969	92.62
664.173	87.62
664.376	92.62
664.579	87.62
664.782	93.62
664.985	77.62
665.188	87.62
665.391	97.62
665.594	82.62
665.797	84.62
666	76.62
666.203	86.62
666.406	103.62
666.609	82.62
666.812	73.62
667.015	83.62
667.218	77.62
667.421	86.62
667.624	80.62
667.827	97.62
668.03	95.62
668.232	95.62
668.435	93.62
668.638	78.62
668.841	88.62
669.043	93.62
669.246	78.62
669.449	79.62
669.651	88.62
669.854	88.62
670.057	72.62
670.259	93.62
670.462	85.62
670.665	84.62
670.867	89.62
671.07	99.62
671.272	94.62
671.475	91.62
671.677	75.62
671.88	79.62
672.082	85.62
672.284	87.62
672.487	82.62
672.689	88.62
672.892	69.62
