Data from Ni(NO3)2@0.25M.TitratingCurve.Agarose3%dH2O.NegLispCup.LampEnergy10.LIBS07252019_HRD10591_18-04-53-566.txt Node
Date: Thu Jul 25 18:04:53 EDT 2019
User: cochatt
Spectrometer: HR+D1059
Trigger mode: 1
Integration Time (sec): 1.000000E-1
Scans to average: 1
Electric dark correction enabled: true
Nonlinearity correction enabled: false
Boxcar width: 0
XAxis mode: Wavelengths
Number of Pixels in Spectrum: 2048
>>>>>Begin Spectral Data<<<<<
223.165	-9.06
223.4	-9.06
223.635	-9.06
223.869	-32.06
224.104	-24.06
224.338	-9.06
224.573	-17.06
224.808	-22.06
225.042	3.94
225.277	-0.06
225.511	-5.06
225.746	8.94
225.98	12.94
226.215	2.94
226.449	19.94
226.683	9.94
226.918	35.94
227.152	23.94
227.387	41.94
227.621	41.94
227.856	34.94
228.09	39.94
228.324	53.94
228.559	63.94
228.793	77.94
229.027	86.94
229.262	107.94
229.496	98.94
229.73	102.94
229.964	109.94
230.199	116.94
230.433	118.94
230.667	135.94
230.901	108.94
231.136	134.94
231.37	122.94
231.604	122.94
231.838	128.94
232.072	123.94
232.306	120.94
232.541	114.94
232.775	119.94
233.009	122.94
233.243	132.94
233.477	137.94
233.711	125.94
233.945	134.94
234.179	123.94
234.413	149.94
234.647	144.94
234.881	134.94
235.115	125.94
235.349	135.94
235.583	147.94
235.817	154.94
236.051	141.94
236.285	138.94
236.519	135.94
236.753	135.94
236.987	136.94
237.221	141.94
237.455	134.94
237.689	140.94
237.922	132.94
238.156	153.94
238.39	130.94
238.624	126.94
238.858	146.94
239.091	137.94
239.325	132.94
239.559	153.94
239.793	136.94
240.027	136.94
240.26	141.94
240.494	153.94
240.728	147.94
240.961	162.94
241.195	156.94
241.429	164.94
241.662	161.94
241.896	164.94
242.13	158.94
242.363	167.94
242.597	178.94
242.83	143.94
243.064	163.94
243.298	164.94
243.531	164.94
243.765	151.94
243.998	160.94
244.232	186.94
244.465	172.94
244.699	187.94
244.932	185.94
245.166	186.94
245.399	175.94
245.633	173.94
245.866	184.94
246.099	184.94
246.333	202.94
246.566	170.94
246.8	184.94
247.033	182.94
247.266	191.94
247.5	200.94
247.733	180.94
247.966	188.94
248.2	202.94
248.433	199.94
248.666	206.94
248.899	185.94
249.133	202.94
249.366	206.94
249.599	199.94
249.832	209.94
250.066	216.94
250.299	202.94
250.532	201.94
250.765	202.94
250.998	217.94
251.231	224.94
251.465	222.94
251.698	220.94
251.931	226.94
252.164	217.94
252.397	223.94
252.63	231.94
252.863	234.94
253.096	238.94
253.329	223.94
253.562	235.94
253.795	223.94
254.028	247.94
254.261	244.94
254.494	255.94
254.727	246.94
254.96	254.94
255.193	261.94
255.426	265.94
255.659	268.94
255.892	258.94
256.124	272.94
256.357	270.94
256.59	264.94
256.823	268.94
257.056	257.94
257.289	258.94
257.521	276.94
257.754	266.94
257.987	279.94
258.22	263.94
258.452	287.94
258.685	295.94
258.918	290.94
259.151	287.94
259.383	273.94
259.616	256.94
259.849	289.94
260.081	293.94
260.314	294.94
260.547	296.94
260.779	285.94
261.012	293.94
261.244	288.94
261.477	310.94
261.71	314.94
261.942	295.94
262.175	284.94
262.407	301.94
262.64	317.94
262.872	316.94
263.105	306.94
263.337	310.94
263.57	302.94
263.802	308.94
264.035	315.94
264.267	287.94
264.499	315.94
264.732	323.94
264.964	303.94
265.197	327.94
265.429	342.94
265.661	323.94
265.894	337.94
266.126	302.94
266.358	331.94
266.591	310.94
266.823	336.94
267.055	317.94
267.287	328.94
267.52	303.94
267.752	327.94
267.984	341.94
268.216	332.94
268.448	348.94
268.681	346.94
268.913	332.94
269.145	350.94
269.377	333.94
269.609	344.94
269.841	339.94
270.073	348.94
270.306	338.94
270.538	352.94
270.77	326.94
271.002	335.94
271.234	345.94
271.466	339.94
271.698	334.94
271.93	341.94
272.162	366.94
272.394	359.94
272.626	340.94
272.858	369.94
273.09	358.94
273.322	362.94
273.553	350.94
273.785	356.94
274.017	364.94
274.249	371.94
274.481	354.94
274.713	371.94
274.945	365.94
275.176	346.94
275.408	352.94
275.64	377.94
275.872	374.94
276.104	376.94
276.335	363.94
276.567	368.94
276.799	347.94
277.031	385.94
277.262	384.94
277.494	383.94
277.726	370.94
277.957	388.94
278.189	378.94
278.421	394.94
278.652	395.94
278.884	375.94
279.115	374.94
279.347	380.94
279.579	392.94
279.81	378.94
280.042	380.94
280.273	362.94
280.505	404.94
280.736	404.94
280.968	389.94
281.199	406.94
281.431	402.94
281.662	390.94
281.894	406.94
282.125	396.94
282.356	399.94
282.588	420.94
282.819	404.94
283.051	411.94
283.282	438.94
283.513	411.94
283.745	427.94
283.976	409.94
284.207	429.94
284.439	413.94
284.67	412.94
284.901	414.94
285.132	422.94
285.364	416.94
285.595	435.94
285.826	406.94
286.057	427.94
286.288	418.94
286.52	438.94
286.751	414.94
286.982	424.94
287.213	447.94
287.444	438.94
287.675	440.94
287.906	434.94
288.138	446.94
288.369	422.94
288.6	425.94
288.831	456.94
289.062	459.94
289.293	451.94
289.524	433.94
289.755	462.94
289.986	440.94
290.217	439.94
290.448	446.94
290.679	458.94
290.91	462.94
291.141	462.94
291.371	451.94
291.602	450.94
291.833	457.94
292.064	450.94
292.295	455.94
292.526	456.94
292.757	457.94
292.987	448.94
293.218	445.94
293.449	424.94
293.68	452.94
293.91	443.94
294.141	443.94
294.372	436.94
294.603	468.94
294.833	449.94
295.064	446.94
295.295	472.94
295.525	451.94
295.756	470.94
295.987	466.94
296.217	442.94
296.448	470.94
296.679	479.94
296.909	454.94
297.14	466.94
297.37	462.94
297.601	476.94
297.831	479.94
298.062	474.94
298.292	473.94
298.523	478.94
298.753	499.94
298.984	486.94
299.214	501.94
299.445	498.94
299.675	469.94
299.905	486.94
300.136	467.94
300.366	493.94
300.597	492.94
300.827	511.94
301.057	502.94
301.288	526.94
301.518	523.94
301.748	527.94
301.979	515.94
302.209	517.94
302.439	527.94
302.669	524.94
302.9	506.94
303.13	500.94
303.36	492.94
303.59	497.94
303.82	523.94
304.051	524.94
304.281	509.94
304.511	518.94
304.741	526.94
304.971	512.94
305.201	518.94
305.431	511.94
305.661	526.94
305.891	490.94
306.121	492.94
306.352	504.94
306.582	498.94
306.812	488.94
307.042	510.94
307.272	498.94
307.502	515.94
307.731	492.94
307.961	500.94
308.191	506.94
308.421	529.94
308.651	502.94
308.881	520.94
309.111	516.94
309.341	493.94
309.571	500.94
309.8	514.94
310.03	516.94
310.26	534.94
310.49	490.94
310.72	519.94
310.949	498.94
311.179	523.94
311.409	524.94
311.639	534.94
311.868	555.94
312.098	523.94
312.328	550.94
312.557	548.94
312.787	540.94
313.017	551.94
313.246	580.94
313.476	556.94
313.706	580.94
313.935	574.94
314.165	562.94
314.394	550.94
314.624	567.94
314.853	565.94
315.083	552.94
315.312	557.94
315.542	581.94
315.771	573.94
316.001	572.94
316.23	589.94
316.46	572.94
316.689	570.94
316.919	575.94
317.148	575.94
317.377	571.94
317.607	568.94
317.836	590.94
318.065	569.94
318.295	574.94
318.524	587.94
318.753	600.94
318.983	587.94
319.212	563.94
319.441	581.94
319.67	581.94
319.9	609.94
320.129	596.94
320.358	591.94
320.587	593.94
320.816	568.94
321.046	584.94
321.275	605.94
321.504	614.94
321.733	574.94
321.962	589.94
322.191	604.94
322.42	589.94
322.649	608.94
322.878	608.94
323.108	621.94
323.337	619.94
323.566	629.94
323.795	626.94
324.024	618.94
324.253	638.94
324.482	638.94
324.71	624.94
324.939	634.94
325.168	652.94
325.397	656.94
325.626	618.94
325.855	663.94
326.084	650.94
326.313	660.94
326.542	656.94
326.77	686.94
326.999	664.94
327.228	671.94
327.457	692.94
327.686	690.94
327.914	692.94
328.143	702.94
328.372	683.94
328.6	680.94
328.829	679.94
329.058	693.94
329.287	684.94
329.515	697.94
329.744	702.94
329.972	727.94
330.201	712.94
330.43	716.94
330.658	714.94
330.887	728.94
331.115	718.94
331.344	740.94
331.572	756.94
331.801	770.94
332.03	770.94
332.258	795.94
332.486	797.94
332.715	840.94
332.943	852.94
333.172	876.94
333.4	903.94
333.629	908.94
333.857	953.94
334.085	934.94
334.314	918.94
334.542	888.94
334.771	907.94
334.999	874.94
335.227	896.94
335.455	884.94
335.684	859.94
335.912	912.94
336.14	876.94
336.369	876.94
336.597	827.94
336.825	859.94
337.053	850.94
337.281	828.94
337.51	848.94
337.738	824.94
337.966	809.94
338.194	790.94
338.422	816.94
338.65	788.94
338.878	782.94
339.106	795.94
339.334	810.94
339.562	784.94
339.79	740.94
340.018	789.94
340.246	777.94
340.474	782.94
340.702	772.94
340.93	748.94
341.158	777.94
341.386	766.94
341.614	792.94
341.842	790.94
342.07	758.94
342.298	755.94
342.526	758.94
342.754	754.94
342.981	772.94
343.209	791.94
343.437	815.94
343.665	853.94
343.893	908.94
344.12	918.94
344.348	896.94
344.576	874.94
344.804	839.94
345.031	787.94
345.259	777.94
345.487	757.94
345.714	762.94
345.942	778.94
346.17	782.94
346.397	745.94
346.625	740.94
346.853	730.94
347.08	742.94
347.308	740.94
347.535	737.94
347.763	738.94
347.99	747.94
348.218	760.94
348.445	732.94
348.673	754.94
348.9	726.94
349.128	740.94
349.355	737.94
349.583	728.94
349.81	696.94
350.037	712.94
350.265	728.94
350.492	726.94
350.72	731.94
350.947	701.94
351.174	741.94
351.402	745.94
351.629	727.94
351.856	724.94
352.083	717.94
352.311	732.94
352.538	752.94
352.765	704.94
352.992	718.94
353.22	720.94
353.447	715.94
353.674	704.94
353.901	706.94
354.128	696.94
354.355	737.94
354.583	720.94
354.81	710.94
355.037	715.94
355.264	692.94
355.491	717.94
355.718	724.94
355.945	704.94
356.172	709.94
356.399	712.94
356.626	710.94
356.853	721.94
357.08	690.94
357.307	710.94
357.534	706.94
357.761	720.94
357.988	718.94
358.215	710.94
358.441	725.94
358.668	700.94
358.895	699.94
359.122	710.94
359.349	724.94
359.576	698.94
359.802	694.94
360.029	724.94
360.256	720.94
360.483	731.94
360.709	698.94
360.936	715.94
361.163	717.94
361.39	707.94
361.616	707.94
361.843	722.94
362.07	718.94
362.296	726.94
362.523	701.94
362.749	714.94
362.976	715.94
363.203	704.94
363.429	722.94
363.656	720.94
363.882	695.94
364.109	720.94
364.335	688.94
364.562	703.94
364.788	727.94
365.015	711.94
365.241	698.94
365.468	684.94
365.694	708.94
365.92	677.94
366.147	700.94
366.373	702.94
366.599	693.94
366.826	700.94
367.052	707.94
367.278	696.94
367.505	672.94
367.731	708.94
367.957	704.94
368.184	679.94
368.41	722.94
368.636	712.94
368.862	709.94
369.089	710.94
369.315	730.94
369.541	710.94
369.767	750.94
369.993	718.94
370.219	732.94
370.445	734.94
370.672	739.94
370.898	753.94
371.124	724.94
371.35	747.94
371.576	749.94
371.802	749.94
372.028	730.94
372.254	747.94
372.48	731.94
372.706	755.94
372.932	774.94
373.158	772.94
373.384	732.94
373.61	744.94
373.835	724.94
374.061	731.94
374.287	727.94
374.513	750.94
374.739	763.94
374.965	828.94
375.191	812.94
375.416	791.94
375.642	780.94
375.868	779.94
376.094	792.94
376.319	752.94
376.545	746.94
376.771	755.94
376.997	751.94
377.222	745.94
377.448	741.94
377.674	728.94
377.899	727.94
378.125	736.94
378.35	718.94
378.576	717.94
378.802	707.94
379.027	747.94
379.253	729.94
379.478	730.94
379.704	728.94
379.929	733.94
380.155	734.94
380.38	727.94
380.606	735.94
380.831	715.94
381.057	713.94
381.282	717.94
381.507	719.94
381.733	762.94
381.958	738.94
382.184	740.94
382.409	762.94
382.634	730.94
382.86	740.94
383.085	764.94
383.31	775.94
383.535	793.94
383.761	805.94
383.986	776.94
384.211	854.94
384.436	834.94
384.662	837.94
384.887	855.94
385.112	852.94
385.337	868.94
385.562	890.94
385.787	860.94
386.013	895.94
386.238	864.94
386.463	867.94
386.688	869.94
386.913	848.94
387.138	878.94
387.363	853.94
387.588	828.94
387.813	844.94
388.038	849.94
388.263	829.94
388.488	863.94
388.713	830.94
388.938	852.94
389.163	834.94
389.387	818.94
389.612	819.94
389.837	838.94
390.062	820.94
390.287	828.94
390.512	830.94
390.736	864.94
390.961	869.94
391.186	878.94
391.411	919.94
391.636	916.94
391.86	932.94
392.085	950.94
392.31	930.94
392.534	944.94
392.759	936.94
392.984	891.94
393.208	907.94
393.433	922.94
393.658	900.94
393.882	874.94
394.107	904.94
394.331	908.94
394.556	919.94
394.78	928.94
395.005	912.94
395.229	907.94
395.454	931.94
395.678	951.94
395.903	930.94
396.127	942.94
396.352	915.94
396.576	888.94
396.801	904.94
397.025	936.94
397.249	915.94
397.474	988.94
397.698	978.94
397.922	970.94
398.147	991.94
398.371	1007.94
398.595	1034.94
398.82	1060.94
399.044	1135.94
399.268	1239.94
399.492	1434.94
399.717	1558.94
399.941	1555.94
400.165	1446.94
400.389	1273.94
400.613	1220.94
400.837	1130.94
401.062	1119.94
401.286	1113.94
401.51	1073.94
401.734	1091.94
401.958	1084.94
402.182	1117.94
402.406	1127.94
402.63	1135.94
402.854	1171.94
403.078	1164.94
403.302	1189.94
403.526	1189.94
403.75	1214.94
403.974	1207.94
404.198	1206.94
404.422	1236.94
404.645	1240.94
404.869	1231.94
405.093	1203.94
405.317	1189.94
405.541	1174.94
405.765	1163.94
405.988	1169.94
406.212	1168.94
406.436	1158.94
406.66	1226.94
406.883	1225.94
407.107	1315.94
407.331	1361.94
407.555	1387.94
407.778	1332.94
408.002	1330.94
408.226	1347.94
408.449	1258.94
408.673	1230.94
408.896	1234.94
409.12	1216.94
409.344	1190.94
409.567	1213.94
409.791	1231.94
410.014	1197.94
410.238	1199.94
410.461	1179.94
410.685	1182.94
410.908	1152.94
411.132	1136.94
411.355	1127.94
411.578	1132.94
411.802	1116.94
412.025	1126.94
412.249	1174.94
412.472	1154.94
412.695	1143.94
412.919	1119.94
413.142	1086.94
413.365	1100.94
413.589	1084.94
413.812	1076.94
414.035	1066.94
414.258	1107.94
414.482	1122.94
414.705	1107.94
414.928	1116.94
415.151	1105.94
415.374	1103.94
415.597	1054.94
415.821	1110.94
416.044	1080.94
416.267	1044.94
416.49	1059.94
416.713	1095.94
416.936	1101.94
417.159	1065.94
417.382	1065.94
417.605	1089.94
417.828	1089.94
418.051	1112.94
418.274	1134.94
418.497	1090.94
418.72	1118.94
418.943	1116.94
419.166	1174.94
419.389	1253.94
419.611	1213.94
419.834	1192.94
420.057	1160.94
420.28	1118.94
420.503	1077.94
420.726	1098.94
420.948	1074.94
421.171	1117.94
421.394	1090.94
421.617	1093.94
421.839	1113.94
422.062	1092.94
422.285	1087.94
422.507	1132.94
422.73	1108.94
422.953	1138.94
423.175	1149.94
423.398	1144.94
423.621	1158.94
423.843	1175.94
424.066	1157.94
424.288	1157.94
424.511	1179.94
424.733	1148.94
424.956	1122.94
425.178	1110.94
425.401	1096.94
425.623	1098.94
425.846	1069.94
426.068	1084.94
426.291	1107.94
426.513	1078.94
426.735	1066.94
426.958	1053.94
427.18	1031.94
427.402	1058.94
427.625	1025.94
427.847	1014.94
428.069	1012.94
428.292	1039.94
428.514	1013.94
428.736	1013.94
428.958	1005.94
429.181	966.94
429.403	971.94
429.625	976.94
429.847	1036.94
430.069	1014.94
430.292	998.94
430.514	978.94
430.736	988.94
430.958	989.94
431.18	997.94
431.402	1011.94
431.624	1011.94
431.846	1027.94
432.068	1032.94
432.29	1035.94
432.512	997.94
432.734	999.94
432.956	1012.94
433.178	1007.94
433.4	1046.94
433.622	1027.94
433.844	1071.94
434.066	1039.94
434.287	1045.94
434.509	1079.94
434.731	1126.94
434.953	1138.94
435.175	1143.94
435.397	1135.94
435.618	1089.94
435.84	1064.94
436.062	1044.94
436.284	974.94
436.505	1025.94
436.727	1017.94
436.949	1027.94
437.17	1042.94
437.392	1017.94
437.614	1001.94
437.835	1008.94
438.057	1006.94
438.278	959.94
438.5	966.94
438.721	1005.94
438.943	1007.94
439.165	980.94
439.386	987.94
439.608	1004.94
439.829	1006.94
440.05	1033.94
440.272	1032.94
440.493	1022.94
440.715	1046.94
440.936	1096.94
441.158	1090.94
441.379	1130.94
441.6	1157.94
441.822	1161.94
442.043	1123.94
442.264	1127.94
442.486	1122.94
442.707	1119.94
442.928	1142.94
443.149	1140.94
443.371	1124.94
443.592	1152.94
443.813	1143.94
444.034	1142.94
444.255	1199.94
444.476	1214.94
444.698	1268.94
444.919	1352.94
445.14	1412.94
445.361	1268.94
445.582	1181.94
445.803	1145.94
446.024	1095.94
446.245	1098.94
446.466	1090.94
446.687	1054.94
446.908	1074.94
447.129	1012.94
447.35	1013.94
447.571	993.94
447.792	987.94
448.013	998.94
448.234	981.94
448.455	956.94
448.675	965.94
448.896	972.94
449.117	942.94
449.338	953.94
449.559	930.94
449.779	936.94
450	946.94
450.221	939.94
450.442	959.94
450.662	969.94
450.883	972.94
451.104	991.94
451.324	961.94
451.545	944.94
451.766	958.94
451.986	949.94
452.207	911.94
452.428	955.94
452.648	942.94
452.869	940.94
453.089	918.94
453.31	920.94
453.53	908.94
453.751	898.94
453.971	917.94
454.192	912.94
454.412	892.94
454.633	912.94
454.853	888.94
455.073	897.94
455.294	878.94
455.514	875.94
455.734	908.94
455.955	863.94
456.175	862.94
456.395	884.94
456.616	895.94
456.836	894.94
457.056	889.94
457.276	869.94
457.497	900.94
457.717	873.94
457.937	875.94
458.157	917.94
458.377	896.94
458.598	935.94
458.818	990.94
459.038	958.94
459.258	1001.94
459.478	1005.94
459.698	1063.94
459.918	1078.94
460.138	1109.94
460.358	1169.94
460.578	1198.94
460.798	1202.94
461.018	1204.94
461.238	1209.94
461.458	1178.94
461.678	1179.94
461.898	1224.94
462.118	1206.94
462.338	1286.94
462.558	1324.94
462.777	1388.94
462.997	1468.94
463.217	1536.94
463.437	1542.94
463.657	1462.94
463.876	1383.94
464.096	1389.94
464.316	1361.94
464.536	1385.94
464.755	1366.94
464.975	1267.94
465.195	1214.94
465.414	1152.94
465.634	1114.94
465.854	1060.94
466.073	1057.94
466.293	1039.94
466.512	1047.94
466.732	1002.94
466.951	1005.94
467.171	997.94
467.391	981.94
467.61	998.94
467.829	991.94
468.049	992.94
468.268	946.94
468.488	962.94
468.707	964.94
468.927	963.94
469.146	955.94
469.365	950.94
469.585	970.94
469.804	1008.94
470.023	1040.94
470.243	1037.94
470.462	986.94
470.681	1042.94
470.901	1028.94
471.12	991.94
471.339	1007.94
471.558	962.94
471.777	974.94
471.997	993.94
472.216	965.94
472.435	971.94
472.654	927.94
472.873	919.94
473.092	936.94
473.311	934.94
473.53	942.94
473.749	935.94
473.968	926.94
474.187	916.94
474.406	946.94
474.625	939.94
474.844	954.94
475.063	978.94
475.282	931.94
475.501	932.94
475.72	961.94
475.939	962.94
476.158	981.94
476.377	963.94
476.596	961.94
476.814	997.94
477.033	965.94
477.252	983.94
477.471	1028.94
477.69	1027.94
477.908	1055.94
478.127	1104.94
478.346	1084.94
478.564	1143.94
478.783	1146.94
479.002	1161.94
479.22	1140.94
479.439	1167.94
479.658	1138.94
479.876	1148.94
480.095	1157.94
480.313	1190.94
480.532	1251.94
480.751	1238.94
480.969	1181.94
481.188	1116.94
481.406	1108.94
481.624	1102.94
481.843	1082.94
482.061	1078.94
482.28	1082.94
482.498	1067.94
482.717	1053.94
482.935	1052.94
483.153	1084.94
483.372	1098.94
483.59	1100.94
483.808	1086.94
484.027	1062.94
484.245	1117.94
484.463	1056.94
484.681	1119.94
484.9	1113.94
485.118	1092.94
485.336	1115.94
485.554	1111.94
485.772	1132.94
485.99	1095.94
486.209	1110.94
486.427	1112.94
486.645	1103.94
486.863	1118.94
487.081	1113.94
487.299	1139.94
487.517	1118.94
487.735	1110.94
487.953	1104.94
488.171	1115.94
488.389	1127.94
488.607	1113.94
488.825	1107.94
489.043	1085.94
489.261	1122.94
489.479	1126.94
489.696	1091.94
489.914	1110.94
490.132	1114.94
490.35	1139.94
490.568	1150.94
490.786	1136.94
491.003	1128.94
491.221	1145.94
491.439	1138.94
491.657	1121.94
491.874	1166.94
492.092	1158.94
492.31	1174.94
492.527	1200.94
492.745	1191.94
492.963	1189.94
493.18	1153.94
493.398	1175.94
493.615	1187.94
493.833	1183.94
494.05	1168.94
494.268	1210.94
494.485	1210.94
494.703	1198.94
494.92	1224.94
495.138	1208.94
495.355	1219.94
495.573	1182.94
495.79	1227.94
496.008	1227.94
496.225	1251.94
496.442	1271.94
496.66	1275.94
496.877	1282.94
497.094	1275.94
497.312	1325.94
497.529	1359.94
497.746	1391.94
497.963	1423.94
498.181	1484.94
498.398	1520.94
498.615	1594.94
498.832	1714.94
499.049	1835.94
499.267	1960.94
499.484	2138.94
499.701	2308.94
499.918	2537.94
500.135	2839.94
500.352	3168.94
500.569	3292.94
500.786	3267.94
501.003	3059.94
501.22	2789.94
501.437	2479.94
501.654	2187.94
501.871	2011.94
502.088	1852.94
502.305	1756.94
502.522	1711.94
502.739	1652.94
502.956	1627.94
503.172	1470.94
503.389	1449.94
503.606	1394.94
503.823	1403.94
504.04	1361.94
504.256	1373.94
504.473	1378.94
504.69	1409.94
504.907	1380.94
505.123	1306.94
505.34	1228.94
505.557	1208.94
505.773	1199.94
505.99	1147.94
506.207	1143.94
506.423	1122.94
506.64	1113.94
506.856	1060.94
507.073	1077.94
507.289	1078.94
507.506	1108.94
507.722	1063.94
507.939	1056.94
508.155	1043.94
508.372	1046.94
508.588	1043.94
508.805	1028.94
509.021	1005.94
509.238	999.94
509.454	998.94
509.67	982.94
509.887	1011.94
510.103	991.94
510.319	971.94
510.536	953.94
510.752	967.94
510.968	966.94
511.184	954.94
511.401	949.94
511.617	986.94
511.833	962.94
512.049	954.94
512.265	963.94
512.481	950.94
512.698	962.94
512.914	962.94
513.13	965.94
513.346	965.94
513.562	974.94
513.778	934.94
513.994	986.94
514.21	984.94
514.426	960.94
514.642	975.94
514.858	987.94
515.074	1000.94
515.29	997.94
515.506	989.94
515.721	1046.94
515.937	1053.94
516.153	1047.94
516.369	1083.94
516.585	1117.94
516.801	1156.94
517.016	1160.94
517.232	1225.94
517.448	1230.94
517.664	1280.94
517.879	1294.94
518.095	1308.94
518.311	1264.94
518.527	1228.94
518.742	1192.94
518.958	1122.94
519.173	1109.94
519.389	1048.94
519.605	1065.94
519.82	1048.94
520.036	1026.94
520.251	989.94
520.467	1000.94
520.682	951.94
520.898	959.94
521.113	986.94
521.329	970.94
521.544	959.94
521.76	954.94
521.975	948.94
522.19	922.94
522.406	925.94
522.621	922.94
522.836	917.94
523.052	927.94
523.267	896.94
523.482	888.94
523.698	886.94
523.913	892.94
524.128	872.94
524.343	904.94
524.559	895.94
524.774	887.94
524.989	894.94
525.204	861.94
525.419	901.94
525.634	862.94
525.849	890.94
526.064	890.94
526.28	873.94
526.495	888.94
526.71	877.94
526.925	844.94
527.14	848.94
527.355	857.94
527.57	875.94
527.785	866.94
527.999	863.94
528.214	863.94
528.429	859.94
528.644	867.94
528.859	884.94
529.074	857.94
529.289	889.94
529.503	894.94
529.718	894.94
529.933	863.94
530.148	844.94
530.363	868.94
530.577	829.94
530.792	855.94
531.007	864.94
531.221	875.94
531.436	853.94
531.651	854.94
531.865	846.94
532.08	881.94
532.295	879.94
532.509	844.94
532.724	823.94
532.938	846.94
533.153	844.94
533.367	872.94
533.582	872.94
533.796	876.94
534.011	866.94
534.225	861.94
534.44	824.94
534.654	870.94
534.868	838.94
535.083	868.94
535.297	845.94
535.511	828.94
535.726	823.94
535.94	839.94
536.154	809.94
536.369	808.94
536.583	813.94
536.797	822.94
537.011	808.94
537.225	814.94
537.44	786.94
537.654	796.94
537.868	794.94
538.082	827.94
538.296	772.94
538.51	792.94
538.724	803.94
538.938	798.94
539.153	805.94
539.367	778.94
539.581	794.94
539.795	781.94
540.009	806.94
540.222	765.94
540.436	801.94
540.65	786.94
540.864	809.94
541.078	787.94
541.292	778.94
541.506	776.94
541.72	799.94
541.934	782.94
542.147	818.94
542.361	816.94
542.575	813.94
542.789	802.94
543.002	794.94
543.216	781.94
543.43	766.94
543.644	784.94
543.857	795.94
544.071	793.94
544.285	767.94
544.498	800.94
544.712	775.94
544.925	806.94
545.139	803.94
545.352	813.94
545.566	793.94
545.779	812.94
545.993	799.94
546.206	800.94
546.42	804.94
546.633	814.94
546.847	795.94
547.06	807.94
547.274	845.94
547.487	802.94
547.7	809.94
547.914	823.94
548.127	826.94
548.34	831.94
548.554	810.94
548.767	810.94
548.98	822.94
549.193	830.94
549.407	808.94
549.62	815.94
549.833	830.94
550.046	832.94
550.259	815.94
550.473	818.94
550.686	801.94
550.899	806.94
551.112	770.94
551.325	778.94
551.538	793.94
551.751	776.94
551.964	784.94
552.177	805.94
552.39	796.94
552.603	836.94
552.816	841.94
553.029	842.94
553.242	879.94
553.455	887.94
553.667	888.94
553.88	887.94
554.093	830.94
554.306	823.94
554.519	803.94
554.732	804.94
554.944	774.94
555.157	776.94
555.37	780.94
555.583	734.94
555.795	749.94
556.008	732.94
556.221	724.94
556.433	713.94
556.646	706.94
556.859	725.94
557.071	706.94
557.284	714.94
557.496	683.94
557.709	699.94
557.921	691.94
558.134	687.94
558.346	666.94
558.559	676.94
558.771	662.94
558.984	670.94
559.196	660.94
559.409	671.94
559.621	651.94
559.833	645.94
560.046	681.94
560.258	681.94
560.47	639.94
560.683	661.94
560.895	674.94
561.107	667.94
561.32	667.94
561.532	653.94
561.744	652.94
561.956	662.94
562.168	662.94
562.381	662.94
562.593	647.94
562.805	669.94
563.017	679.94
563.229	653.94
563.441	675.94
563.653	642.94
563.865	681.94
564.077	671.94
564.289	679.94
564.501	680.94
564.713	696.94
564.925	709.94
565.137	720.94
565.349	738.94
565.561	768.94
565.773	761.94
565.985	814.94
566.197	844.94
566.408	867.94
566.62	972.94
566.832	1036.94
567.044	1030.94
567.255	1039.94
567.467	1057.94
567.679	1113.94
567.891	1165.94
568.102	1173.94
568.314	1097.94
568.526	1030.94
568.737	940.94
568.949	876.94
569.161	823.94
569.372	763.94
569.584	715.94
569.795	712.94
570.007	696.94
570.218	660.94
570.43	674.94
570.641	679.94
570.853	643.94
571.064	680.94
571.276	662.94
571.487	643.94
571.698	645.94
571.91	619.94
572.121	618.94
572.333	584.94
572.544	574.94
572.755	566.94
572.966	565.94
573.178	566.94
573.389	570.94
573.6	546.94
573.811	544.94
574.023	518.94
574.234	552.94
574.445	529.94
574.656	522.94
574.867	547.94
575.078	530.94
575.289	546.94
575.501	534.94
575.712	504.94
575.923	521.94
576.134	521.94
576.345	508.94
576.556	520.94
576.767	487.94
576.978	503.94
577.188	505.94
577.399	506.94
577.61	512.94
577.821	485.94
578.032	470.94
578.243	479.94
578.454	511.94
578.665	488.94
578.875	500.94
579.086	470.94
579.297	483.94
579.508	475.94
579.718	497.94
579.929	474.94
580.14	453.94
580.35	469.94
580.561	464.94
580.772	460.94
580.982	459.94
581.193	454.94
581.403	458.94
581.614	475.94
581.825	470.94
582.035	451.94
582.246	463.94
582.456	457.94
582.667	455.94
582.877	458.94
583.087	451.94
583.298	451.94
583.508	445.94
583.719	428.94
583.929	419.94
584.139	438.94
584.35	444.94
584.56	431.94
584.77	437.94
584.981	439.94
585.191	437.94
585.401	444.94
585.611	444.94
585.821	438.94
586.032	418.94
586.242	437.94
586.452	428.94
586.662	415.94
586.872	425.94
587.082	454.94
587.292	451.94
587.502	435.94
587.713	425.94
587.923	421.94
588.133	423.94
588.343	438.94
588.553	451.94
588.762	448.94
588.972	438.94
589.182	438.94
589.392	450.94
589.602	423.94
589.812	440.94
590.022	450.94
590.232	447.94
590.441	412.94
590.651	426.94
590.861	412.94
591.071	435.94
591.281	425.94
591.49	451.94
591.7	465.94
591.91	466.94
592.119	458.94
592.329	471.94
592.539	482.94
592.748	510.94
592.958	496.94
593.167	507.94
593.377	525.94
593.587	532.94
593.796	506.94
594.006	531.94
594.215	542.94
594.424	512.94
594.634	520.94
594.843	493.94
595.053	495.94
595.262	463.94
595.472	460.94
595.681	455.94
595.89	432.94
596.1	426.94
596.309	398.94
596.518	414.94
596.727	422.94
596.937	422.94
597.146	387.94
597.355	384.94
597.564	386.94
597.774	384.94
597.983	385.94
598.192	381.94
598.401	377.94
598.61	388.94
598.819	382.94
599.028	362.94
599.237	378.94
599.446	374.94
599.655	366.94
599.864	372.94
600.073	370.94
600.282	354.94
600.491	362.94
600.7	358.94
600.909	357.94
601.118	355.94
601.327	359.94
601.536	352.94
601.745	350.94
601.953	345.94
602.162	359.94
602.371	356.94
602.58	335.94
602.789	358.94
602.997	331.94
603.206	350.94
603.415	354.94
603.623	329.94
603.832	343.94
604.041	334.94
604.249	339.94
604.458	329.94
604.666	328.94
604.875	325.94
605.084	333.94
605.292	353.94
605.501	339.94
605.709	324.94
605.918	344.94
606.126	336.94
606.334	341.94
606.543	344.94
606.751	327.94
606.96	340.94
607.168	323.94
607.376	324.94
607.585	334.94
607.793	329.94
608.001	337.94
608.21	340.94
608.418	332.94
608.626	327.94
608.834	334.94
609.043	311.94
609.251	317.94
609.459	303.94
609.667	332.94
609.875	314.94
610.083	322.94
610.291	323.94
610.499	322.94
610.707	346.94
610.916	292.94
611.124	312.94
611.332	324.94
611.54	328.94
611.748	320.94
611.955	319.94
612.163	318.94
612.371	313.94
612.579	311.94
612.787	315.94
612.995	323.94
613.203	308.94
613.411	318.94
613.618	310.94
613.826	303.94
614.034	296.94
614.242	312.94
614.449	322.94
614.657	310.94
614.865	306.94
615.072	332.94
615.28	318.94
615.488	299.94
615.695	309.94
615.903	322.94
616.111	317.94
616.318	310.94
616.526	302.94
616.733	313.94
616.941	306.94
617.148	326.94
617.356	312.94
617.563	306.94
617.771	309.94
617.978	290.94
618.185	313.94
618.393	306.94
618.6	306.94
618.807	286.94
619.015	299.94
619.222	302.94
619.429	297.94
619.637	299.94
619.844	303.94
620.051	303.94
620.258	299.94
620.466	303.94
620.673	283.94
620.88	298.94
621.087	303.94
621.294	282.94
621.501	276.94
621.708	298.94
621.915	294.94
622.122	288.94
622.329	274.94
622.536	279.94
622.743	287.94
622.95	283.94
623.157	265.94
623.364	272.94
623.571	257.94
623.778	278.94
623.985	279.94
624.192	293.94
624.399	276.94
624.606	282.94
624.812	262.94
625.019	277.94
625.226	262.94
625.433	286.94
625.639	266.94
625.846	273.94
626.053	278.94
626.259	275.94
626.466	253.94
626.673	270.94
626.879	260.94
627.086	263.94
627.293	271.94
627.499	257.94
627.706	258.94
627.912	264.94
628.119	248.94
628.325	256.94
628.532	267.94
628.738	264.94
628.945	238.94
629.151	257.94
629.357	237.94
629.564	255.94
629.77	242.94
629.976	233.94
630.183	244.94
630.389	256.94
630.595	259.94
630.802	250.94
631.008	250.94
631.214	224.94
631.42	239.94
631.627	243.94
631.833	237.94
632.039	229.94
632.245	223.94
632.451	231.94
632.657	249.94
632.863	252.94
633.069	239.94
633.275	240.94
633.481	227.94
633.688	233.94
633.893	238.94
634.099	253.94
634.305	234.94
634.511	247.94
634.717	229.94
634.923	227.94
635.129	230.94
635.335	221.94
635.541	229.94
635.747	230.94
635.952	229.94
636.158	239.94
636.364	222.94
636.57	215.94
636.775	237.94
636.981	223.94
637.187	233.94
637.392	224.94
637.598	226.94
637.804	246.94
638.009	233.94
638.215	242.94
638.421	200.94
638.626	214.94
638.832	211.94
639.037	221.94
639.243	208.94
639.448	211.94
639.654	236.94
639.859	218.94
640.065	205.94
640.27	208.94
640.475	208.94
640.681	220.94
640.886	222.94
641.091	225.94
641.297	209.94
641.502	196.94
641.707	225.94
641.913	184.94
642.118	207.94
642.323	210.94
642.528	228.94
642.733	207.94
642.939	200.94
643.144	213.94
643.349	204.94
643.554	204.94
643.759	207.94
643.964	205.94
644.169	198.94
644.374	215.94
644.579	199.94
644.784	190.94
644.989	204.94
645.194	204.94
645.399	221.94
645.604	196.94
645.809	202.94
646.014	201.94
646.219	203.94
646.423	197.94
646.628	208.94
646.833	190.94
647.038	200.94
647.243	207.94
647.447	215.94
647.652	212.94
647.857	212.94
648.062	212.94
648.266	213.94
648.471	216.94
648.676	204.94
648.88	197.94
649.085	207.94
649.289	198.94
649.494	200.94
649.698	198.94
649.903	193.94
650.107	196.94
650.312	207.94
650.516	186.94
650.721	212.94
650.925	194.94
651.13	191.94
651.334	174.94
651.539	193.94
651.743	182.94
651.947	170.94
652.152	172.94
652.356	188.94
652.56	186.94
652.764	165.94
652.969	165.94
653.173	166.94
653.377	169.94
653.581	162.94
653.785	160.94
653.99	161.94
654.194	151.94
654.398	166.94
654.602	168.94
654.806	142.94
655.01	154.94
655.214	145.94
655.418	147.94
655.622	157.94
655.826	159.94
656.03	150.94
656.234	154.94
656.438	143.94
656.642	157.94
656.846	141.94
657.049	136.94
657.253	136.94
657.457	148.94
657.661	130.94
657.865	137.94
658.068	134.94
658.272	134.94
658.476	121.94
658.68	128.94
658.883	103.94
659.087	126.94
659.291	104.94
659.494	118.94
659.698	105.94
659.901	108.94
660.105	109.94
660.309	113.94
660.512	104.94
660.716	112.94
660.919	112.94
661.123	97.94
661.326	88.94
661.53	88.94
661.733	117.94
661.936	95.94
662.14	95.94
662.343	90.94
662.546	89.94
662.75	86.94
662.953	99.94
663.156	85.94
663.36	77.94
663.563	95.94
663.766	86.94
663.969	94.94
664.173	81.94
664.376	87.94
664.579	95.94
664.782	102.94
664.985	100.94
665.188	79.94
665.391	86.94
665.594	70.94
665.797	75.94
666	93.94
666.203	96.94
666.406	93.94
666.609	96.94
666.812	97.94
667.015	86.94
667.218	99.94
667.421	81.94
667.624	86.94
667.827	94.94
668.03	77.94
668.232	77.94
668.435	87.94
668.638	92.94
668.841	75.94
669.043	85.94
669.246	79.94
669.449	88.94
669.651	87.94
669.854	80.94
670.057	88.94
670.259	91.94
670.462	81.94
670.665	94.94
670.867	89.94
671.07	74.94
671.272	79.94
671.475	76.94
671.677	80.94
671.88	84.94
672.082	86.94
672.284	90.94
672.487	87.94
672.689	86.94
672.892	81.94
