Data from Ni(NO3)2Standard.Agarose3%.GreenCap.LampEnergy5.5.E.O_HRD10591_14-41-54-188.txt Node
Date: Mon Jul 22 14:41:54 EDT 2019
User: cochatt
Spectrometer: HR+D1059
Trigger mode: 1
Integration Time (sec): 1.000000E-1
Scans to average: 1
Electric dark correction enabled: true
Nonlinearity correction enabled: false
Boxcar width: 0
XAxis mode: Wavelengths
Number of Pixels in Spectrum: 2048
>>>>>Begin Spectral Data<<<<<
223.165	-16.25
223.4	-16.25
223.635	-16.25
223.869	-9.25
224.104	-7.25
224.338	-24.25
224.573	-8.25
224.808	0.75
225.042	-5.25
225.277	-11.25
225.511	-11.25
225.746	-8.25
225.98	0.75
226.215	8.75
226.449	9.75
226.683	22.75
226.918	33.75
227.152	24.75
227.387	32.75
227.621	47.75
227.856	55.75
228.09	58.75
228.324	54.75
228.559	58.75
228.793	64.75
229.027	54.75
229.262	65.75
229.496	57.75
229.73	70.75
229.964	88.75
230.199	79.75
230.433	77.75
230.667	74.75
230.901	85.75
231.136	77.75
231.37	89.75
231.604	91.75
231.838	81.75
232.072	77.75
232.306	89.75
232.541	73.75
232.775	82.75
233.009	93.75
233.243	88.75
233.477	84.75
233.711	86.75
233.945	81.75
234.179	97.75
234.413	101.75
234.647	91.75
234.881	81.75
235.115	93.75
235.349	84.75
235.583	85.75
235.817	80.75
236.051	77.75
236.285	76.75
236.519	82.75
236.753	81.75
236.987	89.75
237.221	88.75
237.455	97.75
237.689	79.75
237.922	76.75
238.156	97.75
238.39	73.75
238.624	72.75
238.858	85.75
239.091	74.75
239.325	73.75
239.559	92.75
239.793	81.75
240.027	87.75
240.26	75.75
240.494	65.75
240.728	70.75
240.961	78.75
241.195	83.75
241.429	80.75
241.662	104.75
241.896	71.75
242.13	86.75
242.363	80.75
242.597	81.75
242.83	74.75
243.064	82.75
243.298	88.75
243.531	78.75
243.765	77.75
243.998	88.75
244.232	79.75
244.465	75.75
244.699	79.75
244.932	85.75
245.166	97.75
245.399	83.75
245.633	79.75
245.866	84.75
246.099	86.75
246.333	73.75
246.566	81.75
246.8	97.75
247.033	98.75
247.266	76.75
247.5	76.75
247.733	88.75
247.966	82.75
248.2	92.75
248.433	75.75
248.666	70.75
248.899	56.75
249.133	88.75
249.366	90.75
249.599	102.75
249.832	92.75
250.066	87.75
250.299	87.75
250.532	86.75
250.765	74.75
250.998	77.75
251.231	82.75
251.465	79.75
251.698	81.75
251.931	89.75
252.164	91.75
252.397	73.75
252.63	82.75
252.863	95.75
253.096	86.75
253.329	88.75
253.562	94.75
253.795	90.75
254.028	103.75
254.261	77.75
254.494	92.75
254.727	87.75
254.96	87.75
255.193	78.75
255.426	83.75
255.659	88.75
255.892	100.75
256.124	72.75
256.357	76.75
256.59	72.75
256.823	91.75
257.056	88.75
257.289	79.75
257.521	81.75
257.754	76.75
257.987	85.75
258.22	81.75
258.452	94.75
258.685	79.75
258.918	83.75
259.151	76.75
259.383	80.75
259.616	81.75
259.849	95.75
260.081	90.75
260.314	78.75
260.547	85.75
260.779	81.75
261.012	95.75
261.244	82.75
261.477	98.75
261.71	80.75
261.942	85.75
262.175	88.75
262.407	91.75
262.64	74.75
262.872	90.75
263.105	82.75
263.337	80.75
263.57	84.75
263.802	76.75
264.035	86.75
264.267	85.75
264.499	92.75
264.732	75.75
264.964	90.75
265.197	84.75
265.429	90.75
265.661	82.75
265.894	86.75
266.126	74.75
266.358	78.75
266.591	91.75
266.823	99.75
267.055	88.75
267.287	81.75
267.52	78.75
267.752	88.75
267.984	79.75
268.216	85.75
268.448	76.75
268.681	88.75
268.913	89.75
269.145	92.75
269.377	96.75
269.609	87.75
269.841	87.75
270.073	90.75
270.306	92.75
270.538	83.75
270.77	79.75
271.002	80.75
271.234	85.75
271.466	93.75
271.698	79.75
271.93	85.75
272.162	70.75
272.394	97.75
272.626	77.75
272.858	82.75
273.09	99.75
273.322	86.75
273.553	88.75
273.785	95.75
274.017	84.75
274.249	81.75
274.481	89.75
274.713	77.75
274.945	84.75
275.176	85.75
275.408	100.75
275.64	102.75
275.872	77.75
276.104	95.75
276.335	97.75
276.567	87.75
276.799	91.75
277.031	78.75
277.262	93.75
277.494	93.75
277.726	82.75
277.957	78.75
278.189	95.75
278.421	79.75
278.652	100.75
278.884	84.75
279.115	85.75
279.347	86.75
279.579	86.75
279.81	103.75
280.042	102.75
280.273	75.75
280.505	94.75
280.736	90.75
280.968	90.75
281.199	82.75
281.431	99.75
281.662	82.75
281.894	85.75
282.125	79.75
282.356	97.75
282.588	79.75
282.819	86.75
283.051	92.75
283.282	89.75
283.513	79.75
283.745	97.75
283.976	90.75
284.207	82.75
284.439	88.75
284.67	91.75
284.901	92.75
285.132	92.75
285.364	81.75
285.595	94.75
285.826	97.75
286.057	87.75
286.288	87.75
286.52	100.75
286.751	94.75
286.982	96.75
287.213	96.75
287.444	105.75
287.675	87.75
287.906	86.75
288.138	84.75
288.369	73.75
288.6	85.75
288.831	84.75
289.062	88.75
289.293	89.75
289.524	88.75
289.755	78.75
289.986	80.75
290.217	86.75
290.448	82.75
290.679	98.75
290.91	96.75
291.141	81.75
291.371	93.75
291.602	97.75
291.833	90.75
292.064	88.75
292.295	79.75
292.526	83.75
292.757	65.75
292.987	88.75
293.218	79.75
293.449	81.75
293.68	89.75
293.91	86.75
294.141	88.75
294.372	80.75
294.603	101.75
294.833	86.75
295.064	93.75
295.295	97.75
295.525	90.75
295.756	91.75
295.987	85.75
296.217	85.75
296.448	100.75
296.679	87.75
296.909	96.75
297.14	76.75
297.37	94.75
297.601	85.75
297.831	82.75
298.062	106.75
298.292	76.75
298.523	79.75
298.753	92.75
298.984	87.75
299.214	90.75
299.445	99.75
299.675	94.75
299.905	95.75
300.136	92.75
300.366	91.75
300.597	101.75
300.827	90.75
301.057	86.75
301.288	106.75
301.518	100.75
301.748	92.75
301.979	79.75
302.209	96.75
302.439	77.75
302.669	80.75
302.9	92.75
303.13	98.75
303.36	74.75
303.59	83.75
303.82	96.75
304.051	98.75
304.281	77.75
304.511	93.75
304.741	86.75
304.971	90.75
305.201	100.75
305.431	93.75
305.661	92.75
305.891	108.75
306.121	102.75
306.352	84.75
306.582	88.75
306.812	90.75
307.042	90.75
307.272	89.75
307.502	75.75
307.731	108.75
307.961	93.75
308.191	80.75
308.421	79.75
308.651	91.75
308.881	95.75
309.111	78.75
309.341	89.75
309.571	88.75
309.8	97.75
310.03	87.75
310.26	90.75
310.49	92.75
310.72	78.75
310.949	91.75
311.179	85.75
311.409	85.75
311.639	83.75
311.868	87.75
312.098	81.75
312.328	82.75
312.557	83.75
312.787	96.75
313.017	81.75
313.246	96.75
313.476	97.75
313.706	88.75
313.935	91.75
314.165	103.75
314.394	92.75
314.624	92.75
314.853	105.75
315.083	102.75
315.312	72.75
315.542	87.75
315.771	94.75
316.001	86.75
316.23	89.75
316.46	79.75
316.689	88.75
316.919	104.75
317.148	96.75
317.377	87.75
317.607	95.75
317.836	79.75
318.065	78.75
318.295	76.75
318.524	86.75
318.753	107.75
318.983	84.75
319.212	101.75
319.441	83.75
319.67	81.75
319.9	94.75
320.129	104.75
320.358	98.75
320.587	88.75
320.816	85.75
321.046	105.75
321.275	101.75
321.504	87.75
321.733	80.75
321.962	86.75
322.191	100.75
322.42	87.75
322.649	84.75
322.878	92.75
323.108	80.75
323.337	92.75
323.566	93.75
323.795	90.75
324.024	95.75
324.253	85.75
324.482	92.75
324.71	78.75
324.939	92.75
325.168	92.75
325.397	99.75
325.626	85.75
325.855	84.75
326.084	84.75
326.313	83.75
326.542	100.75
326.77	87.75
326.999	85.75
327.228	83.75
327.457	96.75
327.686	85.75
327.914	83.75
328.143	81.75
328.372	97.75
328.6	96.75
328.829	80.75
329.058	92.75
329.287	96.75
329.515	111.75
329.744	93.75
329.972	88.75
330.201	93.75
330.43	90.75
330.658	103.75
330.887	92.75
331.115	100.75
331.344	93.75
331.572	96.75
331.801	91.75
332.03	84.75
332.258	89.75
332.486	103.75
332.715	93.75
332.943	81.75
333.172	89.75
333.4	90.75
333.629	96.75
333.857	84.75
334.085	82.75
334.314	88.75
334.542	89.75
334.771	108.75
334.999	94.75
335.227	82.75
335.455	86.75
335.684	105.75
335.912	95.75
336.14	83.75
336.369	94.75
336.597	101.75
336.825	95.75
337.053	97.75
337.281	75.75
337.51	83.75
337.738	88.75
337.966	89.75
338.194	98.75
338.422	95.75
338.65	89.75
338.878	95.75
339.106	85.75
339.334	98.75
339.562	80.75
339.79	85.75
340.018	87.75
340.246	93.75
340.474	96.75
340.702	82.75
340.93	87.75
341.158	103.75
341.386	88.75
341.614	96.75
341.842	83.75
342.07	93.75
342.298	95.75
342.526	85.75
342.754	75.75
342.981	77.75
343.209	100.75
343.437	95.75
343.665	83.75
343.893	98.75
344.12	81.75
344.348	90.75
344.576	99.75
344.804	86.75
345.031	89.75
345.259	85.75
345.487	91.75
345.714	90.75
345.942	89.75
346.17	102.75
346.397	99.75
346.625	95.75
346.853	100.75
347.08	84.75
347.308	86.75
347.535	85.75
347.763	91.75
347.99	103.75
348.218	103.75
348.445	96.75
348.673	86.75
348.9	108.75
349.128	91.75
349.355	100.75
349.583	113.75
349.81	77.75
350.037	95.75
350.265	103.75
350.492	89.75
350.72	105.75
350.947	92.75
351.174	83.75
351.402	83.75
351.629	97.75
351.856	80.75
352.083	78.75
352.311	94.75
352.538	84.75
352.765	103.75
352.992	99.75
353.22	89.75
353.447	90.75
353.674	87.75
353.901	88.75
354.128	99.75
354.355	91.75
354.583	93.75
354.81	90.75
355.037	96.75
355.264	100.75
355.491	86.75
355.718	96.75
355.945	87.75
356.172	81.75
356.399	92.75
356.626	89.75
356.853	84.75
357.08	81.75
357.307	84.75
357.534	107.75
357.761	99.75
357.988	83.75
358.215	90.75
358.441	78.75
358.668	76.75
358.895	81.75
359.122	94.75
359.349	80.75
359.576	81.75
359.802	91.75
360.029	90.75
360.256	86.75
360.483	89.75
360.709	79.75
360.936	101.75
361.163	100.75
361.39	101.75
361.616	87.75
361.843	82.75
362.07	72.75
362.296	87.75
362.523	100.75
362.749	82.75
362.976	88.75
363.203	97.75
363.429	86.75
363.656	87.75
363.882	90.75
364.109	80.75
364.335	93.75
364.562	89.75
364.788	87.75
365.015	88.75
365.241	88.75
365.468	103.75
365.694	95.75
365.92	94.75
366.147	91.75
366.373	97.75
366.599	83.75
366.826	83.75
367.052	88.75
367.278	93.75
367.505	86.75
367.731	80.75
367.957	78.75
368.184	66.75
368.41	92.75
368.636	103.75
368.862	82.75
369.089	77.75
369.315	80.75
369.541	88.75
369.767	69.75
369.993	82.75
370.219	93.75
370.445	89.75
370.672	104.75
370.898	91.75
371.124	83.75
371.35	88.75
371.576	77.75
371.802	82.75
372.028	93.75
372.254	97.75
372.48	91.75
372.706	91.75
372.932	100.75
373.158	90.75
373.384	102.75
373.61	77.75
373.835	76.75
374.061	85.75
374.287	76.75
374.513	87.75
374.739	98.75
374.965	67.75
375.191	88.75
375.416	96.75
375.642	92.75
375.868	82.75
376.094	95.75
376.319	85.75
376.545	82.75
376.771	81.75
376.997	91.75
377.222	82.75
377.448	92.75
377.674	86.75
377.899	91.75
378.125	90.75
378.35	91.75
378.576	83.75
378.802	86.75
379.027	83.75
379.253	97.75
379.478	89.75
379.704	82.75
379.929	69.75
380.155	93.75
380.38	96.75
380.606	76.75
380.831	77.75
381.057	88.75
381.282	95.75
381.507	83.75
381.733	80.75
381.958	95.75
382.184	93.75
382.409	90.75
382.634	82.75
382.86	87.75
383.085	87.75
383.31	73.75
383.535	85.75
383.761	89.75
383.986	96.75
384.211	85.75
384.436	95.75
384.662	96.75
384.887	92.75
385.112	78.75
385.337	103.75
385.562	92.75
385.787	81.75
386.013	88.75
386.238	80.75
386.463	79.75
386.688	95.75
386.913	84.75
387.138	82.75
387.363	91.75
387.588	99.75
387.813	100.75
388.038	85.75
388.263	95.75
388.488	83.75
388.713	86.75
388.938	81.75
389.163	97.75
389.387	103.75
389.612	81.75
389.837	89.75
390.062	89.75
390.287	89.75
390.512	87.75
390.736	98.75
390.961	89.75
391.186	79.75
391.411	96.75
391.636	80.75
391.86	93.75
392.085	94.75
392.31	87.75
392.534	83.75
392.759	93.75
392.984	90.75
393.208	77.75
393.433	84.75
393.658	79.75
393.882	96.75
394.107	88.75
394.331	91.75
394.556	97.75
394.78	87.75
395.005	92.75
395.229	106.75
395.454	86.75
395.678	76.75
395.903	84.75
396.127	87.75
396.352	92.75
396.576	85.75
396.801	83.75
397.025	79.75
397.249	93.75
397.474	92.75
397.698	87.75
397.922	92.75
398.147	85.75
398.371	76.75
398.595	92.75
398.82	90.75
399.044	82.75
399.268	81.75
399.492	86.75
399.717	85.75
399.941	80.75
400.165	99.75
400.389	88.75
400.613	90.75
400.837	89.75
401.062	82.75
401.286	95.75
401.51	89.75
401.734	92.75
401.958	83.75
402.182	82.75
402.406	80.75
402.63	96.75
402.854	86.75
403.078	88.75
403.302	86.75
403.526	84.75
403.75	71.75
403.974	94.75
404.198	89.75
404.422	111.75
404.645	86.75
404.869	104.75
405.093	86.75
405.317	93.75
405.541	104.75
405.765	90.75
405.988	106.75
406.212	94.75
406.436	93.75
406.66	80.75
406.883	79.75
407.107	86.75
407.331	96.75
407.555	98.75
407.778	94.75
408.002	87.75
408.226	82.75
408.449	82.75
408.673	77.75
408.896	74.75
409.12	92.75
409.344	100.75
409.567	86.75
409.791	92.75
410.014	92.75
410.238	86.75
410.461	77.75
410.685	88.75
410.908	86.75
411.132	97.75
411.355	93.75
411.578	93.75
411.802	88.75
412.025	84.75
412.249	92.75
412.472	81.75
412.695	91.75
412.919	92.75
413.142	95.75
413.365	92.75
413.589	97.75
413.812	85.75
414.035	92.75
414.258	88.75
414.482	87.75
414.705	97.75
414.928	98.75
415.151	80.75
415.374	86.75
415.597	79.75
415.821	80.75
416.044	85.75
416.267	97.75
416.49	104.75
416.713	93.75
416.936	99.75
417.159	91.75
417.382	87.75
417.605	83.75
417.828	105.75
418.051	102.75
418.274	97.75
418.497	88.75
418.72	87.75
418.943	97.75
419.166	76.75
419.389	97.75
419.611	96.75
419.834	97.75
420.057	96.75
420.28	95.75
420.503	93.75
420.726	90.75
420.948	82.75
421.171	95.75
421.394	77.75
421.617	79.75
421.839	80.75
422.062	92.75
422.285	98.75
422.507	82.75
422.73	96.75
422.953	87.75
423.175	79.75
423.398	98.75
423.621	96.75
423.843	94.75
424.066	100.75
424.288	93.75
424.511	91.75
424.733	82.75
424.956	104.75
425.178	96.75
425.401	85.75
425.623	79.75
425.846	99.75
426.068	102.75
426.291	84.75
426.513	73.75
426.735	92.75
426.958	92.75
427.18	88.75
427.402	93.75
427.625	87.75
427.847	87.75
428.069	84.75
428.292	107.75
428.514	88.75
428.736	76.75
428.958	97.75
429.181	91.75
429.403	93.75
429.625	86.75
429.847	87.75
430.069	89.75
430.292	81.75
430.514	88.75
430.736	91.75
430.958	102.75
431.18	88.75
431.402	81.75
431.624	100.75
431.846	84.75
432.068	82.75
432.29	88.75
432.512	98.75
432.734	76.75
432.956	99.75
433.178	80.75
433.4	96.75
433.622	95.75
433.844	88.75
434.066	88.75
434.287	93.75
434.509	95.75
434.731	100.75
434.953	96.75
435.175	86.75
435.397	95.75
435.618	91.75
435.84	97.75
436.062	97.75
436.284	95.75
436.505	92.75
436.727	70.75
436.949	86.75
437.17	95.75
437.392	82.75
437.614	87.75
437.835	88.75
438.057	96.75
438.278	103.75
438.5	95.75
438.721	93.75
438.943	91.75
439.165	92.75
439.386	89.75
439.608	95.75
439.829	90.75
440.05	90.75
440.272	81.75
440.493	91.75
440.715	85.75
440.936	84.75
441.158	99.75
441.379	94.75
441.6	89.75
441.822	95.75
442.043	91.75
442.264	103.75
442.486	97.75
442.707	95.75
442.928	82.75
443.149	85.75
443.371	98.75
443.592	92.75
443.813	84.75
444.034	73.75
444.255	85.75
444.476	91.75
444.698	88.75
444.919	91.75
445.14	208.75
445.361	150.75
445.582	97.75
445.803	89.75
446.024	92.75
446.245	99.75
446.466	100.75
446.687	87.75
446.908	89.75
447.129	86.75
447.35	90.75
447.571	86.75
447.792	102.75
448.013	94.75
448.234	103.75
448.455	87.75
448.675	85.75
448.896	79.75
449.117	84.75
449.338	82.75
449.559	95.75
449.779	90.75
450	79.75
450.221	87.75
450.442	94.75
450.662	94.75
450.883	86.75
451.104	94.75
451.324	97.75
451.545	103.75
451.766	86.75
451.986	93.75
452.207	95.75
452.428	88.75
452.648	102.75
452.869	78.75
453.089	85.75
453.31	80.75
453.53	101.75
453.751	92.75
453.971	98.75
454.192	91.75
454.412	82.75
454.633	96.75
454.853	98.75
455.073	82.75
455.294	91.75
455.514	86.75
455.734	98.75
455.955	76.75
456.175	94.75
456.395	83.75
456.616	90.75
456.836	86.75
457.056	92.75
457.276	96.75
457.497	83.75
457.717	100.75
457.937	89.75
458.157	88.75
458.377	87.75
458.598	73.75
458.818	76.75
459.038	91.75
459.258	92.75
459.478	100.75
459.698	91.75
459.918	92.75
460.138	92.75
460.358	103.75
460.578	97.75
460.798	104.75
461.018	88.75
461.238	93.75
461.458	89.75
461.678	95.75
461.898	102.75
462.118	116.75
462.338	95.75
462.558	97.75
462.777	100.75
462.997	86.75
463.217	106.75
463.437	97.75
463.657	88.75
463.876	74.75
464.096	88.75
464.316	101.75
464.536	91.75
464.755	79.75
464.975	102.75
465.195	109.75
465.414	98.75
465.634	83.75
465.854	87.75
466.073	80.75
466.293	85.75
466.512	78.75
466.732	84.75
466.951	92.75
467.171	78.75
467.391	100.75
467.61	94.75
467.829	80.75
468.049	93.75
468.268	87.75
468.488	74.75
468.707	81.75
468.927	89.75
469.146	102.75
469.365	95.75
469.585	77.75
469.804	91.75
470.023	84.75
470.243	91.75
470.462	96.75
470.681	96.75
470.901	102.75
471.12	103.75
471.339	94.75
471.558	94.75
471.777	95.75
471.997	101.75
472.216	94.75
472.435	86.75
472.654	93.75
472.873	100.75
473.092	88.75
473.311	74.75
473.53	81.75
473.749	90.75
473.968	88.75
474.187	75.75
474.406	97.75
474.625	93.75
474.844	89.75
475.063	100.75
475.282	94.75
475.501	106.75
475.72	88.75
475.939	78.75
476.158	87.75
476.377	98.75
476.596	89.75
476.814	100.75
477.033	90.75
477.252	86.75
477.471	92.75
477.69	83.75
477.908	103.75
478.127	111.75
478.346	93.75
478.564	95.75
478.783	92.75
479.002	91.75
479.22	101.75
479.439	105.75
479.658	95.75
479.876	86.75
480.095	100.75
480.313	102.75
480.532	97.75
480.751	96.75
480.969	98.75
481.188	105.75
481.406	95.75
481.624	92.75
481.843	90.75
482.061	87.75
482.28	84.75
482.498	85.75
482.717	103.75
482.935	95.75
483.153	93.75
483.372	99.75
483.59	93.75
483.808	92.75
484.027	109.75
484.245	87.75
484.463	101.75
484.681	101.75
484.9	95.75
485.118	96.75
485.336	108.75
485.554	109.75
485.772	91.75
485.99	92.75
486.209	92.75
486.427	94.75
486.645	116.75
486.863	94.75
487.081	93.75
487.299	98.75
487.517	109.75
487.735	108.75
487.953	99.75
488.171	85.75
488.389	92.75
488.607	103.75
488.825	96.75
489.043	83.75
489.261	81.75
489.479	102.75
489.696	84.75
489.914	89.75
490.132	104.75
490.35	101.75
490.568	79.75
490.786	98.75
491.003	103.75
491.221	90.75
491.439	104.75
491.657	100.75
491.874	85.75
492.092	96.75
492.31	89.75
492.527	102.75
492.745	105.75
492.963	84.75
493.18	93.75
493.398	101.75
493.615	94.75
493.833	102.75
494.05	100.75
494.268	95.75
494.485	87.75
494.703	92.75
494.92	86.75
495.138	92.75
495.355	106.75
495.573	103.75
495.79	105.75
496.008	105.75
496.225	105.75
496.442	94.75
496.66	108.75
496.877	95.75
497.094	117.75
497.312	92.75
497.529	105.75
497.746	95.75
497.963	101.75
498.181	99.75
498.398	87.75
498.615	107.75
498.832	108.75
499.049	106.75
499.267	106.75
499.484	111.75
499.701	118.75
499.918	121.75
500.135	117.75
500.352	120.75
500.569	120.75
500.786	126.75
501.003	134.75
501.22	110.75
501.437	109.75
501.654	100.75
501.871	101.75
502.088	96.75
502.305	104.75
502.522	103.75
502.739	88.75
502.956	110.75
503.172	94.75
503.389	87.75
503.606	92.75
503.823	93.75
504.04	101.75
504.256	107.75
504.473	97.75
504.69	100.75
504.907	90.75
505.123	98.75
505.34	93.75
505.557	98.75
505.773	105.75
505.99	100.75
506.207	97.75
506.423	101.75
506.64	113.75
506.856	105.75
507.073	97.75
507.289	103.75
507.506	86.75
507.722	92.75
507.939	103.75
508.155	93.75
508.372	101.75
508.588	105.75
508.805	93.75
509.021	111.75
509.238	94.75
509.454	94.75
509.67	93.75
509.887	93.75
510.103	105.75
510.319	93.75
510.536	97.75
510.752	82.75
510.968	106.75
511.184	74.75
511.401	87.75
511.617	81.75
511.833	108.75
512.049	80.75
512.265	92.75
512.481	102.75
512.698	96.75
512.914	107.75
513.13	93.75
513.346	95.75
513.562	89.75
513.778	106.75
513.994	105.75
514.21	88.75
514.426	98.75
514.642	93.75
514.858	92.75
515.074	96.75
515.29	86.75
515.506	102.75
515.721	97.75
515.937	91.75
516.153	97.75
516.369	94.75
516.585	84.75
516.801	97.75
517.016	90.75
517.232	110.75
517.448	93.75
517.664	104.75
517.879	94.75
518.095	104.75
518.311	105.75
518.527	90.75
518.742	100.75
518.958	93.75
519.173	91.75
519.389	95.75
519.605	101.75
519.82	105.75
520.036	98.75
520.251	92.75
520.467	85.75
520.682	87.75
520.898	99.75
521.113	95.75
521.329	97.75
521.544	97.75
521.76	89.75
521.975	89.75
522.19	98.75
522.406	100.75
522.621	85.75
522.836	76.75
523.052	105.75
523.267	98.75
523.482	97.75
523.698	90.75
523.913	117.75
524.128	97.75
524.343	98.75
524.559	99.75
524.774	92.75
524.989	102.75
525.204	97.75
525.419	108.75
525.634	86.75
525.849	89.75
526.064	96.75
526.28	96.75
526.495	80.75
526.71	105.75
526.925	105.75
527.14	74.75
527.355	98.75
527.57	87.75
527.785	92.75
527.999	89.75
528.214	93.75
528.429	94.75
528.644	94.75
528.859	96.75
529.074	94.75
529.289	96.75
529.503	94.75
529.718	92.75
529.933	93.75
530.148	84.75
530.363	95.75
530.577	104.75
530.792	84.75
531.007	84.75
531.221	93.75
531.436	82.75
531.651	100.75
531.865	97.75
532.08	84.75
532.295	88.75
532.509	89.75
532.724	78.75
532.938	94.75
533.153	100.75
533.367	101.75
533.582	86.75
533.796	92.75
534.011	97.75
534.225	74.75
534.44	81.75
534.654	84.75
534.868	92.75
535.083	94.75
535.297	94.75
535.511	93.75
535.726	99.75
535.94	103.75
536.154	98.75
536.369	99.75
536.583	87.75
536.797	93.75
537.011	87.75
537.225	94.75
537.44	86.75
537.654	86.75
537.868	92.75
538.082	85.75
538.296	95.75
538.51	66.75
538.724	82.75
538.938	91.75
539.153	92.75
539.367	105.75
539.581	94.75
539.795	89.75
540.009	90.75
540.222	92.75
540.436	100.75
540.65	99.75
540.864	102.75
541.078	88.75
541.292	90.75
541.506	100.75
541.72	99.75
541.934	95.75
542.147	97.75
542.361	103.75
542.575	92.75
542.789	104.75
543.002	89.75
543.216	80.75
543.43	87.75
543.644	99.75
543.857	88.75
544.071	90.75
544.285	100.75
544.498	97.75
544.712	98.75
544.925	99.75
545.139	92.75
545.352	92.75
545.566	90.75
545.779	88.75
545.993	85.75
546.206	85.75
546.42	98.75
546.633	106.75
546.847	86.75
547.06	97.75
547.274	96.75
547.487	95.75
547.7	98.75
547.914	109.75
548.127	106.75
548.34	94.75
548.554	103.75
548.767	109.75
548.98	89.75
549.193	95.75
549.407	85.75
549.62	95.75
549.833	97.75
550.046	100.75
550.259	91.75
550.473	95.75
550.686	105.75
550.899	89.75
551.112	84.75
551.325	101.75
551.538	89.75
551.751	101.75
551.964	106.75
552.177	92.75
552.39	79.75
552.603	94.75
552.816	86.75
553.029	81.75
553.242	95.75
553.455	105.75
553.667	109.75
553.88	94.75
554.093	102.75
554.306	104.75
554.519	102.75
554.732	95.75
554.944	90.75
555.157	83.75
555.37	72.75
555.583	90.75
555.795	94.75
556.008	91.75
556.221	101.75
556.433	90.75
556.646	76.75
556.859	82.75
557.071	83.75
557.284	93.75
557.496	104.75
557.709	93.75
557.921	85.75
558.134	99.75
558.346	89.75
558.559	92.75
558.771	101.75
558.984	103.75
559.196	98.75
559.409	87.75
559.621	100.75
559.833	93.75
560.046	101.75
560.258	107.75
560.47	87.75
560.683	95.75
560.895	95.75
561.107	90.75
561.32	96.75
561.532	96.75
561.744	108.75
561.956	86.75
562.168	89.75
562.381	89.75
562.593	101.75
562.805	105.75
563.017	93.75
563.229	96.75
563.441	89.75
563.653	83.75
563.865	75.75
564.077	85.75
564.289	105.75
564.501	100.75
564.713	100.75
564.925	89.75
565.137	103.75
565.349	101.75
565.561	94.75
565.773	84.75
565.985	78.75
566.197	101.75
566.408	96.75
566.62	88.75
566.832	109.75
567.044	86.75
567.255	86.75
567.467	103.75
567.679	100.75
567.891	95.75
568.102	86.75
568.314	96.75
568.526	82.75
568.737	92.75
568.949	96.75
569.161	96.75
569.372	77.75
569.584	89.75
569.795	99.75
570.007	94.75
570.218	89.75
570.43	80.75
570.641	87.75
570.853	82.75
571.064	97.75
571.276	84.75
571.487	85.75
571.698	79.75
571.91	94.75
572.121	72.75
572.333	79.75
572.544	90.75
572.755	87.75
572.966	98.75
573.178	93.75
573.389	102.75
573.6	79.75
573.811	92.75
574.023	95.75
574.234	88.75
574.445	89.75
574.656	85.75
574.867	90.75
575.078	88.75
575.289	109.75
575.501	109.75
575.712	85.75
575.923	83.75
576.134	92.75
576.345	91.75
576.556	77.75
576.767	81.75
576.978	97.75
577.188	78.75
577.399	99.75
577.61	98.75
577.821	85.75
578.032	94.75
578.243	89.75
578.454	94.75
578.665	98.75
578.875	79.75
579.086	97.75
579.297	90.75
579.508	88.75
579.718	106.75
579.929	109.75
580.14	95.75
580.35	88.75
580.561	89.75
580.772	86.75
580.982	98.75
581.193	86.75
581.403	78.75
581.614	81.75
581.825	94.75
582.035	91.75
582.246	91.75
582.456	92.75
582.667	84.75
582.877	83.75
583.087	90.75
583.298	103.75
583.508	74.75
583.719	91.75
583.929	93.75
584.139	91.75
584.35	85.75
584.56	90.75
584.77	86.75
584.981	89.75
585.191	76.75
585.401	87.75
585.611	80.75
585.821	89.75
586.032	95.75
586.242	100.75
586.452	95.75
586.662	87.75
586.872	89.75
587.082	85.75
587.292	90.75
587.502	85.75
587.713	90.75
587.923	82.75
588.133	104.75
588.343	94.75
588.553	86.75
588.762	100.75
588.972	92.75
589.182	92.75
589.392	87.75
589.602	88.75
589.812	92.75
590.022	92.75
590.232	94.75
590.441	84.75
590.651	102.75
590.861	97.75
591.071	88.75
591.281	91.75
591.49	92.75
591.7	86.75
591.91	85.75
592.119	88.75
592.329	69.75
592.539	88.75
592.748	93.75
592.958	86.75
593.167	86.75
593.377	87.75
593.587	101.75
593.796	90.75
594.006	87.75
594.215	91.75
594.424	85.75
594.634	96.75
594.843	91.75
595.053	90.75
595.262	85.75
595.472	90.75
595.681	86.75
595.89	88.75
596.1	94.75
596.309	92.75
596.518	86.75
596.727	89.75
596.937	105.75
597.146	92.75
597.355	95.75
597.564	90.75
597.774	88.75
597.983	88.75
598.192	90.75
598.401	94.75
598.61	82.75
598.819	88.75
599.028	86.75
599.237	75.75
599.446	98.75
599.655	98.75
599.864	87.75
600.073	94.75
600.282	104.75
600.491	77.75
600.7	65.75
600.909	91.75
601.118	81.75
601.327	87.75
601.536	101.75
601.745	82.75
601.953	92.75
602.162	85.75
602.371	92.75
602.58	87.75
602.789	96.75
602.997	92.75
603.206	85.75
603.415	90.75
603.623	91.75
603.832	78.75
604.041	84.75
604.249	96.75
604.458	89.75
604.666	97.75
604.875	80.75
605.084	87.75
605.292	89.75
605.501	86.75
605.709	95.75
605.918	93.75
606.126	99.75
606.334	88.75
606.543	98.75
606.751	93.75
606.96	80.75
607.168	72.75
607.376	87.75
607.585	89.75
607.793	84.75
608.001	98.75
608.21	102.75
608.418	88.75
608.626	82.75
608.834	76.75
609.043	80.75
609.251	82.75
609.459	83.75
609.667	96.75
609.875	102.75
610.083	77.75
610.291	104.75
610.499	103.75
610.707	103.75
610.916	88.75
611.124	85.75
611.332	80.75
611.54	106.75
611.748	83.75
611.955	87.75
612.163	87.75
612.371	95.75
612.579	87.75
612.787	88.75
612.995	86.75
613.203	87.75
613.411	80.75
613.618	96.75
613.826	79.75
614.034	83.75
614.242	93.75
614.449	95.75
614.657	104.75
614.865	73.75
615.072	95.75
615.28	100.75
615.488	96.75
615.695	100.75
615.903	93.75
616.111	97.75
616.318	93.75
616.526	88.75
616.733	86.75
616.941	95.75
617.148	97.75
617.356	93.75
617.563	79.75
617.771	88.75
617.978	96.75
618.185	79.75
618.393	97.75
618.6	92.75
618.807	84.75
619.015	81.75
619.222	89.75
619.429	87.75
619.637	87.75
619.844	93.75
620.051	80.75
620.258	83.75
620.466	82.75
620.673	87.75
620.88	97.75
621.087	85.75
621.294	74.75
621.501	91.75
621.708	100.75
621.915	90.75
622.122	85.75
622.329	93.75
622.536	104.75
622.743	94.75
622.95	84.75
623.157	94.75
623.364	79.75
623.571	86.75
623.778	86.75
623.985	96.75
624.192	93.75
624.399	80.75
624.606	92.75
624.812	91.75
625.019	97.75
625.226	78.75
625.433	91.75
625.639	89.75
625.846	92.75
626.053	75.75
626.259	89.75
626.466	95.75
626.673	94.75
626.879	90.75
627.086	93.75
627.293	86.75
627.499	82.75
627.706	95.75
627.912	80.75
628.119	81.75
628.325	95.75
628.532	83.75
628.738	83.75
628.945	94.75
629.151	105.75
629.357	88.75
629.564	87.75
629.77	96.75
629.976	80.75
630.183	88.75
630.389	105.75
630.595	83.75
630.802	82.75
631.008	91.75
631.214	77.75
631.42	103.75
631.627	85.75
631.833	79.75
632.039	91.75
632.245	115.75
632.451	86.75
632.657	81.75
632.863	88.75
633.069	78.75
633.275	93.75
633.481	100.75
633.688	96.75
633.893	80.75
634.099	92.75
634.305	81.75
634.511	76.75
634.717	92.75
634.923	80.75
635.129	104.75
635.335	86.75
635.541	89.75
635.747	87.75
635.952	87.75
636.158	70.75
636.364	97.75
636.57	94.75
636.775	88.75
636.981	93.75
637.187	88.75
637.392	93.75
637.598	85.75
637.804	86.75
638.009	81.75
638.215	92.75
638.421	89.75
638.626	87.75
638.832	80.75
639.037	86.75
639.243	86.75
639.448	82.75
639.654	95.75
639.859	86.75
640.065	89.75
640.27	92.75
640.475	90.75
640.681	90.75
640.886	91.75
641.091	93.75
641.297	79.75
641.502	87.75
641.707	90.75
641.913	74.75
642.118	93.75
642.323	84.75
642.528	92.75
642.733	100.75
642.939	104.75
643.144	74.75
643.349	91.75
643.554	97.75
643.759	75.75
643.964	87.75
644.169	81.75
644.374	90.75
644.579	88.75
644.784	86.75
644.989	90.75
645.194	93.75
645.399	92.75
645.604	89.75
645.809	91.75
646.014	92.75
646.219	83.75
646.423	87.75
646.628	95.75
646.833	91.75
647.038	93.75
647.243	87.75
647.447	73.75
647.652	80.75
647.857	90.75
648.062	102.75
648.266	98.75
648.471	87.75
648.676	78.75
648.88	74.75
649.085	83.75
649.289	93.75
649.494	80.75
649.698	95.75
649.903	93.75
650.107	70.75
650.312	92.75
650.516	94.75
650.721	89.75
650.925	96.75
651.13	82.75
651.334	82.75
651.539	78.75
651.743	91.75
651.947	87.75
652.152	93.75
652.356	76.75
652.56	82.75
652.764	87.75
652.969	81.75
653.173	87.75
653.377	90.75
653.581	78.75
653.785	82.75
653.99	94.75
654.194	82.75
654.398	82.75
654.602	87.75
654.806	86.75
655.01	98.75
655.214	88.75
655.418	85.75
655.622	81.75
655.826	89.75
656.03	84.75
656.234	86.75
656.438	88.75
656.642	85.75
656.846	98.75
657.049	90.75
657.253	97.75
657.457	93.75
657.661	88.75
657.865	86.75
658.068	89.75
658.272	101.75
658.476	87.75
658.68	84.75
658.883	70.75
659.087	88.75
659.291	89.75
659.494	80.75
659.698	83.75
659.901	86.75
660.105	86.75
660.309	86.75
660.512	81.75
660.716	87.75
660.919	80.75
661.123	81.75
661.326	91.75
661.53	81.75
661.733	89.75
661.936	89.75
662.14	82.75
662.343	104.75
662.546	83.75
662.75	109.75
662.953	97.75
663.156	87.75
663.36	89.75
663.563	67.75
663.766	89.75
663.969	75.75
664.173	89.75
664.376	81.75
664.579	71.75
664.782	92.75
664.985	91.75
665.188	86.75
665.391	87.75
665.594	84.75
665.797	89.75
666	81.75
666.203	73.75
666.406	82.75
666.609	91.75
666.812	106.75
667.015	96.75
667.218	102.75
667.421	81.75
667.624	88.75
667.827	92.75
668.03	71.75
668.232	76.75
668.435	88.75
668.638	83.75
668.841	95.75
669.043	77.75
669.246	86.75
669.449	85.75
669.651	86.75
669.854	91.75
670.057	85.75
670.259	90.75
670.462	90.75
670.665	86.75
670.867	82.75
671.07	68.75
671.272	86.75
671.475	96.75
671.677	91.75
671.88	103.75
672.082	90.75
672.284	75.75
672.487	94.75
672.689	82.75
672.892	91.75
