Data from Ni(NO3)2@0.25M.TitratingCurve.Agarose3%dH2O.NegLispCup.LampEnergy10.LIBS07252019_HRD10591_18-03-08-566.txt Node
Date: Thu Jul 25 18:03:08 EDT 2019
User: cochatt
Spectrometer: HR+D1059
Trigger mode: 1
Integration Time (sec): 1.000000E-1
Scans to average: 1
Electric dark correction enabled: true
Nonlinearity correction enabled: false
Boxcar width: 0
XAxis mode: Wavelengths
Number of Pixels in Spectrum: 2048
>>>>>Begin Spectral Data<<<<<
223.165	-12.12
223.4	-12.12
223.635	-12.12
223.869	-14.12
224.104	-23.12
224.338	-8.12
224.573	-11.12
224.808	-9.12
225.042	-14.12
225.277	-17.12
225.511	-5.12
225.746	12.88
225.98	1.88
226.215	13.88
226.449	8.88
226.683	26.88
226.918	15.88
227.152	33.88
227.387	40.88
227.621	32.88
227.856	35.88
228.09	42.88
228.324	54.88
228.559	60.88
228.793	76.88
229.027	97.88
229.262	101.88
229.496	86.88
229.73	104.88
229.964	114.88
230.199	99.88
230.433	122.88
230.667	125.88
230.901	116.88
231.136	110.88
231.37	117.88
231.604	102.88
231.838	115.88
232.072	119.88
232.306	135.88
232.541	123.88
232.775	110.88
233.009	124.88
233.243	126.88
233.477	119.88
233.711	118.88
233.945	109.88
234.179	109.88
234.413	121.88
234.647	117.88
234.881	105.88
235.115	121.88
235.349	113.88
235.583	124.88
235.817	111.88
236.051	124.88
236.285	103.88
236.519	122.88
236.753	125.88
236.987	104.88
237.221	105.88
237.455	119.88
237.689	120.88
237.922	124.88
238.156	120.88
238.39	109.88
238.624	124.88
238.858	121.88
239.091	134.88
239.325	123.88
239.559	134.88
239.793	130.88
240.027	148.88
240.26	114.88
240.494	140.88
240.728	128.88
240.961	134.88
241.195	132.88
241.429	132.88
241.662	132.88
241.896	145.88
242.13	146.88
242.363	147.88
242.597	140.88
242.83	130.88
243.064	136.88
243.298	130.88
243.531	150.88
243.765	136.88
243.998	147.88
244.232	163.88
244.465	148.88
244.699	148.88
244.932	141.88
245.166	137.88
245.399	148.88
245.633	148.88
245.866	144.88
246.099	140.88
246.333	178.88
246.566	156.88
246.8	156.88
247.033	151.88
247.266	169.88
247.5	172.88
247.733	164.88
247.966	164.88
248.2	167.88
248.433	185.88
248.666	172.88
248.899	170.88
249.133	193.88
249.366	189.88
249.599	193.88
249.832	190.88
250.066	212.88
250.299	201.88
250.532	217.88
250.765	216.88
250.998	231.88
251.231	222.88
251.465	234.88
251.698	240.88
251.931	250.88
252.164	231.88
252.397	264.88
252.63	257.88
252.863	262.88
253.096	252.88
253.329	263.88
253.562	258.88
253.795	263.88
254.028	279.88
254.261	285.88
254.494	304.88
254.727	280.88
254.96	284.88
255.193	285.88
255.426	296.88
255.659	304.88
255.892	312.88
256.124	315.88
256.357	316.88
256.59	320.88
256.823	314.88
257.056	332.88
257.289	331.88
257.521	332.88
257.754	318.88
257.987	326.88
258.22	334.88
258.452	347.88
258.685	354.88
258.918	349.88
259.151	363.88
259.383	367.88
259.616	361.88
259.849	375.88
260.081	353.88
260.314	396.88
260.547	354.88
260.779	370.88
261.012	377.88
261.244	360.88
261.477	390.88
261.71	382.88
261.942	374.88
262.175	381.88
262.407	375.88
262.64	378.88
262.872	393.88
263.105	374.88
263.337	383.88
263.57	402.88
263.802	408.88
264.035	384.88
264.267	416.88
264.499	413.88
264.732	410.88
264.964	391.88
265.197	405.88
265.429	424.88
265.661	418.88
265.894	390.88
266.126	397.88
266.358	422.88
266.591	422.88
266.823	414.88
267.055	404.88
267.287	404.88
267.52	409.88
267.752	432.88
267.984	434.88
268.216	443.88
268.448	428.88
268.681	418.88
268.913	418.88
269.145	406.88
269.377	445.88
269.609	408.88
269.841	443.88
270.073	421.88
270.306	434.88
270.538	429.88
270.77	436.88
271.002	441.88
271.234	422.88
271.466	442.88
271.698	439.88
271.93	442.88
272.162	413.88
272.394	446.88
272.626	438.88
272.858	439.88
273.09	445.88
273.322	493.88
273.553	450.88
273.785	436.88
274.017	442.88
274.249	464.88
274.481	442.88
274.713	460.88
274.945	457.88
275.176	463.88
275.408	452.88
275.64	471.88
275.872	464.88
276.104	471.88
276.335	455.88
276.567	450.88
276.799	460.88
277.031	450.88
277.262	447.88
277.494	453.88
277.726	469.88
277.957	463.88
278.189	462.88
278.421	447.88
278.652	454.88
278.884	465.88
279.115	476.88
279.347	444.88
279.579	456.88
279.81	467.88
280.042	458.88
280.273	439.88
280.505	463.88
280.736	461.88
280.968	449.88
281.199	469.88
281.431	450.88
281.662	453.88
281.894	479.88
282.125	460.88
282.356	467.88
282.588	468.88
282.819	462.88
283.051	469.88
283.282	468.88
283.513	454.88
283.745	478.88
283.976	454.88
284.207	466.88
284.439	483.88
284.67	479.88
284.901	454.88
285.132	491.88
285.364	479.88
285.595	455.88
285.826	461.88
286.057	461.88
286.288	485.88
286.52	452.88
286.751	477.88
286.982	480.88
287.213	474.88
287.444	483.88
287.675	480.88
287.906	459.88
288.138	477.88
288.369	472.88
288.6	491.88
288.831	465.88
289.062	464.88
289.293	461.88
289.524	479.88
289.755	461.88
289.986	479.88
290.217	474.88
290.448	474.88
290.679	475.88
290.91	473.88
291.141	487.88
291.371	484.88
291.602	477.88
291.833	468.88
292.064	454.88
292.295	461.88
292.526	463.88
292.757	468.88
292.987	474.88
293.218	435.88
293.449	467.88
293.68	463.88
293.91	475.88
294.141	472.88
294.372	450.88
294.603	488.88
294.833	460.88
295.064	486.88
295.295	496.88
295.525	456.88
295.756	465.88
295.987	464.88
296.217	473.88
296.448	472.88
296.679	467.88
296.909	462.88
297.14	486.88
297.37	501.88
297.601	500.88
297.831	502.88
298.062	469.88
298.292	476.88
298.523	488.88
298.753	489.88
298.984	476.88
299.214	482.88
299.445	498.88
299.675	476.88
299.905	502.88
300.136	500.88
300.366	517.88
300.597	509.88
300.827	516.88
301.057	499.88
301.288	521.88
301.518	534.88
301.748	518.88
301.979	525.88
302.209	507.88
302.439	513.88
302.669	504.88
302.9	528.88
303.13	545.88
303.36	535.88
303.59	543.88
303.82	535.88
304.051	542.88
304.281	525.88
304.511	530.88
304.741	532.88
304.971	541.88
305.201	554.88
305.431	549.88
305.661	568.88
305.891	548.88
306.121	544.88
306.352	555.88
306.582	533.88
306.812	560.88
307.042	564.88
307.272	547.88
307.502	539.88
307.731	555.88
307.961	571.88
308.191	572.88
308.421	564.88
308.651	562.88
308.881	555.88
309.111	562.88
309.341	564.88
309.571	569.88
309.8	593.88
310.03	607.88
310.26	619.88
310.49	600.88
310.72	570.88
310.949	569.88
311.179	581.88
311.409	582.88
311.639	638.88
311.868	611.88
312.098	598.88
312.328	612.88
312.557	604.88
312.787	653.88
313.017	646.88
313.246	648.88
313.476	642.88
313.706	668.88
313.935	676.88
314.165	650.88
314.394	666.88
314.624	685.88
314.853	653.88
315.083	658.88
315.312	682.88
315.542	683.88
315.771	678.88
316.001	698.88
316.23	678.88
316.46	700.88
316.689	703.88
316.919	737.88
317.148	701.88
317.377	736.88
317.607	722.88
317.836	736.88
318.065	720.88
318.295	743.88
318.524	732.88
318.753	753.88
318.983	750.88
319.212	763.88
319.441	774.88
319.67	769.88
319.9	796.88
320.129	809.88
320.358	780.88
320.587	823.88
320.816	843.88
321.046	824.88
321.275	807.88
321.504	830.88
321.733	811.88
321.962	848.88
322.191	851.88
322.42	857.88
322.649	866.88
322.878	872.88
323.108	846.88
323.337	892.88
323.566	891.88
323.795	893.88
324.024	915.88
324.253	898.88
324.482	897.88
324.71	918.88
324.939	933.88
325.168	934.88
325.397	928.88
325.626	918.88
325.855	924.88
326.084	979.88
326.313	976.88
326.542	974.88
326.77	974.88
326.999	974.88
327.228	980.88
327.457	1002.88
327.686	998.88
327.914	1001.88
328.143	1043.88
328.372	1018.88
328.6	995.88
328.829	1025.88
329.058	1028.88
329.287	1016.88
329.515	1060.88
329.744	1045.88
329.972	1078.88
330.201	1058.88
330.43	1066.88
330.658	1059.88
330.887	1095.88
331.115	1096.88
331.344	1113.88
331.572	1106.88
331.801	1125.88
332.03	1130.88
332.258	1108.88
332.486	1133.88
332.715	1137.88
332.943	1158.88
333.172	1159.88
333.4	1177.88
333.629	1177.88
333.857	1213.88
334.085	1219.88
334.314	1216.88
334.542	1217.88
334.771	1245.88
334.999	1213.88
335.227	1219.88
335.455	1237.88
335.684	1274.88
335.912	1258.88
336.14	1276.88
336.369	1249.88
336.597	1288.88
336.825	1269.88
337.053	1307.88
337.281	1264.88
337.51	1237.88
337.738	1238.88
337.966	1268.88
338.194	1256.88
338.422	1214.88
338.65	1234.88
338.878	1244.88
339.106	1249.88
339.334	1257.88
339.562	1247.88
339.79	1203.88
340.018	1225.88
340.246	1178.88
340.474	1237.88
340.702	1232.88
340.93	1221.88
341.158	1228.88
341.386	1232.88
341.614	1237.88
341.842	1244.88
342.07	1226.88
342.298	1211.88
342.526	1204.88
342.754	1219.88
342.981	1203.88
343.209	1227.88
343.437	1240.88
343.665	1242.88
343.893	1293.88
344.12	1282.88
344.348	1256.88
344.576	1254.88
344.804	1284.88
345.031	1236.88
345.259	1228.88
345.487	1255.88
345.714	1238.88
345.942	1253.88
346.17	1288.88
346.397	1259.88
346.625	1212.88
346.853	1145.88
347.08	1210.88
347.308	1185.88
347.535	1216.88
347.763	1221.88
347.99	1195.88
348.218	1176.88
348.445	1190.88
348.673	1187.88
348.9	1197.88
349.128	1208.88
349.355	1170.88
349.583	1171.88
349.81	1191.88
350.037	1196.88
350.265	1163.88
350.492	1186.88
350.72	1148.88
350.947	1158.88
351.174	1183.88
351.402	1186.88
351.629	1200.88
351.856	1171.88
352.083	1176.88
352.311	1180.88
352.538	1187.88
352.765	1187.88
352.992	1122.88
353.22	1141.88
353.447	1151.88
353.674	1158.88
353.901	1165.88
354.128	1162.88
354.355	1112.88
354.583	1151.88
354.81	1135.88
355.037	1150.88
355.264	1166.88
355.491	1151.88
355.718	1167.88
355.945	1137.88
356.172	1150.88
356.399	1137.88
356.626	1177.88
356.853	1211.88
357.08	1157.88
357.307	1149.88
357.534	1164.88
357.761	1141.88
357.988	1148.88
358.215	1158.88
358.441	1134.88
358.668	1134.88
358.895	1163.88
359.122	1147.88
359.349	1143.88
359.576	1138.88
359.802	1148.88
360.029	1129.88
360.256	1158.88
360.483	1162.88
360.709	1148.88
360.936	1124.88
361.163	1127.88
361.39	1137.88
361.616	1137.88
361.843	1174.88
362.07	1173.88
362.296	1161.88
362.523	1128.88
362.749	1099.88
362.976	1118.88
363.203	1127.88
363.429	1102.88
363.656	1107.88
363.882	1148.88
364.109	1107.88
364.335	1092.88
364.562	1135.88
364.788	1150.88
365.015	1136.88
365.241	1104.88
365.468	1124.88
365.694	1125.88
365.92	1141.88
366.147	1160.88
366.373	1120.88
366.599	1128.88
366.826	1100.88
367.052	1119.88
367.278	1146.88
367.505	1125.88
367.731	1138.88
367.957	1104.88
368.184	1122.88
368.41	1115.88
368.636	1121.88
368.862	1118.88
369.089	1123.88
369.315	1138.88
369.541	1144.88
369.767	1141.88
369.993	1107.88
370.219	1084.88
370.445	1136.88
370.672	1130.88
370.898	1128.88
371.124	1136.88
371.35	1114.88
371.576	1156.88
371.802	1132.88
372.028	1125.88
372.254	1115.88
372.48	1125.88
372.706	1153.88
372.932	1149.88
373.158	1123.88
373.384	1124.88
373.61	1107.88
373.835	1114.88
374.061	1113.88
374.287	1146.88
374.513	1133.88
374.739	1099.88
374.965	1145.88
375.191	1140.88
375.416	1128.88
375.642	1132.88
375.868	1120.88
376.094	1103.88
376.319	1102.88
376.545	1079.88
376.771	1111.88
376.997	1063.88
377.222	1084.88
377.448	1093.88
377.674	1058.88
377.899	1066.88
378.125	1083.88
378.35	1067.88
378.576	1030.88
378.802	1082.88
379.027	1078.88
379.253	1066.88
379.478	1031.88
379.704	1050.88
379.929	1054.88
380.155	1055.88
380.38	1056.88
380.606	1054.88
380.831	1037.88
381.057	1066.88
381.282	1072.88
381.507	1054.88
381.733	1041.88
381.958	1038.88
382.184	1069.88
382.409	1072.88
382.634	1072.88
382.86	1064.88
383.085	1053.88
383.31	1080.88
383.535	1080.88
383.761	1089.88
383.986	1075.88
384.211	1081.88
384.436	1096.88
384.662	1119.88
384.887	1091.88
385.112	1110.88
385.337	1120.88
385.562	1106.88
385.787	1124.88
386.013	1123.88
386.238	1149.88
386.463	1146.88
386.688	1108.88
386.913	1122.88
387.138	1128.88
387.363	1148.88
387.588	1138.88
387.813	1132.88
388.038	1137.88
388.263	1128.88
388.488	1149.88
388.713	1127.88
388.938	1146.88
389.163	1140.88
389.387	1168.88
389.612	1106.88
389.837	1162.88
390.062	1138.88
390.287	1134.88
390.512	1141.88
390.736	1152.88
390.961	1152.88
391.186	1175.88
391.411	1172.88
391.636	1152.88
391.86	1166.88
392.085	1161.88
392.31	1168.88
392.534	1179.88
392.759	1176.88
392.984	1178.88
393.208	1207.88
393.433	1204.88
393.658	1184.88
393.882	1156.88
394.107	1195.88
394.331	1187.88
394.556	1160.88
394.78	1182.88
395.005	1186.88
395.229	1150.88
395.454	1202.88
395.678	1236.88
395.903	1201.88
396.127	1213.88
396.352	1219.88
396.576	1189.88
396.801	1198.88
397.025	1218.88
397.249	1255.88
397.474	1280.88
397.698	1230.88
397.922	1270.88
398.147	1242.88
398.371	1261.88
398.595	1285.88
398.82	1300.88
399.044	1302.88
399.268	1333.88
399.492	1418.88
399.717	1412.88
399.941	1458.88
400.165	1400.88
400.389	1408.88
400.613	1402.88
400.837	1377.88
401.062	1356.88
401.286	1364.88
401.51	1339.88
401.734	1334.88
401.958	1349.88
402.182	1374.88
402.406	1316.88
402.63	1317.88
402.854	1357.88
403.078	1331.88
403.302	1344.88
403.526	1319.88
403.75	1360.88
403.974	1378.88
404.198	1347.88
404.422	1359.88
404.645	1357.88
404.869	1332.88
405.093	1366.88
405.317	1350.88
405.541	1401.88
405.765	1396.88
405.988	1377.88
406.212	1410.88
406.436	1387.88
406.66	1438.88
406.883	1394.88
407.107	1427.88
407.331	1474.88
407.555	1505.88
407.778	1509.88
408.002	1496.88
408.226	1520.88
408.449	1519.88
408.673	1476.88
408.896	1473.88
409.12	1452.88
409.344	1505.88
409.567	1469.88
409.791	1448.88
410.014	1485.88
410.238	1434.88
410.461	1447.88
410.685	1398.88
410.908	1445.88
411.132	1417.88
411.355	1438.88
411.578	1424.88
411.802	1422.88
412.025	1419.88
412.249	1420.88
412.472	1418.88
412.695	1402.88
412.919	1373.88
413.142	1418.88
413.365	1428.88
413.589	1432.88
413.812	1406.88
414.035	1366.88
414.258	1419.88
414.482	1423.88
414.705	1400.88
414.928	1420.88
415.151	1418.88
415.374	1412.88
415.597	1414.88
415.821	1381.88
416.044	1377.88
416.267	1436.88
416.49	1412.88
416.713	1382.88
416.936	1418.88
417.159	1377.88
417.382	1377.88
417.605	1360.88
417.828	1373.88
418.051	1403.88
418.274	1380.88
418.497	1391.88
418.72	1417.88
418.943	1353.88
419.166	1472.88
419.389	1544.88
419.611	1526.88
419.834	1476.88
420.057	1431.88
420.28	1395.88
420.503	1365.88
420.726	1373.88
420.948	1397.88
421.171	1406.88
421.394	1384.88
421.617	1397.88
421.839	1416.88
422.062	1418.88
422.285	1372.88
422.507	1406.88
422.73	1402.88
422.953	1406.88
423.175	1413.88
423.398	1412.88
423.621	1401.88
423.843	1435.88
424.066	1435.88
424.288	1397.88
424.511	1444.88
424.733	1408.88
424.956	1424.88
425.178	1418.88
425.401	1404.88
425.623	1458.88
425.846	1460.88
426.068	1407.88
426.291	1402.88
426.513	1418.88
426.735	1415.88
426.958	1454.88
427.18	1386.88
427.402	1407.88
427.625	1412.88
427.847	1397.88
428.069	1402.88
428.292	1440.88
428.514	1406.88
428.736	1441.88
428.958	1476.88
429.181	1433.88
429.403	1414.88
429.625	1425.88
429.847	1420.88
430.069	1421.88
430.292	1439.88
430.514	1428.88
430.736	1436.88
430.958	1449.88
431.18	1437.88
431.402	1462.88
431.624	1453.88
431.846	1425.88
432.068	1427.88
432.29	1426.88
432.512	1450.88
432.734	1472.88
432.956	1457.88
433.178	1473.88
433.4	1447.88
433.622	1476.88
433.844	1504.88
434.066	1450.88
434.287	1457.88
434.509	1491.88
434.731	1454.88
434.953	1452.88
435.175	1470.88
435.397	1516.88
435.618	1492.88
435.84	1481.88
436.062	1440.88
436.284	1444.88
436.505	1437.88
436.727	1422.88
436.949	1463.88
437.17	1444.88
437.392	1432.88
437.614	1452.88
437.835	1390.88
438.057	1400.88
438.278	1453.88
438.5	1430.88
438.721	1426.88
438.943	1445.88
439.165	1428.88
439.386	1440.88
439.608	1446.88
439.829	1449.88
440.05	1440.88
440.272	1448.88
440.493	1449.88
440.715	1433.88
440.936	1505.88
441.158	1456.88
441.379	1485.88
441.6	1478.88
441.822	1513.88
442.043	1507.88
442.264	1467.88
442.486	1469.88
442.707	1469.88
442.928	1496.88
443.149	1537.88
443.371	1513.88
443.592	1528.88
443.813	1510.88
444.034	1515.88
444.255	1533.88
444.476	1546.88
444.698	1547.88
444.919	1514.88
445.14	1600.88
445.361	1524.88
445.582	1536.88
445.803	1482.88
446.024	1466.88
446.245	1474.88
446.466	1480.88
446.687	1450.88
446.908	1474.88
447.129	1420.88
447.35	1431.88
447.571	1430.88
447.792	1402.88
448.013	1364.88
448.234	1394.88
448.455	1394.88
448.675	1349.88
448.896	1436.88
449.117	1369.88
449.338	1384.88
449.559	1368.88
449.779	1339.88
450	1341.88
450.221	1329.88
450.442	1377.88
450.662	1325.88
450.883	1357.88
451.104	1381.88
451.324	1354.88
451.545	1384.88
451.766	1341.88
451.986	1323.88
452.207	1321.88
452.428	1368.88
452.648	1328.88
452.869	1330.88
453.089	1315.88
453.31	1312.88
453.53	1291.88
453.751	1314.88
453.971	1315.88
454.192	1339.88
454.412	1298.88
454.633	1317.88
454.853	1322.88
455.073	1332.88
455.294	1315.88
455.514	1316.88
455.734	1300.88
455.955	1335.88
456.175	1301.88
456.395	1315.88
456.616	1331.88
456.836	1309.88
457.056	1330.88
457.276	1283.88
457.497	1301.88
457.717	1309.88
457.937	1358.88
458.157	1361.88
458.377	1325.88
458.598	1337.88
458.818	1385.88
459.038	1356.88
459.258	1363.88
459.478	1397.88
459.698	1422.88
459.918	1454.88
460.138	1458.88
460.358	1483.88
460.578	1479.88
460.798	1485.88
461.018	1522.88
461.238	1523.88
461.458	1522.88
461.678	1517.88
461.898	1540.88
462.118	1495.88
462.338	1550.88
462.558	1570.88
462.777	1594.88
462.997	1613.88
463.217	1658.88
463.437	1665.88
463.657	1671.88
463.876	1653.88
464.096	1635.88
464.316	1597.88
464.536	1621.88
464.755	1580.88
464.975	1603.88
465.195	1550.88
465.414	1505.88
465.634	1513.88
465.854	1460.88
466.073	1444.88
466.293	1434.88
466.512	1420.88
466.732	1444.88
466.951	1459.88
467.171	1459.88
467.391	1470.88
467.61	1411.88
467.829	1398.88
468.049	1448.88
468.268	1376.88
468.488	1407.88
468.707	1428.88
468.927	1367.88
469.146	1428.88
469.365	1412.88
469.585	1394.88
469.804	1444.88
470.023	1464.88
470.243	1404.88
470.462	1429.88
470.681	1406.88
470.901	1447.88
471.12	1443.88
471.339	1468.88
471.558	1464.88
471.777	1456.88
471.997	1428.88
472.216	1415.88
472.435	1410.88
472.654	1432.88
472.873	1438.88
473.092	1431.88
473.311	1432.88
473.53	1435.88
473.749	1466.88
473.968	1396.88
474.187	1436.88
474.406	1482.88
474.625	1440.88
474.844	1498.88
475.063	1481.88
475.282	1507.88
475.501	1494.88
475.72	1520.88
475.939	1486.88
476.158	1497.88
476.377	1564.88
476.596	1530.88
476.814	1550.88
477.033	1522.88
477.252	1574.88
477.471	1586.88
477.69	1576.88
477.908	1612.88
478.127	1623.88
478.346	1636.88
478.564	1664.88
478.783	1670.88
479.002	1681.88
479.22	1657.88
479.439	1695.88
479.658	1667.88
479.876	1702.88
480.095	1682.88
480.313	1729.88
480.532	1723.88
480.751	1714.88
480.969	1703.88
481.188	1649.88
481.406	1689.88
481.624	1730.88
481.843	1692.88
482.061	1688.88
482.28	1680.88
482.498	1703.88
482.717	1707.88
482.935	1735.88
483.153	1722.88
483.372	1744.88
483.59	1719.88
483.808	1734.88
484.027	1702.88
484.245	1724.88
484.463	1732.88
484.681	1754.88
484.9	1763.88
485.118	1732.88
485.336	1727.88
485.554	1762.88
485.772	1744.88
485.99	1760.88
486.209	1782.88
486.427	1761.88
486.645	1696.88
486.863	1797.88
487.081	1789.88
487.299	1792.88
487.517	1796.88
487.735	1809.88
487.953	1829.88
488.171	1780.88
488.389	1806.88
488.607	1807.88
488.825	1792.88
489.043	1769.88
489.261	1772.88
489.479	1807.88
489.696	1774.88
489.914	1791.88
490.132	1820.88
490.35	1837.88
490.568	1831.88
490.786	1863.88
491.003	1874.88
491.221	1849.88
491.439	1836.88
491.657	1850.88
491.874	1902.88
492.092	1883.88
492.31	1912.88
492.527	1905.88
492.745	1864.88
492.963	1880.88
493.18	1915.88
493.398	1898.88
493.615	1908.88
493.833	1877.88
494.05	1914.88
494.268	1907.88
494.485	1907.88
494.703	1958.88
494.92	1939.88
495.138	1932.88
495.355	1968.88
495.573	1958.88
495.79	1956.88
496.008	1989.88
496.225	1962.88
496.442	2029.88
496.66	2037.88
496.877	2007.88
497.094	2033.88
497.312	2079.88
497.529	2048.88
497.746	2126.88
497.963	2130.88
498.181	2178.88
498.398	2192.88
498.615	2202.88
498.832	2251.88
499.049	2323.88
499.267	2355.88
499.484	2420.88
499.701	2472.88
499.918	2534.88
500.135	2612.88
500.352	2645.88
500.569	2663.88
500.786	2672.88
501.003	2664.88
501.22	2672.88
501.437	2575.88
501.654	2507.88
501.871	2402.88
502.088	2382.88
502.305	2332.88
502.522	2365.88
502.739	2279.88
502.956	2168.88
503.172	2174.88
503.389	2118.88
503.606	2078.88
503.823	2112.88
504.04	2080.88
504.256	2021.88
504.473	2008.88
504.69	2014.88
504.907	1953.88
505.123	1941.88
505.34	1912.88
505.557	1932.88
505.773	1901.88
505.99	1835.88
506.207	1789.88
506.423	1821.88
506.64	1792.88
506.856	1761.88
507.073	1786.88
507.289	1752.88
507.506	1703.88
507.722	1732.88
507.939	1719.88
508.155	1737.88
508.372	1683.88
508.588	1702.88
508.805	1691.88
509.021	1696.88
509.238	1684.88
509.454	1657.88
509.67	1626.88
509.887	1630.88
510.103	1649.88
510.319	1627.88
510.536	1621.88
510.752	1584.88
510.968	1643.88
511.184	1621.88
511.401	1567.88
511.617	1560.88
511.833	1619.88
512.049	1550.88
512.265	1604.88
512.481	1586.88
512.698	1613.88
512.914	1598.88
513.13	1602.88
513.346	1551.88
513.562	1564.88
513.778	1593.88
513.994	1578.88
514.21	1574.88
514.426	1594.88
514.642	1572.88
514.858	1592.88
515.074	1588.88
515.29	1582.88
515.506	1612.88
515.721	1661.88
515.937	1636.88
516.153	1615.88
516.369	1634.88
516.585	1654.88
516.801	1653.88
517.016	1699.88
517.232	1696.88
517.448	1672.88
517.664	1701.88
517.879	1720.88
518.095	1672.88
518.311	1697.88
518.527	1633.88
518.742	1645.88
518.958	1656.88
519.173	1648.88
519.389	1604.88
519.605	1580.88
519.82	1600.88
520.036	1632.88
520.251	1568.88
520.467	1551.88
520.682	1526.88
520.898	1542.88
521.113	1485.88
521.329	1507.88
521.544	1506.88
521.76	1513.88
521.975	1516.88
522.19	1509.88
522.406	1483.88
522.621	1517.88
522.836	1471.88
523.052	1506.88
523.267	1483.88
523.482	1501.88
523.698	1445.88
523.913	1458.88
524.128	1458.88
524.343	1500.88
524.559	1495.88
524.774	1459.88
524.989	1451.88
525.204	1495.88
525.419	1442.88
525.634	1443.88
525.849	1434.88
526.064	1468.88
526.28	1431.88
526.495	1428.88
526.71	1446.88
526.925	1444.88
527.14	1423.88
527.355	1405.88
527.57	1390.88
527.785	1439.88
527.999	1402.88
528.214	1459.88
528.429	1418.88
528.644	1397.88
528.859	1422.88
529.074	1412.88
529.289	1423.88
529.503	1426.88
529.718	1419.88
529.933	1396.88
530.148	1395.88
530.363	1369.88
530.577	1381.88
530.792	1372.88
531.007	1400.88
531.221	1377.88
531.436	1372.88
531.651	1354.88
531.865	1379.88
532.08	1380.88
532.295	1353.88
532.509	1357.88
532.724	1346.88
532.938	1357.88
533.153	1362.88
533.367	1373.88
533.582	1352.88
533.796	1342.88
534.011	1352.88
534.225	1338.88
534.44	1325.88
534.654	1351.88
534.868	1355.88
535.083	1349.88
535.297	1330.88
535.511	1337.88
535.726	1292.88
535.94	1309.88
536.154	1262.88
536.369	1293.88
536.583	1300.88
536.797	1325.88
537.011	1289.88
537.225	1269.88
537.44	1275.88
537.654	1300.88
537.868	1312.88
538.082	1305.88
538.296	1286.88
538.51	1242.88
538.724	1323.88
538.938	1261.88
539.153	1294.88
539.367	1309.88
539.581	1269.88
539.795	1261.88
540.009	1259.88
540.222	1268.88
540.436	1248.88
540.65	1254.88
540.864	1234.88
541.078	1271.88
541.292	1242.88
541.506	1261.88
541.72	1259.88
541.934	1277.88
542.147	1300.88
542.361	1282.88
542.575	1236.88
542.789	1245.88
543.002	1232.88
543.216	1230.88
543.43	1265.88
543.644	1210.88
543.857	1209.88
544.071	1253.88
544.285	1245.88
544.498	1227.88
544.712	1261.88
544.925	1226.88
545.139	1239.88
545.352	1234.88
545.566	1265.88
545.779	1237.88
545.993	1266.88
546.206	1271.88
546.42	1272.88
546.633	1239.88
546.847	1228.88
547.06	1255.88
547.274	1227.88
547.487	1228.88
547.7	1259.88
547.914	1244.88
548.127	1226.88
548.34	1233.88
548.554	1215.88
548.767	1218.88
548.98	1223.88
549.193	1213.88
549.407	1207.88
549.62	1209.88
549.833	1213.88
550.046	1237.88
550.259	1218.88
550.473	1183.88
550.686	1214.88
550.899	1194.88
551.112	1170.88
551.325	1192.88
551.538	1212.88
551.751	1170.88
551.964	1161.88
552.177	1178.88
552.39	1203.88
552.603	1207.88
552.816	1169.88
553.029	1205.88
553.242	1195.88
553.455	1176.88
553.667	1197.88
553.88	1167.88
554.093	1133.88
554.306	1150.88
554.519	1166.88
554.732	1159.88
554.944	1159.88
555.157	1127.88
555.37	1166.88
555.583	1157.88
555.795	1141.88
556.008	1090.88
556.221	1087.88
556.433	1092.88
556.646	1094.88
556.859	1096.88
557.071	1067.88
557.284	1053.88
557.496	1067.88
557.709	1077.88
557.921	1062.88
558.134	1077.88
558.346	1066.88
558.559	1058.88
558.771	1026.88
558.984	1094.88
559.196	1057.88
559.409	1060.88
559.621	1039.88
559.833	1004.88
560.046	1032.88
560.258	1032.88
560.47	1016.88
560.683	1051.88
560.895	1045.88
561.107	1045.88
561.32	1008.88
561.532	1028.88
561.744	1035.88
561.956	1033.88
562.168	1035.88
562.381	1009.88
562.593	1016.88
562.805	1016.88
563.017	1020.88
563.229	1020.88
563.441	1029.88
563.653	1054.88
563.865	1058.88
564.077	1048.88
564.289	1030.88
564.501	1046.88
564.713	1017.88
564.925	1048.88
565.137	1040.88
565.349	1076.88
565.561	1047.88
565.773	1063.88
565.985	1099.88
566.197	1064.88
566.408	1081.88
566.62	1128.88
566.832	1117.88
567.044	1130.88
567.255	1134.88
567.467	1136.88
567.679	1138.88
567.891	1118.88
568.102	1112.88
568.314	1080.88
568.526	1097.88
568.737	1046.88
568.949	1066.88
569.161	1034.88
569.372	1028.88
569.584	997.88
569.795	976.88
570.007	976.88
570.218	927.88
570.43	956.88
570.641	965.88
570.853	985.88
571.064	930.88
571.276	952.88
571.487	909.88
571.698	893.88
571.91	914.88
572.121	896.88
572.333	864.88
572.544	876.88
572.755	845.88
572.966	844.88
573.178	852.88
573.389	837.88
573.6	816.88
573.811	807.88
574.023	837.88
574.234	810.88
574.445	816.88
574.656	810.88
574.867	804.88
575.078	805.88
575.289	811.88
575.501	784.88
575.712	790.88
575.923	798.88
576.134	766.88
576.345	789.88
576.556	786.88
576.767	761.88
576.978	766.88
577.188	739.88
577.399	768.88
577.61	749.88
577.821	743.88
578.032	746.88
578.243	756.88
578.454	745.88
578.665	738.88
578.875	731.88
579.086	739.88
579.297	721.88
579.508	735.88
579.718	721.88
579.929	711.88
580.14	704.88
580.35	700.88
580.561	719.88
580.772	695.88
580.982	693.88
581.193	707.88
581.403	676.88
581.614	704.88
581.825	680.88
582.035	675.88
582.246	690.88
582.456	666.88
582.667	689.88
582.877	680.88
583.087	682.88
583.298	692.88
583.508	681.88
583.719	662.88
583.929	680.88
584.139	657.88
584.35	662.88
584.56	678.88
584.77	674.88
584.981	640.88
585.191	658.88
585.401	641.88
585.611	674.88
585.821	656.88
586.032	655.88
586.242	628.88
586.452	627.88
586.662	634.88
586.872	629.88
587.082	653.88
587.292	643.88
587.502	647.88
587.713	641.88
587.923	646.88
588.133	632.88
588.343	646.88
588.553	636.88
588.762	633.88
588.972	648.88
589.182	666.88
589.392	665.88
589.602	644.88
589.812	654.88
590.022	638.88
590.232	632.88
590.441	632.88
590.651	622.88
590.861	633.88
591.071	648.88
591.281	620.88
591.49	630.88
591.7	663.88
591.91	634.88
592.119	634.88
592.329	627.88
592.539	625.88
592.748	643.88
592.958	630.88
593.167	621.88
593.377	612.88
593.587	630.88
593.796	621.88
594.006	631.88
594.215	632.88
594.424	606.88
594.634	618.88
594.843	613.88
595.053	613.88
595.262	618.88
595.472	587.88
595.681	592.88
595.89	580.88
596.1	587.88
596.309	555.88
596.518	576.88
596.727	579.88
596.937	548.88
597.146	581.88
597.355	555.88
597.564	574.88
597.774	549.88
597.983	554.88
598.192	554.88
598.401	529.88
598.61	571.88
598.819	532.88
599.028	514.88
599.237	553.88
599.446	545.88
599.655	530.88
599.864	530.88
600.073	511.88
600.282	499.88
600.491	522.88
600.7	533.88
600.909	534.88
601.118	512.88
601.327	504.88
601.536	518.88
601.745	522.88
601.953	495.88
602.162	506.88
602.371	508.88
602.58	496.88
602.789	501.88
602.997	512.88
603.206	488.88
603.415	497.88
603.623	513.88
603.832	474.88
604.041	485.88
604.249	487.88
604.458	492.88
604.666	466.88
604.875	487.88
605.084	479.88
605.292	480.88
605.501	499.88
605.709	489.88
605.918	461.88
606.126	480.88
606.334	477.88
606.543	488.88
606.751	479.88
606.96	481.88
607.168	452.88
607.376	463.88
607.585	485.88
607.793	464.88
608.001	474.88
608.21	469.88
608.418	475.88
608.626	454.88
608.834	484.88
609.043	468.88
609.251	462.88
609.459	470.88
609.667	478.88
609.875	444.88
610.083	443.88
610.291	462.88
610.499	435.88
610.707	454.88
610.916	456.88
611.124	456.88
611.332	462.88
611.54	451.88
611.748	469.88
611.955	443.88
612.163	452.88
612.371	451.88
612.579	426.88
612.787	432.88
612.995	438.88
613.203	466.88
613.411	440.88
613.618	441.88
613.826	435.88
614.034	429.88
614.242	422.88
614.449	428.88
614.657	427.88
614.865	428.88
615.072	425.88
615.28	424.88
615.488	443.88
615.695	419.88
615.903	429.88
616.111	437.88
616.318	439.88
616.526	438.88
616.733	400.88
616.941	430.88
617.148	405.88
617.356	404.88
617.563	410.88
617.771	405.88
617.978	419.88
618.185	397.88
618.393	426.88
618.6	433.88
618.807	414.88
619.015	410.88
619.222	420.88
619.429	394.88
619.637	412.88
619.844	422.88
620.051	409.88
620.258	389.88
620.466	378.88
620.673	384.88
620.88	391.88
621.087	384.88
621.294	388.88
621.501	373.88
621.708	384.88
621.915	403.88
622.122	371.88
622.329	397.88
622.536	375.88
622.743	398.88
622.95	404.88
623.157	389.88
623.364	384.88
623.571	404.88
623.778	382.88
623.985	387.88
624.192	374.88
624.399	370.88
624.606	366.88
624.812	386.88
625.019	376.88
625.226	380.88
625.433	377.88
625.639	347.88
625.846	360.88
626.053	360.88
626.259	348.88
626.466	351.88
626.673	352.88
626.879	352.88
627.086	363.88
627.293	349.88
627.499	369.88
627.706	347.88
627.912	356.88
628.119	362.88
628.325	356.88
628.532	348.88
628.738	357.88
628.945	350.88
629.151	341.88
629.357	354.88
629.564	349.88
629.77	357.88
629.976	350.88
630.183	338.88
630.389	369.88
630.595	332.88
630.802	351.88
631.008	331.88
631.214	338.88
631.42	346.88
631.627	324.88
631.833	324.88
632.039	334.88
632.245	335.88
632.451	332.88
632.657	337.88
632.863	319.88
633.069	314.88
633.275	330.88
633.481	315.88
633.688	342.88
633.893	315.88
634.099	317.88
634.305	320.88
634.511	302.88
634.717	308.88
634.923	311.88
635.129	304.88
635.335	331.88
635.541	308.88
635.747	310.88
635.952	304.88
636.158	313.88
636.364	312.88
636.57	323.88
636.775	299.88
636.981	293.88
637.187	285.88
637.392	304.88
637.598	298.88
637.804	315.88
638.009	316.88
638.215	305.88
638.421	317.88
638.626	313.88
638.832	291.88
639.037	288.88
639.243	290.88
639.448	292.88
639.654	290.88
639.859	307.88
640.065	309.88
640.27	313.88
640.475	292.88
640.681	308.88
640.886	303.88
641.091	297.88
641.297	299.88
641.502	300.88
641.707	296.88
641.913	289.88
642.118	297.88
642.323	270.88
642.528	281.88
642.733	298.88
642.939	260.88
643.144	297.88
643.349	286.88
643.554	282.88
643.759	279.88
643.964	295.88
644.169	299.88
644.374	273.88
644.579	284.88
644.784	292.88
644.989	296.88
645.194	284.88
645.399	276.88
645.604	283.88
645.809	270.88
646.014	260.88
646.219	277.88
646.423	268.88
646.628	292.88
646.833	282.88
647.038	271.88
647.243	285.88
647.447	278.88
647.652	283.88
647.857	274.88
648.062	262.88
648.266	268.88
648.471	274.88
648.676	293.88
648.88	271.88
649.085	279.88
649.289	275.88
649.494	271.88
649.698	284.88
649.903	266.88
650.107	273.88
650.312	263.88
650.516	260.88
650.721	276.88
650.925	271.88
651.13	257.88
651.334	260.88
651.539	242.88
651.743	249.88
651.947	248.88
652.152	251.88
652.356	244.88
652.56	226.88
652.764	236.88
652.969	246.88
653.173	253.88
653.377	233.88
653.581	210.88
653.785	210.88
653.99	223.88
654.194	222.88
654.398	228.88
654.602	243.88
654.806	212.88
655.01	213.88
655.214	220.88
655.418	214.88
655.622	208.88
655.826	204.88
656.03	198.88
656.234	192.88
656.438	191.88
656.642	196.88
656.846	173.88
657.049	190.88
657.253	178.88
657.457	172.88
657.661	190.88
657.865	167.88
658.068	158.88
658.272	162.88
658.476	154.88
658.68	146.88
658.883	132.88
659.087	153.88
659.291	149.88
659.494	134.88
659.698	131.88
659.901	129.88
660.105	122.88
660.309	131.88
660.512	100.88
660.716	108.88
660.919	126.88
661.123	116.88
661.326	98.88
661.53	107.88
661.733	110.88
661.936	93.88
662.14	101.88
662.343	81.88
662.546	98.88
662.75	83.88
662.953	102.88
663.156	91.88
663.36	86.88
663.563	86.88
663.766	103.88
663.969	90.88
664.173	70.88
664.376	73.88
664.579	88.88
664.782	90.88
664.985	96.88
665.188	87.88
665.391	72.88
665.594	85.88
665.797	97.88
666	78.88
666.203	83.88
666.406	82.88
666.609	79.88
666.812	91.88
667.015	96.88
667.218	69.88
667.421	78.88
667.624	85.88
667.827	86.88
668.03	81.88
668.232	81.88
668.435	93.88
668.638	76.88
668.841	84.88
669.043	77.88
669.246	90.88
669.449	78.88
669.651	74.88
669.854	82.88
670.057	68.88
670.259	84.88
670.462	65.88
670.665	80.88
670.867	88.88
671.07	91.88
671.272	80.88
671.475	84.88
671.677	78.88
671.88	78.88
672.082	99.88
672.284	85.88
672.487	83.88
672.689	71.88
672.892	66.88
