Data from Ni(NO3)2@0.0625M.TitratingCurve.Agarose3%dH2O.NegLispCup.LampEnergy10.LIBS07252019_HRD10591_18-14-17-568.txt Node
Date: Thu Jul 25 18:14:17 EDT 2019
User: cochatt
Spectrometer: HR+D1059
Trigger mode: 1
Integration Time (sec): 1.000000E-1
Scans to average: 1
Electric dark correction enabled: true
Nonlinearity correction enabled: false
Boxcar width: 0
XAxis mode: Wavelengths
Number of Pixels in Spectrum: 2048
>>>>>Begin Spectral Data<<<<<
223.165	-9.94
223.4	-9.94
223.635	-9.94
223.869	-27.94
224.104	-16.94
224.338	-15.94
224.573	-23.94
224.808	-10.94
225.042	-6.94
225.277	-1.94
225.511	-4.94
225.746	6.06
225.98	11.06
226.215	2.06
226.449	28.06
226.683	31.06
226.918	22.06
227.152	19.06
227.387	34.06
227.621	23.06
227.856	32.06
228.09	46.06
228.324	48.06
228.559	40.06
228.793	69.06
229.027	84.06
229.262	92.06
229.496	100.06
229.73	104.06
229.964	107.06
230.199	126.06
230.433	105.06
230.667	107.06
230.901	120.06
231.136	131.06
231.37	126.06
231.604	124.06
231.838	130.06
232.072	124.06
232.306	121.06
232.541	130.06
232.775	130.06
233.009	138.06
233.243	123.06
233.477	118.06
233.711	124.06
233.945	123.06
234.179	123.06
234.413	124.06
234.647	132.06
234.881	112.06
235.115	117.06
235.349	132.06
235.583	126.06
235.817	120.06
236.051	104.06
236.285	128.06
236.519	126.06
236.753	135.06
236.987	131.06
237.221	134.06
237.455	135.06
237.689	140.06
237.922	130.06
238.156	156.06
238.39	121.06
238.624	134.06
238.858	134.06
239.091	135.06
239.325	152.06
239.559	140.06
239.793	138.06
240.027	135.06
240.26	135.06
240.494	138.06
240.728	146.06
240.961	155.06
241.195	144.06
241.429	148.06
241.662	147.06
241.896	162.06
242.13	157.06
242.363	147.06
242.597	150.06
242.83	154.06
243.064	165.06
243.298	164.06
243.531	175.06
243.765	186.06
243.998	161.06
244.232	151.06
244.465	164.06
244.699	171.06
244.932	176.06
245.166	166.06
245.399	166.06
245.633	160.06
245.866	179.06
246.099	178.06
246.333	185.06
246.566	175.06
246.8	172.06
247.033	174.06
247.266	171.06
247.5	188.06
247.733	183.06
247.966	167.06
248.2	185.06
248.433	190.06
248.666	193.06
248.899	184.06
249.133	194.06
249.366	215.06
249.599	192.06
249.832	200.06
250.066	209.06
250.299	204.06
250.532	188.06
250.765	204.06
250.998	196.06
251.231	194.06
251.465	190.06
251.698	202.06
251.931	218.06
252.164	213.06
252.397	202.06
252.63	218.06
252.863	207.06
253.096	223.06
253.329	227.06
253.562	212.06
253.795	219.06
254.028	211.06
254.261	217.06
254.494	218.06
254.727	212.06
254.96	210.06
255.193	222.06
255.426	207.06
255.659	218.06
255.892	221.06
256.124	210.06
256.357	227.06
256.59	221.06
256.823	216.06
257.056	219.06
257.289	222.06
257.521	226.06
257.754	262.06
257.987	232.06
258.22	233.06
258.452	231.06
258.685	232.06
258.918	233.06
259.151	213.06
259.383	235.06
259.616	257.06
259.849	239.06
260.081	235.06
260.314	238.06
260.547	243.06
260.779	244.06
261.012	241.06
261.244	250.06
261.477	258.06
261.71	254.06
261.942	242.06
262.175	238.06
262.407	248.06
262.64	243.06
262.872	254.06
263.105	259.06
263.337	247.06
263.57	254.06
263.802	266.06
264.035	268.06
264.267	260.06
264.499	274.06
264.732	284.06
264.964	263.06
265.197	266.06
265.429	264.06
265.661	264.06
265.894	274.06
266.126	262.06
266.358	256.06
266.591	267.06
266.823	280.06
267.055	272.06
267.287	297.06
267.52	268.06
267.752	278.06
267.984	282.06
268.216	270.06
268.448	290.06
268.681	289.06
268.913	295.06
269.145	280.06
269.377	286.06
269.609	258.06
269.841	284.06
270.073	281.06
270.306	299.06
270.538	286.06
270.77	280.06
271.002	282.06
271.234	282.06
271.466	290.06
271.698	295.06
271.93	299.06
272.162	308.06
272.394	278.06
272.626	308.06
272.858	292.06
273.09	317.06
273.322	328.06
273.553	320.06
273.785	307.06
274.017	289.06
274.249	301.06
274.481	306.06
274.713	306.06
274.945	313.06
275.176	317.06
275.408	310.06
275.64	321.06
275.872	311.06
276.104	325.06
276.335	300.06
276.567	306.06
276.799	316.06
277.031	321.06
277.262	318.06
277.494	320.06
277.726	328.06
277.957	315.06
278.189	304.06
278.421	312.06
278.652	320.06
278.884	350.06
279.115	326.06
279.347	330.06
279.579	332.06
279.81	352.06
280.042	338.06
280.273	331.06
280.505	351.06
280.736	332.06
280.968	334.06
281.199	345.06
281.431	347.06
281.662	322.06
281.894	326.06
282.125	342.06
282.356	353.06
282.588	334.06
282.819	335.06
283.051	346.06
283.282	349.06
283.513	336.06
283.745	382.06
283.976	359.06
284.207	350.06
284.439	337.06
284.67	332.06
284.901	368.06
285.132	378.06
285.364	371.06
285.595	376.06
285.826	355.06
286.057	346.06
286.288	359.06
286.52	378.06
286.751	378.06
286.982	377.06
287.213	360.06
287.444	358.06
287.675	371.06
287.906	376.06
288.138	379.06
288.369	372.06
288.6	372.06
288.831	384.06
289.062	385.06
289.293	383.06
289.524	394.06
289.755	397.06
289.986	386.06
290.217	391.06
290.448	386.06
290.679	390.06
290.91	392.06
291.141	392.06
291.371	416.06
291.602	402.06
291.833	389.06
292.064	390.06
292.295	383.06
292.526	403.06
292.757	377.06
292.987	394.06
293.218	374.06
293.449	387.06
293.68	387.06
293.91	375.06
294.141	402.06
294.372	403.06
294.603	385.06
294.833	409.06
295.064	404.06
295.295	400.06
295.525	393.06
295.756	427.06
295.987	421.06
296.217	428.06
296.448	413.06
296.679	416.06
296.909	420.06
297.14	419.06
297.37	435.06
297.601	430.06
297.831	431.06
298.062	439.06
298.292	456.06
298.523	446.06
298.753	456.06
298.984	439.06
299.214	438.06
299.445	427.06
299.675	427.06
299.905	430.06
300.136	424.06
300.366	412.06
300.597	437.06
300.827	459.06
301.057	453.06
301.288	473.06
301.518	457.06
301.748	469.06
301.979	455.06
302.209	462.06
302.439	450.06
302.669	464.06
302.9	450.06
303.13	451.06
303.36	436.06
303.59	443.06
303.82	457.06
304.051	448.06
304.281	444.06
304.511	434.06
304.741	447.06
304.971	436.06
305.201	446.06
305.431	429.06
305.661	434.06
305.891	436.06
306.121	456.06
306.352	447.06
306.582	428.06
306.812	421.06
307.042	429.06
307.272	422.06
307.502	442.06
307.731	447.06
307.961	434.06
308.191	433.06
308.421	425.06
308.651	426.06
308.881	420.06
309.111	427.06
309.341	419.06
309.571	431.06
309.8	425.06
310.03	427.06
310.26	422.06
310.49	428.06
310.72	450.06
310.949	453.06
311.179	426.06
311.409	453.06
311.639	441.06
311.868	451.06
312.098	481.06
312.328	445.06
312.557	456.06
312.787	447.06
313.017	449.06
313.246	468.06
313.476	486.06
313.706	488.06
313.935	466.06
314.165	467.06
314.394	481.06
314.624	458.06
314.853	460.06
315.083	469.06
315.312	472.06
315.542	448.06
315.771	463.06
316.001	462.06
316.23	460.06
316.46	440.06
316.689	473.06
316.919	466.06
317.148	469.06
317.377	439.06
317.607	444.06
317.836	454.06
318.065	419.06
318.295	458.06
318.524	449.06
318.753	437.06
318.983	469.06
319.212	440.06
319.441	440.06
319.67	449.06
319.9	438.06
320.129	463.06
320.358	450.06
320.587	461.06
320.816	460.06
321.046	450.06
321.275	462.06
321.504	436.06
321.733	439.06
321.962	454.06
322.191	470.06
322.42	454.06
322.649	457.06
322.878	450.06
323.108	460.06
323.337	464.06
323.566	444.06
323.795	463.06
324.024	474.06
324.253	468.06
324.482	476.06
324.71	461.06
324.939	472.06
325.168	458.06
325.397	464.06
325.626	470.06
325.855	471.06
326.084	475.06
326.313	486.06
326.542	507.06
326.77	494.06
326.999	507.06
327.228	499.06
327.457	484.06
327.686	498.06
327.914	474.06
328.143	497.06
328.372	504.06
328.6	494.06
328.829	497.06
329.058	474.06
329.287	486.06
329.515	511.06
329.744	485.06
329.972	522.06
330.201	488.06
330.43	514.06
330.658	512.06
330.887	525.06
331.115	512.06
331.344	520.06
331.572	547.06
331.801	557.06
332.03	552.06
332.258	570.06
332.486	594.06
332.715	622.06
332.943	640.06
333.172	668.06
333.4	686.06
333.629	703.06
333.857	706.06
334.085	702.06
334.314	673.06
334.542	638.06
334.771	646.06
334.999	645.06
335.227	640.06
335.455	625.06
335.684	616.06
335.912	622.06
336.14	596.06
336.369	600.06
336.597	602.06
336.825	622.06
337.053	609.06
337.281	607.06
337.51	599.06
337.738	579.06
337.966	565.06
338.194	554.06
338.422	540.06
338.65	562.06
338.878	516.06
339.106	542.06
339.334	553.06
339.562	528.06
339.79	538.06
340.018	534.06
340.246	523.06
340.474	527.06
340.702	514.06
340.93	518.06
341.158	538.06
341.386	524.06
341.614	540.06
341.842	529.06
342.07	517.06
342.298	506.06
342.526	518.06
342.754	548.06
342.981	528.06
343.209	548.06
343.437	584.06
343.665	588.06
343.893	662.06
344.12	684.06
344.348	646.06
344.576	588.06
344.804	578.06
345.031	548.06
345.259	543.06
345.487	545.06
345.714	533.06
345.942	551.06
346.17	521.06
346.397	528.06
346.625	498.06
346.853	519.06
347.08	509.06
347.308	534.06
347.535	527.06
347.763	525.06
347.99	519.06
348.218	529.06
348.445	523.06
348.673	525.06
348.9	500.06
349.128	512.06
349.355	533.06
349.583	501.06
349.81	494.06
350.037	494.06
350.265	495.06
350.492	482.06
350.72	484.06
350.947	485.06
351.174	493.06
351.402	491.06
351.629	490.06
351.856	488.06
352.083	477.06
352.311	495.06
352.538	483.06
352.765	490.06
352.992	482.06
353.22	491.06
353.447	487.06
353.674	487.06
353.901	511.06
354.128	487.06
354.355	495.06
354.583	484.06
354.81	504.06
355.037	508.06
355.264	476.06
355.491	504.06
355.718	499.06
355.945	478.06
356.172	492.06
356.399	494.06
356.626	505.06
356.853	474.06
357.08	487.06
357.307	489.06
357.534	499.06
357.761	500.06
357.988	495.06
358.215	502.06
358.441	480.06
358.668	506.06
358.895	495.06
359.122	475.06
359.349	494.06
359.576	476.06
359.802	489.06
360.029	476.06
360.256	488.06
360.483	514.06
360.709	489.06
360.936	489.06
361.163	488.06
361.39	490.06
361.616	497.06
361.843	502.06
362.07	480.06
362.296	495.06
362.523	474.06
362.749	512.06
362.976	485.06
363.203	487.06
363.429	496.06
363.656	458.06
363.882	480.06
364.109	499.06
364.335	512.06
364.562	496.06
364.788	480.06
365.015	490.06
365.241	500.06
365.468	494.06
365.694	473.06
365.92	484.06
366.147	497.06
366.373	482.06
366.599	479.06
366.826	500.06
367.052	464.06
367.278	484.06
367.505	483.06
367.731	475.06
367.957	503.06
368.184	497.06
368.41	484.06
368.636	494.06
368.862	494.06
369.089	513.06
369.315	512.06
369.541	526.06
369.767	510.06
369.993	507.06
370.219	516.06
370.445	529.06
370.672	528.06
370.898	532.06
371.124	545.06
371.35	552.06
371.576	537.06
371.802	556.06
372.028	532.06
372.254	540.06
372.48	543.06
372.706	563.06
372.932	573.06
373.158	561.06
373.384	545.06
373.61	555.06
373.835	528.06
374.061	523.06
374.287	579.06
374.513	539.06
374.739	551.06
374.965	624.06
375.191	609.06
375.416	622.06
375.642	606.06
375.868	590.06
376.094	535.06
376.319	554.06
376.545	546.06
376.771	549.06
376.997	542.06
377.222	574.06
377.448	544.06
377.674	537.06
377.899	538.06
378.125	538.06
378.35	538.06
378.576	520.06
378.802	538.06
379.027	526.06
379.253	528.06
379.478	537.06
379.704	531.06
379.929	524.06
380.155	536.06
380.38	498.06
380.606	516.06
380.831	549.06
381.057	546.06
381.282	543.06
381.507	538.06
381.733	538.06
381.958	567.06
382.184	548.06
382.409	537.06
382.634	546.06
382.86	580.06
383.085	576.06
383.31	593.06
383.535	603.06
383.761	624.06
383.986	610.06
384.211	603.06
384.436	640.06
384.662	633.06
384.887	653.06
385.112	648.06
385.337	668.06
385.562	630.06
385.787	664.06
386.013	650.06
386.238	646.06
386.463	677.06
386.688	652.06
386.913	611.06
387.138	662.06
387.363	652.06
387.588	635.06
387.813	626.06
388.038	626.06
388.263	661.06
388.488	642.06
388.713	618.06
388.938	633.06
389.163	634.06
389.387	622.06
389.612	624.06
389.837	634.06
390.062	628.06
390.287	633.06
390.512	632.06
390.736	644.06
390.961	658.06
391.186	669.06
391.411	663.06
391.636	696.06
391.86	744.06
392.085	757.06
392.31	753.06
392.534	720.06
392.759	703.06
392.984	666.06
393.208	698.06
393.433	686.06
393.658	700.06
393.882	699.06
394.107	726.06
394.331	709.06
394.556	696.06
394.78	682.06
395.005	699.06
395.229	701.06
395.454	694.06
395.678	722.06
395.903	736.06
396.127	708.06
396.352	689.06
396.576	669.06
396.801	667.06
397.025	653.06
397.249	693.06
397.474	710.06
397.698	687.06
397.922	720.06
398.147	720.06
398.371	747.06
398.595	741.06
398.82	790.06
399.044	842.06
399.268	930.06
399.492	1134.06
399.717	1311.06
399.941	1320.06
400.165	1102.06
400.389	966.06
400.613	882.06
400.837	852.06
401.062	827.06
401.286	809.06
401.51	795.06
401.734	822.06
401.958	828.06
402.182	824.06
402.406	815.06
402.63	895.06
402.854	875.06
403.078	918.06
403.302	924.06
403.526	916.06
403.75	974.06
403.974	1010.06
404.198	992.06
404.422	975.06
404.645	970.06
404.869	992.06
405.093	939.06
405.317	910.06
405.541	904.06
405.765	906.06
405.988	909.06
406.212	928.06
406.436	874.06
406.66	884.06
406.883	934.06
407.107	993.06
407.331	1038.06
407.555	1093.06
407.778	1081.06
408.002	1046.06
408.226	1032.06
408.449	955.06
408.673	969.06
408.896	946.06
409.12	905.06
409.344	940.06
409.567	952.06
409.791	965.06
410.014	944.06
410.238	927.06
410.461	948.06
410.685	939.06
410.908	918.06
411.132	878.06
411.355	845.06
411.578	862.06
411.802	831.06
412.025	834.06
412.249	843.06
412.472	879.06
412.695	827.06
412.919	812.06
413.142	811.06
413.365	811.06
413.589	799.06
413.812	819.06
414.035	786.06
414.258	786.06
414.482	789.06
414.705	814.06
414.928	828.06
415.151	832.06
415.374	831.06
415.597	815.06
415.821	790.06
416.044	820.06
416.267	789.06
416.49	810.06
416.713	789.06
416.936	792.06
417.159	807.06
417.382	815.06
417.605	816.06
417.828	796.06
418.051	794.06
418.274	798.06
418.497	831.06
418.72	827.06
418.943	830.06
419.166	887.06
419.389	950.06
419.611	921.06
419.834	878.06
420.057	870.06
420.28	821.06
420.503	785.06
420.726	816.06
420.948	810.06
421.171	816.06
421.394	804.06
421.617	789.06
421.839	818.06
422.062	847.06
422.285	828.06
422.507	868.06
422.73	859.06
422.953	885.06
423.175	861.06
423.398	865.06
423.621	880.06
423.843	885.06
424.066	895.06
424.288	915.06
424.511	906.06
424.733	868.06
424.956	854.06
425.178	805.06
425.401	828.06
425.623	800.06
425.846	796.06
426.068	777.06
426.291	772.06
426.513	759.06
426.735	759.06
426.958	780.06
427.18	746.06
427.402	708.06
427.625	732.06
427.847	731.06
428.069	716.06
428.292	719.06
428.514	733.06
428.736	704.06
428.958	720.06
429.181	695.06
429.403	676.06
429.625	673.06
429.847	706.06
430.069	711.06
430.292	715.06
430.514	706.06
430.736	712.06
430.958	699.06
431.18	709.06
431.402	698.06
431.624	692.06
431.846	714.06
432.068	731.06
432.29	756.06
432.512	729.06
432.734	700.06
432.956	723.06
433.178	717.06
433.4	738.06
433.622	729.06
433.844	727.06
434.066	715.06
434.287	724.06
434.509	766.06
434.731	818.06
434.953	831.06
435.175	846.06
435.397	847.06
435.618	779.06
435.84	773.06
436.062	743.06
436.284	729.06
436.505	750.06
436.727	723.06
436.949	737.06
437.17	731.06
437.392	722.06
437.614	721.06
437.835	683.06
438.057	709.06
438.278	694.06
438.5	694.06
438.721	671.06
438.943	699.06
439.165	679.06
439.386	708.06
439.608	713.06
439.829	725.06
440.05	758.06
440.272	727.06
440.493	732.06
440.715	738.06
440.936	772.06
441.158	762.06
441.379	759.06
441.6	839.06
441.822	851.06
442.043	835.06
442.264	804.06
442.486	809.06
442.707	829.06
442.928	830.06
443.149	796.06
443.371	807.06
443.592	819.06
443.813	808.06
444.034	871.06
444.255	850.06
444.476	912.06
444.698	990.06
444.919	1024.06
445.14	1094.06
445.361	972.06
445.582	863.06
445.803	810.06
446.024	784.06
446.245	754.06
446.466	747.06
446.687	752.06
446.908	765.06
447.129	736.06
447.35	707.06
447.571	707.06
447.792	695.06
448.013	688.06
448.234	671.06
448.455	683.06
448.675	665.06
448.896	679.06
449.117	646.06
449.338	672.06
449.559	653.06
449.779	680.06
450	660.06
450.221	661.06
450.442	676.06
450.662	656.06
450.883	692.06
451.104	712.06
451.324	680.06
451.545	694.06
451.766	684.06
451.986	662.06
452.207	659.06
452.428	701.06
452.648	684.06
452.869	666.06
453.089	664.06
453.31	640.06
453.53	677.06
453.751	678.06
453.971	647.06
454.192	665.06
454.412	655.06
454.633	633.06
454.853	650.06
455.073	629.06
455.294	622.06
455.514	632.06
455.734	616.06
455.955	613.06
456.175	622.06
456.395	624.06
456.616	628.06
456.836	632.06
457.056	632.06
457.276	618.06
457.497	644.06
457.717	622.06
457.937	634.06
458.157	642.06
458.377	655.06
458.598	663.06
458.818	684.06
459.038	698.06
459.258	700.06
459.478	760.06
459.698	739.06
459.918	771.06
460.138	806.06
460.358	886.06
460.578	908.06
460.798	894.06
461.018	898.06
461.238	858.06
461.458	873.06
461.678	880.06
461.898	884.06
462.118	890.06
462.338	963.06
462.558	980.06
462.777	1007.06
462.997	1073.06
463.217	1227.06
463.437	1218.06
463.657	1089.06
463.876	1047.06
464.096	1038.06
464.316	1054.06
464.536	1050.06
464.755	1032.06
464.975	931.06
465.195	908.06
465.414	851.06
465.634	817.06
465.854	777.06
466.073	755.06
466.293	752.06
466.512	715.06
466.732	714.06
466.951	729.06
467.171	698.06
467.391	709.06
467.61	705.06
467.829	697.06
468.049	692.06
468.268	682.06
468.488	662.06
468.707	672.06
468.927	686.06
469.146	668.06
469.365	678.06
469.585	683.06
469.804	710.06
470.023	734.06
470.243	718.06
470.462	745.06
470.681	754.06
470.901	744.06
471.12	699.06
471.339	720.06
471.558	708.06
471.777	695.06
471.997	669.06
472.216	651.06
472.435	671.06
472.654	654.06
472.873	647.06
473.092	666.06
473.311	665.06
473.53	633.06
473.749	633.06
473.968	636.06
474.187	652.06
474.406	648.06
474.625	655.06
474.844	658.06
475.063	638.06
475.282	657.06
475.501	663.06
475.72	681.06
475.939	658.06
476.158	661.06
476.377	691.06
476.596	662.06
476.814	685.06
477.033	708.06
477.252	688.06
477.471	729.06
477.69	737.06
477.908	732.06
478.127	794.06
478.346	802.06
478.564	799.06
478.783	789.06
479.002	828.06
479.22	828.06
479.439	808.06
479.658	815.06
479.876	800.06
480.095	831.06
480.313	878.06
480.532	920.06
480.751	893.06
480.969	853.06
481.188	834.06
481.406	797.06
481.624	780.06
481.843	748.06
482.061	734.06
482.28	745.06
482.498	758.06
482.717	752.06
482.935	756.06
483.153	762.06
483.372	723.06
483.59	757.06
483.808	755.06
484.027	754.06
484.245	775.06
484.463	750.06
484.681	795.06
484.9	768.06
485.118	758.06
485.336	770.06
485.554	768.06
485.772	808.06
485.99	813.06
486.209	806.06
486.427	806.06
486.645	835.06
486.863	806.06
487.081	808.06
487.299	764.06
487.517	788.06
487.735	784.06
487.953	777.06
488.171	790.06
488.389	792.06
488.607	801.06
488.825	774.06
489.043	781.06
489.261	752.06
489.479	792.06
489.696	775.06
489.914	785.06
490.132	790.06
490.35	794.06
490.568	756.06
490.786	777.06
491.003	792.06
491.221	789.06
491.439	798.06
491.657	795.06
491.874	806.06
492.092	804.06
492.31	786.06
492.527	803.06
492.745	806.06
492.963	786.06
493.18	842.06
493.398	815.06
493.615	827.06
493.833	844.06
494.05	826.06
494.268	841.06
494.485	843.06
494.703	829.06
494.92	812.06
495.138	819.06
495.355	840.06
495.573	819.06
495.79	834.06
496.008	852.06
496.225	850.06
496.442	802.06
496.66	844.06
496.877	842.06
497.094	878.06
497.312	905.06
497.529	907.06
497.746	912.06
497.963	942.06
498.181	969.06
498.398	1017.06
498.615	1108.06
498.832	1190.06
499.049	1275.06
499.267	1336.06
499.484	1534.06
499.701	1690.06
499.918	1892.06
500.135	2232.06
500.352	2598.06
500.569	2788.06
500.786	2778.06
501.003	2505.06
501.22	2203.06
501.437	1918.06
501.654	1634.06
501.871	1439.06
502.088	1327.06
502.305	1206.06
502.522	1184.06
502.739	1125.06
502.956	1086.06
503.172	1040.06
503.389	990.06
503.606	942.06
503.823	935.06
504.04	964.06
504.256	978.06
504.473	984.06
504.69	1012.06
504.907	1006.06
505.123	926.06
505.34	874.06
505.557	817.06
505.773	820.06
505.99	772.06
506.207	781.06
506.423	766.06
506.64	753.06
506.856	753.06
507.073	726.06
507.289	733.06
507.506	720.06
507.722	735.06
507.939	734.06
508.155	713.06
508.372	707.06
508.588	707.06
508.805	718.06
509.021	706.06
509.238	693.06
509.454	675.06
509.67	687.06
509.887	668.06
510.103	681.06
510.319	683.06
510.536	676.06
510.752	682.06
510.968	681.06
511.184	690.06
511.401	688.06
511.617	690.06
511.833	664.06
512.049	676.06
512.265	698.06
512.481	674.06
512.698	694.06
512.914	649.06
513.13	711.06
513.346	686.06
513.562	655.06
513.778	689.06
513.994	671.06
514.21	683.06
514.426	694.06
514.642	673.06
514.858	684.06
515.074	696.06
515.29	682.06
515.506	688.06
515.721	714.06
515.937	702.06
516.153	714.06
516.369	747.06
516.585	793.06
516.801	831.06
517.016	830.06
517.232	891.06
517.448	960.06
517.664	967.06
517.879	995.06
518.095	937.06
518.311	966.06
518.527	905.06
518.742	875.06
518.958	822.06
519.173	788.06
519.389	780.06
519.605	724.06
519.82	718.06
520.036	721.06
520.251	677.06
520.467	702.06
520.682	684.06
520.898	693.06
521.113	672.06
521.329	650.06
521.544	674.06
521.76	672.06
521.975	650.06
522.19	652.06
522.406	651.06
522.621	626.06
522.836	660.06
523.052	642.06
523.267	635.06
523.482	638.06
523.698	629.06
523.913	619.06
524.128	612.06
524.343	615.06
524.559	648.06
524.774	612.06
524.989	634.06
525.204	606.06
525.419	619.06
525.634	626.06
525.849	614.06
526.064	608.06
526.28	636.06
526.495	614.06
526.71	635.06
526.925	610.06
527.14	630.06
527.355	622.06
527.57	599.06
527.785	602.06
527.999	615.06
528.214	630.06
528.429	599.06
528.644	638.06
528.859	632.06
529.074	602.06
529.289	632.06
529.503	631.06
529.718	619.06
529.933	627.06
530.148	622.06
530.363	628.06
530.577	637.06
530.792	615.06
531.007	617.06
531.221	639.06
531.436	632.06
531.651	622.06
531.865	626.06
532.08	615.06
532.295	630.06
532.509	635.06
532.724	612.06
532.938	621.06
533.153	632.06
533.367	628.06
533.582	643.06
533.796	612.06
534.011	636.06
534.225	632.06
534.44	602.06
534.654	629.06
534.868	610.06
535.083	620.06
535.297	592.06
535.511	608.06
535.726	624.06
535.94	584.06
536.154	598.06
536.369	592.06
536.583	575.06
536.797	585.06
537.011	578.06
537.225	581.06
537.44	563.06
537.654	587.06
537.868	568.06
538.082	560.06
538.296	567.06
538.51	572.06
538.724	583.06
538.938	544.06
539.153	558.06
539.367	578.06
539.581	548.06
539.795	554.06
540.009	546.06
540.222	558.06
540.436	565.06
540.65	552.06
540.864	537.06
541.078	551.06
541.292	544.06
541.506	579.06
541.72	577.06
541.934	561.06
542.147	580.06
542.361	555.06
542.575	554.06
542.789	553.06
543.002	543.06
543.216	552.06
543.43	558.06
543.644	544.06
543.857	553.06
544.071	544.06
544.285	560.06
544.498	561.06
544.712	554.06
544.925	568.06
545.139	566.06
545.352	575.06
545.566	582.06
545.779	580.06
545.993	576.06
546.206	577.06
546.42	592.06
546.633	570.06
546.847	560.06
547.06	562.06
547.274	577.06
547.487	550.06
547.7	556.06
547.914	565.06
548.127	582.06
548.34	575.06
548.554	567.06
548.767	581.06
548.98	575.06
549.193	579.06
549.407	575.06
549.62	610.06
549.833	594.06
550.046	575.06
550.259	578.06
550.473	554.06
550.686	547.06
550.899	555.06
551.112	538.06
551.325	554.06
551.538	543.06
551.751	544.06
551.964	571.06
552.177	553.06
552.39	547.06
552.603	594.06
552.816	594.06
553.029	610.06
553.242	624.06
553.455	622.06
553.667	634.06
553.88	637.06
554.093	618.06
554.306	606.06
554.519	582.06
554.732	590.06
554.944	538.06
555.157	534.06
555.37	543.06
555.583	509.06
555.795	537.06
556.008	495.06
556.221	509.06
556.433	542.06
556.646	513.06
556.859	502.06
557.071	501.06
557.284	485.06
557.496	487.06
557.709	511.06
557.921	479.06
558.134	483.06
558.346	503.06
558.559	497.06
558.771	468.06
558.984	475.06
559.196	474.06
559.409	483.06
559.621	483.06
559.833	495.06
560.046	473.06
560.258	478.06
560.47	474.06
560.683	468.06
560.895	453.06
561.107	468.06
561.32	453.06
561.532	468.06
561.744	466.06
561.956	479.06
562.168	467.06
562.381	495.06
562.593	495.06
562.805	476.06
563.017	478.06
563.229	488.06
563.441	486.06
563.653	486.06
563.865	487.06
564.077	519.06
564.289	471.06
564.501	471.06
564.713	506.06
564.925	517.06
565.137	521.06
565.349	525.06
565.561	527.06
565.773	566.06
565.985	581.06
566.197	610.06
566.408	663.06
566.62	733.06
566.832	798.06
567.044	803.06
567.255	807.06
567.467	830.06
567.679	867.06
567.891	954.06
568.102	987.06
568.314	958.06
568.526	811.06
568.737	749.06
568.949	699.06
569.161	599.06
569.372	574.06
569.584	519.06
569.795	500.06
570.007	509.06
570.218	520.06
570.43	485.06
570.641	479.06
570.853	492.06
571.064	510.06
571.276	510.06
571.487	483.06
571.698	471.06
571.91	451.06
572.121	453.06
572.333	430.06
572.544	434.06
572.755	425.06
572.966	415.06
573.178	399.06
573.389	385.06
573.6	395.06
573.811	386.06
574.023	416.06
574.234	411.06
574.445	389.06
574.656	395.06
574.867	415.06
575.078	403.06
575.289	397.06
575.501	385.06
575.712	361.06
575.923	368.06
576.134	388.06
576.345	391.06
576.556	379.06
576.767	360.06
576.978	404.06
577.188	363.06
577.399	368.06
577.61	378.06
577.821	377.06
578.032	346.06
578.243	366.06
578.454	359.06
578.665	364.06
578.875	363.06
579.086	345.06
579.297	354.06
579.508	350.06
579.718	359.06
579.929	381.06
580.14	344.06
580.35	352.06
580.561	340.06
580.772	348.06
580.982	351.06
581.193	357.06
581.403	346.06
581.614	352.06
581.825	349.06
582.035	331.06
582.246	359.06
582.456	336.06
582.667	361.06
582.877	325.06
583.087	338.06
583.298	314.06
583.508	332.06
583.719	330.06
583.929	344.06
584.139	342.06
584.35	342.06
584.56	344.06
584.77	330.06
584.981	327.06
585.191	341.06
585.401	346.06
585.611	346.06
585.821	341.06
586.032	333.06
586.242	324.06
586.452	321.06
586.662	326.06
586.872	322.06
587.082	319.06
587.292	323.06
587.502	331.06
587.713	318.06
587.923	323.06
588.133	324.06
588.343	332.06
588.553	325.06
588.762	348.06
588.972	345.06
589.182	335.06
589.392	312.06
589.602	338.06
589.812	332.06
590.022	336.06
590.232	338.06
590.441	317.06
590.651	323.06
590.861	337.06
591.071	332.06
591.281	341.06
591.49	338.06
591.7	352.06
591.91	356.06
592.119	355.06
592.329	363.06
592.539	364.06
592.748	379.06
592.958	383.06
593.167	406.06
593.377	443.06
593.587	442.06
593.796	415.06
594.006	419.06
594.215	450.06
594.424	404.06
594.634	433.06
594.843	387.06
595.053	380.06
595.262	372.06
595.472	370.06
595.681	342.06
595.89	345.06
596.1	335.06
596.309	328.06
596.518	323.06
596.727	313.06
596.937	295.06
597.146	314.06
597.355	290.06
597.564	302.06
597.774	310.06
597.983	298.06
598.192	266.06
598.401	293.06
598.61	277.06
598.819	286.06
599.028	276.06
599.237	294.06
599.446	273.06
599.655	296.06
599.864	286.06
600.073	277.06
600.282	283.06
600.491	283.06
600.7	280.06
600.909	270.06
601.118	297.06
601.327	289.06
601.536	258.06
601.745	267.06
601.953	275.06
602.162	262.06
602.371	267.06
602.58	280.06
602.789	275.06
602.997	269.06
603.206	268.06
603.415	273.06
603.623	285.06
603.832	270.06
604.041	257.06
604.249	259.06
604.458	265.06
604.666	274.06
604.875	257.06
605.084	262.06
605.292	267.06
605.501	258.06
605.709	251.06
605.918	267.06
606.126	256.06
606.334	259.06
606.543	263.06
606.751	256.06
606.96	254.06
607.168	263.06
607.376	265.06
607.585	263.06
607.793	263.06
608.001	257.06
608.21	254.06
608.418	249.06
608.626	234.06
608.834	251.06
609.043	229.06
609.251	258.06
609.459	250.06
609.667	268.06
609.875	241.06
610.083	258.06
610.291	239.06
610.499	252.06
610.707	257.06
610.916	260.06
611.124	251.06
611.332	236.06
611.54	251.06
611.748	247.06
611.955	256.06
612.163	244.06
612.371	243.06
612.579	251.06
612.787	238.06
612.995	235.06
613.203	229.06
613.411	238.06
613.618	246.06
613.826	247.06
614.034	233.06
614.242	252.06
614.449	262.06
614.657	226.06
614.865	238.06
615.072	240.06
615.28	251.06
615.488	252.06
615.695	251.06
615.903	246.06
616.111	248.06
616.318	233.06
616.526	245.06
616.733	259.06
616.941	257.06
617.148	232.06
617.356	238.06
617.563	256.06
617.771	247.06
617.978	244.06
618.185	230.06
618.393	262.06
618.6	248.06
618.807	252.06
619.015	257.06
619.222	243.06
619.429	244.06
619.637	235.06
619.844	243.06
620.051	258.06
620.258	248.06
620.466	234.06
620.673	208.06
620.88	221.06
621.087	218.06
621.294	241.06
621.501	234.06
621.708	224.06
621.915	228.06
622.122	228.06
622.329	230.06
622.536	228.06
622.743	242.06
622.95	229.06
623.157	216.06
623.364	212.06
623.571	222.06
623.778	205.06
623.985	224.06
624.192	213.06
624.399	209.06
624.606	204.06
624.812	209.06
625.019	220.06
625.226	212.06
625.433	219.06
625.639	205.06
625.846	198.06
626.053	207.06
626.259	184.06
626.466	207.06
626.673	208.06
626.879	201.06
627.086	208.06
627.293	191.06
627.499	203.06
627.706	219.06
627.912	190.06
628.119	198.06
628.325	205.06
628.532	202.06
628.738	203.06
628.945	191.06
629.151	183.06
629.357	204.06
629.564	177.06
629.77	177.06
629.976	194.06
630.183	215.06
630.389	198.06
630.595	196.06
630.802	190.06
631.008	195.06
631.214	194.06
631.42	196.06
631.627	199.06
631.833	190.06
632.039	192.06
632.245	203.06
632.451	192.06
632.657	181.06
632.863	183.06
633.069	192.06
633.275	186.06
633.481	191.06
633.688	186.06
633.893	190.06
634.099	186.06
634.305	192.06
634.511	192.06
634.717	184.06
634.923	184.06
635.129	185.06
635.335	172.06
635.541	185.06
635.747	179.06
635.952	182.06
636.158	184.06
636.364	188.06
636.57	190.06
636.775	164.06
636.981	182.06
637.187	190.06
637.392	194.06
637.598	186.06
637.804	197.06
638.009	169.06
638.215	179.06
638.421	192.06
638.626	172.06
638.832	174.06
639.037	180.06
639.243	170.06
639.448	174.06
639.654	184.06
639.859	178.06
640.065	206.06
640.27	190.06
640.475	183.06
640.681	156.06
640.886	151.06
641.091	165.06
641.297	164.06
641.502	159.06
641.707	160.06
641.913	162.06
642.118	154.06
642.323	166.06
642.528	160.06
642.733	154.06
642.939	172.06
643.144	157.06
643.349	168.06
643.554	174.06
643.759	172.06
643.964	158.06
644.169	163.06
644.374	168.06
644.579	162.06
644.784	163.06
644.989	161.06
645.194	166.06
645.399	180.06
645.604	157.06
645.809	172.06
646.014	152.06
646.219	164.06
646.423	178.06
646.628	178.06
646.833	166.06
647.038	165.06
647.243	172.06
647.447	161.06
647.652	170.06
647.857	171.06
648.062	188.06
648.266	172.06
648.471	184.06
648.676	192.06
648.88	174.06
649.085	177.06
649.289	163.06
649.494	169.06
649.698	154.06
649.903	170.06
650.107	163.06
650.312	178.06
650.516	164.06
650.721	160.06
650.925	159.06
651.13	129.06
651.334	133.06
651.539	162.06
651.743	138.06
651.947	141.06
652.152	149.06
652.356	159.06
652.56	138.06
652.764	150.06
652.969	152.06
653.173	123.06
653.377	135.06
653.581	141.06
653.785	140.06
653.99	141.06
654.194	131.06
654.398	128.06
654.602	125.06
654.806	144.06
655.01	128.06
655.214	129.06
655.418	122.06
655.622	117.06
655.826	137.06
656.03	113.06
656.234	140.06
656.438	126.06
656.642	130.06
656.846	119.06
657.049	129.06
657.253	116.06
657.457	113.06
657.661	105.06
657.865	101.06
658.068	112.06
658.272	112.06
658.476	110.06
658.68	103.06
658.883	84.06
659.087	113.06
659.291	104.06
659.494	92.06
659.698	93.06
659.901	96.06
660.105	98.06
660.309	88.06
660.512	95.06
660.716	93.06
660.919	98.06
661.123	95.06
661.326	97.06
661.53	80.06
661.733	86.06
661.936	87.06
662.14	81.06
662.343	94.06
662.546	82.06
662.75	86.06
662.953	93.06
663.156	84.06
663.36	80.06
663.563	80.06
663.766	73.06
663.969	88.06
664.173	69.06
664.376	77.06
664.579	85.06
664.782	94.06
664.985	72.06
665.188	74.06
665.391	66.06
665.594	86.06
665.797	82.06
666	68.06
666.203	70.06
666.406	79.06
666.609	76.06
666.812	82.06
667.015	84.06
667.218	71.06
667.421	64.06
667.624	74.06
667.827	75.06
668.03	68.06
668.232	80.06
668.435	82.06
668.638	88.06
668.841	75.06
669.043	84.06
669.246	73.06
669.449	82.06
669.651	66.06
669.854	84.06
670.057	76.06
670.259	74.06
670.462	70.06
670.665	86.06
670.867	86.06
671.07	85.06
671.272	85.06
671.475	71.06
671.677	89.06
671.88	85.06
672.082	73.06
672.284	82.06
672.487	101.06
672.689	70.06
672.892	73.06
