Data from Ni(NO3)2Standard.Agarose3%.GreenCap.LampEnergy5.5.E.O_HRD10591_14-41-52-189.txt Node
Date: Mon Jul 22 14:41:52 EDT 2019
User: cochatt
Spectrometer: HR+D1059
Trigger mode: 1
Integration Time (sec): 1.000000E-1
Scans to average: 1
Electric dark correction enabled: true
Nonlinearity correction enabled: false
Boxcar width: 0
XAxis mode: Wavelengths
Number of Pixels in Spectrum: 2048
>>>>>Begin Spectral Data<<<<<
223.165	-16.12
223.4	-16.12
223.635	-16.12
223.869	-12.12
224.104	-30.12
224.338	-14.12
224.573	-10.12
224.808	-23.12
225.042	-2.12
225.277	-16.12
225.511	-9.12
225.746	-3.12
225.98	24.88
226.215	14.88
226.449	25.88
226.683	17.88
226.918	21.88
227.152	30.88
227.387	31.88
227.621	42.88
227.856	45.88
228.09	49.88
228.324	56.88
228.559	62.88
228.793	51.88
229.027	58.88
229.262	52.88
229.496	84.88
229.73	63.88
229.964	66.88
230.199	77.88
230.433	74.88
230.667	75.88
230.901	91.88
231.136	85.88
231.37	75.88
231.604	63.88
231.838	77.88
232.072	100.88
232.306	91.88
232.541	76.88
232.775	84.88
233.009	86.88
233.243	79.88
233.477	79.88
233.711	83.88
233.945	92.88
234.179	85.88
234.413	77.88
234.647	68.88
234.881	64.88
235.115	82.88
235.349	86.88
235.583	76.88
235.817	79.88
236.051	66.88
236.285	87.88
236.519	83.88
236.753	68.88
236.987	88.88
237.221	88.88
237.455	85.88
237.689	72.88
237.922	79.88
238.156	91.88
238.39	76.88
238.624	67.88
238.858	74.88
239.091	67.88
239.325	79.88
239.559	96.88
239.793	93.88
240.027	81.88
240.26	68.88
240.494	76.88
240.728	68.88
240.961	82.88
241.195	90.88
241.429	89.88
241.662	74.88
241.896	76.88
242.13	76.88
242.363	89.88
242.597	78.88
242.83	75.88
243.064	73.88
243.298	87.88
243.531	80.88
243.765	90.88
243.998	94.88
244.232	71.88
244.465	66.88
244.699	70.88
244.932	77.88
245.166	86.88
245.399	88.88
245.633	87.88
245.866	83.88
246.099	90.88
246.333	74.88
246.566	78.88
246.8	87.88
247.033	87.88
247.266	82.88
247.5	72.88
247.733	106.88
247.966	93.88
248.2	86.88
248.433	80.88
248.666	76.88
248.899	77.88
249.133	83.88
249.366	90.88
249.599	91.88
249.832	88.88
250.066	71.88
250.299	78.88
250.532	93.88
250.765	90.88
250.998	86.88
251.231	87.88
251.465	75.88
251.698	79.88
251.931	79.88
252.164	88.88
252.397	78.88
252.63	74.88
252.863	67.88
253.096	74.88
253.329	68.88
253.562	83.88
253.795	76.88
254.028	81.88
254.261	84.88
254.494	98.88
254.727	77.88
254.96	72.88
255.193	86.88
255.426	79.88
255.659	74.88
255.892	73.88
256.124	80.88
256.357	78.88
256.59	91.88
256.823	82.88
257.056	85.88
257.289	95.88
257.521	76.88
257.754	82.88
257.987	88.88
258.22	98.88
258.452	86.88
258.685	85.88
258.918	86.88
259.151	80.88
259.383	89.88
259.616	88.88
259.849	76.88
260.081	82.88
260.314	69.88
260.547	76.88
260.779	96.88
261.012	93.88
261.244	95.88
261.477	92.88
261.71	96.88
261.942	93.88
262.175	86.88
262.407	86.88
262.64	76.88
262.872	84.88
263.105	90.88
263.337	77.88
263.57	88.88
263.802	95.88
264.035	99.88
264.267	87.88
264.499	98.88
264.732	82.88
264.964	95.88
265.197	85.88
265.429	73.88
265.661	85.88
265.894	78.88
266.126	91.88
266.358	86.88
266.591	90.88
266.823	100.88
267.055	83.88
267.287	79.88
267.52	88.88
267.752	96.88
267.984	99.88
268.216	90.88
268.448	103.88
268.681	78.88
268.913	83.88
269.145	87.88
269.377	94.88
269.609	79.88
269.841	79.88
270.073	74.88
270.306	87.88
270.538	86.88
270.77	95.88
271.002	87.88
271.234	80.88
271.466	61.88
271.698	81.88
271.93	74.88
272.162	83.88
272.394	79.88
272.626	80.88
272.858	85.88
273.09	74.88
273.322	82.88
273.553	96.88
273.785	93.88
274.017	90.88
274.249	69.88
274.481	87.88
274.713	94.88
274.945	86.88
275.176	78.88
275.408	91.88
275.64	73.88
275.872	72.88
276.104	84.88
276.335	95.88
276.567	83.88
276.799	84.88
277.031	88.88
277.262	87.88
277.494	84.88
277.726	79.88
277.957	85.88
278.189	87.88
278.421	91.88
278.652	89.88
278.884	94.88
279.115	87.88
279.347	88.88
279.579	91.88
279.81	80.88
280.042	96.88
280.273	88.88
280.505	87.88
280.736	60.88
280.968	93.88
281.199	95.88
281.431	87.88
281.662	94.88
281.894	85.88
282.125	91.88
282.356	88.88
282.588	90.88
282.819	83.88
283.051	92.88
283.282	91.88
283.513	101.88
283.745	71.88
283.976	95.88
284.207	77.88
284.439	80.88
284.67	87.88
284.901	90.88
285.132	86.88
285.364	89.88
285.595	92.88
285.826	83.88
286.057	80.88
286.288	83.88
286.52	78.88
286.751	86.88
286.982	93.88
287.213	87.88
287.444	90.88
287.675	91.88
287.906	70.88
288.138	98.88
288.369	92.88
288.6	87.88
288.831	79.88
289.062	92.88
289.293	84.88
289.524	78.88
289.755	57.88
289.986	76.88
290.217	75.88
290.448	92.88
290.679	84.88
290.91	78.88
291.141	85.88
291.371	77.88
291.602	93.88
291.833	84.88
292.064	75.88
292.295	88.88
292.526	87.88
292.757	93.88
292.987	92.88
293.218	90.88
293.449	99.88
293.68	90.88
293.91	91.88
294.141	84.88
294.372	83.88
294.603	90.88
294.833	86.88
295.064	91.88
295.295	90.88
295.525	91.88
295.756	83.88
295.987	88.88
296.217	86.88
296.448	82.88
296.679	92.88
296.909	93.88
297.14	95.88
297.37	89.88
297.601	92.88
297.831	75.88
298.062	87.88
298.292	87.88
298.523	95.88
298.753	90.88
298.984	96.88
299.214	90.88
299.445	96.88
299.675	103.88
299.905	83.88
300.136	87.88
300.366	93.88
300.597	88.88
300.827	80.88
301.057	94.88
301.288	93.88
301.518	93.88
301.748	88.88
301.979	80.88
302.209	87.88
302.439	87.88
302.669	95.88
302.9	87.88
303.13	86.88
303.36	85.88
303.59	98.88
303.82	88.88
304.051	81.88
304.281	71.88
304.511	87.88
304.741	96.88
304.971	96.88
305.201	95.88
305.431	85.88
305.661	94.88
305.891	108.88
306.121	91.88
306.352	80.88
306.582	98.88
306.812	88.88
307.042	86.88
307.272	80.88
307.502	83.88
307.731	79.88
307.961	82.88
308.191	82.88
308.421	85.88
308.651	77.88
308.881	86.88
309.111	82.88
309.341	85.88
309.571	95.88
309.8	84.88
310.03	91.88
310.26	87.88
310.49	101.88
310.72	87.88
310.949	86.88
311.179	86.88
311.409	84.88
311.639	89.88
311.868	92.88
312.098	83.88
312.328	74.88
312.557	100.88
312.787	95.88
313.017	95.88
313.246	92.88
313.476	88.88
313.706	71.88
313.935	90.88
314.165	80.88
314.394	74.88
314.624	87.88
314.853	80.88
315.083	80.88
315.312	86.88
315.542	88.88
315.771	85.88
316.001	84.88
316.23	91.88
316.46	86.88
316.689	89.88
316.919	93.88
317.148	78.88
317.377	106.88
317.607	80.88
317.836	83.88
318.065	96.88
318.295	93.88
318.524	90.88
318.753	92.88
318.983	87.88
319.212	88.88
319.441	91.88
319.67	80.88
319.9	99.88
320.129	87.88
320.358	79.88
320.587	94.88
320.816	85.88
321.046	82.88
321.275	85.88
321.504	97.88
321.733	71.88
321.962	80.88
322.191	96.88
322.42	83.88
322.649	92.88
322.878	100.88
323.108	92.88
323.337	76.88
323.566	74.88
323.795	93.88
324.024	80.88
324.253	90.88
324.482	96.88
324.71	93.88
324.939	90.88
325.168	80.88
325.397	86.88
325.626	89.88
325.855	86.88
326.084	79.88
326.313	76.88
326.542	75.88
326.77	94.88
326.999	64.88
327.228	79.88
327.457	99.88
327.686	91.88
327.914	94.88
328.143	86.88
328.372	84.88
328.6	93.88
328.829	92.88
329.058	83.88
329.287	91.88
329.515	92.88
329.744	86.88
329.972	86.88
330.201	101.88
330.43	84.88
330.658	90.88
330.887	96.88
331.115	88.88
331.344	97.88
331.572	96.88
331.801	94.88
332.03	93.88
332.258	92.88
332.486	74.88
332.715	87.88
332.943	68.88
333.172	95.88
333.4	106.88
333.629	99.88
333.857	90.88
334.085	82.88
334.314	97.88
334.542	89.88
334.771	78.88
334.999	86.88
335.227	91.88
335.455	79.88
335.684	100.88
335.912	107.88
336.14	97.88
336.369	78.88
336.597	80.88
336.825	85.88
337.053	95.88
337.281	84.88
337.51	88.88
337.738	102.88
337.966	88.88
338.194	92.88
338.422	72.88
338.65	86.88
338.878	91.88
339.106	81.88
339.334	77.88
339.562	95.88
339.79	95.88
340.018	79.88
340.246	90.88
340.474	97.88
340.702	82.88
340.93	98.88
341.158	96.88
341.386	89.88
341.614	84.88
341.842	89.88
342.07	80.88
342.298	94.88
342.526	83.88
342.754	80.88
342.981	104.88
343.209	93.88
343.437	89.88
343.665	95.88
343.893	90.88
344.12	96.88
344.348	88.88
344.576	91.88
344.804	85.88
345.031	97.88
345.259	101.88
345.487	75.88
345.714	78.88
345.942	87.88
346.17	89.88
346.397	83.88
346.625	90.88
346.853	82.88
347.08	92.88
347.308	84.88
347.535	78.88
347.763	100.88
347.99	84.88
348.218	79.88
348.445	82.88
348.673	88.88
348.9	59.88
349.128	95.88
349.355	98.88
349.583	91.88
349.81	82.88
350.037	92.88
350.265	99.88
350.492	97.88
350.72	96.88
350.947	96.88
351.174	83.88
351.402	101.88
351.629	101.88
351.856	96.88
352.083	94.88
352.311	96.88
352.538	91.88
352.765	91.88
352.992	78.88
353.22	87.88
353.447	83.88
353.674	86.88
353.901	80.88
354.128	98.88
354.355	87.88
354.583	88.88
354.81	96.88
355.037	99.88
355.264	94.88
355.491	82.88
355.718	86.88
355.945	93.88
356.172	83.88
356.399	86.88
356.626	79.88
356.853	91.88
357.08	88.88
357.307	94.88
357.534	88.88
357.761	106.88
357.988	94.88
358.215	87.88
358.441	86.88
358.668	103.88
358.895	87.88
359.122	98.88
359.349	67.88
359.576	88.88
359.802	81.88
360.029	74.88
360.256	98.88
360.483	77.88
360.709	96.88
360.936	88.88
361.163	99.88
361.39	77.88
361.616	88.88
361.843	83.88
362.07	91.88
362.296	86.88
362.523	90.88
362.749	90.88
362.976	87.88
363.203	87.88
363.429	76.88
363.656	79.88
363.882	80.88
364.109	83.88
364.335	89.88
364.562	86.88
364.788	87.88
365.015	96.88
365.241	99.88
365.468	90.88
365.694	76.88
365.92	87.88
366.147	92.88
366.373	88.88
366.599	91.88
366.826	75.88
367.052	93.88
367.278	64.88
367.505	88.88
367.731	88.88
367.957	88.88
368.184	93.88
368.41	103.88
368.636	86.88
368.862	84.88
369.089	93.88
369.315	85.88
369.541	79.88
369.767	77.88
369.993	95.88
370.219	88.88
370.445	94.88
370.672	85.88
370.898	77.88
371.124	86.88
371.35	69.88
371.576	88.88
371.802	90.88
372.028	85.88
372.254	95.88
372.48	93.88
372.706	97.88
372.932	87.88
373.158	91.88
373.384	83.88
373.61	91.88
373.835	86.88
374.061	80.88
374.287	91.88
374.513	95.88
374.739	102.88
374.965	91.88
375.191	85.88
375.416	83.88
375.642	89.88
375.868	88.88
376.094	85.88
376.319	88.88
376.545	86.88
376.771	84.88
376.997	81.88
377.222	87.88
377.448	87.88
377.674	78.88
377.899	86.88
378.125	88.88
378.35	85.88
378.576	90.88
378.802	82.88
379.027	57.88
379.253	91.88
379.478	84.88
379.704	68.88
379.929	91.88
380.155	97.88
380.38	78.88
380.606	81.88
380.831	87.88
381.057	84.88
381.282	92.88
381.507	81.88
381.733	88.88
381.958	92.88
382.184	87.88
382.409	91.88
382.634	80.88
382.86	96.88
383.085	86.88
383.31	83.88
383.535	92.88
383.761	93.88
383.986	77.88
384.211	88.88
384.436	94.88
384.662	97.88
384.887	86.88
385.112	80.88
385.337	95.88
385.562	91.88
385.787	94.88
386.013	98.88
386.238	98.88
386.463	74.88
386.688	93.88
386.913	80.88
387.138	79.88
387.363	78.88
387.588	67.88
387.813	103.88
388.038	84.88
388.263	78.88
388.488	91.88
388.713	78.88
388.938	84.88
389.163	86.88
389.387	87.88
389.612	92.88
389.837	89.88
390.062	88.88
390.287	84.88
390.512	85.88
390.736	88.88
390.961	87.88
391.186	92.88
391.411	101.88
391.636	84.88
391.86	88.88
392.085	99.88
392.31	90.88
392.534	84.88
392.759	99.88
392.984	86.88
393.208	84.88
393.433	85.88
393.658	102.88
393.882	73.88
394.107	79.88
394.331	88.88
394.556	87.88
394.78	92.88
395.005	91.88
395.229	83.88
395.454	77.88
395.678	90.88
395.903	92.88
396.127	97.88
396.352	98.88
396.576	81.88
396.801	91.88
397.025	72.88
397.249	87.88
397.474	90.88
397.698	77.88
397.922	86.88
398.147	112.88
398.371	83.88
398.595	97.88
398.82	86.88
399.044	85.88
399.268	83.88
399.492	100.88
399.717	88.88
399.941	97.88
400.165	98.88
400.389	86.88
400.613	92.88
400.837	80.88
401.062	88.88
401.286	88.88
401.51	81.88
401.734	99.88
401.958	87.88
402.182	67.88
402.406	104.88
402.63	93.88
402.854	74.88
403.078	87.88
403.302	84.88
403.526	84.88
403.75	92.88
403.974	93.88
404.198	86.88
404.422	81.88
404.645	68.88
404.869	91.88
405.093	83.88
405.317	97.88
405.541	104.88
405.765	92.88
405.988	95.88
406.212	94.88
406.436	93.88
406.66	94.88
406.883	92.88
407.107	98.88
407.331	90.88
407.555	88.88
407.778	88.88
408.002	83.88
408.226	80.88
408.449	94.88
408.673	88.88
408.896	84.88
409.12	98.88
409.344	88.88
409.567	92.88
409.791	91.88
410.014	87.88
410.238	85.88
410.461	82.88
410.685	92.88
410.908	88.88
411.132	86.88
411.355	84.88
411.578	80.88
411.802	94.88
412.025	84.88
412.249	106.88
412.472	95.88
412.695	85.88
412.919	76.88
413.142	81.88
413.365	85.88
413.589	69.88
413.812	90.88
414.035	95.88
414.258	85.88
414.482	78.88
414.705	92.88
414.928	91.88
415.151	86.88
415.374	90.88
415.597	87.88
415.821	86.88
416.044	82.88
416.267	94.88
416.49	88.88
416.713	72.88
416.936	71.88
417.159	97.88
417.382	84.88
417.605	95.88
417.828	98.88
418.051	90.88
418.274	80.88
418.497	81.88
418.72	93.88
418.943	100.88
419.166	98.88
419.389	93.88
419.611	96.88
419.834	80.88
420.057	97.88
420.28	88.88
420.503	79.88
420.726	76.88
420.948	87.88
421.171	89.88
421.394	88.88
421.617	94.88
421.839	82.88
422.062	71.88
422.285	74.88
422.507	75.88
422.73	101.88
422.953	94.88
423.175	101.88
423.398	60.88
423.621	88.88
423.843	91.88
424.066	89.88
424.288	100.88
424.511	93.88
424.733	78.88
424.956	83.88
425.178	91.88
425.401	81.88
425.623	83.88
425.846	78.88
426.068	102.88
426.291	77.88
426.513	99.88
426.735	92.88
426.958	85.88
427.18	89.88
427.402	89.88
427.625	95.88
427.847	98.88
428.069	78.88
428.292	78.88
428.514	77.88
428.736	82.88
428.958	80.88
429.181	74.88
429.403	87.88
429.625	91.88
429.847	96.88
430.069	76.88
430.292	90.88
430.514	96.88
430.736	79.88
430.958	94.88
431.18	89.88
431.402	97.88
431.624	83.88
431.846	82.88
432.068	92.88
432.29	69.88
432.512	84.88
432.734	88.88
432.956	73.88
433.178	93.88
433.4	86.88
433.622	90.88
433.844	78.88
434.066	99.88
434.287	87.88
434.509	76.88
434.731	78.88
434.953	91.88
435.175	94.88
435.397	84.88
435.618	93.88
435.84	83.88
436.062	99.88
436.284	87.88
436.505	88.88
436.727	89.88
436.949	90.88
437.17	85.88
437.392	92.88
437.614	94.88
437.835	88.88
438.057	94.88
438.278	76.88
438.5	74.88
438.721	95.88
438.943	76.88
439.165	85.88
439.386	99.88
439.608	89.88
439.829	72.88
440.05	79.88
440.272	82.88
440.493	90.88
440.715	82.88
440.936	85.88
441.158	82.88
441.379	90.88
441.6	95.88
441.822	76.88
442.043	86.88
442.264	93.88
442.486	81.88
442.707	88.88
442.928	87.88
443.149	76.88
443.371	87.88
443.592	78.88
443.813	85.88
444.034	97.88
444.255	92.88
444.476	82.88
444.698	101.88
444.919	87.88
445.14	214.88
445.361	159.88
445.582	99.88
445.803	96.88
446.024	88.88
446.245	90.88
446.466	85.88
446.687	94.88
446.908	88.88
447.129	89.88
447.35	94.88
447.571	78.88
447.792	74.88
448.013	93.88
448.234	74.88
448.455	74.88
448.675	87.88
448.896	104.88
449.117	69.88
449.338	86.88
449.559	86.88
449.779	84.88
450	82.88
450.221	87.88
450.442	91.88
450.662	74.88
450.883	84.88
451.104	90.88
451.324	75.88
451.545	106.88
451.766	95.88
451.986	92.88
452.207	89.88
452.428	90.88
452.648	87.88
452.869	104.88
453.089	90.88
453.31	84.88
453.53	86.88
453.751	80.88
453.971	84.88
454.192	82.88
454.412	96.88
454.633	82.88
454.853	99.88
455.073	77.88
455.294	71.88
455.514	93.88
455.734	87.88
455.955	100.88
456.175	86.88
456.395	77.88
456.616	79.88
456.836	91.88
457.056	84.88
457.276	101.88
457.497	90.88
457.717	99.88
457.937	83.88
458.157	80.88
458.377	88.88
458.598	91.88
458.818	96.88
459.038	87.88
459.258	82.88
459.478	89.88
459.698	84.88
459.918	79.88
460.138	77.88
460.358	87.88
460.578	71.88
460.798	75.88
461.018	77.88
461.238	86.88
461.458	88.88
461.678	90.88
461.898	88.88
462.118	78.88
462.338	90.88
462.558	95.88
462.777	85.88
462.997	86.88
463.217	91.88
463.437	91.88
463.657	86.88
463.876	91.88
464.096	96.88
464.316	97.88
464.536	93.88
464.755	91.88
464.975	94.88
465.195	75.88
465.414	100.88
465.634	95.88
465.854	92.88
466.073	97.88
466.293	73.88
466.512	75.88
466.732	102.88
466.951	86.88
467.171	87.88
467.391	101.88
467.61	87.88
467.829	80.88
468.049	82.88
468.268	78.88
468.488	74.88
468.707	82.88
468.927	99.88
469.146	96.88
469.365	86.88
469.585	79.88
469.804	86.88
470.023	88.88
470.243	89.88
470.462	88.88
470.681	94.88
470.901	95.88
471.12	83.88
471.339	96.88
471.558	107.88
471.777	69.88
471.997	90.88
472.216	91.88
472.435	89.88
472.654	88.88
472.873	90.88
473.092	75.88
473.311	84.88
473.53	80.88
473.749	84.88
473.968	82.88
474.187	103.88
474.406	84.88
474.625	92.88
474.844	94.88
475.063	87.88
475.282	87.88
475.501	98.88
475.72	88.88
475.939	83.88
476.158	85.88
476.377	88.88
476.596	90.88
476.814	87.88
477.033	84.88
477.252	87.88
477.471	83.88
477.69	79.88
477.908	83.88
478.127	90.88
478.346	90.88
478.564	111.88
478.783	94.88
479.002	98.88
479.22	113.88
479.439	87.88
479.658	90.88
479.876	93.88
480.095	87.88
480.313	87.88
480.532	99.88
480.751	88.88
480.969	92.88
481.188	101.88
481.406	85.88
481.624	89.88
481.843	93.88
482.061	86.88
482.28	76.88
482.498	104.88
482.717	102.88
482.935	99.88
483.153	92.88
483.372	89.88
483.59	93.88
483.808	104.88
484.027	98.88
484.245	94.88
484.463	104.88
484.681	96.88
484.9	96.88
485.118	90.88
485.336	90.88
485.554	90.88
485.772	101.88
485.99	92.88
486.209	94.88
486.427	85.88
486.645	95.88
486.863	93.88
487.081	88.88
487.299	100.88
487.517	100.88
487.735	104.88
487.953	87.88
488.171	99.88
488.389	94.88
488.607	102.88
488.825	97.88
489.043	98.88
489.261	97.88
489.479	84.88
489.696	83.88
489.914	91.88
490.132	83.88
490.35	103.88
490.568	106.88
490.786	94.88
491.003	100.88
491.221	88.88
491.439	85.88
491.657	93.88
491.874	109.88
492.092	85.88
492.31	102.88
492.527	106.88
492.745	91.88
492.963	87.88
493.18	102.88
493.398	97.88
493.615	86.88
493.833	87.88
494.05	90.88
494.268	92.88
494.485	106.88
494.703	101.88
494.92	112.88
495.138	88.88
495.355	103.88
495.573	100.88
495.79	80.88
496.008	91.88
496.225	96.88
496.442	88.88
496.66	93.88
496.877	92.88
497.094	89.88
497.312	92.88
497.529	99.88
497.746	101.88
497.963	107.88
498.181	92.88
498.398	88.88
498.615	87.88
498.832	94.88
499.049	115.88
499.267	95.88
499.484	104.88
499.701	112.88
499.918	112.88
500.135	120.88
500.352	106.88
500.569	105.88
500.786	97.88
501.003	104.88
501.22	116.88
501.437	109.88
501.654	122.88
501.871	117.88
502.088	102.88
502.305	108.88
502.522	100.88
502.739	104.88
502.956	96.88
503.172	94.88
503.389	109.88
503.606	117.88
503.823	101.88
504.04	110.88
504.256	91.88
504.473	79.88
504.69	96.88
504.907	102.88
505.123	94.88
505.34	103.88
505.557	102.88
505.773	96.88
505.99	101.88
506.207	87.88
506.423	102.88
506.64	110.88
506.856	94.88
507.073	92.88
507.289	108.88
507.506	99.88
507.722	90.88
507.939	79.88
508.155	98.88
508.372	99.88
508.588	90.88
508.805	84.88
509.021	108.88
509.238	107.88
509.454	95.88
509.67	93.88
509.887	88.88
510.103	96.88
510.319	103.88
510.536	78.88
510.752	94.88
510.968	80.88
511.184	90.88
511.401	86.88
511.617	93.88
511.833	86.88
512.049	91.88
512.265	82.88
512.481	76.88
512.698	87.88
512.914	95.88
513.13	102.88
513.346	85.88
513.562	90.88
513.778	94.88
513.994	89.88
514.21	88.88
514.426	87.88
514.642	93.88
514.858	90.88
515.074	100.88
515.29	89.88
515.506	80.88
515.721	78.88
515.937	95.88
516.153	94.88
516.369	91.88
516.585	99.88
516.801	101.88
517.016	108.88
517.232	91.88
517.448	87.88
517.664	104.88
517.879	106.88
518.095	91.88
518.311	88.88
518.527	92.88
518.742	96.88
518.958	79.88
519.173	94.88
519.389	86.88
519.605	99.88
519.82	104.88
520.036	95.88
520.251	94.88
520.467	86.88
520.682	86.88
520.898	99.88
521.113	93.88
521.329	106.88
521.544	95.88
521.76	106.88
521.975	92.88
522.19	94.88
522.406	96.88
522.621	83.88
522.836	98.88
523.052	98.88
523.267	98.88
523.482	102.88
523.698	85.88
523.913	87.88
524.128	99.88
524.343	99.88
524.559	83.88
524.774	96.88
524.989	95.88
525.204	96.88
525.419	88.88
525.634	100.88
525.849	95.88
526.064	86.88
526.28	111.88
526.495	90.88
526.71	81.88
526.925	87.88
527.14	92.88
527.355	88.88
527.57	85.88
527.785	86.88
527.999	69.88
528.214	96.88
528.429	98.88
528.644	91.88
528.859	86.88
529.074	90.88
529.289	79.88
529.503	86.88
529.718	96.88
529.933	80.88
530.148	105.88
530.363	95.88
530.577	81.88
530.792	94.88
531.007	90.88
531.221	94.88
531.436	91.88
531.651	82.88
531.865	84.88
532.08	97.88
532.295	103.88
532.509	84.88
532.724	103.88
532.938	95.88
533.153	79.88
533.367	96.88
533.582	91.88
533.796	95.88
534.011	89.88
534.225	86.88
534.44	92.88
534.654	94.88
534.868	99.88
535.083	97.88
535.297	89.88
535.511	88.88
535.726	92.88
535.94	101.88
536.154	97.88
536.369	84.88
536.583	85.88
536.797	86.88
537.011	93.88
537.225	106.88
537.44	70.88
537.654	91.88
537.868	99.88
538.082	101.88
538.296	95.88
538.51	101.88
538.724	99.88
538.938	96.88
539.153	103.88
539.367	103.88
539.581	85.88
539.795	90.88
540.009	99.88
540.222	92.88
540.436	100.88
540.65	81.88
540.864	90.88
541.078	102.88
541.292	114.88
541.506	100.88
541.72	87.88
541.934	83.88
542.147	87.88
542.361	89.88
542.575	92.88
542.789	76.88
543.002	89.88
543.216	92.88
543.43	92.88
543.644	101.88
543.857	90.88
544.071	97.88
544.285	100.88
544.498	96.88
544.712	94.88
544.925	88.88
545.139	82.88
545.352	95.88
545.566	78.88
545.779	91.88
545.993	104.88
546.206	101.88
546.42	91.88
546.633	100.88
546.847	84.88
547.06	108.88
547.274	100.88
547.487	90.88
547.7	91.88
547.914	103.88
548.127	89.88
548.34	94.88
548.554	93.88
548.767	91.88
548.98	80.88
549.193	92.88
549.407	81.88
549.62	95.88
549.833	91.88
550.046	91.88
550.259	100.88
550.473	94.88
550.686	111.88
550.899	90.88
551.112	94.88
551.325	98.88
551.538	104.88
551.751	98.88
551.964	105.88
552.177	111.88
552.39	78.88
552.603	94.88
552.816	109.88
553.029	109.88
553.242	92.88
553.455	95.88
553.667	89.88
553.88	103.88
554.093	99.88
554.306	99.88
554.519	91.88
554.732	94.88
554.944	101.88
555.157	82.88
555.37	100.88
555.583	90.88
555.795	94.88
556.008	92.88
556.221	86.88
556.433	82.88
556.646	80.88
556.859	91.88
557.071	97.88
557.284	93.88
557.496	89.88
557.709	115.88
557.921	109.88
558.134	93.88
558.346	98.88
558.559	94.88
558.771	96.88
558.984	91.88
559.196	89.88
559.409	98.88
559.621	90.88
559.833	95.88
560.046	88.88
560.258	112.88
560.47	96.88
560.683	95.88
560.895	85.88
561.107	97.88
561.32	98.88
561.532	82.88
561.744	87.88
561.956	75.88
562.168	100.88
562.381	86.88
562.593	86.88
562.805	74.88
563.017	89.88
563.229	100.88
563.441	98.88
563.653	95.88
563.865	80.88
564.077	91.88
564.289	87.88
564.501	103.88
564.713	103.88
564.925	90.88
565.137	91.88
565.349	85.88
565.561	94.88
565.773	87.88
565.985	86.88
566.197	87.88
566.408	90.88
566.62	87.88
566.832	95.88
567.044	103.88
567.255	109.88
567.467	115.88
567.679	93.88
567.891	88.88
568.102	88.88
568.314	93.88
568.526	92.88
568.737	111.88
568.949	118.88
569.161	90.88
569.372	86.88
569.584	86.88
569.795	69.88
570.007	81.88
570.218	91.88
570.43	86.88
570.641	94.88
570.853	94.88
571.064	111.88
571.276	85.88
571.487	89.88
571.698	83.88
571.91	88.88
572.121	81.88
572.333	94.88
572.544	88.88
572.755	82.88
572.966	94.88
573.178	80.88
573.389	92.88
573.6	84.88
573.811	87.88
574.023	101.88
574.234	94.88
574.445	91.88
574.656	79.88
574.867	86.88
575.078	88.88
575.289	87.88
575.501	101.88
575.712	92.88
575.923	90.88
576.134	103.88
576.345	91.88
576.556	85.88
576.767	85.88
576.978	79.88
577.188	86.88
577.399	96.88
577.61	87.88
577.821	86.88
578.032	93.88
578.243	85.88
578.454	103.88
578.665	88.88
578.875	81.88
579.086	87.88
579.297	82.88
579.508	77.88
579.718	73.88
579.929	79.88
580.14	81.88
580.35	75.88
580.561	82.88
580.772	103.88
580.982	93.88
581.193	96.88
581.403	86.88
581.614	90.88
581.825	89.88
582.035	94.88
582.246	93.88
582.456	84.88
582.667	84.88
582.877	87.88
583.087	97.88
583.298	97.88
583.508	89.88
583.719	87.88
583.929	94.88
584.139	95.88
584.35	86.88
584.56	79.88
584.77	93.88
584.981	77.88
585.191	100.88
585.401	93.88
585.611	102.88
585.821	94.88
586.032	94.88
586.242	85.88
586.452	100.88
586.662	77.88
586.872	91.88
587.082	91.88
587.292	72.88
587.502	84.88
587.713	87.88
587.923	78.88
588.133	99.88
588.343	79.88
588.553	95.88
588.762	93.88
588.972	102.88
589.182	93.88
589.392	85.88
589.602	100.88
589.812	103.88
590.022	92.88
590.232	78.88
590.441	77.88
590.651	86.88
590.861	92.88
591.071	82.88
591.281	106.88
591.49	87.88
591.7	91.88
591.91	93.88
592.119	94.88
592.329	82.88
592.539	99.88
592.748	95.88
592.958	96.88
593.167	91.88
593.377	95.88
593.587	89.88
593.796	94.88
594.006	79.88
594.215	87.88
594.424	104.88
594.634	102.88
594.843	95.88
595.053	87.88
595.262	87.88
595.472	82.88
595.681	79.88
595.89	86.88
596.1	79.88
596.309	93.88
596.518	90.88
596.727	84.88
596.937	101.88
597.146	89.88
597.355	79.88
597.564	88.88
597.774	80.88
597.983	86.88
598.192	83.88
598.401	107.88
598.61	90.88
598.819	88.88
599.028	78.88
599.237	89.88
599.446	85.88
599.655	86.88
599.864	90.88
600.073	92.88
600.282	100.88
600.491	89.88
600.7	87.88
600.909	85.88
601.118	74.88
601.327	101.88
601.536	92.88
601.745	94.88
601.953	100.88
602.162	96.88
602.371	89.88
602.58	74.88
602.789	92.88
602.997	101.88
603.206	90.88
603.415	86.88
603.623	89.88
603.832	102.88
604.041	98.88
604.249	86.88
604.458	86.88
604.666	80.88
604.875	70.88
605.084	79.88
605.292	87.88
605.501	99.88
605.709	88.88
605.918	99.88
606.126	85.88
606.334	94.88
606.543	88.88
606.751	83.88
606.96	89.88
607.168	88.88
607.376	81.88
607.585	77.88
607.793	95.88
608.001	78.88
608.21	87.88
608.418	92.88
608.626	82.88
608.834	83.88
609.043	91.88
609.251	81.88
609.459	95.88
609.667	101.88
609.875	80.88
610.083	88.88
610.291	89.88
610.499	94.88
610.707	91.88
610.916	88.88
611.124	88.88
611.332	82.88
611.54	96.88
611.748	87.88
611.955	78.88
612.163	98.88
612.371	94.88
612.579	89.88
612.787	84.88
612.995	94.88
613.203	103.88
613.411	96.88
613.618	86.88
613.826	86.88
614.034	90.88
614.242	84.88
614.449	95.88
614.657	92.88
614.865	76.88
615.072	86.88
615.28	89.88
615.488	96.88
615.695	90.88
615.903	96.88
616.111	75.88
616.318	90.88
616.526	88.88
616.733	94.88
616.941	79.88
617.148	80.88
617.356	88.88
617.563	92.88
617.771	85.88
617.978	90.88
618.185	97.88
618.393	84.88
618.6	91.88
618.807	71.88
619.015	97.88
619.222	83.88
619.429	91.88
619.637	85.88
619.844	91.88
620.051	90.88
620.258	78.88
620.466	73.88
620.673	84.88
620.88	80.88
621.087	90.88
621.294	86.88
621.501	89.88
621.708	92.88
621.915	87.88
622.122	97.88
622.329	83.88
622.536	74.88
622.743	91.88
622.95	97.88
623.157	80.88
623.364	89.88
623.571	81.88
623.778	89.88
623.985	86.88
624.192	91.88
624.399	87.88
624.606	100.88
624.812	80.88
625.019	94.88
625.226	91.88
625.433	95.88
625.639	73.88
625.846	84.88
626.053	91.88
626.259	94.88
626.466	77.88
626.673	98.88
626.879	92.88
627.086	94.88
627.293	85.88
627.499	92.88
627.706	94.88
627.912	92.88
628.119	97.88
628.325	85.88
628.532	88.88
628.738	79.88
628.945	84.88
629.151	91.88
629.357	87.88
629.564	72.88
629.77	79.88
629.976	89.88
630.183	68.88
630.389	78.88
630.595	81.88
630.802	80.88
631.008	96.88
631.214	98.88
631.42	98.88
631.627	90.88
631.833	82.88
632.039	98.88
632.245	95.88
632.451	83.88
632.657	79.88
632.863	88.88
633.069	88.88
633.275	89.88
633.481	86.88
633.688	77.88
633.893	83.88
634.099	82.88
634.305	97.88
634.511	72.88
634.717	88.88
634.923	69.88
635.129	92.88
635.335	77.88
635.541	91.88
635.747	78.88
635.952	82.88
636.158	79.88
636.364	79.88
636.57	86.88
636.775	73.88
636.981	96.88
637.187	101.88
637.392	86.88
637.598	77.88
637.804	88.88
638.009	85.88
638.215	101.88
638.421	73.88
638.626	89.88
638.832	78.88
639.037	100.88
639.243	84.88
639.448	78.88
639.654	75.88
639.859	79.88
640.065	86.88
640.27	106.88
640.475	85.88
640.681	99.88
640.886	78.88
641.091	74.88
641.297	86.88
641.502	82.88
641.707	84.88
641.913	71.88
642.118	79.88
642.323	82.88
642.528	88.88
642.733	82.88
642.939	101.88
643.144	92.88
643.349	98.88
643.554	99.88
643.759	97.88
643.964	70.88
644.169	92.88
644.374	95.88
644.579	82.88
644.784	83.88
644.989	94.88
645.194	75.88
645.399	79.88
645.604	101.88
645.809	86.88
646.014	77.88
646.219	89.88
646.423	72.88
646.628	92.88
646.833	78.88
647.038	75.88
647.243	82.88
647.447	86.88
647.652	102.88
647.857	89.88
648.062	62.88
648.266	76.88
648.471	73.88
648.676	86.88
648.88	75.88
649.085	75.88
649.289	71.88
649.494	85.88
649.698	90.88
649.903	93.88
650.107	84.88
650.312	96.88
650.516	89.88
650.721	87.88
650.925	84.88
651.13	80.88
651.334	76.88
651.539	92.88
651.743	78.88
651.947	88.88
652.152	82.88
652.356	88.88
652.56	80.88
652.764	74.88
652.969	97.88
653.173	93.88
653.377	70.88
653.581	65.88
653.785	98.88
653.99	88.88
654.194	83.88
654.398	76.88
654.602	84.88
654.806	73.88
655.01	92.88
655.214	101.88
655.418	90.88
655.622	82.88
655.826	99.88
656.03	86.88
656.234	98.88
656.438	83.88
656.642	95.88
656.846	75.88
657.049	82.88
657.253	93.88
657.457	87.88
657.661	81.88
657.865	82.88
658.068	87.88
658.272	84.88
658.476	93.88
658.68	89.88
658.883	75.88
659.087	95.88
659.291	95.88
659.494	82.88
659.698	68.88
659.901	80.88
660.105	81.88
660.309	85.88
660.512	81.88
660.716	83.88
660.919	74.88
661.123	92.88
661.326	85.88
661.53	83.88
661.733	87.88
661.936	81.88
662.14	75.88
662.343	80.88
662.546	92.88
662.75	91.88
662.953	77.88
663.156	77.88
663.36	80.88
663.563	93.88
663.766	62.88
663.969	80.88
664.173	86.88
664.376	84.88
664.579	74.88
664.782	73.88
664.985	85.88
665.188	76.88
665.391	91.88
665.594	87.88
665.797	95.88
666	89.88
666.203	74.88
666.406	79.88
666.609	81.88
666.812	74.88
667.015	72.88
667.218	77.88
667.421	85.88
667.624	85.88
667.827	93.88
668.03	86.88
668.232	94.88
668.435	79.88
668.638	70.88
668.841	96.88
669.043	95.88
669.246	78.88
669.449	83.88
669.651	77.88
669.854	71.88
670.057	87.88
670.259	85.88
670.462	83.88
670.665	88.88
670.867	83.88
671.07	84.88
671.272	92.88
671.475	96.88
671.677	87.88
671.88	80.88
672.082	70.88
672.284	80.88
672.487	82.88
672.689	79.88
672.892	87.88
