Data from Ni(NO3)2@0.0625M.TitratingCurve.Agarose3%dH2O.NegLispCup.LampEnergy10.LIBS07252019_HRD10591_18-15-18-569.txt Node
Date: Thu Jul 25 18:15:18 EDT 2019
User: cochatt
Spectrometer: HR+D1059
Trigger mode: 1
Integration Time (sec): 1.000000E-1
Scans to average: 1
Electric dark correction enabled: true
Nonlinearity correction enabled: false
Boxcar width: 0
XAxis mode: Wavelengths
Number of Pixels in Spectrum: 2048
>>>>>Begin Spectral Data<<<<<
223.165	-17.62
223.4	-17.62
223.635	-17.62
223.869	-10.62
224.104	-27.62
224.338	-17.62
224.573	-17.62
224.808	-8.62
225.042	-12.62
225.277	-6.62
225.511	-8.62
225.746	12.38
225.98	15.38
226.215	1.38
226.449	15.38
226.683	41.38
226.918	22.38
227.152	19.38
227.387	37.38
227.621	32.38
227.856	47.38
228.09	38.38
228.324	51.38
228.559	54.38
228.793	57.38
229.027	93.38
229.262	93.38
229.496	125.38
229.73	112.38
229.964	121.38
230.199	127.38
230.433	131.38
230.667	122.38
230.901	126.38
231.136	123.38
231.37	135.38
231.604	152.38
231.838	151.38
232.072	129.38
232.306	149.38
232.541	125.38
232.775	123.38
233.009	129.38
233.243	139.38
233.477	140.38
233.711	124.38
233.945	148.38
234.179	125.38
234.413	138.38
234.647	136.38
234.881	130.38
235.115	125.38
235.349	135.38
235.583	151.38
235.817	147.38
236.051	142.38
236.285	151.38
236.519	137.38
236.753	140.38
236.987	127.38
237.221	145.38
237.455	142.38
237.689	142.38
237.922	154.38
238.156	141.38
238.39	132.38
238.624	157.38
238.858	155.38
239.091	155.38
239.325	160.38
239.559	154.38
239.793	153.38
240.027	165.38
240.26	151.38
240.494	150.38
240.728	175.38
240.961	170.38
241.195	157.38
241.429	140.38
241.662	168.38
241.896	165.38
242.13	159.38
242.363	178.38
242.597	174.38
242.83	187.38
243.064	183.38
243.298	180.38
243.531	177.38
243.765	182.38
243.998	195.38
244.232	185.38
244.465	182.38
244.699	182.38
244.932	181.38
245.166	176.38
245.399	198.38
245.633	186.38
245.866	199.38
246.099	171.38
246.333	194.38
246.566	199.38
246.8	212.38
247.033	196.38
247.266	199.38
247.5	201.38
247.733	212.38
247.966	221.38
248.2	226.38
248.433	203.38
248.666	215.38
248.899	201.38
249.133	209.38
249.366	211.38
249.599	215.38
249.832	212.38
250.066	210.38
250.299	219.38
250.532	212.38
250.765	205.38
250.998	228.38
251.231	212.38
251.465	229.38
251.698	220.38
251.931	245.38
252.164	233.38
252.397	235.38
252.63	237.38
252.863	248.38
253.096	242.38
253.329	235.38
253.562	231.38
253.795	232.38
254.028	251.38
254.261	258.38
254.494	250.38
254.727	247.38
254.96	262.38
255.193	242.38
255.426	237.38
255.659	244.38
255.892	241.38
256.124	258.38
256.357	241.38
256.59	258.38
256.823	257.38
257.056	255.38
257.289	254.38
257.521	251.38
257.754	250.38
257.987	259.38
258.22	261.38
258.452	237.38
258.685	269.38
258.918	267.38
259.151	267.38
259.383	264.38
259.616	260.38
259.849	273.38
260.081	265.38
260.314	285.38
260.547	277.38
260.779	267.38
261.012	298.38
261.244	275.38
261.477	278.38
261.71	285.38
261.942	283.38
262.175	293.38
262.407	284.38
262.64	283.38
262.872	279.38
263.105	293.38
263.337	292.38
263.57	275.38
263.802	286.38
264.035	289.38
264.267	298.38
264.499	296.38
264.732	299.38
264.964	294.38
265.197	314.38
265.429	322.38
265.661	325.38
265.894	308.38
266.126	323.38
266.358	304.38
266.591	328.38
266.823	312.38
267.055	335.38
267.287	318.38
267.52	311.38
267.752	316.38
267.984	313.38
268.216	302.38
268.448	313.38
268.681	300.38
268.913	325.38
269.145	330.38
269.377	325.38
269.609	319.38
269.841	315.38
270.073	295.38
270.306	325.38
270.538	314.38
270.77	325.38
271.002	325.38
271.234	335.38
271.466	332.38
271.698	327.38
271.93	308.38
272.162	327.38
272.394	338.38
272.626	347.38
272.858	324.38
273.09	345.38
273.322	348.38
273.553	335.38
273.785	362.38
274.017	358.38
274.249	345.38
274.481	349.38
274.713	360.38
274.945	365.38
275.176	353.38
275.408	381.38
275.64	349.38
275.872	355.38
276.104	341.38
276.335	356.38
276.567	350.38
276.799	365.38
277.031	359.38
277.262	358.38
277.494	348.38
277.726	367.38
277.957	357.38
278.189	358.38
278.421	380.38
278.652	369.38
278.884	378.38
279.115	384.38
279.347	372.38
279.579	376.38
279.81	382.38
280.042	356.38
280.273	391.38
280.505	385.38
280.736	381.38
280.968	374.38
281.199	414.38
281.431	393.38
281.662	404.38
281.894	426.38
282.125	389.38
282.356	407.38
282.588	401.38
282.819	401.38
283.051	396.38
283.282	422.38
283.513	407.38
283.745	422.38
283.976	413.38
284.207	408.38
284.439	414.38
284.67	406.38
284.901	410.38
285.132	399.38
285.364	405.38
285.595	408.38
285.826	429.38
286.057	412.38
286.288	416.38
286.52	423.38
286.751	415.38
286.982	414.38
287.213	419.38
287.444	399.38
287.675	441.38
287.906	427.38
288.138	436.38
288.369	445.38
288.6	422.38
288.831	427.38
289.062	449.38
289.293	436.38
289.524	444.38
289.755	444.38
289.986	473.38
290.217	433.38
290.448	438.38
290.679	437.38
290.91	439.38
291.141	425.38
291.371	451.38
291.602	448.38
291.833	460.38
292.064	470.38
292.295	439.38
292.526	453.38
292.757	456.38
292.987	435.38
293.218	442.38
293.449	457.38
293.68	468.38
293.91	468.38
294.141	451.38
294.372	429.38
294.603	457.38
294.833	439.38
295.064	453.38
295.295	459.38
295.525	452.38
295.756	467.38
295.987	471.38
296.217	472.38
296.448	494.38
296.679	486.38
296.909	468.38
297.14	469.38
297.37	486.38
297.601	500.38
297.831	479.38
298.062	513.38
298.292	500.38
298.523	516.38
298.753	503.38
298.984	489.38
299.214	503.38
299.445	479.38
299.675	512.38
299.905	488.38
300.136	482.38
300.366	486.38
300.597	499.38
300.827	517.38
301.057	513.38
301.288	497.38
301.518	537.38
301.748	494.38
301.979	523.38
302.209	529.38
302.439	527.38
302.669	520.38
302.9	515.38
303.13	509.38
303.36	521.38
303.59	533.38
303.82	498.38
304.051	509.38
304.281	498.38
304.511	499.38
304.741	511.38
304.971	490.38
305.201	511.38
305.431	516.38
305.661	510.38
305.891	493.38
306.121	517.38
306.352	491.38
306.582	485.38
306.812	492.38
307.042	513.38
307.272	512.38
307.502	478.38
307.731	519.38
307.961	503.38
308.191	482.38
308.421	494.38
308.651	494.38
308.881	506.38
309.111	504.38
309.341	477.38
309.571	483.38
309.8	485.38
310.03	482.38
310.26	485.38
310.49	488.38
310.72	478.38
310.949	482.38
311.179	515.38
311.409	499.38
311.639	515.38
311.868	499.38
312.098	510.38
312.328	517.38
312.557	488.38
312.787	518.38
313.017	532.38
313.246	519.38
313.476	524.38
313.706	545.38
313.935	555.38
314.165	530.38
314.394	535.38
314.624	532.38
314.853	503.38
315.083	524.38
315.312	524.38
315.542	537.38
315.771	530.38
316.001	526.38
316.23	525.38
316.46	532.38
316.689	537.38
316.919	501.38
317.148	500.38
317.377	527.38
317.607	531.38
317.836	506.38
318.065	514.38
318.295	513.38
318.524	503.38
318.753	542.38
318.983	498.38
319.212	519.38
319.441	528.38
319.67	525.38
319.9	511.38
320.129	502.38
320.358	523.38
320.587	533.38
320.816	529.38
321.046	515.38
321.275	526.38
321.504	534.38
321.733	524.38
321.962	521.38
322.191	519.38
322.42	520.38
322.649	512.38
322.878	530.38
323.108	524.38
323.337	524.38
323.566	525.38
323.795	525.38
324.024	535.38
324.253	515.38
324.482	538.38
324.71	539.38
324.939	523.38
325.168	533.38
325.397	552.38
325.626	548.38
325.855	544.38
326.084	573.38
326.313	569.38
326.542	574.38
326.77	562.38
326.999	563.38
327.228	555.38
327.457	561.38
327.686	551.38
327.914	570.38
328.143	564.38
328.372	579.38
328.6	580.38
328.829	564.38
329.058	572.38
329.287	550.38
329.515	559.38
329.744	574.38
329.972	593.38
330.201	574.38
330.43	569.38
330.658	559.38
330.887	600.38
331.115	584.38
331.344	592.38
331.572	614.38
331.801	623.38
332.03	626.38
332.258	660.38
332.486	643.38
332.715	682.38
332.943	707.38
333.172	728.38
333.4	783.38
333.629	773.38
333.857	775.38
334.085	764.38
334.314	745.38
334.542	755.38
334.771	729.38
334.999	711.38
335.227	720.38
335.455	719.38
335.684	678.38
335.912	712.38
336.14	667.38
336.369	679.38
336.597	702.38
336.825	708.38
337.053	699.38
337.281	682.38
337.51	659.38
337.738	643.38
337.966	647.38
338.194	634.38
338.422	617.38
338.65	619.38
338.878	627.38
339.106	599.38
339.334	633.38
339.562	588.38
339.79	586.38
340.018	592.38
340.246	581.38
340.474	579.38
340.702	602.38
340.93	594.38
341.158	608.38
341.386	582.38
341.614	597.38
341.842	628.38
342.07	585.38
342.298	571.38
342.526	600.38
342.754	580.38
342.981	607.38
343.209	604.38
343.437	646.38
343.665	667.38
343.893	743.38
344.12	741.38
344.348	737.38
344.576	651.38
344.804	654.38
345.031	651.38
345.259	615.38
345.487	605.38
345.714	573.38
345.942	613.38
346.17	603.38
346.397	583.38
346.625	603.38
346.853	580.38
347.08	607.38
347.308	599.38
347.535	621.38
347.763	615.38
347.99	585.38
348.218	610.38
348.445	588.38
348.673	595.38
348.9	584.38
349.128	571.38
349.355	541.38
349.583	579.38
349.81	571.38
350.037	570.38
350.265	548.38
350.492	577.38
350.72	558.38
350.947	545.38
351.174	575.38
351.402	574.38
351.629	545.38
351.856	549.38
352.083	556.38
352.311	535.38
352.538	570.38
352.765	561.38
352.992	574.38
353.22	557.38
353.447	543.38
353.674	568.38
353.901	563.38
354.128	551.38
354.355	571.38
354.583	545.38
354.81	540.38
355.037	572.38
355.264	584.38
355.491	567.38
355.718	555.38
355.945	553.38
356.172	565.38
356.399	571.38
356.626	560.38
356.853	562.38
357.08	579.38
357.307	568.38
357.534	558.38
357.761	564.38
357.988	547.38
358.215	553.38
358.441	581.38
358.668	563.38
358.895	571.38
359.122	546.38
359.349	561.38
359.576	577.38
359.802	572.38
360.029	569.38
360.256	590.38
360.483	550.38
360.709	544.38
360.936	567.38
361.163	563.38
361.39	561.38
361.616	547.38
361.843	551.38
362.07	541.38
362.296	549.38
362.523	559.38
362.749	565.38
362.976	563.38
363.203	540.38
363.429	553.38
363.656	556.38
363.882	566.38
364.109	545.38
364.335	541.38
364.562	536.38
364.788	541.38
365.015	547.38
365.241	533.38
365.468	554.38
365.694	564.38
365.92	552.38
366.147	532.38
366.373	538.38
366.599	553.38
366.826	569.38
367.052	562.38
367.278	575.38
367.505	556.38
367.731	586.38
367.957	584.38
368.184	576.38
368.41	567.38
368.636	573.38
368.862	556.38
369.089	549.38
369.315	571.38
369.541	571.38
369.767	573.38
369.993	566.38
370.219	563.38
370.445	603.38
370.672	583.38
370.898	617.38
371.124	596.38
371.35	610.38
371.576	616.38
371.802	610.38
372.028	618.38
372.254	599.38
372.48	600.38
372.706	644.38
372.932	625.38
373.158	624.38
373.384	600.38
373.61	609.38
373.835	630.38
374.061	602.38
374.287	596.38
374.513	615.38
374.739	652.38
374.965	668.38
375.191	682.38
375.416	684.38
375.642	661.38
375.868	665.38
376.094	623.38
376.319	615.38
376.545	608.38
376.771	628.38
376.997	611.38
377.222	611.38
377.448	627.38
377.674	625.38
377.899	619.38
378.125	609.38
378.35	597.38
378.576	598.38
378.802	594.38
379.027	618.38
379.253	596.38
379.478	600.38
379.704	618.38
379.929	598.38
380.155	602.38
380.38	602.38
380.606	601.38
380.831	607.38
381.057	594.38
381.282	604.38
381.507	606.38
381.733	611.38
381.958	639.38
382.184	616.38
382.409	649.38
382.634	649.38
382.86	632.38
383.085	636.38
383.31	664.38
383.535	660.38
383.761	669.38
383.986	679.38
384.211	726.38
384.436	690.38
384.662	704.38
384.887	745.38
385.112	747.38
385.337	726.38
385.562	715.38
385.787	731.38
386.013	739.38
386.238	740.38
386.463	762.38
386.688	737.38
386.913	738.38
387.138	723.38
387.363	711.38
387.588	704.38
387.813	719.38
388.038	740.38
388.263	750.38
388.488	734.38
388.713	725.38
388.938	713.38
389.163	718.38
389.387	709.38
389.612	712.38
389.837	722.38
390.062	715.38
390.287	729.38
390.512	719.38
390.736	727.38
390.961	754.38
391.186	742.38
391.411	780.38
391.636	776.38
391.86	841.38
392.085	826.38
392.31	844.38
392.534	799.38
392.759	782.38
392.984	778.38
393.208	781.38
393.433	787.38
393.658	782.38
393.882	791.38
394.107	764.38
394.331	777.38
394.556	799.38
394.78	774.38
395.005	784.38
395.229	789.38
395.454	822.38
395.678	837.38
395.903	822.38
396.127	806.38
396.352	791.38
396.576	760.38
396.801	759.38
397.025	769.38
397.249	766.38
397.474	801.38
397.698	813.38
397.922	805.38
398.147	806.38
398.371	802.38
398.595	845.38
398.82	905.38
399.044	944.38
399.268	1060.38
399.492	1226.38
399.717	1413.38
399.941	1372.38
400.165	1189.38
400.389	1101.38
400.613	1029.38
400.837	943.38
401.062	941.38
401.286	895.38
401.51	916.38
401.734	916.38
401.958	919.38
402.182	920.38
402.406	946.38
402.63	969.38
402.854	1002.38
403.078	996.38
403.302	1034.38
403.526	1071.38
403.75	1079.38
403.974	1074.38
404.198	1118.38
404.422	1114.38
404.645	1123.38
404.869	1068.38
405.093	1047.38
405.317	997.38
405.541	1038.38
405.765	1037.38
405.988	1014.38
406.212	1015.38
406.436	1016.38
406.66	1051.38
406.883	1062.38
407.107	1098.38
407.331	1158.38
407.555	1213.38
407.778	1179.38
408.002	1171.38
408.226	1134.38
408.449	1102.38
408.673	1085.38
408.896	1046.38
409.12	1072.38
409.344	1035.38
409.567	1032.38
409.791	1099.38
410.014	1071.38
410.238	1050.38
410.461	1048.38
410.685	1056.38
410.908	1033.38
411.132	941.38
411.355	953.38
411.578	976.38
411.802	953.38
412.025	962.38
412.249	990.38
412.472	972.38
412.695	919.38
412.919	943.38
413.142	902.38
413.365	881.38
413.589	925.38
413.812	896.38
414.035	897.38
414.258	928.38
414.482	907.38
414.705	949.38
414.928	919.38
415.151	908.38
415.374	919.38
415.597	915.38
415.821	886.38
416.044	931.38
416.267	861.38
416.49	863.38
416.713	890.38
416.936	916.38
417.159	875.38
417.382	914.38
417.605	917.38
417.828	900.38
418.051	924.38
418.274	903.38
418.497	938.38
418.72	920.38
418.943	934.38
419.166	1001.38
419.389	1064.38
419.611	1073.38
419.834	991.38
420.057	974.38
420.28	911.38
420.503	917.38
420.726	909.38
420.948	913.38
421.171	873.38
421.394	906.38
421.617	881.38
421.839	897.38
422.062	899.38
422.285	891.38
422.507	925.38
422.73	952.38
422.953	919.38
423.175	969.38
423.398	986.38
423.621	983.38
423.843	992.38
424.066	970.38
424.288	993.38
424.511	980.38
424.733	963.38
424.956	929.38
425.178	954.38
425.401	929.38
425.623	905.38
425.846	851.38
426.068	876.38
426.291	854.38
426.513	851.38
426.735	855.38
426.958	842.38
427.18	799.38
427.402	844.38
427.625	807.38
427.847	823.38
428.069	819.38
428.292	822.38
428.514	798.38
428.736	819.38
428.958	817.38
429.181	781.38
429.403	771.38
429.625	790.38
429.847	772.38
430.069	780.38
430.292	834.38
430.514	780.38
430.736	803.38
430.958	805.38
431.18	797.38
431.402	806.38
431.624	821.38
431.846	799.38
432.068	830.38
432.29	823.38
432.512	823.38
432.734	809.38
432.956	810.38
433.178	813.38
433.4	829.38
433.622	830.38
433.844	831.38
434.066	814.38
434.287	835.38
434.509	870.38
434.731	892.38
434.953	925.38
435.175	913.38
435.397	908.38
435.618	871.38
435.84	861.38
436.062	823.38
436.284	830.38
436.505	829.38
436.727	847.38
436.949	827.38
437.17	817.38
437.392	797.38
437.614	786.38
437.835	788.38
438.057	793.38
438.278	763.38
438.5	790.38
438.721	785.38
438.943	778.38
439.165	789.38
439.386	829.38
439.608	807.38
439.829	803.38
440.05	820.38
440.272	850.38
440.493	820.38
440.715	850.38
440.936	851.38
441.158	877.38
441.379	881.38
441.6	927.38
441.822	919.38
442.043	947.38
442.264	908.38
442.486	894.38
442.707	897.38
442.928	903.38
443.149	916.38
443.371	922.38
443.592	937.38
443.813	919.38
444.034	966.38
444.255	972.38
444.476	1028.38
444.698	1070.38
444.919	1113.38
445.14	1157.38
445.361	1043.38
445.582	953.38
445.803	910.38
446.024	865.38
446.245	858.38
446.466	873.38
446.687	850.38
446.908	839.38
447.129	818.38
447.35	809.38
447.571	810.38
447.792	790.38
448.013	786.38
448.234	760.38
448.455	787.38
448.675	745.38
448.896	743.38
449.117	733.38
449.338	764.38
449.559	743.38
449.779	727.38
450	754.38
450.221	752.38
450.442	758.38
450.662	778.38
450.883	778.38
451.104	797.38
451.324	785.38
451.545	799.38
451.766	787.38
451.986	803.38
452.207	774.38
452.428	748.38
452.648	759.38
452.869	777.38
453.089	737.38
453.31	747.38
453.53	756.38
453.751	749.38
453.971	733.38
454.192	746.38
454.412	725.38
454.633	732.38
454.853	709.38
455.073	701.38
455.294	717.38
455.514	732.38
455.734	684.38
455.955	706.38
456.175	708.38
456.395	703.38
456.616	707.38
456.836	685.38
457.056	707.38
457.276	694.38
457.497	696.38
457.717	701.38
457.937	698.38
458.157	705.38
458.377	703.38
458.598	726.38
458.818	764.38
459.038	792.38
459.258	803.38
459.478	803.38
459.698	841.38
459.918	866.38
460.138	937.38
460.358	957.38
460.578	983.38
460.798	979.38
461.018	983.38
461.238	978.38
461.458	965.38
461.678	954.38
461.898	974.38
462.118	995.38
462.338	1043.38
462.558	1040.38
462.777	1101.38
462.997	1196.38
463.217	1343.38
463.437	1337.38
463.657	1213.38
463.876	1145.38
464.096	1146.38
464.316	1144.38
464.536	1164.38
464.755	1117.38
464.975	1049.38
465.195	986.38
465.414	963.38
465.634	889.38
465.854	859.38
466.073	837.38
466.293	827.38
466.512	826.38
466.732	827.38
466.951	808.38
467.171	809.38
467.391	825.38
467.61	771.38
467.829	787.38
468.049	809.38
468.268	747.38
468.488	731.38
468.707	737.38
468.927	769.38
469.146	738.38
469.365	753.38
469.585	792.38
469.804	789.38
470.023	807.38
470.243	821.38
470.462	816.38
470.681	830.38
470.901	838.38
471.12	783.38
471.339	769.38
471.558	791.38
471.777	763.38
471.997	774.38
472.216	743.38
472.435	747.38
472.654	751.38
472.873	748.38
473.092	718.38
473.311	713.38
473.53	723.38
473.749	749.38
473.968	737.38
474.187	722.38
474.406	735.38
474.625	759.38
474.844	710.38
475.063	738.38
475.282	723.38
475.501	739.38
475.72	753.38
475.939	733.38
476.158	756.38
476.377	759.38
476.596	769.38
476.814	801.38
477.033	804.38
477.252	807.38
477.471	810.38
477.69	823.38
477.908	857.38
478.127	857.38
478.346	879.38
478.564	897.38
478.783	917.38
479.002	915.38
479.22	914.38
479.439	944.38
479.658	916.38
479.876	892.38
480.095	939.38
480.313	971.38
480.532	994.38
480.751	994.38
480.969	938.38
481.188	942.38
481.406	875.38
481.624	866.38
481.843	859.38
482.061	861.38
482.28	855.38
482.498	835.38
482.717	839.38
482.935	827.38
483.153	834.38
483.372	853.38
483.59	850.38
483.808	846.38
484.027	844.38
484.245	885.38
484.463	849.38
484.681	855.38
484.9	889.38
485.118	879.38
485.336	905.38
485.554	879.38
485.772	881.38
485.99	903.38
486.209	935.38
486.427	885.38
486.645	923.38
486.863	907.38
487.081	868.38
487.299	879.38
487.517	909.38
487.735	892.38
487.953	877.38
488.171	870.38
488.389	867.38
488.607	883.38
488.825	842.38
489.043	884.38
489.261	867.38
489.479	884.38
489.696	871.38
489.914	878.38
490.132	895.38
490.35	866.38
490.568	901.38
490.786	904.38
491.003	893.38
491.221	914.38
491.439	916.38
491.657	886.38
491.874	873.38
492.092	855.38
492.31	903.38
492.527	906.38
492.745	901.38
492.963	900.38
493.18	923.38
493.398	924.38
493.615	915.38
493.833	931.38
494.05	929.38
494.268	921.38
494.485	894.38
494.703	917.38
494.92	921.38
495.138	934.38
495.355	950.38
495.573	962.38
495.79	936.38
496.008	907.38
496.225	933.38
496.442	949.38
496.66	948.38
496.877	963.38
497.094	977.38
497.312	997.38
497.529	1010.38
497.746	1029.38
497.963	1077.38
498.181	1095.38
498.398	1172.38
498.615	1269.38
498.832	1316.38
499.049	1390.38
499.267	1554.38
499.484	1679.38
499.701	1884.38
499.918	2089.38
500.135	2392.38
500.352	2758.38
500.569	3018.38
500.786	2933.38
501.003	2740.38
501.22	2415.38
501.437	2087.38
501.654	1823.38
501.871	1655.38
502.088	1499.38
502.305	1380.38
502.522	1347.38
502.739	1273.38
502.956	1230.38
503.172	1146.38
503.389	1112.38
503.606	1075.38
503.823	1061.38
504.04	1041.38
504.256	1057.38
504.473	1085.38
504.69	1145.38
504.907	1097.38
505.123	991.38
505.34	952.38
505.557	953.38
505.773	903.38
505.99	865.38
506.207	873.38
506.423	809.38
506.64	862.38
506.856	812.38
507.073	795.38
507.289	822.38
507.506	819.38
507.722	826.38
507.939	805.38
508.155	797.38
508.372	811.38
508.588	798.38
508.805	762.38
509.021	777.38
509.238	762.38
509.454	768.38
509.67	805.38
509.887	781.38
510.103	763.38
510.319	748.38
510.536	792.38
510.752	753.38
510.968	775.38
511.184	748.38
511.401	750.38
511.617	764.38
511.833	748.38
512.049	777.38
512.265	755.38
512.481	749.38
512.698	761.38
512.914	757.38
513.13	754.38
513.346	750.38
513.562	780.38
513.778	761.38
513.994	759.38
514.21	751.38
514.426	757.38
514.642	791.38
514.858	774.38
515.074	801.38
515.29	780.38
515.506	794.38
515.721	822.38
515.937	825.38
516.153	831.38
516.369	842.38
516.585	843.38
516.801	889.38
517.016	933.38
517.232	966.38
517.448	1055.38
517.664	1071.38
517.879	1078.38
518.095	1080.38
518.311	1069.38
518.527	1006.38
518.742	965.38
518.958	916.38
519.173	905.38
519.389	876.38
519.605	807.38
519.82	800.38
520.036	793.38
520.251	774.38
520.467	765.38
520.682	746.38
520.898	761.38
521.113	766.38
521.329	779.38
521.544	761.38
521.76	734.38
521.975	717.38
522.19	717.38
522.406	717.38
522.621	702.38
522.836	717.38
523.052	715.38
523.267	700.38
523.482	706.38
523.698	707.38
523.913	707.38
524.128	683.38
524.343	693.38
524.559	677.38
524.774	699.38
524.989	689.38
525.204	697.38
525.419	706.38
525.634	708.38
525.849	699.38
526.064	675.38
526.28	700.38
526.495	703.38
526.71	687.38
526.925	708.38
527.14	707.38
527.355	709.38
527.57	695.38
527.785	692.38
527.999	676.38
528.214	677.38
528.429	693.38
528.644	716.38
528.859	705.38
529.074	677.38
529.289	682.38
529.503	707.38
529.718	687.38
529.933	689.38
530.148	691.38
530.363	683.38
530.577	668.38
530.792	673.38
531.007	687.38
531.221	699.38
531.436	698.38
531.651	694.38
531.865	711.38
532.08	690.38
532.295	698.38
532.509	682.38
532.724	709.38
532.938	681.38
533.153	690.38
533.367	710.38
533.582	700.38
533.796	679.38
534.011	685.38
534.225	685.38
534.44	686.38
534.654	685.38
534.868	644.38
535.083	689.38
535.297	679.38
535.511	667.38
535.726	661.38
535.94	670.38
536.154	666.38
536.369	649.38
536.583	645.38
536.797	635.38
537.011	650.38
537.225	619.38
537.44	635.38
537.654	629.38
537.868	613.38
538.082	629.38
538.296	630.38
538.51	627.38
538.724	645.38
538.938	625.38
539.153	652.38
539.367	643.38
539.581	634.38
539.795	619.38
540.009	622.38
540.222	616.38
540.436	635.38
540.65	615.38
540.864	638.38
541.078	611.38
541.292	637.38
541.506	625.38
541.72	598.38
541.934	609.38
542.147	635.38
542.361	623.38
542.575	609.38
542.789	610.38
543.002	589.38
543.216	613.38
543.43	617.38
543.644	601.38
543.857	610.38
544.071	611.38
544.285	626.38
544.498	582.38
544.712	621.38
544.925	605.38
545.139	641.38
545.352	639.38
545.566	642.38
545.779	630.38
545.993	654.38
546.206	645.38
546.42	626.38
546.633	637.38
546.847	638.38
547.06	613.38
547.274	621.38
547.487	620.38
547.7	604.38
547.914	653.38
548.127	621.38
548.34	664.38
548.554	641.38
548.767	621.38
548.98	629.38
549.193	638.38
549.407	631.38
549.62	658.38
549.833	647.38
550.046	632.38
550.259	632.38
550.473	648.38
550.686	633.38
550.899	621.38
551.112	605.38
551.325	651.38
551.538	608.38
551.751	643.38
551.964	619.38
552.177	610.38
552.39	642.38
552.603	672.38
552.816	653.38
553.029	654.38
553.242	675.38
553.455	701.38
553.667	703.38
553.88	684.38
554.093	655.38
554.306	659.38
554.519	628.38
554.732	635.38
554.944	609.38
555.157	614.38
555.37	612.38
555.583	610.38
555.795	567.38
556.008	579.38
556.221	574.38
556.433	531.38
556.646	565.38
556.859	554.38
557.071	567.38
557.284	547.38
557.496	525.38
557.709	564.38
557.921	569.38
558.134	537.38
558.346	537.38
558.559	550.38
558.771	513.38
558.984	542.38
559.196	516.38
559.409	541.38
559.621	530.38
559.833	508.38
560.046	527.38
560.258	507.38
560.47	526.38
560.683	537.38
560.895	515.38
561.107	528.38
561.32	523.38
561.532	518.38
561.744	527.38
561.956	506.38
562.168	513.38
562.381	546.38
562.593	537.38
562.805	521.38
563.017	530.38
563.229	523.38
563.441	538.38
563.653	538.38
563.865	536.38
564.077	558.38
564.289	524.38
564.501	548.38
564.713	549.38
564.925	540.38
565.137	564.38
565.349	583.38
565.561	590.38
565.773	625.38
565.985	650.38
566.197	667.38
566.408	731.38
566.62	803.38
566.832	873.38
567.044	884.38
567.255	873.38
567.467	887.38
567.679	953.38
567.891	1021.38
568.102	1061.38
568.314	1028.38
568.526	895.38
568.737	811.38
568.949	734.38
569.161	685.38
569.372	659.38
569.584	619.38
569.795	575.38
570.007	567.38
570.218	538.38
570.43	553.38
570.641	519.38
570.853	551.38
571.064	563.38
571.276	545.38
571.487	551.38
571.698	499.38
571.91	492.38
572.121	486.38
572.333	470.38
572.544	460.38
572.755	470.38
572.966	450.38
573.178	447.38
573.389	444.38
573.6	429.38
573.811	441.38
574.023	453.38
574.234	442.38
574.445	446.38
574.656	455.38
574.867	439.38
575.078	445.38
575.289	421.38
575.501	427.38
575.712	413.38
575.923	410.38
576.134	425.38
576.345	417.38
576.556	420.38
576.767	412.38
576.978	409.38
577.188	421.38
577.399	404.38
577.61	406.38
577.821	416.38
578.032	406.38
578.243	405.38
578.454	388.38
578.665	409.38
578.875	396.38
579.086	390.38
579.297	374.38
579.508	388.38
579.718	398.38
579.929	384.38
580.14	385.38
580.35	378.38
580.561	376.38
580.772	374.38
580.982	371.38
581.193	374.38
581.403	385.38
581.614	371.38
581.825	378.38
582.035	376.38
582.246	374.38
582.456	381.38
582.667	379.38
582.877	391.38
583.087	369.38
583.298	373.38
583.508	369.38
583.719	381.38
583.929	365.38
584.139	383.38
584.35	377.38
584.56	374.38
584.77	373.38
584.981	362.38
585.191	368.38
585.401	370.38
585.611	365.38
585.821	377.38
586.032	372.38
586.242	366.38
586.452	349.38
586.662	352.38
586.872	369.38
587.082	343.38
587.292	351.38
587.502	361.38
587.713	342.38
587.923	349.38
588.133	357.38
588.343	356.38
588.553	344.38
588.762	354.38
588.972	361.38
589.182	365.38
589.392	356.38
589.602	369.38
589.812	362.38
590.022	348.38
590.232	358.38
590.441	376.38
590.651	376.38
590.861	352.38
591.071	371.38
591.281	356.38
591.49	365.38
591.7	382.38
591.91	383.38
592.119	402.38
592.329	403.38
592.539	397.38
592.748	389.38
592.958	424.38
593.167	446.38
593.377	450.38
593.587	454.38
593.796	449.38
594.006	467.38
594.215	459.38
594.424	507.38
594.634	473.38
594.843	439.38
595.053	429.38
595.262	400.38
595.472	381.38
595.681	385.38
595.89	373.38
596.1	358.38
596.309	371.38
596.518	334.38
596.727	356.38
596.937	339.38
597.146	339.38
597.355	333.38
597.564	352.38
597.774	345.38
597.983	327.38
598.192	316.38
598.401	303.38
598.61	324.38
598.819	318.38
599.028	320.38
599.237	334.38
599.446	306.38
599.655	319.38
599.864	321.38
600.073	332.38
600.282	303.38
600.491	297.38
600.7	317.38
600.909	286.38
601.118	314.38
601.327	319.38
601.536	307.38
601.745	290.38
601.953	306.38
602.162	311.38
602.371	301.38
602.58	291.38
602.789	305.38
602.997	305.38
603.206	287.38
603.415	302.38
603.623	302.38
603.832	296.38
604.041	294.38
604.249	298.38
604.458	301.38
604.666	291.38
604.875	283.38
605.084	300.38
605.292	278.38
605.501	294.38
605.709	298.38
605.918	288.38
606.126	276.38
606.334	278.38
606.543	269.38
606.751	287.38
606.96	284.38
607.168	273.38
607.376	280.38
607.585	302.38
607.793	286.38
608.001	271.38
608.21	282.38
608.418	277.38
608.626	262.38
608.834	268.38
609.043	291.38
609.251	271.38
609.459	275.38
609.667	291.38
609.875	262.38
610.083	263.38
610.291	268.38
610.499	270.38
610.707	276.38
610.916	277.38
611.124	268.38
611.332	282.38
611.54	289.38
611.748	270.38
611.955	285.38
612.163	277.38
612.371	252.38
612.579	258.38
612.787	267.38
612.995	275.38
613.203	280.38
613.411	275.38
613.618	272.38
613.826	259.38
614.034	270.38
614.242	253.38
614.449	258.38
614.657	269.38
614.865	245.38
615.072	257.38
615.28	274.38
615.488	254.38
615.695	277.38
615.903	272.38
616.111	264.38
616.318	269.38
616.526	274.38
616.733	275.38
616.941	272.38
617.148	280.38
617.356	278.38
617.563	264.38
617.771	268.38
617.978	262.38
618.185	242.38
618.393	251.38
618.6	287.38
618.807	281.38
619.015	274.38
619.222	254.38
619.429	263.38
619.637	279.38
619.844	260.38
620.051	261.38
620.258	274.38
620.466	260.38
620.673	252.38
620.88	233.38
621.087	245.38
621.294	241.38
621.501	237.38
621.708	243.38
621.915	260.38
622.122	237.38
622.329	231.38
622.536	220.38
622.743	265.38
622.95	236.38
623.157	239.38
623.364	230.38
623.571	250.38
623.778	222.38
623.985	252.38
624.192	226.38
624.399	215.38
624.606	222.38
624.812	246.38
625.019	231.38
625.226	236.38
625.433	249.38
625.639	233.38
625.846	214.38
626.053	219.38
626.259	235.38
626.466	233.38
626.673	219.38
626.879	209.38
627.086	228.38
627.293	229.38
627.499	209.38
627.706	215.38
627.912	234.38
628.119	221.38
628.325	226.38
628.532	220.38
628.738	234.38
628.945	238.38
629.151	218.38
629.357	219.38
629.564	207.38
629.77	227.38
629.976	218.38
630.183	222.38
630.389	189.38
630.595	198.38
630.802	211.38
631.008	226.38
631.214	206.38
631.42	207.38
631.627	207.38
631.833	202.38
632.039	206.38
632.245	222.38
632.451	199.38
632.657	197.38
632.863	206.38
633.069	190.38
633.275	214.38
633.481	205.38
633.688	195.38
633.893	207.38
634.099	195.38
634.305	207.38
634.511	208.38
634.717	198.38
634.923	194.38
635.129	222.38
635.335	206.38
635.541	198.38
635.747	195.38
635.952	206.38
636.158	203.38
636.364	189.38
636.57	192.38
636.775	196.38
636.981	192.38
637.187	199.38
637.392	185.38
637.598	203.38
637.804	192.38
638.009	185.38
638.215	195.38
638.421	188.38
638.626	195.38
638.832	181.38
639.037	202.38
639.243	185.38
639.448	183.38
639.654	190.38
639.859	174.38
640.065	188.38
640.27	187.38
640.475	194.38
640.681	185.38
640.886	201.38
641.091	174.38
641.297	183.38
641.502	185.38
641.707	177.38
641.913	179.38
642.118	181.38
642.323	186.38
642.528	191.38
642.733	189.38
642.939	182.38
643.144	196.38
643.349	189.38
643.554	179.38
643.759	173.38
643.964	177.38
644.169	173.38
644.374	174.38
644.579	192.38
644.784	181.38
644.989	169.38
645.194	166.38
645.399	182.38
645.604	186.38
645.809	182.38
646.014	186.38
646.219	197.38
646.423	181.38
646.628	182.38
646.833	191.38
647.038	202.38
647.243	179.38
647.447	209.38
647.652	183.38
647.857	187.38
648.062	191.38
648.266	188.38
648.471	198.38
648.676	170.38
648.88	194.38
649.085	179.38
649.289	173.38
649.494	175.38
649.698	191.38
649.903	179.38
650.107	188.38
650.312	181.38
650.516	147.38
650.721	165.38
650.925	161.38
651.13	139.38
651.334	163.38
651.539	158.38
651.743	163.38
651.947	169.38
652.152	165.38
652.356	151.38
652.56	165.38
652.764	164.38
652.969	152.38
653.173	155.38
653.377	167.38
653.581	149.38
653.785	163.38
653.99	141.38
654.194	131.38
654.398	142.38
654.602	141.38
654.806	141.38
655.01	136.38
655.214	154.38
655.418	139.38
655.622	137.38
655.826	141.38
656.03	134.38
656.234	132.38
656.438	144.38
656.642	141.38
656.846	130.38
657.049	134.38
657.253	126.38
657.457	130.38
657.661	119.38
657.865	109.38
658.068	101.38
658.272	126.38
658.476	107.38
658.68	124.38
658.883	117.38
659.087	91.38
659.291	96.38
659.494	124.38
659.698	94.38
659.901	101.38
660.105	93.38
660.309	100.38
660.512	106.38
660.716	109.38
660.919	106.38
661.123	93.38
661.326	100.38
661.53	86.38
661.733	87.38
661.936	84.38
662.14	90.38
662.343	88.38
662.546	88.38
662.75	87.38
662.953	86.38
663.156	94.38
663.36	84.38
663.563	97.38
663.766	90.38
663.969	85.38
664.173	85.38
664.376	78.38
664.579	89.38
664.782	93.38
664.985	85.38
665.188	70.38
665.391	87.38
665.594	84.38
665.797	75.38
666	67.38
666.203	87.38
666.406	84.38
666.609	73.38
666.812	90.38
667.015	83.38
667.218	96.38
667.421	74.38
667.624	84.38
667.827	81.38
668.03	75.38
668.232	89.38
668.435	86.38
668.638	90.38
668.841	82.38
669.043	76.38
669.246	84.38
669.449	83.38
669.651	84.38
669.854	78.38
670.057	85.38
670.259	70.38
670.462	91.38
670.665	83.38
670.867	84.38
671.07	83.38
671.272	83.38
671.475	92.38
671.677	84.38
671.88	88.38
672.082	83.38
672.284	79.38
672.487	67.38
672.689	62.38
672.892	81.38
