Data from Ni(NO3)2@0.5M.TitratingCurve.Agarose3%dH2O.NegLispCup.LampEnergy10.LIBS07252019_HRD10591_17-59-03-564.txt Node
Date: Thu Jul 25 17:59:03 EDT 2019
User: cochatt
Spectrometer: HR+D1059
Trigger mode: 1
Integration Time (sec): 1.000000E-1
Scans to average: 1
Electric dark correction enabled: true
Nonlinearity correction enabled: false
Boxcar width: 0
XAxis mode: Wavelengths
Number of Pixels in Spectrum: 2048
>>>>>Begin Spectral Data<<<<<
223.165	-8.31
223.4	-8.31
223.635	-8.31
223.869	-6.31
224.104	-15.31
224.338	-21.31
224.573	-14.31
224.808	-22.31
225.042	-4.31
225.277	-11.31
225.511	12.69
225.746	-3.31
225.98	3.69
226.215	8.69
226.449	19.69
226.683	15.69
226.918	17.69
227.152	28.69
227.387	32.69
227.621	39.69
227.856	43.69
228.09	43.69
228.324	43.69
228.559	44.69
228.793	77.69
229.027	125.69
229.262	121.69
229.496	124.69
229.73	139.69
229.964	144.69
230.199	185.69
230.433	195.69
230.667	171.69
230.901	159.69
231.136	142.69
231.37	145.69
231.604	176.69
231.838	179.69
232.072	209.69
232.306	171.69
232.541	160.69
232.775	155.69
233.009	152.69
233.243	139.69
233.477	137.69
233.711	161.69
233.945	159.69
234.179	159.69
234.413	159.69
234.647	172.69
234.881	176.69
235.115	155.69
235.349	148.69
235.583	157.69
235.817	161.69
236.051	150.69
236.285	144.69
236.519	147.69
236.753	153.69
236.987	164.69
237.221	155.69
237.455	171.69
237.689	163.69
237.922	173.69
238.156	168.69
238.39	162.69
238.624	174.69
238.858	158.69
239.091	173.69
239.325	175.69
239.559	198.69
239.793	197.69
240.027	222.69
240.26	186.69
240.494	184.69
240.728	180.69
240.961	173.69
241.195	165.69
241.429	192.69
241.662	189.69
241.896	218.69
242.13	213.69
242.363	192.69
242.597	198.69
242.83	192.69
243.064	182.69
243.298	184.69
243.531	189.69
243.765	200.69
243.998	214.69
244.232	212.69
244.465	218.69
244.699	209.69
244.932	205.69
245.166	209.69
245.399	206.69
245.633	209.69
245.866	199.69
246.099	203.69
246.333	200.69
246.566	203.69
246.8	203.69
247.033	212.69
247.266	223.69
247.5	203.69
247.733	212.69
247.966	225.69
248.2	225.69
248.433	226.69
248.666	205.69
248.899	226.69
249.133	227.69
249.366	223.69
249.599	236.69
249.832	239.69
250.066	232.69
250.299	259.69
250.532	228.69
250.765	249.69
250.998	261.69
251.231	259.69
251.465	289.69
251.698	280.69
251.931	276.69
252.164	267.69
252.397	267.69
252.63	257.69
252.863	256.69
253.096	272.69
253.329	280.69
253.562	268.69
253.795	276.69
254.028	276.69
254.261	271.69
254.494	265.69
254.727	257.69
254.96	269.69
255.193	259.69
255.426	267.69
255.659	257.69
255.892	273.69
256.124	273.69
256.357	274.69
256.59	289.69
256.823	273.69
257.056	272.69
257.289	297.69
257.521	300.69
257.754	311.69
257.987	296.69
258.22	285.69
258.452	289.69
258.685	303.69
258.918	281.69
259.151	285.69
259.383	315.69
259.616	300.69
259.849	310.69
260.081	305.69
260.314	306.69
260.547	307.69
260.779	317.69
261.012	328.69
261.244	317.69
261.477	327.69
261.71	343.69
261.942	314.69
262.175	328.69
262.407	334.69
262.64	327.69
262.872	312.69
263.105	328.69
263.337	328.69
263.57	321.69
263.802	318.69
264.035	329.69
264.267	315.69
264.499	328.69
264.732	321.69
264.964	336.69
265.197	341.69
265.429	336.69
265.661	347.69
265.894	339.69
266.126	350.69
266.358	354.69
266.591	345.69
266.823	345.69
267.055	348.69
267.287	356.69
267.52	350.69
267.752	353.69
267.984	376.69
268.216	353.69
268.448	362.69
268.681	376.69
268.913	361.69
269.145	365.69
269.377	373.69
269.609	360.69
269.841	375.69
270.073	367.69
270.306	385.69
270.538	360.69
270.77	361.69
271.002	369.69
271.234	379.69
271.466	348.69
271.698	371.69
271.93	387.69
272.162	388.69
272.394	381.69
272.626	387.69
272.858	375.69
273.09	390.69
273.322	409.69
273.553	384.69
273.785	392.69
274.017	390.69
274.249	406.69
274.481	391.69
274.713	395.69
274.945	404.69
275.176	395.69
275.408	405.69
275.64	406.69
275.872	387.69
276.104	419.69
276.335	407.69
276.567	419.69
276.799	411.69
277.031	423.69
277.262	416.69
277.494	416.69
277.726	435.69
277.957	427.69
278.189	404.69
278.421	422.69
278.652	432.69
278.884	427.69
279.115	433.69
279.347	433.69
279.579	437.69
279.81	441.69
280.042	434.69
280.273	456.69
280.505	441.69
280.736	441.69
280.968	443.69
281.199	426.69
281.431	437.69
281.662	427.69
281.894	437.69
282.125	446.69
282.356	435.69
282.588	449.69
282.819	443.69
283.051	467.69
283.282	448.69
283.513	458.69
283.745	458.69
283.976	456.69
284.207	473.69
284.439	484.69
284.67	451.69
284.901	490.69
285.132	469.69
285.364	472.69
285.595	499.69
285.826	484.69
286.057	475.69
286.288	473.69
286.52	487.69
286.751	468.69
286.982	470.69
287.213	492.69
287.444	492.69
287.675	489.69
287.906	491.69
288.138	467.69
288.369	487.69
288.6	490.69
288.831	508.69
289.062	490.69
289.293	496.69
289.524	492.69
289.755	488.69
289.986	485.69
290.217	479.69
290.448	503.69
290.679	505.69
290.91	476.69
291.141	495.69
291.371	505.69
291.602	518.69
291.833	497.69
292.064	512.69
292.295	491.69
292.526	475.69
292.757	499.69
292.987	513.69
293.218	501.69
293.449	525.69
293.68	499.69
293.91	496.69
294.141	497.69
294.372	495.69
294.603	509.69
294.833	526.69
295.064	503.69
295.295	535.69
295.525	491.69
295.756	537.69
295.987	498.69
296.217	517.69
296.448	516.69
296.679	545.69
296.909	513.69
297.14	508.69
297.37	530.69
297.601	541.69
297.831	525.69
298.062	509.69
298.292	529.69
298.523	543.69
298.753	549.69
298.984	548.69
299.214	553.69
299.445	580.69
299.675	559.69
299.905	550.69
300.136	569.69
300.366	592.69
300.597	599.69
300.827	598.69
301.057	590.69
301.288	581.69
301.518	589.69
301.748	585.69
301.979	576.69
302.209	593.69
302.439	561.69
302.669	565.69
302.9	566.69
303.13	555.69
303.36	589.69
303.59	577.69
303.82	581.69
304.051	604.69
304.281	603.69
304.511	578.69
304.741	590.69
304.971	614.69
305.201	632.69
305.431	624.69
305.661	615.69
305.891	595.69
306.121	609.69
306.352	590.69
306.582	571.69
306.812	601.69
307.042	563.69
307.272	594.69
307.502	579.69
307.731	584.69
307.961	563.69
308.191	607.69
308.421	595.69
308.651	569.69
308.881	570.69
309.111	577.69
309.341	570.69
309.571	616.69
309.8	593.69
310.03	631.69
310.26	627.69
310.49	641.69
310.72	620.69
310.949	631.69
311.179	593.69
311.409	619.69
311.639	615.69
311.868	610.69
312.098	621.69
312.328	635.69
312.557	625.69
312.787	628.69
313.017	630.69
313.246	664.69
313.476	647.69
313.706	644.69
313.935	659.69
314.165	626.69
314.394	641.69
314.624	631.69
314.853	644.69
315.083	639.69
315.312	651.69
315.542	618.69
315.771	653.69
316.001	643.69
316.23	643.69
316.46	625.69
316.689	637.69
316.919	636.69
317.148	676.69
317.377	655.69
317.607	636.69
317.836	649.69
318.065	635.69
318.295	637.69
318.524	656.69
318.753	648.69
318.983	659.69
319.212	665.69
319.441	645.69
319.67	652.69
319.9	661.69
320.129	673.69
320.358	675.69
320.587	689.69
320.816	659.69
321.046	645.69
321.275	664.69
321.504	691.69
321.733	669.69
321.962	690.69
322.191	696.69
322.42	685.69
322.649	691.69
322.878	701.69
323.108	676.69
323.337	696.69
323.566	700.69
323.795	706.69
324.024	703.69
324.253	690.69
324.482	698.69
324.71	699.69
324.939	697.69
325.168	716.69
325.397	716.69
325.626	730.69
325.855	731.69
326.084	731.69
326.313	715.69
326.542	712.69
326.77	738.69
326.999	697.69
327.228	710.69
327.457	734.69
327.686	720.69
327.914	711.69
328.143	739.69
328.372	718.69
328.6	749.69
328.829	737.69
329.058	724.69
329.287	746.69
329.515	731.69
329.744	742.69
329.972	749.69
330.201	743.69
330.43	762.69
330.658	742.69
330.887	744.69
331.115	766.69
331.344	777.69
331.572	760.69
331.801	767.69
332.03	782.69
332.258	776.69
332.486	788.69
332.715	796.69
332.943	794.69
333.172	839.69
333.4	820.69
333.629	835.69
333.857	826.69
334.085	828.69
334.314	834.69
334.542	836.69
334.771	865.69
334.999	854.69
335.227	843.69
335.455	853.69
335.684	842.69
335.912	871.69
336.14	848.69
336.369	899.69
336.597	886.69
336.825	888.69
337.053	907.69
337.281	866.69
337.51	858.69
337.738	847.69
337.966	833.69
338.194	851.69
338.422	844.69
338.65	822.69
338.878	777.69
339.106	846.69
339.334	866.69
339.562	827.69
339.79	809.69
340.018	812.69
340.246	830.69
340.474	792.69
340.702	807.69
340.93	803.69
341.158	841.69
341.386	828.69
341.614	884.69
341.842	872.69
342.07	812.69
342.298	833.69
342.526	801.69
342.754	805.69
342.981	777.69
343.209	811.69
343.437	869.69
343.665	859.69
343.893	876.69
344.12	857.69
344.348	845.69
344.576	873.69
344.804	868.69
345.031	837.69
345.259	837.69
345.487	849.69
345.714	835.69
345.942	856.69
346.17	876.69
346.397	830.69
346.625	812.69
346.853	791.69
347.08	767.69
347.308	787.69
347.535	782.69
347.763	782.69
347.99	786.69
348.218	781.69
348.445	776.69
348.673	797.69
348.9	753.69
349.128	796.69
349.355	802.69
349.583	825.69
349.81	783.69
350.037	747.69
350.265	762.69
350.492	759.69
350.72	768.69
350.947	790.69
351.174	778.69
351.402	798.69
351.629	841.69
351.856	838.69
352.083	791.69
352.311	798.69
352.538	849.69
352.765	864.69
352.992	769.69
353.22	764.69
353.447	728.69
353.674	755.69
353.901	731.69
354.128	744.69
354.355	737.69
354.583	760.69
354.81	751.69
355.037	745.69
355.264	746.69
355.491	738.69
355.718	725.69
355.945	747.69
356.172	783.69
356.399	758.69
356.626	821.69
356.853	826.69
357.08	778.69
357.307	760.69
357.534	745.69
357.761	774.69
357.988	749.69
358.215	764.69
358.441	731.69
358.668	770.69
358.895	752.69
359.122	759.69
359.349	757.69
359.576	775.69
359.802	789.69
360.029	751.69
360.256	779.69
360.483	755.69
360.709	775.69
360.936	798.69
361.163	790.69
361.39	779.69
361.616	805.69
361.843	805.69
362.07	842.69
362.296	813.69
362.523	770.69
362.749	781.69
362.976	760.69
363.203	741.69
363.429	734.69
363.656	756.69
363.882	796.69
364.109	741.69
364.335	743.69
364.562	759.69
364.788	780.69
365.015	775.69
365.241	739.69
365.468	767.69
365.694	749.69
365.92	773.69
366.147	765.69
366.373	801.69
366.599	767.69
366.826	779.69
367.052	746.69
367.278	780.69
367.505	771.69
367.731	771.69
367.957	772.69
368.184	763.69
368.41	787.69
368.636	781.69
368.862	802.69
369.089	777.69
369.315	774.69
369.541	785.69
369.767	792.69
369.993	776.69
370.219	797.69
370.445	803.69
370.672	803.69
370.898	801.69
371.124	804.69
371.35	803.69
371.576	796.69
371.802	806.69
372.028	832.69
372.254	823.69
372.48	824.69
372.706	840.69
372.932	829.69
373.158	844.69
373.384	849.69
373.61	822.69
373.835	835.69
374.061	789.69
374.287	842.69
374.513	837.69
374.739	847.69
374.965	838.69
375.191	845.69
375.416	831.69
375.642	822.69
375.868	844.69
376.094	822.69
376.319	853.69
376.545	804.69
376.771	837.69
376.997	823.69
377.222	792.69
377.448	817.69
377.674	815.69
377.899	827.69
378.125	795.69
378.35	828.69
378.576	787.69
378.802	826.69
379.027	814.69
379.253	819.69
379.478	803.69
379.704	784.69
379.929	823.69
380.155	818.69
380.38	813.69
380.606	832.69
380.831	819.69
381.057	811.69
381.282	802.69
381.507	828.69
381.733	789.69
381.958	810.69
382.184	817.69
382.409	827.69
382.634	831.69
382.86	820.69
383.085	856.69
383.31	844.69
383.535	844.69
383.761	842.69
383.986	871.69
384.211	875.69
384.436	862.69
384.662	863.69
384.887	888.69
385.112	906.69
385.337	908.69
385.562	898.69
385.787	916.69
386.013	911.69
386.238	900.69
386.463	921.69
386.688	921.69
386.913	943.69
387.138	924.69
387.363	920.69
387.588	911.69
387.813	929.69
388.038	912.69
388.263	938.69
388.488	923.69
388.713	924.69
388.938	940.69
389.163	922.69
389.387	918.69
389.612	913.69
389.837	964.69
390.062	901.69
390.287	939.69
390.512	949.69
390.736	935.69
390.961	943.69
391.186	943.69
391.411	940.69
391.636	988.69
391.86	947.69
392.085	955.69
392.31	991.69
392.534	966.69
392.759	971.69
392.984	962.69
393.208	987.69
393.433	984.69
393.658	1007.69
393.882	957.69
394.107	967.69
394.331	973.69
394.556	969.69
394.78	980.69
395.005	952.69
395.229	999.69
395.454	998.69
395.678	1006.69
395.903	1031.69
396.127	1008.69
396.352	1011.69
396.576	993.69
396.801	995.69
397.025	991.69
397.249	1021.69
397.474	1048.69
397.698	1037.69
397.922	1065.69
398.147	996.69
398.371	1057.69
398.595	1049.69
398.82	1105.69
399.044	1092.69
399.268	1159.69
399.492	1245.69
399.717	1260.69
399.941	1267.69
400.165	1240.69
400.389	1226.69
400.613	1203.69
400.837	1150.69
401.062	1137.69
401.286	1116.69
401.51	1105.69
401.734	1122.69
401.958	1119.69
402.182	1085.69
402.406	1089.69
402.63	1078.69
402.854	1095.69
403.078	1129.69
403.302	1085.69
403.526	1139.69
403.75	1119.69
403.974	1110.69
404.198	1091.69
404.422	1121.69
404.645	1130.69
404.869	1119.69
405.093	1125.69
405.317	1137.69
405.541	1118.69
405.765	1118.69
405.988	1109.69
406.212	1124.69
406.436	1140.69
406.66	1151.69
406.883	1176.69
407.107	1207.69
407.331	1249.69
407.555	1264.69
407.778	1231.69
408.002	1232.69
408.226	1234.69
408.449	1245.69
408.673	1216.69
408.896	1205.69
409.12	1219.69
409.344	1201.69
409.567	1159.69
409.791	1146.69
410.014	1194.69
410.238	1159.69
410.461	1138.69
410.685	1149.69
410.908	1185.69
411.132	1159.69
411.355	1142.69
411.578	1148.69
411.802	1151.69
412.025	1141.69
412.249	1139.69
412.472	1160.69
412.695	1150.69
412.919	1142.69
413.142	1087.69
413.365	1108.69
413.589	1124.69
413.812	1116.69
414.035	1113.69
414.258	1110.69
414.482	1098.69
414.705	1105.69
414.928	1080.69
415.151	1093.69
415.374	1127.69
415.597	1068.69
415.821	1064.69
416.044	1090.69
416.267	1075.69
416.49	1071.69
416.713	1034.69
416.936	1055.69
417.159	1041.69
417.382	1041.69
417.605	1062.69
417.828	1061.69
418.051	1059.69
418.274	1040.69
418.497	1017.69
418.72	1064.69
418.943	1047.69
419.166	1103.69
419.389	1185.69
419.611	1179.69
419.834	1106.69
420.057	1092.69
420.28	1051.69
420.503	1040.69
420.726	1053.69
420.948	1057.69
421.171	1028.69
421.394	1045.69
421.617	1031.69
421.839	1035.69
422.062	1035.69
422.285	1051.69
422.507	1051.69
422.73	1066.69
422.953	1042.69
423.175	1062.69
423.398	1075.69
423.621	1040.69
423.843	1060.69
424.066	1098.69
424.288	1049.69
424.511	1042.69
424.733	1029.69
424.956	1025.69
425.178	1032.69
425.401	1055.69
425.623	1037.69
425.846	1046.69
426.068	1048.69
426.291	1042.69
426.513	1025.69
426.735	1036.69
426.958	1030.69
427.18	1010.69
427.402	1029.69
427.625	1030.69
427.847	1015.69
428.069	1016.69
428.292	1026.69
428.514	1014.69
428.736	1012.69
428.958	1046.69
429.181	1007.69
429.403	1002.69
429.625	1004.69
429.847	999.69
430.069	1004.69
430.292	1017.69
430.514	987.69
430.736	1012.69
430.958	1002.69
431.18	997.69
431.402	1025.69
431.624	983.69
431.846	993.69
432.068	977.69
432.29	1027.69
432.512	1001.69
432.734	1026.69
432.956	1041.69
433.178	1034.69
433.4	1076.69
433.622	1072.69
433.844	1052.69
434.066	1030.69
434.287	1038.69
434.509	1050.69
434.731	1056.69
434.953	1052.69
435.175	1081.69
435.397	1084.69
435.618	1060.69
435.84	1055.69
436.062	1024.69
436.284	1010.69
436.505	1036.69
436.727	1020.69
436.949	1031.69
437.17	1019.69
437.392	1042.69
437.614	1014.69
437.835	992.69
438.057	1000.69
438.278	954.69
438.5	959.69
438.721	1000.69
438.943	1011.69
439.165	990.69
439.386	996.69
439.608	1009.69
439.829	1024.69
440.05	976.69
440.272	1031.69
440.493	1028.69
440.715	1043.69
440.936	1029.69
441.158	1049.69
441.379	1041.69
441.6	1097.69
441.822	1075.69
442.043	1049.69
442.264	1072.69
442.486	1032.69
442.707	1064.69
442.928	1060.69
443.149	1060.69
443.371	1099.69
443.592	1148.69
443.813	1141.69
444.034	1112.69
444.255	1117.69
444.476	1093.69
444.698	1123.69
444.919	1139.69
445.14	1260.69
445.361	1156.69
445.582	1118.69
445.803	1071.69
446.024	1066.69
446.245	1045.69
446.466	1047.69
446.687	1008.69
446.908	1024.69
447.129	976.69
447.35	1001.69
447.571	991.69
447.792	956.69
448.013	971.69
448.234	962.69
448.455	950.69
448.675	945.69
448.896	921.69
449.117	923.69
449.338	938.69
449.559	935.69
449.779	932.69
450	887.69
450.221	930.69
450.442	951.69
450.662	943.69
450.883	972.69
451.104	955.69
451.324	934.69
451.545	921.69
451.766	933.69
451.986	908.69
452.207	917.69
452.428	895.69
452.648	901.69
452.869	929.69
453.089	903.69
453.31	938.69
453.53	919.69
453.751	899.69
453.971	899.69
454.192	918.69
454.412	931.69
454.633	907.69
454.853	916.69
455.073	893.69
455.294	894.69
455.514	909.69
455.734	921.69
455.955	931.69
456.175	899.69
456.395	926.69
456.616	874.69
456.836	897.69
457.056	880.69
457.276	895.69
457.497	919.69
457.717	915.69
457.937	959.69
458.157	917.69
458.377	914.69
458.598	934.69
458.818	947.69
459.038	934.69
459.258	993.69
459.478	1061.69
459.698	1120.69
459.918	1130.69
460.138	1094.69
460.358	1092.69
460.578	1095.69
460.798	1129.69
461.018	1163.69
461.238	1127.69
461.458	1082.69
461.678	1070.69
461.898	1112.69
462.118	1099.69
462.338	1175.69
462.558	1169.69
462.777	1238.69
462.997	1274.69
463.217	1271.69
463.437	1318.69
463.657	1289.69
463.876	1218.69
464.096	1224.69
464.316	1220.69
464.536	1178.69
464.755	1168.69
464.975	1151.69
465.195	1135.69
465.414	1112.69
465.634	1098.69
465.854	1069.69
466.073	1042.69
466.293	998.69
466.512	1001.69
466.732	1003.69
466.951	1011.69
467.171	1007.69
467.391	979.69
467.61	975.69
467.829	973.69
468.049	957.69
468.268	961.69
468.488	989.69
468.707	970.69
468.927	990.69
469.146	985.69
469.365	1019.69
469.585	1000.69
469.804	995.69
470.023	979.69
470.243	977.69
470.462	985.69
470.681	1004.69
470.901	1025.69
471.12	1012.69
471.339	984.69
471.558	990.69
471.777	1000.69
471.997	994.69
472.216	995.69
472.435	972.69
472.654	986.69
472.873	933.69
473.092	971.69
473.311	999.69
473.53	996.69
473.749	961.69
473.968	966.69
474.187	979.69
474.406	979.69
474.625	954.69
474.844	996.69
475.063	987.69
475.282	1037.69
475.501	993.69
475.72	994.69
475.939	996.69
476.158	1018.69
476.377	995.69
476.596	984.69
476.814	1021.69
477.033	1049.69
477.252	1066.69
477.471	1066.69
477.69	1059.69
477.908	1058.69
478.127	1090.69
478.346	1104.69
478.564	1114.69
478.783	1130.69
479.002	1173.69
479.22	1199.69
479.439	1193.69
479.658	1172.69
479.876	1165.69
480.095	1181.69
480.313	1146.69
480.532	1157.69
480.751	1166.69
480.969	1164.69
481.188	1161.69
481.406	1169.69
481.624	1179.69
481.843	1135.69
482.061	1126.69
482.28	1093.69
482.498	1099.69
482.717	1127.69
482.935	1126.69
483.153	1165.69
483.372	1213.69
483.59	1211.69
483.808	1167.69
484.027	1169.69
484.245	1177.69
484.463	1141.69
484.681	1153.69
484.9	1185.69
485.118	1160.69
485.336	1167.69
485.554	1151.69
485.772	1150.69
485.99	1172.69
486.209	1179.69
486.427	1157.69
486.645	1164.69
486.863	1158.69
487.081	1211.69
487.299	1194.69
487.517	1185.69
487.735	1187.69
487.953	1190.69
488.171	1225.69
488.389	1183.69
488.607	1210.69
488.825	1159.69
489.043	1162.69
489.261	1152.69
489.479	1219.69
489.696	1147.69
489.914	1184.69
490.132	1176.69
490.35	1181.69
490.568	1168.69
490.786	1204.69
491.003	1212.69
491.221	1206.69
491.439	1204.69
491.657	1188.69
491.874	1205.69
492.092	1226.69
492.31	1237.69
492.527	1224.69
492.745	1218.69
492.963	1237.69
493.18	1235.69
493.398	1211.69
493.615	1240.69
493.833	1229.69
494.05	1216.69
494.268	1245.69
494.485	1245.69
494.703	1232.69
494.92	1234.69
495.138	1216.69
495.355	1230.69
495.573	1267.69
495.79	1259.69
496.008	1312.69
496.225	1268.69
496.442	1299.69
496.66	1278.69
496.877	1333.69
497.094	1353.69
497.312	1361.69
497.529	1343.69
497.746	1401.69
497.963	1415.69
498.181	1425.69
498.398	1509.69
498.615	1537.69
498.832	1593.69
499.049	1614.69
499.267	1691.69
499.484	1735.69
499.701	1836.69
499.918	1914.69
500.135	1992.69
500.352	2054.69
500.569	2063.69
500.786	2083.69
501.003	1985.69
501.22	1957.69
501.437	1927.69
501.654	1794.69
501.871	1697.69
502.088	1685.69
502.305	1653.69
502.522	1590.69
502.739	1519.69
502.956	1482.69
503.172	1450.69
503.389	1426.69
503.606	1380.69
503.823	1361.69
504.04	1378.69
504.256	1335.69
504.473	1331.69
504.69	1285.69
504.907	1286.69
505.123	1259.69
505.34	1224.69
505.557	1195.69
505.773	1223.69
505.99	1185.69
506.207	1144.69
506.423	1142.69
506.64	1119.69
506.856	1146.69
507.073	1109.69
507.289	1115.69
507.506	1102.69
507.722	1109.69
507.939	1064.69
508.155	1115.69
508.372	1069.69
508.588	1031.69
508.805	1064.69
509.021	1059.69
509.238	1024.69
509.454	1044.69
509.67	1027.69
509.887	1037.69
510.103	1044.69
510.319	991.69
510.536	1017.69
510.752	961.69
510.968	999.69
511.184	996.69
511.401	1026.69
511.617	985.69
511.833	1012.69
512.049	986.69
512.265	962.69
512.481	977.69
512.698	969.69
512.914	1011.69
513.13	977.69
513.346	990.69
513.562	980.69
513.778	1007.69
513.994	994.69
514.21	1003.69
514.426	980.69
514.642	988.69
514.858	993.69
515.074	1014.69
515.29	1011.69
515.506	1004.69
515.721	1015.69
515.937	995.69
516.153	1043.69
516.369	1042.69
516.585	1036.69
516.801	1052.69
517.016	1082.69
517.232	1082.69
517.448	1085.69
517.664	1120.69
517.879	1130.69
518.095	1103.69
518.311	1093.69
518.527	1075.69
518.742	1083.69
518.958	1046.69
519.173	1011.69
519.389	1003.69
519.605	1011.69
519.82	985.69
520.036	985.69
520.251	1008.69
520.467	976.69
520.682	985.69
520.898	963.69
521.113	956.69
521.329	952.69
521.544	931.69
521.76	937.69
521.975	945.69
522.19	917.69
522.406	938.69
522.621	929.69
522.836	931.69
523.052	934.69
523.267	955.69
523.482	933.69
523.698	899.69
523.913	901.69
524.128	926.69
524.343	905.69
524.559	899.69
524.774	900.69
524.989	900.69
525.204	890.69
525.419	870.69
525.634	875.69
525.849	877.69
526.064	904.69
526.28	871.69
526.495	858.69
526.71	861.69
526.925	871.69
527.14	872.69
527.355	852.69
527.57	849.69
527.785	855.69
527.999	871.69
528.214	872.69
528.429	871.69
528.644	886.69
528.859	872.69
529.074	869.69
529.289	892.69
529.503	871.69
529.718	874.69
529.933	839.69
530.148	839.69
530.363	860.69
530.577	834.69
530.792	857.69
531.007	842.69
531.221	851.69
531.436	837.69
531.651	859.69
531.865	822.69
532.08	853.69
532.295	849.69
532.509	853.69
532.724	845.69
532.938	839.69
533.153	828.69
533.367	818.69
533.582	849.69
533.796	844.69
534.011	849.69
534.225	819.69
534.44	840.69
534.654	803.69
534.868	817.69
535.083	832.69
535.297	834.69
535.511	802.69
535.726	817.69
535.94	787.69
536.154	817.69
536.369	776.69
536.583	810.69
536.797	821.69
537.011	795.69
537.225	793.69
537.44	791.69
537.654	786.69
537.868	809.69
538.082	793.69
538.296	778.69
538.51	802.69
538.724	784.69
538.938	795.69
539.153	787.69
539.367	779.69
539.581	798.69
539.795	767.69
540.009	778.69
540.222	776.69
540.436	793.69
540.65	747.69
540.864	792.69
541.078	776.69
541.292	791.69
541.506	765.69
541.72	775.69
541.934	774.69
542.147	810.69
542.361	779.69
542.575	744.69
542.789	769.69
543.002	768.69
543.216	769.69
543.43	760.69
543.644	753.69
543.857	771.69
544.071	754.69
544.285	785.69
544.498	772.69
544.712	748.69
544.925	780.69
545.139	773.69
545.352	769.69
545.566	753.69
545.779	765.69
545.993	769.69
546.206	796.69
546.42	749.69
546.633	762.69
546.847	778.69
547.06	749.69
547.274	789.69
547.487	733.69
547.7	758.69
547.914	803.69
548.127	769.69
548.34	776.69
548.554	739.69
548.767	747.69
548.98	752.69
549.193	755.69
549.407	778.69
549.62	756.69
549.833	767.69
550.046	786.69
550.259	782.69
550.473	768.69
550.686	753.69
550.899	768.69
551.112	775.69
551.325	736.69
551.538	746.69
551.751	753.69
551.964	769.69
552.177	741.69
552.39	759.69
552.603	753.69
552.816	796.69
553.029	769.69
553.242	801.69
553.455	754.69
553.667	756.69
553.88	761.69
554.093	735.69
554.306	742.69
554.519	721.69
554.732	736.69
554.944	720.69
555.157	699.69
555.37	715.69
555.583	711.69
555.795	717.69
556.008	745.69
556.221	676.69
556.433	682.69
556.646	684.69
556.859	687.69
557.071	683.69
557.284	667.69
557.496	662.69
557.709	677.69
557.921	665.69
558.134	668.69
558.346	664.69
558.559	641.69
558.771	652.69
558.984	661.69
559.196	655.69
559.409	644.69
559.621	667.69
559.833	648.69
560.046	628.69
560.258	650.69
560.47	648.69
560.683	658.69
560.895	619.69
561.107	654.69
561.32	647.69
561.532	659.69
561.744	639.69
561.956	636.69
562.168	660.69
562.381	652.69
562.593	659.69
562.805	639.69
563.017	642.69
563.229	701.69
563.441	630.69
563.653	641.69
563.865	670.69
564.077	659.69
564.289	673.69
564.501	681.69
564.713	672.69
564.925	676.69
565.137	701.69
565.349	683.69
565.561	715.69
565.773	719.69
565.985	729.69
566.197	746.69
566.408	747.69
566.62	788.69
566.832	793.69
567.044	809.69
567.255	800.69
567.467	838.69
567.679	797.69
567.891	834.69
568.102	808.69
568.314	789.69
568.526	757.69
568.737	754.69
568.949	735.69
569.161	693.69
569.372	685.69
569.584	659.69
569.795	679.69
570.007	637.69
570.218	645.69
570.43	645.69
570.641	648.69
570.853	605.69
571.064	618.69
571.276	594.69
571.487	601.69
571.698	584.69
571.91	554.69
572.121	574.69
572.333	570.69
572.544	582.69
572.755	539.69
572.966	575.69
573.178	537.69
573.389	544.69
573.6	514.69
573.811	541.69
574.023	512.69
574.234	533.69
574.445	513.69
574.656	531.69
574.867	527.69
575.078	509.69
575.289	506.69
575.501	497.69
575.712	507.69
575.923	507.69
576.134	510.69
576.345	500.69
576.556	506.69
576.767	491.69
576.978	509.69
577.188	486.69
577.399	488.69
577.61	512.69
577.821	485.69
578.032	488.69
578.243	470.69
578.454	474.69
578.665	498.69
578.875	475.69
579.086	444.69
579.297	465.69
579.508	454.69
579.718	460.69
579.929	467.69
580.14	475.69
580.35	458.69
580.561	452.69
580.772	450.69
580.982	460.69
581.193	436.69
581.403	451.69
581.614	456.69
581.825	428.69
582.035	452.69
582.246	421.69
582.456	454.69
582.667	435.69
582.877	447.69
583.087	440.69
583.298	440.69
583.508	437.69
583.719	437.69
583.929	447.69
584.139	419.69
584.35	433.69
584.56	430.69
584.77	439.69
584.981	432.69
585.191	432.69
585.401	440.69
585.611	428.69
585.821	434.69
586.032	414.69
586.242	431.69
586.452	419.69
586.662	417.69
586.872	418.69
587.082	420.69
587.292	425.69
587.502	429.69
587.713	456.69
587.923	403.69
588.133	429.69
588.343	435.69
588.553	422.69
588.762	422.69
588.972	417.69
589.182	454.69
589.392	453.69
589.602	423.69
589.812	440.69
590.022	426.69
590.232	426.69
590.441	426.69
590.651	428.69
590.861	431.69
591.071	435.69
591.281	432.69
591.49	405.69
591.7	423.69
591.91	435.69
592.119	435.69
592.329	435.69
592.539	427.69
592.748	406.69
592.958	421.69
593.167	459.69
593.377	440.69
593.587	428.69
593.796	427.69
594.006	438.69
594.215	449.69
594.424	438.69
594.634	431.69
594.843	427.69
595.053	422.69
595.262	421.69
595.472	413.69
595.681	412.69
595.89	407.69
596.1	394.69
596.309	383.69
596.518	387.69
596.727	398.69
596.937	385.69
597.146	370.69
597.355	378.69
597.564	364.69
597.774	373.69
597.983	383.69
598.192	371.69
598.401	372.69
598.61	387.69
598.819	383.69
599.028	379.69
599.237	359.69
599.446	360.69
599.655	368.69
599.864	352.69
600.073	355.69
600.282	344.69
600.491	358.69
600.7	362.69
600.909	369.69
601.118	351.69
601.327	351.69
601.536	351.69
601.745	336.69
601.953	361.69
602.162	364.69
602.371	336.69
602.58	351.69
602.789	355.69
602.997	323.69
603.206	321.69
603.415	343.69
603.623	321.69
603.832	338.69
604.041	345.69
604.249	340.69
604.458	344.69
604.666	336.69
604.875	315.69
605.084	344.69
605.292	331.69
605.501	343.69
605.709	329.69
605.918	354.69
606.126	332.69
606.334	317.69
606.543	329.69
606.751	331.69
606.96	329.69
607.168	347.69
607.376	340.69
607.585	333.69
607.793	328.69
608.001	318.69
608.21	326.69
608.418	316.69
608.626	296.69
608.834	327.69
609.043	333.69
609.251	308.69
609.459	325.69
609.667	327.69
609.875	313.69
610.083	316.69
610.291	317.69
610.499	314.69
610.707	315.69
610.916	322.69
611.124	339.69
611.332	321.69
611.54	316.69
611.748	326.69
611.955	299.69
612.163	309.69
612.371	313.69
612.579	295.69
612.787	299.69
612.995	307.69
613.203	293.69
613.411	305.69
613.618	303.69
613.826	323.69
614.034	328.69
614.242	293.69
614.449	296.69
614.657	293.69
614.865	287.69
615.072	286.69
615.28	298.69
615.488	289.69
615.695	317.69
615.903	303.69
616.111	301.69
616.318	275.69
616.526	282.69
616.733	317.69
616.941	306.69
617.148	303.69
617.356	288.69
617.563	293.69
617.771	304.69
617.978	288.69
618.185	291.69
618.393	298.69
618.6	293.69
618.807	296.69
619.015	296.69
619.222	283.69
619.429	283.69
619.637	281.69
619.844	286.69
620.051	288.69
620.258	276.69
620.466	310.69
620.673	291.69
620.88	270.69
621.087	284.69
621.294	293.69
621.501	284.69
621.708	288.69
621.915	276.69
622.122	284.69
622.329	282.69
622.536	290.69
622.743	286.69
622.95	275.69
623.157	277.69
623.364	265.69
623.571	293.69
623.778	273.69
623.985	283.69
624.192	287.69
624.399	280.69
624.606	268.69
624.812	267.69
625.019	251.69
625.226	279.69
625.433	283.69
625.639	271.69
625.846	273.69
626.053	272.69
626.259	257.69
626.466	279.69
626.673	256.69
626.879	253.69
627.086	268.69
627.293	265.69
627.499	274.69
627.706	268.69
627.912	273.69
628.119	267.69
628.325	272.69
628.532	262.69
628.738	257.69
628.945	257.69
629.151	239.69
629.357	260.69
629.564	282.69
629.77	233.69
629.976	261.69
630.183	259.69
630.389	230.69
630.595	259.69
630.802	247.69
631.008	255.69
631.214	250.69
631.42	253.69
631.627	266.69
631.833	244.69
632.039	239.69
632.245	249.69
632.451	266.69
632.657	255.69
632.863	249.69
633.069	247.69
633.275	250.69
633.481	242.69
633.688	247.69
633.893	240.69
634.099	239.69
634.305	235.69
634.511	235.69
634.717	244.69
634.923	231.69
635.129	219.69
635.335	229.69
635.541	231.69
635.747	228.69
635.952	252.69
636.158	234.69
636.364	239.69
636.57	234.69
636.775	235.69
636.981	232.69
637.187	231.69
637.392	230.69
637.598	220.69
637.804	239.69
638.009	220.69
638.215	227.69
638.421	244.69
638.626	231.69
638.832	240.69
639.037	221.69
639.243	231.69
639.448	217.69
639.654	232.69
639.859	219.69
640.065	240.69
640.27	245.69
640.475	221.69
640.681	229.69
640.886	231.69
641.091	223.69
641.297	223.69
641.502	220.69
641.707	221.69
641.913	226.69
642.118	211.69
642.323	206.69
642.528	220.69
642.733	223.69
642.939	220.69
643.144	210.69
643.349	231.69
643.554	230.69
643.759	212.69
643.964	220.69
644.169	213.69
644.374	223.69
644.579	233.69
644.784	220.69
644.989	235.69
645.194	214.69
645.399	230.69
645.604	229.69
645.809	218.69
646.014	216.69
646.219	247.69
646.423	244.69
646.628	242.69
646.833	237.69
647.038	238.69
647.243	239.69
647.447	213.69
647.652	237.69
647.857	226.69
648.062	228.69
648.266	235.69
648.471	225.69
648.676	211.69
648.88	231.69
649.085	242.69
649.289	236.69
649.494	234.69
649.698	221.69
649.903	241.69
650.107	231.69
650.312	244.69
650.516	217.69
650.721	235.69
650.925	228.69
651.13	228.69
651.334	237.69
651.539	211.69
651.743	220.69
651.947	236.69
652.152	229.69
652.356	224.69
652.56	214.69
652.764	228.69
652.969	212.69
653.173	220.69
653.377	213.69
653.581	210.69
653.785	231.69
653.99	222.69
654.194	193.69
654.398	208.69
654.602	213.69
654.806	222.69
655.01	208.69
655.214	200.69
655.418	215.69
655.622	231.69
655.826	215.69
656.03	220.69
656.234	216.69
656.438	224.69
656.642	207.69
656.846	216.69
657.049	202.69
657.253	215.69
657.457	204.69
657.661	188.69
657.865	165.69
658.068	163.69
658.272	164.69
658.476	146.69
658.68	155.69
658.883	153.69
659.087	130.69
659.291	128.69
659.494	131.69
659.698	127.69
659.901	121.69
660.105	120.69
660.309	107.69
660.512	117.69
660.716	121.69
660.919	106.69
661.123	92.69
661.326	101.69
661.53	107.69
661.733	92.69
661.936	108.69
662.14	99.69
662.343	92.69
662.546	91.69
662.75	84.69
662.953	107.69
663.156	85.69
663.36	83.69
663.563	82.69
663.766	88.69
663.969	84.69
664.173	87.69
664.376	82.69
664.579	89.69
664.782	92.69
664.985	92.69
665.188	96.69
665.391	75.69
665.594	90.69
665.797	60.69
666	80.69
666.203	73.69
666.406	88.69
666.609	88.69
666.812	80.69
667.015	75.69
667.218	87.69
667.421	81.69
667.624	85.69
667.827	95.69
668.03	85.69
668.232	74.69
668.435	71.69
668.638	67.69
668.841	74.69
669.043	67.69
669.246	74.69
669.449	76.69
669.651	83.69
669.854	77.69
670.057	82.69
670.259	83.69
670.462	85.69
670.665	85.69
670.867	73.69
671.07	74.69
671.272	86.69
671.475	96.69
671.677	85.69
671.88	81.69
672.082	83.69
672.284	77.69
672.487	87.69
672.689	78.69
672.892	90.69
