Data from Ni(NO3)2@0.5M.TitratingCurve.Agarose3%dH2O.NegLispCup.LampEnergy10.LIBS07252019_HRD10591_18-00-00-564.txt Node
Date: Thu Jul 25 18:00:00 EDT 2019
User: cochatt
Spectrometer: HR+D1059
Trigger mode: 1
Integration Time (sec): 1.000000E-1
Scans to average: 1
Electric dark correction enabled: true
Nonlinearity correction enabled: false
Boxcar width: 0
XAxis mode: Wavelengths
Number of Pixels in Spectrum: 2048
>>>>>Begin Spectral Data<<<<<
223.165	-11.25
223.4	-11.25
223.635	-11.25
223.869	-23.25
224.104	-21.25
224.338	-23.25
224.573	-16.25
224.808	-10.25
225.042	0.75
225.277	-3.25
225.511	-6.25
225.746	-5.25
225.98	16.75
226.215	19.75
226.449	9.75
226.683	19.75
226.918	26.75
227.152	26.75
227.387	42.75
227.621	35.75
227.856	52.75
228.09	43.75
228.324	48.75
228.559	53.75
228.793	78.75
229.027	119.75
229.262	124.75
229.496	107.75
229.73	124.75
229.964	140.75
230.199	165.75
230.433	174.75
230.667	164.75
230.901	160.75
231.136	130.75
231.37	147.75
231.604	151.75
231.838	175.75
232.072	178.75
232.306	166.75
232.541	164.75
232.775	142.75
233.009	157.75
233.243	157.75
233.477	154.75
233.711	160.75
233.945	151.75
234.179	166.75
234.413	157.75
234.647	154.75
234.881	172.75
235.115	151.75
235.349	153.75
235.583	152.75
235.817	146.75
236.051	160.75
236.285	157.75
236.519	149.75
236.753	153.75
236.987	150.75
237.221	145.75
237.455	176.75
237.689	157.75
237.922	155.75
238.156	154.75
238.39	164.75
238.624	159.75
238.858	173.75
239.091	176.75
239.325	165.75
239.559	183.75
239.793	205.75
240.027	174.75
240.26	171.75
240.494	160.75
240.728	175.75
240.961	173.75
241.195	175.75
241.429	166.75
241.662	194.75
241.896	207.75
242.13	202.75
242.363	200.75
242.597	184.75
242.83	181.75
243.064	195.75
243.298	213.75
243.531	192.75
243.765	211.75
243.998	206.75
244.232	207.75
244.465	195.75
244.699	196.75
244.932	185.75
245.166	207.75
245.399	213.75
245.633	199.75
245.866	200.75
246.099	196.75
246.333	201.75
246.566	195.75
246.8	206.75
247.033	219.75
247.266	226.75
247.5	218.75
247.733	220.75
247.966	227.75
248.2	221.75
248.433	231.75
248.666	232.75
248.899	213.75
249.133	228.75
249.366	224.75
249.599	248.75
249.832	233.75
250.066	242.75
250.299	236.75
250.532	244.75
250.765	234.75
250.998	254.75
251.231	255.75
251.465	257.75
251.698	268.75
251.931	262.75
252.164	256.75
252.397	279.75
252.63	236.75
252.863	280.75
253.096	243.75
253.329	267.75
253.562	260.75
253.795	256.75
254.028	261.75
254.261	266.75
254.494	278.75
254.727	270.75
254.96	272.75
255.193	284.75
255.426	262.75
255.659	267.75
255.892	283.75
256.124	275.75
256.357	278.75
256.59	296.75
256.823	272.75
257.056	290.75
257.289	282.75
257.521	281.75
257.754	287.75
257.987	286.75
258.22	283.75
258.452	301.75
258.685	314.75
258.918	275.75
259.151	303.75
259.383	318.75
259.616	302.75
259.849	316.75
260.081	300.75
260.314	311.75
260.547	310.75
260.779	292.75
261.012	293.75
261.244	316.75
261.477	333.75
261.71	319.75
261.942	322.75
262.175	295.75
262.407	340.75
262.64	334.75
262.872	326.75
263.105	324.75
263.337	350.75
263.57	329.75
263.802	335.75
264.035	315.75
264.267	327.75
264.499	320.75
264.732	328.75
264.964	342.75
265.197	341.75
265.429	339.75
265.661	336.75
265.894	350.75
266.126	348.75
266.358	350.75
266.591	343.75
266.823	355.75
267.055	336.75
267.287	366.75
267.52	358.75
267.752	375.75
267.984	347.75
268.216	368.75
268.448	373.75
268.681	361.75
268.913	359.75
269.145	360.75
269.377	382.75
269.609	340.75
269.841	367.75
270.073	349.75
270.306	362.75
270.538	363.75
270.77	386.75
271.002	362.75
271.234	371.75
271.466	374.75
271.698	365.75
271.93	362.75
272.162	399.75
272.394	408.75
272.626	392.75
272.858	389.75
273.09	408.75
273.322	384.75
273.553	380.75
273.785	392.75
274.017	393.75
274.249	399.75
274.481	401.75
274.713	389.75
274.945	400.75
275.176	412.75
275.408	408.75
275.64	416.75
275.872	416.75
276.104	401.75
276.335	395.75
276.567	413.75
276.799	414.75
277.031	422.75
277.262	438.75
277.494	422.75
277.726	424.75
277.957	425.75
278.189	412.75
278.421	423.75
278.652	419.75
278.884	431.75
279.115	425.75
279.347	427.75
279.579	408.75
279.81	420.75
280.042	419.75
280.273	428.75
280.505	424.75
280.736	438.75
280.968	436.75
281.199	454.75
281.431	437.75
281.662	462.75
281.894	459.75
282.125	437.75
282.356	448.75
282.588	489.75
282.819	457.75
283.051	430.75
283.282	450.75
283.513	447.75
283.745	454.75
283.976	439.75
284.207	463.75
284.439	480.75
284.67	490.75
284.901	473.75
285.132	456.75
285.364	458.75
285.595	457.75
285.826	462.75
286.057	460.75
286.288	476.75
286.52	466.75
286.751	465.75
286.982	476.75
287.213	468.75
287.444	469.75
287.675	479.75
287.906	474.75
288.138	500.75
288.369	470.75
288.6	510.75
288.831	488.75
289.062	484.75
289.293	468.75
289.524	497.75
289.755	496.75
289.986	475.75
290.217	477.75
290.448	484.75
290.679	503.75
290.91	478.75
291.141	494.75
291.371	501.75
291.602	491.75
291.833	502.75
292.064	491.75
292.295	484.75
292.526	481.75
292.757	499.75
292.987	489.75
293.218	504.75
293.449	526.75
293.68	499.75
293.91	514.75
294.141	508.75
294.372	511.75
294.603	507.75
294.833	514.75
295.064	505.75
295.295	519.75
295.525	537.75
295.756	512.75
295.987	507.75
296.217	514.75
296.448	523.75
296.679	511.75
296.909	502.75
297.14	520.75
297.37	533.75
297.601	537.75
297.831	538.75
298.062	516.75
298.292	522.75
298.523	541.75
298.753	520.75
298.984	546.75
299.214	538.75
299.445	536.75
299.675	537.75
299.905	540.75
300.136	555.75
300.366	556.75
300.597	572.75
300.827	561.75
301.057	556.75
301.288	585.75
301.518	574.75
301.748	588.75
301.979	572.75
302.209	576.75
302.439	553.75
302.669	583.75
302.9	574.75
303.13	560.75
303.36	560.75
303.59	576.75
303.82	575.75
304.051	577.75
304.281	580.75
304.511	575.75
304.741	578.75
304.971	576.75
305.201	590.75
305.431	574.75
305.661	587.75
305.891	579.75
306.121	575.75
306.352	578.75
306.582	550.75
306.812	576.75
307.042	562.75
307.272	574.75
307.502	559.75
307.731	557.75
307.961	568.75
308.191	578.75
308.421	590.75
308.651	575.75
308.881	554.75
309.111	567.75
309.341	591.75
309.571	560.75
309.8	568.75
310.03	588.75
310.26	605.75
310.49	626.75
310.72	611.75
310.949	580.75
311.179	580.75
311.409	574.75
311.639	587.75
311.868	606.75
312.098	592.75
312.328	592.75
312.557	582.75
312.787	605.75
313.017	597.75
313.246	621.75
313.476	616.75
313.706	623.75
313.935	604.75
314.165	611.75
314.394	612.75
314.624	615.75
314.853	611.75
315.083	620.75
315.312	633.75
315.542	615.75
315.771	622.75
316.001	615.75
316.23	619.75
316.46	606.75
316.689	632.75
316.919	606.75
317.148	621.75
317.377	631.75
317.607	624.75
317.836	602.75
318.065	617.75
318.295	644.75
318.524	607.75
318.753	602.75
318.983	631.75
319.212	631.75
319.441	607.75
319.67	630.75
319.9	634.75
320.129	633.75
320.358	636.75
320.587	622.75
320.816	637.75
321.046	634.75
321.275	648.75
321.504	635.75
321.733	647.75
321.962	637.75
322.191	660.75
322.42	635.75
322.649	639.75
322.878	660.75
323.108	660.75
323.337	670.75
323.566	664.75
323.795	670.75
324.024	699.75
324.253	658.75
324.482	656.75
324.71	658.75
324.939	665.75
325.168	702.75
325.397	694.75
325.626	652.75
325.855	670.75
326.084	664.75
326.313	688.75
326.542	674.75
326.77	689.75
326.999	681.75
327.228	675.75
327.457	693.75
327.686	690.75
327.914	684.75
328.143	702.75
328.372	707.75
328.6	716.75
328.829	679.75
329.058	693.75
329.287	705.75
329.515	716.75
329.744	707.75
329.972	712.75
330.201	700.75
330.43	710.75
330.658	695.75
330.887	681.75
331.115	726.75
331.344	710.75
331.572	703.75
331.801	762.75
332.03	777.75
332.258	748.75
332.486	782.75
332.715	773.75
332.943	785.75
333.172	784.75
333.4	784.75
333.629	795.75
333.857	840.75
334.085	831.75
334.314	852.75
334.542	823.75
334.771	820.75
334.999	831.75
335.227	808.75
335.455	847.75
335.684	828.75
335.912	810.75
336.14	836.75
336.369	822.75
336.597	810.75
336.825	839.75
337.053	827.75
337.281	797.75
337.51	790.75
337.738	803.75
337.966	811.75
338.194	779.75
338.422	802.75
338.65	778.75
338.878	795.75
339.106	800.75
339.334	793.75
339.562	800.75
339.79	757.75
340.018	760.75
340.246	754.75
340.474	769.75
340.702	748.75
340.93	748.75
341.158	766.75
341.386	748.75
341.614	820.75
341.842	779.75
342.07	743.75
342.298	765.75
342.526	734.75
342.754	758.75
342.981	758.75
343.209	771.75
343.437	781.75
343.665	799.75
343.893	816.75
344.12	812.75
344.348	814.75
344.576	802.75
344.804	784.75
345.031	755.75
345.259	758.75
345.487	762.75
345.714	776.75
345.942	754.75
346.17	789.75
346.397	795.75
346.625	747.75
346.853	708.75
347.08	716.75
347.308	728.75
347.535	714.75
347.763	721.75
347.99	722.75
348.218	715.75
348.445	715.75
348.673	706.75
348.9	720.75
349.128	737.75
349.355	764.75
349.583	745.75
349.81	702.75
350.037	704.75
350.265	709.75
350.492	690.75
350.72	725.75
350.947	714.75
351.174	708.75
351.402	733.75
351.629	723.75
351.856	738.75
352.083	741.75
352.311	727.75
352.538	711.75
352.765	736.75
352.992	713.75
353.22	692.75
353.447	682.75
353.674	691.75
353.901	690.75
354.128	709.75
354.355	693.75
354.583	700.75
354.81	695.75
355.037	689.75
355.264	681.75
355.491	716.75
355.718	718.75
355.945	703.75
356.172	696.75
356.399	706.75
356.626	706.75
356.853	700.75
357.08	687.75
357.307	697.75
357.534	699.75
357.761	702.75
357.988	685.75
358.215	695.75
358.441	692.75
358.668	686.75
358.895	701.75
359.122	690.75
359.349	678.75
359.576	668.75
359.802	709.75
360.029	716.75
360.256	736.75
360.483	725.75
360.709	709.75
360.936	716.75
361.163	717.75
361.39	683.75
361.616	707.75
361.843	712.75
362.07	709.75
362.296	738.75
362.523	707.75
362.749	709.75
362.976	712.75
363.203	714.75
363.429	704.75
363.656	704.75
363.882	702.75
364.109	710.75
364.335	688.75
364.562	730.75
364.788	686.75
365.015	684.75
365.241	687.75
365.468	716.75
365.694	708.75
365.92	727.75
366.147	687.75
366.373	715.75
366.599	725.75
366.826	700.75
367.052	695.75
367.278	705.75
367.505	701.75
367.731	748.75
367.957	710.75
368.184	746.75
368.41	715.75
368.636	712.75
368.862	701.75
369.089	708.75
369.315	742.75
369.541	715.75
369.767	736.75
369.993	733.75
370.219	706.75
370.445	719.75
370.672	754.75
370.898	754.75
371.124	731.75
371.35	743.75
371.576	758.75
371.802	772.75
372.028	772.75
372.254	766.75
372.48	755.75
372.706	747.75
372.932	754.75
373.158	796.75
373.384	767.75
373.61	766.75
373.835	760.75
374.061	775.75
374.287	794.75
374.513	792.75
374.739	786.75
374.965	804.75
375.191	786.75
375.416	815.75
375.642	777.75
375.868	793.75
376.094	787.75
376.319	772.75
376.545	785.75
376.771	771.75
376.997	776.75
377.222	738.75
377.448	775.75
377.674	748.75
377.899	747.75
378.125	731.75
378.35	749.75
378.576	759.75
378.802	716.75
379.027	747.75
379.253	763.75
379.478	750.75
379.704	747.75
379.929	753.75
380.155	758.75
380.38	715.75
380.606	749.75
380.831	717.75
381.057	762.75
381.282	742.75
381.507	751.75
381.733	760.75
381.958	761.75
382.184	756.75
382.409	781.75
382.634	778.75
382.86	775.75
383.085	782.75
383.31	761.75
383.535	786.75
383.761	810.75
383.986	791.75
384.211	802.75
384.436	822.75
384.662	831.75
384.887	839.75
385.112	797.75
385.337	828.75
385.562	839.75
385.787	828.75
386.013	894.75
386.238	843.75
386.463	862.75
386.688	875.75
386.913	841.75
387.138	863.75
387.363	863.75
387.588	881.75
387.813	873.75
388.038	859.75
388.263	857.75
388.488	875.75
388.713	860.75
388.938	877.75
389.163	849.75
389.387	854.75
389.612	857.75
389.837	875.75
390.062	871.75
390.287	867.75
390.512	861.75
390.736	862.75
390.961	903.75
391.186	888.75
391.411	900.75
391.636	892.75
391.86	920.75
392.085	918.75
392.31	947.75
392.534	950.75
392.759	900.75
392.984	902.75
393.208	897.75
393.433	886.75
393.658	893.75
393.882	915.75
394.107	902.75
394.331	907.75
394.556	928.75
394.78	926.75
395.005	903.75
395.229	906.75
395.454	918.75
395.678	955.75
395.903	942.75
396.127	926.75
396.352	924.75
396.576	919.75
396.801	925.75
397.025	936.75
397.249	943.75
397.474	993.75
397.698	938.75
397.922	974.75
398.147	953.75
398.371	984.75
398.595	1009.75
398.82	1016.75
399.044	1059.75
399.268	1084.75
399.492	1208.75
399.717	1246.75
399.941	1250.75
400.165	1218.75
400.389	1175.75
400.613	1139.75
400.837	1074.75
401.062	1070.75
401.286	1051.75
401.51	1030.75
401.734	1023.75
401.958	1057.75
402.182	1044.75
402.406	1030.75
402.63	1034.75
402.854	1041.75
403.078	1056.75
403.302	1058.75
403.526	1062.75
403.75	1079.75
403.974	1066.75
404.198	1096.75
404.422	1058.75
404.645	1042.75
404.869	1071.75
405.093	1089.75
405.317	1036.75
405.541	1110.75
405.765	1084.75
405.988	1109.75
406.212	1095.75
406.436	1136.75
406.66	1127.75
406.883	1136.75
407.107	1198.75
407.331	1192.75
407.555	1237.75
407.778	1200.75
408.002	1222.75
408.226	1213.75
408.449	1222.75
408.673	1184.75
408.896	1137.75
409.12	1126.75
409.344	1137.75
409.567	1141.75
409.791	1116.75
410.014	1102.75
410.238	1143.75
410.461	1085.75
410.685	1094.75
410.908	1081.75
411.132	1096.75
411.355	1046.75
411.578	1114.75
411.802	1058.75
412.025	1070.75
412.249	1101.75
412.472	1097.75
412.695	1051.75
412.919	1062.75
413.142	1062.75
413.365	1052.75
413.589	1074.75
413.812	1043.75
414.035	1030.75
414.258	1053.75
414.482	1027.75
414.705	1040.75
414.928	1084.75
415.151	1063.75
415.374	1055.75
415.597	1026.75
415.821	1006.75
416.044	1013.75
416.267	1016.75
416.49	996.75
416.713	1019.75
416.936	1020.75
417.159	996.75
417.382	1022.75
417.605	1005.75
417.828	983.75
418.051	1004.75
418.274	980.75
418.497	976.75
418.72	1018.75
418.943	1013.75
419.166	1078.75
419.389	1093.75
419.611	1132.75
419.834	1046.75
420.057	1034.75
420.28	1030.75
420.503	980.75
420.726	980.75
420.948	982.75
421.171	960.75
421.394	1005.75
421.617	1006.75
421.839	998.75
422.062	1014.75
422.285	1016.75
422.507	970.75
422.73	972.75
422.953	987.75
423.175	1011.75
423.398	1000.75
423.621	1001.75
423.843	1036.75
424.066	1030.75
424.288	1010.75
424.511	981.75
424.733	982.75
424.956	988.75
425.178	986.75
425.401	981.75
425.623	978.75
425.846	971.75
426.068	987.75
426.291	980.75
426.513	983.75
426.735	967.75
426.958	963.75
427.18	966.75
427.402	953.75
427.625	946.75
427.847	942.75
428.069	943.75
428.292	971.75
428.514	964.75
428.736	906.75
428.958	926.75
429.181	944.75
429.403	947.75
429.625	949.75
429.847	961.75
430.069	936.75
430.292	943.75
430.514	915.75
430.736	965.75
430.958	904.75
431.18	925.75
431.402	932.75
431.624	961.75
431.846	942.75
432.068	964.75
432.29	958.75
432.512	944.75
432.734	940.75
432.956	964.75
433.178	982.75
433.4	998.75
433.622	977.75
433.844	986.75
434.066	948.75
434.287	969.75
434.509	960.75
434.731	988.75
434.953	995.75
435.175	1004.75
435.397	1040.75
435.618	1003.75
435.84	985.75
436.062	956.75
436.284	979.75
436.505	952.75
436.727	935.75
436.949	970.75
437.17	950.75
437.392	937.75
437.614	919.75
437.835	916.75
438.057	940.75
438.278	906.75
438.5	901.75
438.721	916.75
438.943	917.75
439.165	906.75
439.386	914.75
439.608	927.75
439.829	925.75
440.05	902.75
440.272	927.75
440.493	966.75
440.715	933.75
440.936	951.75
441.158	969.75
441.379	1000.75
441.6	999.75
441.822	987.75
442.043	1006.75
442.264	990.75
442.486	966.75
442.707	1002.75
442.928	980.75
443.149	1004.75
443.371	976.75
443.592	1057.75
443.813	1023.75
444.034	994.75
444.255	1028.75
444.476	1048.75
444.698	1087.75
444.919	1083.75
445.14	1180.75
445.361	1119.75
445.582	1039.75
445.803	985.75
446.024	975.75
446.245	954.75
446.466	954.75
446.687	956.75
446.908	928.75
447.129	921.75
447.35	924.75
447.571	925.75
447.792	871.75
448.013	894.75
448.234	863.75
448.455	881.75
448.675	866.75
448.896	864.75
449.117	853.75
449.338	857.75
449.559	898.75
449.779	880.75
450	847.75
450.221	852.75
450.442	850.75
450.662	846.75
450.883	885.75
451.104	889.75
451.324	864.75
451.545	847.75
451.766	845.75
451.986	840.75
452.207	837.75
452.428	858.75
452.648	809.75
452.869	830.75
453.089	827.75
453.31	855.75
453.53	837.75
453.751	837.75
453.971	807.75
454.192	820.75
454.412	826.75
454.633	852.75
454.853	849.75
455.073	818.75
455.294	823.75
455.514	816.75
455.734	844.75
455.955	858.75
456.175	839.75
456.395	846.75
456.616	825.75
456.836	834.75
457.056	818.75
457.276	812.75
457.497	824.75
457.717	844.75
457.937	863.75
458.157	829.75
458.377	838.75
458.598	852.75
458.818	864.75
459.038	854.75
459.258	910.75
459.478	926.75
459.698	1000.75
459.918	1028.75
460.138	988.75
460.358	1024.75
460.578	1012.75
460.798	1054.75
461.018	1028.75
461.238	1012.75
461.458	1006.75
461.678	1026.75
461.898	1042.75
462.118	1045.75
462.338	1076.75
462.558	1119.75
462.777	1146.75
462.997	1152.75
463.217	1190.75
463.437	1257.75
463.657	1211.75
463.876	1140.75
464.096	1138.75
464.316	1122.75
464.536	1138.75
464.755	1106.75
464.975	1073.75
465.195	1039.75
465.414	1010.75
465.634	1002.75
465.854	967.75
466.073	944.75
466.293	926.75
466.512	930.75
466.732	889.75
466.951	925.75
467.171	927.75
467.391	911.75
467.61	886.75
467.829	910.75
468.049	898.75
468.268	883.75
468.488	883.75
468.707	872.75
468.927	897.75
469.146	898.75
469.365	887.75
469.585	910.75
469.804	899.75
470.023	912.75
470.243	884.75
470.462	895.75
470.681	930.75
470.901	912.75
471.12	902.75
471.339	901.75
471.558	909.75
471.777	910.75
471.997	906.75
472.216	912.75
472.435	871.75
472.654	898.75
472.873	874.75
473.092	852.75
473.311	880.75
473.53	870.75
473.749	879.75
473.968	887.75
474.187	866.75
474.406	856.75
474.625	915.75
474.844	905.75
475.063	925.75
475.282	894.75
475.501	895.75
475.72	882.75
475.939	916.75
476.158	922.75
476.377	912.75
476.596	899.75
476.814	941.75
477.033	943.75
477.252	953.75
477.471	957.75
477.69	987.75
477.908	982.75
478.127	1003.75
478.346	984.75
478.564	1021.75
478.783	1032.75
479.002	1054.75
479.22	1103.75
479.439	1079.75
479.658	1045.75
479.876	1076.75
480.095	1078.75
480.313	1079.75
480.532	1065.75
480.751	1069.75
480.969	1080.75
481.188	1037.75
481.406	1067.75
481.624	1048.75
481.843	1034.75
482.061	1014.75
482.28	1024.75
482.498	1023.75
482.717	1030.75
482.935	1022.75
483.153	1063.75
483.372	1056.75
483.59	1094.75
483.808	1065.75
484.027	1038.75
484.245	1045.75
484.463	1066.75
484.681	1078.75
484.9	1059.75
485.118	1083.75
485.336	1086.75
485.554	1059.75
485.772	1098.75
485.99	1088.75
486.209	1101.75
486.427	1082.75
486.645	1082.75
486.863	1100.75
487.081	1091.75
487.299	1051.75
487.517	1088.75
487.735	1084.75
487.953	1104.75
488.171	1082.75
488.389	1094.75
488.607	1089.75
488.825	1068.75
489.043	1081.75
489.261	1056.75
489.479	1070.75
489.696	1035.75
489.914	1065.75
490.132	1059.75
490.35	1068.75
490.568	1093.75
490.786	1058.75
491.003	1087.75
491.221	1062.75
491.439	1092.75
491.657	1092.75
491.874	1110.75
492.092	1096.75
492.31	1118.75
492.527	1108.75
492.745	1098.75
492.963	1087.75
493.18	1107.75
493.398	1102.75
493.615	1119.75
493.833	1128.75
494.05	1101.75
494.268	1133.75
494.485	1116.75
494.703	1110.75
494.92	1151.75
495.138	1130.75
495.355	1135.75
495.573	1151.75
495.79	1138.75
496.008	1143.75
496.225	1145.75
496.442	1180.75
496.66	1174.75
496.877	1185.75
497.094	1183.75
497.312	1192.75
497.529	1196.75
497.746	1262.75
497.963	1292.75
498.181	1317.75
498.398	1357.75
498.615	1411.75
498.832	1428.75
499.049	1481.75
499.267	1598.75
499.484	1676.75
499.701	1752.75
499.918	1838.75
500.135	1997.75
500.352	2113.75
500.569	2148.75
500.786	2175.75
501.003	2077.75
501.22	1982.75
501.437	1830.75
501.654	1733.75
501.871	1653.75
502.088	1581.75
502.305	1534.75
502.522	1481.75
502.739	1417.75
502.956	1370.75
503.172	1308.75
503.389	1296.75
503.606	1235.75
503.823	1237.75
504.04	1224.75
504.256	1207.75
504.473	1170.75
504.69	1200.75
504.907	1178.75
505.123	1110.75
505.34	1113.75
505.557	1070.75
505.773	1063.75
505.99	1024.75
506.207	999.75
506.423	1013.75
506.64	1014.75
506.856	1009.75
507.073	984.75
507.289	957.75
507.506	968.75
507.722	939.75
507.939	933.75
508.155	959.75
508.372	953.75
508.588	941.75
508.805	923.75
509.021	918.75
509.238	934.75
509.454	898.75
509.67	907.75
509.887	918.75
510.103	906.75
510.319	936.75
510.536	885.75
510.752	877.75
510.968	895.75
511.184	840.75
511.401	863.75
511.617	889.75
511.833	867.75
512.049	877.75
512.265	893.75
512.481	880.75
512.698	885.75
512.914	854.75
513.13	877.75
513.346	894.75
513.562	868.75
513.778	894.75
513.994	868.75
514.21	883.75
514.426	895.75
514.642	880.75
514.858	883.75
515.074	898.75
515.29	920.75
515.506	917.75
515.721	949.75
515.937	891.75
516.153	929.75
516.369	936.75
516.585	988.75
516.801	962.75
517.016	994.75
517.232	997.75
517.448	988.75
517.664	1054.75
517.879	1046.75
518.095	1037.75
518.311	990.75
518.527	982.75
518.742	1028.75
518.958	996.75
519.173	970.75
519.389	968.75
519.605	908.75
519.82	904.75
520.036	910.75
520.251	861.75
520.467	857.75
520.682	843.75
520.898	867.75
521.113	848.75
521.329	844.75
521.544	856.75
521.76	830.75
521.975	811.75
522.19	847.75
522.406	838.75
522.621	814.75
522.836	818.75
523.052	813.75
523.267	830.75
523.482	811.75
523.698	781.75
523.913	799.75
524.128	797.75
524.343	786.75
524.559	799.75
524.774	801.75
524.989	796.75
525.204	792.75
525.419	789.75
525.634	770.75
525.849	769.75
526.064	751.75
526.28	778.75
526.495	774.75
526.71	796.75
526.925	797.75
527.14	768.75
527.355	773.75
527.57	778.75
527.785	754.75
527.999	761.75
528.214	790.75
528.429	786.75
528.644	776.75
528.859	770.75
529.074	744.75
529.289	788.75
529.503	766.75
529.718	755.75
529.933	749.75
530.148	750.75
530.363	771.75
530.577	745.75
530.792	740.75
531.007	749.75
531.221	748.75
531.436	756.75
531.651	763.75
531.865	766.75
532.08	757.75
532.295	760.75
532.509	760.75
532.724	762.75
532.938	756.75
533.153	737.75
533.367	751.75
533.582	762.75
533.796	754.75
534.011	771.75
534.225	756.75
534.44	750.75
534.654	758.75
534.868	770.75
535.083	727.75
535.297	718.75
535.511	778.75
535.726	721.75
535.94	726.75
536.154	694.75
536.369	728.75
536.583	694.75
536.797	699.75
537.011	712.75
537.225	708.75
537.44	698.75
537.654	721.75
537.868	681.75
538.082	675.75
538.296	693.75
538.51	691.75
538.724	701.75
538.938	695.75
539.153	703.75
539.367	708.75
539.581	700.75
539.795	683.75
540.009	715.75
540.222	697.75
540.436	687.75
540.65	714.75
540.864	695.75
541.078	694.75
541.292	681.75
541.506	676.75
541.72	685.75
541.934	688.75
542.147	733.75
542.361	677.75
542.575	702.75
542.789	679.75
543.002	690.75
543.216	676.75
543.43	676.75
543.644	670.75
543.857	658.75
544.071	682.75
544.285	705.75
544.498	662.75
544.712	678.75
544.925	674.75
545.139	681.75
545.352	678.75
545.566	691.75
545.779	692.75
545.993	691.75
546.206	710.75
546.42	708.75
546.633	663.75
546.847	676.75
547.06	679.75
547.274	709.75
547.487	708.75
547.7	685.75
547.914	683.75
548.127	670.75
548.34	678.75
548.554	685.75
548.767	691.75
548.98	703.75
549.193	680.75
549.407	676.75
549.62	687.75
549.833	691.75
550.046	700.75
550.259	682.75
550.473	685.75
550.686	672.75
550.899	687.75
551.112	688.75
551.325	674.75
551.538	678.75
551.751	675.75
551.964	665.75
552.177	665.75
552.39	676.75
552.603	681.75
552.816	683.75
553.029	706.75
553.242	685.75
553.455	710.75
553.667	722.75
553.88	683.75
554.093	679.75
554.306	656.75
554.519	662.75
554.732	658.75
554.944	670.75
555.157	634.75
555.37	648.75
555.583	642.75
555.795	617.75
556.008	640.75
556.221	602.75
556.433	623.75
556.646	605.75
556.859	618.75
557.071	596.75
557.284	591.75
557.496	603.75
557.709	601.75
557.921	573.75
558.134	583.75
558.346	610.75
558.559	589.75
558.771	578.75
558.984	576.75
559.196	599.75
559.409	581.75
559.621	600.75
559.833	596.75
560.046	566.75
560.258	579.75
560.47	574.75
560.683	571.75
560.895	572.75
561.107	589.75
561.32	602.75
561.532	583.75
561.744	586.75
561.956	599.75
562.168	596.75
562.381	576.75
562.593	574.75
562.805	573.75
563.017	581.75
563.229	602.75
563.441	593.75
563.653	587.75
563.865	591.75
564.077	597.75
564.289	574.75
564.501	596.75
564.713	625.75
564.925	618.75
565.137	606.75
565.349	632.75
565.561	649.75
565.773	629.75
565.985	654.75
566.197	679.75
566.408	697.75
566.62	720.75
566.832	774.75
567.044	761.75
567.255	803.75
567.467	774.75
567.679	775.75
567.891	822.75
568.102	807.75
568.314	794.75
568.526	752.75
568.737	710.75
568.949	719.75
569.161	642.75
569.372	625.75
569.584	607.75
569.795	590.75
570.007	600.75
570.218	583.75
570.43	551.75
570.641	581.75
570.853	576.75
571.064	570.75
571.276	548.75
571.487	551.75
571.698	527.75
571.91	541.75
572.121	515.75
572.333	520.75
572.544	507.75
572.755	487.75
572.966	487.75
573.178	493.75
573.389	491.75
573.6	479.75
573.811	482.75
574.023	471.75
574.234	486.75
574.445	470.75
574.656	465.75
574.867	469.75
575.078	461.75
575.289	450.75
575.501	463.75
575.712	464.75
575.923	447.75
576.134	462.75
576.345	447.75
576.556	456.75
576.767	448.75
576.978	432.75
577.188	460.75
577.399	451.75
577.61	438.75
577.821	426.75
578.032	422.75
578.243	427.75
578.454	436.75
578.665	444.75
578.875	422.75
579.086	416.75
579.297	410.75
579.508	414.75
579.718	404.75
579.929	423.75
580.14	424.75
580.35	404.75
580.561	399.75
580.772	420.75
580.982	389.75
581.193	408.75
581.403	427.75
581.614	410.75
581.825	410.75
582.035	398.75
582.246	397.75
582.456	406.75
582.667	398.75
582.877	381.75
583.087	395.75
583.298	415.75
583.508	409.75
583.719	391.75
583.929	395.75
584.139	396.75
584.35	387.75
584.56	408.75
584.77	383.75
584.981	390.75
585.191	376.75
585.401	387.75
585.611	362.75
585.821	382.75
586.032	379.75
586.242	366.75
586.452	380.75
586.662	394.75
586.872	375.75
587.082	384.75
587.292	387.75
587.502	397.75
587.713	378.75
587.923	372.75
588.133	395.75
588.343	383.75
588.553	383.75
588.762	395.75
588.972	390.75
589.182	413.75
589.392	396.75
589.602	378.75
589.812	385.75
590.022	389.75
590.232	379.75
590.441	381.75
590.651	385.75
590.861	391.75
591.071	384.75
591.281	368.75
591.49	404.75
591.7	400.75
591.91	386.75
592.119	388.75
592.329	394.75
592.539	427.75
592.748	399.75
592.958	404.75
593.167	396.75
593.377	399.75
593.587	447.75
593.796	410.75
594.006	412.75
594.215	410.75
594.424	419.75
594.634	404.75
594.843	403.75
595.053	407.75
595.262	400.75
595.472	405.75
595.681	396.75
595.89	374.75
596.1	358.75
596.309	367.75
596.518	378.75
596.727	365.75
596.937	336.75
597.146	358.75
597.355	357.75
597.564	341.75
597.774	341.75
597.983	342.75
598.192	335.75
598.401	327.75
598.61	348.75
598.819	329.75
599.028	355.75
599.237	332.75
599.446	319.75
599.655	349.75
599.864	328.75
600.073	334.75
600.282	339.75
600.491	312.75
600.7	332.75
600.909	316.75
601.118	332.75
601.327	318.75
601.536	322.75
601.745	313.75
601.953	317.75
602.162	314.75
602.371	315.75
602.58	313.75
602.789	314.75
602.997	311.75
603.206	304.75
603.415	327.75
603.623	308.75
603.832	300.75
604.041	328.75
604.249	307.75
604.458	296.75
604.666	311.75
604.875	310.75
605.084	284.75
605.292	295.75
605.501	305.75
605.709	309.75
605.918	292.75
606.126	283.75
606.334	314.75
606.543	301.75
606.751	288.75
606.96	295.75
607.168	301.75
607.376	292.75
607.585	274.75
607.793	289.75
608.001	306.75
608.21	301.75
608.418	282.75
608.626	307.75
608.834	286.75
609.043	275.75
609.251	280.75
609.459	296.75
609.667	291.75
609.875	286.75
610.083	284.75
610.291	310.75
610.499	280.75
610.707	312.75
610.916	292.75
611.124	273.75
611.332	298.75
611.54	286.75
611.748	294.75
611.955	278.75
612.163	247.75
612.371	286.75
612.579	272.75
612.787	277.75
612.995	302.75
613.203	284.75
613.411	274.75
613.618	283.75
613.826	284.75
614.034	291.75
614.242	266.75
614.449	282.75
614.657	273.75
614.865	274.75
615.072	287.75
615.28	267.75
615.488	295.75
615.695	274.75
615.903	295.75
616.111	277.75
616.318	274.75
616.526	290.75
616.733	272.75
616.941	285.75
617.148	280.75
617.356	283.75
617.563	280.75
617.771	291.75
617.978	275.75
618.185	275.75
618.393	250.75
618.6	256.75
618.807	264.75
619.015	265.75
619.222	273.75
619.429	270.75
619.637	274.75
619.844	283.75
620.051	259.75
620.258	249.75
620.466	254.75
620.673	258.75
620.88	255.75
621.087	231.75
621.294	250.75
621.501	251.75
621.708	263.75
621.915	276.75
622.122	278.75
622.329	250.75
622.536	255.75
622.743	260.75
622.95	262.75
623.157	259.75
623.364	275.75
623.571	270.75
623.778	254.75
623.985	238.75
624.192	266.75
624.399	242.75
624.606	256.75
624.812	264.75
625.019	245.75
625.226	263.75
625.433	255.75
625.639	248.75
625.846	248.75
626.053	245.75
626.259	244.75
626.466	246.75
626.673	237.75
626.879	232.75
627.086	248.75
627.293	223.75
627.499	235.75
627.706	249.75
627.912	248.75
628.119	262.75
628.325	246.75
628.532	235.75
628.738	230.75
628.945	237.75
629.151	232.75
629.357	231.75
629.564	218.75
629.77	227.75
629.976	233.75
630.183	245.75
630.389	217.75
630.595	213.75
630.802	228.75
631.008	226.75
631.214	235.75
631.42	239.75
631.627	246.75
631.833	218.75
632.039	228.75
632.245	235.75
632.451	218.75
632.657	226.75
632.863	227.75
633.069	226.75
633.275	232.75
633.481	201.75
633.688	217.75
633.893	227.75
634.099	214.75
634.305	226.75
634.511	215.75
634.717	222.75
634.923	236.75
635.129	223.75
635.335	225.75
635.541	227.75
635.747	232.75
635.952	215.75
636.158	228.75
636.364	208.75
636.57	204.75
636.775	212.75
636.981	207.75
637.187	210.75
637.392	224.75
637.598	203.75
637.804	206.75
638.009	226.75
638.215	215.75
638.421	206.75
638.626	203.75
638.832	209.75
639.037	190.75
639.243	202.75
639.448	218.75
639.654	203.75
639.859	207.75
640.065	210.75
640.27	227.75
640.475	200.75
640.681	202.75
640.886	212.75
641.091	206.75
641.297	205.75
641.502	202.75
641.707	205.75
641.913	220.75
642.118	213.75
642.323	204.75
642.528	195.75
642.733	205.75
642.939	200.75
643.144	210.75
643.349	206.75
643.554	208.75
643.759	200.75
643.964	200.75
644.169	207.75
644.374	207.75
644.579	208.75
644.784	210.75
644.989	205.75
645.194	190.75
645.399	210.75
645.604	197.75
645.809	210.75
646.014	195.75
646.219	205.75
646.423	216.75
646.628	202.75
646.833	214.75
647.038	202.75
647.243	208.75
647.447	208.75
647.652	215.75
647.857	204.75
648.062	220.75
648.266	222.75
648.471	203.75
648.676	221.75
648.88	219.75
649.085	219.75
649.289	222.75
649.494	213.75
649.698	205.75
649.903	219.75
650.107	207.75
650.312	195.75
650.516	195.75
650.721	192.75
650.925	207.75
651.13	192.75
651.334	207.75
651.539	189.75
651.743	213.75
651.947	200.75
652.152	210.75
652.356	194.75
652.56	204.75
652.764	212.75
652.969	191.75
653.173	201.75
653.377	184.75
653.581	196.75
653.785	202.75
653.99	198.75
654.194	216.75
654.398	198.75
654.602	209.75
654.806	203.75
655.01	200.75
655.214	212.75
655.418	199.75
655.622	194.75
655.826	223.75
656.03	211.75
656.234	218.75
656.438	221.75
656.642	215.75
656.846	210.75
657.049	221.75
657.253	194.75
657.457	178.75
657.661	180.75
657.865	166.75
658.068	149.75
658.272	146.75
658.476	137.75
658.68	155.75
658.883	136.75
659.087	143.75
659.291	130.75
659.494	128.75
659.698	117.75
659.901	132.75
660.105	124.75
660.309	108.75
660.512	114.75
660.716	94.75
660.919	103.75
661.123	105.75
661.326	83.75
661.53	91.75
661.733	103.75
661.936	98.75
662.14	100.75
662.343	90.75
662.546	95.75
662.75	99.75
662.953	90.75
663.156	86.75
663.36	89.75
663.563	87.75
663.766	84.75
663.969	84.75
664.173	97.75
664.376	74.75
664.579	83.75
664.782	91.75
664.985	79.75
665.188	79.75
665.391	80.75
665.594	78.75
665.797	85.75
666	90.75
666.203	95.75
666.406	69.75
666.609	78.75
666.812	76.75
667.015	69.75
667.218	88.75
667.421	90.75
667.624	88.75
667.827	88.75
668.03	91.75
668.232	84.75
668.435	93.75
668.638	67.75
668.841	91.75
669.043	82.75
669.246	73.75
669.449	83.75
669.651	97.75
669.854	85.75
670.057	81.75
670.259	82.75
670.462	70.75
670.665	78.75
670.867	92.75
671.07	87.75
671.272	88.75
671.475	94.75
671.677	82.75
671.88	73.75
672.082	80.75
672.284	89.75
672.487	83.75
672.689	85.75
672.892	68.75
