Data from Ni(NO3)2@0.25M.TitratingCurve.Agarose3%dH2O.NegLispCup.LampEnergy10.LIBS07252019_HRD10591_18-05-37-566.txt Node
Date: Thu Jul 25 18:05:37 EDT 2019
User: cochatt
Spectrometer: HR+D1059
Trigger mode: 1
Integration Time (sec): 1.000000E-1
Scans to average: 1
Electric dark correction enabled: true
Nonlinearity correction enabled: false
Boxcar width: 0
XAxis mode: Wavelengths
Number of Pixels in Spectrum: 2048
>>>>>Begin Spectral Data<<<<<
223.165	-2.19
223.4	-2.19
223.635	-2.19
223.869	-15.19
224.104	-20.19
224.338	-10.19
224.573	-13.19
224.808	-10.19
225.042	-12.19
225.277	-4.19
225.511	-3.19
225.746	-6.19
225.98	10.81
226.215	3.81
226.449	20.81
226.683	16.81
226.918	18.81
227.152	25.81
227.387	39.81
227.621	39.81
227.856	29.81
228.09	44.81
228.324	53.81
228.559	48.81
228.793	68.81
229.027	105.81
229.262	116.81
229.496	127.81
229.73	108.81
229.964	135.81
230.199	133.81
230.433	123.81
230.667	147.81
230.901	143.81
231.136	146.81
231.37	153.81
231.604	150.81
231.838	137.81
232.072	157.81
232.306	140.81
232.541	153.81
232.775	152.81
233.009	154.81
233.243	155.81
233.477	141.81
233.711	142.81
233.945	147.81
234.179	156.81
234.413	154.81
234.647	147.81
234.881	144.81
235.115	162.81
235.349	159.81
235.583	159.81
235.817	171.81
236.051	167.81
236.285	163.81
236.519	154.81
236.753	150.81
236.987	162.81
237.221	164.81
237.455	162.81
237.689	168.81
237.922	180.81
238.156	161.81
238.39	163.81
238.624	156.81
238.858	176.81
239.091	173.81
239.325	168.81
239.559	194.81
239.793	198.81
240.027	182.81
240.26	191.81
240.494	195.81
240.728	175.81
240.961	170.81
241.195	201.81
241.429	175.81
241.662	186.81
241.896	208.81
242.13	205.81
242.363	207.81
242.597	194.81
242.83	200.81
243.064	209.81
243.298	207.81
243.531	200.81
243.765	223.81
243.998	218.81
244.232	202.81
244.465	196.81
244.699	217.81
244.932	231.81
245.166	210.81
245.399	221.81
245.633	217.81
245.866	212.81
246.099	234.81
246.333	226.81
246.566	240.81
246.8	231.81
247.033	232.81
247.266	220.81
247.5	227.81
247.733	245.81
247.966	245.81
248.2	237.81
248.433	220.81
248.666	255.81
248.899	235.81
249.133	255.81
249.366	267.81
249.599	265.81
249.832	262.81
250.066	265.81
250.299	267.81
250.532	273.81
250.765	277.81
250.998	247.81
251.231	278.81
251.465	268.81
251.698	277.81
251.931	284.81
252.164	269.81
252.397	303.81
252.63	311.81
252.863	295.81
253.096	269.81
253.329	288.81
253.562	298.81
253.795	301.81
254.028	289.81
254.261	297.81
254.494	308.81
254.727	294.81
254.96	298.81
255.193	307.81
255.426	309.81
255.659	300.81
255.892	324.81
256.124	322.81
256.357	311.81
256.59	331.81
256.823	333.81
257.056	313.81
257.289	312.81
257.521	324.81
257.754	315.81
257.987	333.81
258.22	343.81
258.452	325.81
258.685	331.81
258.918	331.81
259.151	336.81
259.383	339.81
259.616	336.81
259.849	335.81
260.081	331.81
260.314	340.81
260.547	333.81
260.779	371.81
261.012	361.81
261.244	358.81
261.477	351.81
261.71	359.81
261.942	343.81
262.175	335.81
262.407	373.81
262.64	369.81
262.872	373.81
263.105	345.81
263.337	367.81
263.57	373.81
263.802	380.81
264.035	372.81
264.267	387.81
264.499	380.81
264.732	379.81
264.964	380.81
265.197	374.81
265.429	392.81
265.661	372.81
265.894	395.81
266.126	402.81
266.358	421.81
266.591	383.81
266.823	378.81
267.055	398.81
267.287	414.81
267.52	396.81
267.752	415.81
267.984	395.81
268.216	391.81
268.448	416.81
268.681	403.81
268.913	402.81
269.145	414.81
269.377	430.81
269.609	421.81
269.841	417.81
270.073	408.81
270.306	426.81
270.538	421.81
270.77	426.81
271.002	411.81
271.234	416.81
271.466	413.81
271.698	425.81
271.93	420.81
272.162	431.81
272.394	445.81
272.626	435.81
272.858	428.81
273.09	438.81
273.322	451.81
273.553	435.81
273.785	435.81
274.017	443.81
274.249	442.81
274.481	439.81
274.713	443.81
274.945	442.81
275.176	454.81
275.408	458.81
275.64	437.81
275.872	441.81
276.104	464.81
276.335	461.81
276.567	477.81
276.799	475.81
277.031	472.81
277.262	489.81
277.494	488.81
277.726	476.81
277.957	479.81
278.189	478.81
278.421	457.81
278.652	490.81
278.884	493.81
279.115	479.81
279.347	479.81
279.579	468.81
279.81	482.81
280.042	489.81
280.273	472.81
280.505	475.81
280.736	484.81
280.968	493.81
281.199	507.81
281.431	508.81
281.662	493.81
281.894	513.81
282.125	508.81
282.356	531.81
282.588	509.81
282.819	492.81
283.051	516.81
283.282	517.81
283.513	532.81
283.745	535.81
283.976	532.81
284.207	530.81
284.439	530.81
284.67	521.81
284.901	525.81
285.132	519.81
285.364	537.81
285.595	554.81
285.826	504.81
286.057	537.81
286.288	522.81
286.52	559.81
286.751	557.81
286.982	542.81
287.213	557.81
287.444	548.81
287.675	528.81
287.906	568.81
288.138	572.81
288.369	562.81
288.6	563.81
288.831	577.81
289.062	553.81
289.293	554.81
289.524	561.81
289.755	557.81
289.986	555.81
290.217	545.81
290.448	570.81
290.679	547.81
290.91	572.81
291.141	579.81
291.371	577.81
291.602	568.81
291.833	579.81
292.064	567.81
292.295	560.81
292.526	568.81
292.757	580.81
292.987	583.81
293.218	540.81
293.449	600.81
293.68	570.81
293.91	594.81
294.141	553.81
294.372	575.81
294.603	607.81
294.833	567.81
295.064	580.81
295.295	581.81
295.525	586.81
295.756	630.81
295.987	579.81
296.217	590.81
296.448	609.81
296.679	579.81
296.909	612.81
297.14	604.81
297.37	609.81
297.601	609.81
297.831	600.81
298.062	603.81
298.292	610.81
298.523	629.81
298.753	643.81
298.984	626.81
299.214	627.81
299.445	648.81
299.675	618.81
299.905	645.81
300.136	623.81
300.366	641.81
300.597	635.81
300.827	650.81
301.057	638.81
301.288	637.81
301.518	648.81
301.748	674.81
301.979	666.81
302.209	672.81
302.439	668.81
302.669	673.81
302.9	644.81
303.13	661.81
303.36	648.81
303.59	671.81
303.82	655.81
304.051	659.81
304.281	671.81
304.511	673.81
304.741	665.81
304.971	655.81
305.201	648.81
305.431	659.81
305.661	662.81
305.891	651.81
306.121	639.81
306.352	646.81
306.582	666.81
306.812	632.81
307.042	615.81
307.272	628.81
307.502	645.81
307.731	649.81
307.961	656.81
308.191	641.81
308.421	651.81
308.651	664.81
308.881	645.81
309.111	648.81
309.341	660.81
309.571	671.81
309.8	675.81
310.03	673.81
310.26	653.81
310.49	660.81
310.72	651.81
310.949	667.81
311.179	663.81
311.409	681.81
311.639	671.81
311.868	675.81
312.098	690.81
312.328	655.81
312.557	666.81
312.787	692.81
313.017	678.81
313.246	693.81
313.476	675.81
313.706	707.81
313.935	699.81
314.165	730.81
314.394	704.81
314.624	708.81
314.853	702.81
315.083	700.81
315.312	723.81
315.542	699.81
315.771	712.81
316.001	714.81
316.23	719.81
316.46	685.81
316.689	702.81
316.919	725.81
317.148	716.81
317.377	708.81
317.607	688.81
317.836	704.81
318.065	685.81
318.295	719.81
318.524	731.81
318.753	679.81
318.983	677.81
319.212	687.81
319.441	700.81
319.67	712.81
319.9	709.81
320.129	723.81
320.358	724.81
320.587	722.81
320.816	711.81
321.046	705.81
321.275	704.81
321.504	707.81
321.733	683.81
321.962	688.81
322.191	724.81
322.42	714.81
322.649	706.81
322.878	771.81
323.108	748.81
323.337	739.81
323.566	733.81
323.795	755.81
324.024	757.81
324.253	745.81
324.482	733.81
324.71	735.81
324.939	757.81
325.168	747.81
325.397	761.81
325.626	767.81
325.855	774.81
326.084	778.81
326.313	789.81
326.542	798.81
326.77	808.81
326.999	793.81
327.228	777.81
327.457	796.81
327.686	780.81
327.914	797.81
328.143	805.81
328.372	775.81
328.6	814.81
328.829	807.81
329.058	797.81
329.287	819.81
329.515	827.81
329.744	799.81
329.972	833.81
330.201	846.81
330.43	830.81
330.658	817.81
330.887	824.81
331.115	834.81
331.344	859.81
331.572	876.81
331.801	872.81
332.03	901.81
332.258	910.81
332.486	927.81
332.715	937.81
332.943	948.81
333.172	1019.81
333.4	1024.81
333.629	1013.81
333.857	1041.81
334.085	1044.81
334.314	1083.81
334.542	1078.81
334.771	1052.81
334.999	1034.81
335.227	1066.81
335.455	1023.81
335.684	1027.81
335.912	1012.81
336.14	1004.81
336.369	1009.81
336.597	1017.81
336.825	993.81
337.053	989.81
337.281	960.81
337.51	957.81
337.738	937.81
337.966	948.81
338.194	936.81
338.422	927.81
338.65	914.81
338.878	902.81
339.106	920.81
339.334	889.81
339.562	886.81
339.79	848.81
340.018	856.81
340.246	873.81
340.474	865.81
340.702	873.81
340.93	875.81
341.158	868.81
341.386	879.81
341.614	895.81
341.842	876.81
342.07	877.81
342.298	871.81
342.526	859.81
342.754	898.81
342.981	883.81
343.209	887.81
343.437	949.81
343.665	968.81
343.893	1007.81
344.12	1054.81
344.348	1018.81
344.576	978.81
344.804	956.81
345.031	904.81
345.259	886.81
345.487	897.81
345.714	863.81
345.942	854.81
346.17	867.81
346.397	870.81
346.625	837.81
346.853	808.81
347.08	815.81
347.308	842.81
347.535	859.81
347.763	861.81
347.99	853.81
348.218	851.81
348.445	847.81
348.673	813.81
348.9	839.81
349.128	831.81
349.355	834.81
349.583	851.81
349.81	808.81
350.037	821.81
350.265	840.81
350.492	786.81
350.72	803.81
350.947	805.81
351.174	815.81
351.402	806.81
351.629	819.81
351.856	799.81
352.083	816.81
352.311	794.81
352.538	811.81
352.765	817.81
352.992	802.81
353.22	779.81
353.447	790.81
353.674	798.81
353.901	808.81
354.128	816.81
354.355	800.81
354.583	815.81
354.81	799.81
355.037	825.81
355.264	775.81
355.491	791.81
355.718	791.81
355.945	812.81
356.172	832.81
356.399	840.81
356.626	836.81
356.853	828.81
357.08	796.81
357.307	804.81
357.534	826.81
357.761	813.81
357.988	824.81
358.215	807.81
358.441	825.81
358.668	787.81
358.895	810.81
359.122	786.81
359.349	787.81
359.576	829.81
359.802	803.81
360.029	794.81
360.256	824.81
360.483	823.81
360.709	807.81
360.936	821.81
361.163	828.81
361.39	813.81
361.616	799.81
361.843	809.81
362.07	832.81
362.296	815.81
362.523	789.81
362.749	795.81
362.976	828.81
363.203	786.81
363.429	789.81
363.656	800.81
363.882	804.81
364.109	793.81
364.335	802.81
364.562	809.81
364.788	788.81
365.015	811.81
365.241	817.81
365.468	811.81
365.694	779.81
365.92	783.81
366.147	797.81
366.373	802.81
366.599	797.81
366.826	795.81
367.052	809.81
367.278	827.81
367.505	806.81
367.731	819.81
367.957	809.81
368.184	821.81
368.41	809.81
368.636	835.81
368.862	800.81
369.089	825.81
369.315	827.81
369.541	828.81
369.767	839.81
369.993	853.81
370.219	823.81
370.445	837.81
370.672	862.81
370.898	854.81
371.124	877.81
371.35	879.81
371.576	863.81
371.802	871.81
372.028	864.81
372.254	881.81
372.48	881.81
372.706	880.81
372.932	902.81
373.158	905.81
373.384	868.81
373.61	881.81
373.835	892.81
374.061	880.81
374.287	884.81
374.513	905.81
374.739	919.81
374.965	933.81
375.191	974.81
375.416	960.81
375.642	911.81
375.868	927.81
376.094	882.81
376.319	911.81
376.545	894.81
376.771	870.81
376.997	846.81
377.222	857.81
377.448	876.81
377.674	867.81
377.899	880.81
378.125	841.81
378.35	874.81
378.576	864.81
378.802	855.81
379.027	879.81
379.253	847.81
379.478	844.81
379.704	843.81
379.929	839.81
380.155	859.81
380.38	871.81
380.606	858.81
380.831	895.81
381.057	845.81
381.282	853.81
381.507	878.81
381.733	865.81
381.958	885.81
382.184	874.81
382.409	888.81
382.634	899.81
382.86	890.81
383.085	924.81
383.31	934.81
383.535	925.81
383.761	991.81
383.986	981.81
384.211	969.81
384.436	971.81
384.662	972.81
384.887	1001.81
385.112	1004.81
385.337	1013.81
385.562	1031.81
385.787	1047.81
386.013	1069.81
386.238	1032.81
386.463	1056.81
386.688	1071.81
386.913	1026.81
387.138	1015.81
387.363	1032.81
387.588	1020.81
387.813	1064.81
388.038	1029.81
388.263	1015.81
388.488	1025.81
388.713	1032.81
388.938	1010.81
389.163	1015.81
389.387	1025.81
389.612	1013.81
389.837	1011.81
390.062	1022.81
390.287	1038.81
390.512	1039.81
390.736	1049.81
390.961	1034.81
391.186	1080.81
391.411	1114.81
391.636	1115.81
391.86	1136.81
392.085	1197.81
392.31	1172.81
392.534	1155.81
392.759	1162.81
392.984	1130.81
393.208	1089.81
393.433	1094.81
393.658	1094.81
393.882	1109.81
394.107	1136.81
394.331	1094.81
394.556	1128.81
394.78	1116.81
395.005	1097.81
395.229	1111.81
395.454	1121.81
395.678	1166.81
395.903	1185.81
396.127	1163.81
396.352	1119.81
396.576	1131.81
396.801	1120.81
397.025	1172.81
397.249	1190.81
397.474	1193.81
397.698	1199.81
397.922	1222.81
398.147	1196.81
398.371	1253.81
398.595	1263.81
398.82	1283.81
399.044	1391.81
399.268	1525.81
399.492	1741.81
399.717	1832.81
399.941	1866.81
400.165	1755.81
400.389	1599.81
400.613	1480.81
400.837	1417.81
401.062	1373.81
401.286	1362.81
401.51	1346.81
401.734	1330.81
401.958	1332.81
402.182	1349.81
402.406	1379.81
402.63	1401.81
402.854	1397.81
403.078	1386.81
403.302	1401.81
403.526	1425.81
403.75	1424.81
403.974	1429.81
404.198	1446.81
404.422	1457.81
404.645	1452.81
404.869	1468.81
405.093	1453.81
405.317	1461.81
405.541	1461.81
405.765	1420.81
405.988	1442.81
406.212	1430.81
406.436	1420.81
406.66	1497.81
406.883	1503.81
407.107	1596.81
407.331	1645.81
407.555	1700.81
407.778	1673.81
408.002	1661.81
408.226	1603.81
408.449	1567.81
408.673	1524.81
408.896	1496.81
409.12	1498.81
409.344	1485.81
409.567	1452.81
409.791	1506.81
410.014	1483.81
410.238	1456.81
410.461	1458.81
410.685	1408.81
410.908	1401.81
411.132	1402.81
411.355	1346.81
411.578	1375.81
411.802	1369.81
412.025	1369.81
412.249	1384.81
412.472	1415.81
412.695	1328.81
412.919	1318.81
413.142	1352.81
413.365	1353.81
413.589	1336.81
413.812	1334.81
414.035	1309.81
414.258	1323.81
414.482	1297.81
414.705	1324.81
414.928	1336.81
415.151	1361.81
415.374	1337.81
415.597	1305.81
415.821	1304.81
416.044	1295.81
416.267	1287.81
416.49	1314.81
416.713	1265.81
416.936	1253.81
417.159	1281.81
417.382	1306.81
417.605	1273.81
417.828	1300.81
418.051	1302.81
418.274	1299.81
418.497	1289.81
418.72	1315.81
418.943	1346.81
419.166	1414.81
419.389	1469.81
419.611	1486.81
419.834	1421.81
420.057	1401.81
420.28	1334.81
420.503	1304.81
420.726	1314.81
420.948	1295.81
421.171	1283.81
421.394	1301.81
421.617	1272.81
421.839	1321.81
422.062	1321.81
422.285	1298.81
422.507	1313.81
422.73	1333.81
422.953	1301.81
423.175	1330.81
423.398	1335.81
423.621	1307.81
423.843	1352.81
424.066	1355.81
424.288	1324.81
424.511	1345.81
424.733	1339.81
424.956	1313.81
425.178	1313.81
425.401	1334.81
425.623	1251.81
425.846	1267.81
426.068	1245.81
426.291	1281.81
426.513	1254.81
426.735	1253.81
426.958	1285.81
427.18	1212.81
427.402	1209.81
427.625	1239.81
427.847	1179.81
428.069	1167.81
428.292	1190.81
428.514	1203.81
428.736	1184.81
428.958	1172.81
429.181	1148.81
429.403	1165.81
429.625	1133.81
429.847	1162.81
430.069	1161.81
430.292	1162.81
430.514	1149.81
430.736	1148.81
430.958	1185.81
431.18	1167.81
431.402	1191.81
431.624	1194.81
431.846	1168.81
432.068	1187.81
432.29	1212.81
432.512	1157.81
432.734	1191.81
432.956	1183.81
433.178	1185.81
433.4	1217.81
433.622	1185.81
433.844	1202.81
434.066	1202.81
434.287	1231.81
434.509	1210.81
434.731	1279.81
434.953	1319.81
435.175	1323.81
435.397	1314.81
435.618	1260.81
435.84	1238.81
436.062	1237.81
436.284	1191.81
436.505	1193.81
436.727	1218.81
436.949	1210.81
437.17	1180.81
437.392	1168.81
437.614	1154.81
437.835	1116.81
438.057	1148.81
438.278	1098.81
438.5	1125.81
438.721	1157.81
438.943	1140.81
439.165	1161.81
439.386	1143.81
439.608	1188.81
439.829	1172.81
440.05	1155.81
440.272	1178.81
440.493	1183.81
440.715	1227.81
440.936	1219.81
441.158	1261.81
441.379	1258.81
441.6	1339.81
441.822	1309.81
442.043	1332.81
442.264	1300.81
442.486	1288.81
442.707	1308.81
442.928	1283.81
443.149	1278.81
443.371	1283.81
443.592	1307.81
443.813	1321.81
444.034	1308.81
444.255	1377.81
444.476	1407.81
444.698	1457.81
444.919	1488.81
445.14	1577.81
445.361	1473.81
445.582	1385.81
445.803	1333.81
446.024	1257.81
446.245	1277.81
446.466	1244.81
446.687	1203.81
446.908	1195.81
447.129	1181.81
447.35	1165.81
447.571	1160.81
447.792	1160.81
448.013	1139.81
448.234	1129.81
448.455	1094.81
448.675	1121.81
448.896	1101.81
449.117	1076.81
449.338	1095.81
449.559	1083.81
449.779	1085.81
450	1080.81
450.221	1074.81
450.442	1092.81
450.662	1105.81
450.883	1077.81
451.104	1104.81
451.324	1088.81
451.545	1095.81
451.766	1057.81
451.986	1075.81
452.207	1084.81
452.428	1078.81
452.648	1074.81
452.869	1028.81
453.089	1018.81
453.31	1063.81
453.53	1059.81
453.751	1051.81
453.971	1027.81
454.192	1036.81
454.412	999.81
454.633	1051.81
454.853	1027.81
455.073	1003.81
455.294	1023.81
455.514	1009.81
455.734	1012.81
455.955	1030.81
456.175	972.81
456.395	1009.81
456.616	1008.81
456.836	1000.81
457.056	990.81
457.276	981.81
457.497	1035.81
457.717	1018.81
457.937	1021.81
458.157	1071.81
458.377	1068.81
458.598	1072.81
458.818	1105.81
459.038	1127.81
459.258	1149.81
459.478	1207.81
459.698	1234.81
459.918	1282.81
460.138	1285.81
460.358	1368.81
460.578	1356.81
460.798	1416.81
461.018	1405.81
461.238	1411.81
461.458	1366.81
461.678	1392.81
461.898	1422.81
462.118	1418.81
462.338	1472.81
462.558	1551.81
462.777	1607.81
462.997	1689.81
463.217	1757.81
463.437	1804.81
463.657	1707.81
463.876	1647.81
464.096	1619.81
464.316	1601.81
464.536	1575.81
464.755	1525.81
464.975	1493.81
465.195	1446.81
465.414	1344.81
465.634	1307.81
465.854	1256.81
466.073	1217.81
466.293	1210.81
466.512	1180.81
466.732	1157.81
466.951	1157.81
467.171	1153.81
467.391	1144.81
467.61	1111.81
467.829	1116.81
468.049	1117.81
468.268	1087.81
468.488	1093.81
468.707	1104.81
468.927	1080.81
469.146	1091.81
469.365	1124.81
469.585	1138.81
469.804	1135.81
470.023	1142.81
470.243	1130.81
470.462	1145.81
470.681	1141.81
470.901	1171.81
471.12	1162.81
471.339	1140.81
471.558	1145.81
471.777	1130.81
471.997	1131.81
472.216	1084.81
472.435	1075.81
472.654	1053.81
472.873	1030.81
473.092	1048.81
473.311	1058.81
473.53	1057.81
473.749	1089.81
473.968	1082.81
474.187	1046.81
474.406	1069.81
474.625	1071.81
474.844	1079.81
475.063	1054.81
475.282	1075.81
475.501	1069.81
475.72	1053.81
475.939	1075.81
476.158	1089.81
476.377	1091.81
476.596	1109.81
476.814	1064.81
477.033	1114.81
477.252	1160.81
477.471	1186.81
477.69	1209.81
477.908	1194.81
478.127	1250.81
478.346	1240.81
478.564	1291.81
478.783	1286.81
479.002	1324.81
479.22	1341.81
479.439	1328.81
479.658	1332.81
479.876	1320.81
480.095	1351.81
480.313	1371.81
480.532	1401.81
480.751	1384.81
480.969	1369.81
481.188	1296.81
481.406	1302.81
481.624	1257.81
481.843	1254.81
482.061	1225.81
482.28	1236.81
482.498	1212.81
482.717	1203.81
482.935	1211.81
483.153	1231.81
483.372	1226.81
483.59	1227.81
483.808	1223.81
484.027	1190.81
484.245	1224.81
484.463	1211.81
484.681	1265.81
484.9	1228.81
485.118	1273.81
485.336	1224.81
485.554	1261.81
485.772	1269.81
485.99	1259.81
486.209	1223.81
486.427	1293.81
486.645	1263.81
486.863	1279.81
487.081	1267.81
487.299	1264.81
487.517	1296.81
487.735	1303.81
487.953	1278.81
488.171	1263.81
488.389	1282.81
488.607	1267.81
488.825	1231.81
489.043	1257.81
489.261	1251.81
489.479	1251.81
489.696	1277.81
489.914	1277.81
490.132	1304.81
490.35	1292.81
490.568	1286.81
490.786	1299.81
491.003	1291.81
491.221	1304.81
491.439	1331.81
491.657	1297.81
491.874	1288.81
492.092	1288.81
492.31	1327.81
492.527	1357.81
492.745	1341.81
492.963	1328.81
493.18	1356.81
493.398	1332.81
493.615	1341.81
493.833	1354.81
494.05	1377.81
494.268	1367.81
494.485	1359.81
494.703	1387.81
494.92	1365.81
495.138	1386.81
495.355	1379.81
495.573	1412.81
495.79	1411.81
496.008	1393.81
496.225	1414.81
496.442	1445.81
496.66	1455.81
496.877	1449.81
497.094	1484.81
497.312	1512.81
497.529	1555.81
497.746	1603.81
497.963	1653.81
498.181	1709.81
498.398	1805.81
498.615	1881.81
498.832	2013.81
499.049	2138.81
499.267	2324.81
499.484	2524.81
499.701	2751.81
499.918	2948.81
500.135	3315.81
500.352	3600.81
500.569	3669.81
500.786	3652.81
501.003	3530.81
501.22	3185.81
501.437	2917.81
501.654	2636.81
501.871	2455.81
502.088	2264.81
502.305	2103.81
502.522	1986.81
502.739	1929.81
502.956	1870.81
503.172	1777.81
503.389	1736.81
503.606	1663.81
503.823	1601.81
504.04	1636.81
504.256	1580.81
504.473	1639.81
504.69	1640.81
504.907	1598.81
505.123	1499.81
505.34	1455.81
505.557	1383.81
505.773	1352.81
505.99	1316.81
506.207	1292.81
506.423	1290.81
506.64	1283.81
506.856	1244.81
507.073	1249.81
507.289	1197.81
507.506	1195.81
507.722	1215.81
507.939	1192.81
508.155	1170.81
508.372	1173.81
508.588	1156.81
508.805	1162.81
509.021	1140.81
509.238	1124.81
509.454	1125.81
509.67	1118.81
509.887	1101.81
510.103	1098.81
510.319	1085.81
510.536	1082.81
510.752	1082.81
510.968	1108.81
511.184	1076.81
511.401	1082.81
511.617	1039.81
511.833	1101.81
512.049	1089.81
512.265	1075.81
512.481	1084.81
512.698	1052.81
512.914	1119.81
513.13	1109.81
513.346	1096.81
513.562	1101.81
513.778	1107.81
513.994	1105.81
514.21	1103.81
514.426	1105.81
514.642	1115.81
514.858	1105.81
515.074	1122.81
515.29	1136.81
515.506	1142.81
515.721	1177.81
515.937	1199.81
516.153	1184.81
516.369	1195.81
516.585	1235.81
516.801	1285.81
517.016	1327.81
517.232	1391.81
517.448	1438.81
517.664	1483.81
517.879	1441.81
518.095	1455.81
518.311	1443.81
518.527	1400.81
518.742	1388.81
518.958	1307.81
519.173	1289.81
519.389	1265.81
519.605	1209.81
519.82	1184.81
520.036	1164.81
520.251	1164.81
520.467	1119.81
520.682	1089.81
520.898	1085.81
521.113	1115.81
521.329	1072.81
521.544	1086.81
521.76	1059.81
521.975	1055.81
522.19	1055.81
522.406	1033.81
522.621	1039.81
522.836	1023.81
523.052	1051.81
523.267	1015.81
523.482	1009.81
523.698	1008.81
523.913	1030.81
524.128	994.81
524.343	1024.81
524.559	997.81
524.774	1008.81
524.989	1000.81
525.204	1002.81
525.419	998.81
525.634	986.81
525.849	984.81
526.064	975.81
526.28	969.81
526.495	964.81
526.71	999.81
526.925	973.81
527.14	962.81
527.355	960.81
527.57	995.81
527.785	946.81
527.999	979.81
528.214	984.81
528.429	984.81
528.644	959.81
528.859	1005.81
529.074	974.81
529.289	972.81
529.503	993.81
529.718	999.81
529.933	1005.81
530.148	964.81
530.363	947.81
530.577	1001.81
530.792	969.81
531.007	959.81
531.221	963.81
531.436	975.81
531.651	994.81
531.865	978.81
532.08	977.81
532.295	957.81
532.509	977.81
532.724	977.81
532.938	977.81
533.153	979.81
533.367	965.81
533.582	976.81
533.796	944.81
534.011	953.81
534.225	963.81
534.44	987.81
534.654	966.81
534.868	941.81
535.083	921.81
535.297	924.81
535.511	967.81
535.726	938.81
535.94	922.81
536.154	930.81
536.369	932.81
536.583	891.81
536.797	907.81
537.011	919.81
537.225	899.81
537.44	895.81
537.654	889.81
537.868	928.81
538.082	874.81
538.296	884.81
538.51	893.81
538.724	912.81
538.938	928.81
539.153	882.81
539.367	892.81
539.581	918.81
539.795	884.81
540.009	872.81
540.222	883.81
540.436	886.81
540.65	873.81
540.864	864.81
541.078	904.81
541.292	884.81
541.506	863.81
541.72	897.81
541.934	889.81
542.147	915.81
542.361	886.81
542.575	873.81
542.789	894.81
543.002	893.81
543.216	865.81
543.43	879.81
543.644	879.81
543.857	871.81
544.071	865.81
544.285	868.81
544.498	901.81
544.712	862.81
544.925	904.81
545.139	893.81
545.352	888.81
545.566	901.81
545.779	933.81
545.993	924.81
546.206	892.81
546.42	892.81
546.633	891.81
546.847	899.81
547.06	916.81
547.274	927.81
547.487	915.81
547.7	904.81
547.914	940.81
548.127	925.81
548.34	908.81
548.554	905.81
548.767	917.81
548.98	893.81
549.193	919.81
549.407	928.81
549.62	916.81
549.833	922.81
550.046	910.81
550.259	930.81
550.473	902.81
550.686	924.81
550.899	911.81
551.112	891.81
551.325	877.81
551.538	899.81
551.751	884.81
551.964	902.81
552.177	908.81
552.39	923.81
552.603	918.81
552.816	937.81
553.029	949.81
553.242	975.81
553.455	977.81
553.667	977.81
553.88	938.81
554.093	941.81
554.306	914.81
554.519	914.81
554.732	895.81
554.944	863.81
555.157	862.81
555.37	870.81
555.583	813.81
555.795	848.81
556.008	810.81
556.221	816.81
556.433	791.81
556.646	796.81
556.859	788.81
557.071	775.81
557.284	785.81
557.496	755.81
557.709	753.81
557.921	759.81
558.134	794.81
558.346	770.81
558.559	776.81
558.771	765.81
558.984	745.81
559.196	741.81
559.409	762.81
559.621	743.81
559.833	759.81
560.046	748.81
560.258	710.81
560.47	761.81
560.683	740.81
560.895	690.81
561.107	748.81
561.32	734.81
561.532	743.81
561.744	739.81
561.956	731.81
562.168	735.81
562.381	765.81
562.593	757.81
562.805	758.81
563.017	784.81
563.229	764.81
563.441	748.81
563.653	766.81
563.865	756.81
564.077	764.81
564.289	784.81
564.501	794.81
564.713	785.81
564.925	811.81
565.137	831.81
565.349	848.81
565.561	874.81
565.773	897.81
565.985	951.81
566.197	975.81
566.408	1022.81
566.62	1107.81
566.832	1162.81
567.044	1155.81
567.255	1186.81
567.467	1165.81
567.679	1260.81
567.891	1289.81
568.102	1281.81
568.314	1253.81
568.526	1162.81
568.737	1076.81
568.949	991.81
569.161	940.81
569.372	857.81
569.584	868.81
569.795	847.81
570.007	799.81
570.218	779.81
570.43	755.81
570.641	772.81
570.853	780.81
571.064	763.81
571.276	756.81
571.487	729.81
571.698	711.81
571.91	699.81
572.121	673.81
572.333	665.81
572.544	669.81
572.755	648.81
572.966	641.81
573.178	646.81
573.389	618.81
573.6	602.81
573.811	587.81
574.023	599.81
574.234	637.81
574.445	582.81
574.656	597.81
574.867	603.81
575.078	599.81
575.289	609.81
575.501	585.81
575.712	571.81
575.923	575.81
576.134	567.81
576.345	559.81
576.556	565.81
576.767	552.81
576.978	563.81
577.188	563.81
577.399	576.81
577.61	533.81
577.821	556.81
578.032	552.81
578.243	545.81
578.454	535.81
578.665	553.81
578.875	549.81
579.086	526.81
579.297	526.81
579.508	521.81
579.718	544.81
579.929	537.81
580.14	522.81
580.35	510.81
580.561	513.81
580.772	518.81
580.982	521.81
581.193	520.81
581.403	506.81
581.614	526.81
581.825	505.81
582.035	485.81
582.246	493.81
582.456	488.81
582.667	527.81
582.877	480.81
583.087	489.81
583.298	511.81
583.508	518.81
583.719	502.81
583.929	481.81
584.139	490.81
584.35	499.81
584.56	510.81
584.77	485.81
584.981	511.81
585.191	488.81
585.401	502.81
585.611	494.81
585.821	500.81
586.032	481.81
586.242	476.81
586.452	480.81
586.662	495.81
586.872	487.81
587.082	491.81
587.292	473.81
587.502	491.81
587.713	497.81
587.923	471.81
588.133	473.81
588.343	463.81
588.553	501.81
588.762	492.81
588.972	462.81
589.182	497.81
589.392	507.81
589.602	489.81
589.812	498.81
590.022	496.81
590.232	469.81
590.441	483.81
590.651	473.81
590.861	486.81
591.071	511.81
591.281	498.81
591.49	516.81
591.7	524.81
591.91	515.81
592.119	520.81
592.329	515.81
592.539	554.81
592.748	547.81
592.958	556.81
593.167	577.81
593.377	583.81
593.587	583.81
593.796	580.81
594.006	581.81
594.215	565.81
594.424	575.81
594.634	581.81
594.843	564.81
595.053	546.81
595.262	527.81
595.472	508.81
595.681	508.81
595.89	520.81
596.1	471.81
596.309	473.81
596.518	447.81
596.727	454.81
596.937	449.81
597.146	457.81
597.355	448.81
597.564	435.81
597.774	433.81
597.983	442.81
598.192	442.81
598.401	406.81
598.61	415.81
598.819	411.81
599.028	409.81
599.237	424.81
599.446	419.81
599.655	416.81
599.864	394.81
600.073	411.81
600.282	393.81
600.491	382.81
600.7	397.81
600.909	391.81
601.118	389.81
601.327	391.81
601.536	399.81
601.745	400.81
601.953	393.81
602.162	410.81
602.371	379.81
602.58	366.81
602.789	401.81
602.997	381.81
603.206	405.81
603.415	385.81
603.623	401.81
603.832	388.81
604.041	363.81
604.249	372.81
604.458	379.81
604.666	381.81
604.875	391.81
605.084	371.81
605.292	376.81
605.501	389.81
605.709	384.81
605.918	379.81
606.126	377.81
606.334	368.81
606.543	354.81
606.751	343.81
606.96	355.81
607.168	370.81
607.376	377.81
607.585	377.81
607.793	361.81
608.001	345.81
608.21	370.81
608.418	355.81
608.626	369.81
608.834	361.81
609.043	375.81
609.251	364.81
609.459	354.81
609.667	359.81
609.875	369.81
610.083	361.81
610.291	351.81
610.499	359.81
610.707	360.81
610.916	350.81
611.124	354.81
611.332	351.81
611.54	342.81
611.748	334.81
611.955	338.81
612.163	348.81
612.371	347.81
612.579	351.81
612.787	341.81
612.995	355.81
613.203	335.81
613.411	356.81
613.618	347.81
613.826	333.81
614.034	354.81
614.242	342.81
614.449	345.81
614.657	335.81
614.865	331.81
615.072	337.81
615.28	341.81
615.488	342.81
615.695	324.81
615.903	338.81
616.111	341.81
616.318	367.81
616.526	341.81
616.733	324.81
616.941	344.81
617.148	337.81
617.356	336.81
617.563	329.81
617.771	333.81
617.978	331.81
618.185	325.81
618.393	337.81
618.6	357.81
618.807	323.81
619.015	337.81
619.222	329.81
619.429	331.81
619.637	331.81
619.844	332.81
620.051	327.81
620.258	328.81
620.466	325.81
620.673	317.81
620.88	303.81
621.087	313.81
621.294	327.81
621.501	316.81
621.708	316.81
621.915	324.81
622.122	322.81
622.329	292.81
622.536	320.81
622.743	309.81
622.95	308.81
623.157	303.81
623.364	305.81
623.571	299.81
623.778	315.81
623.985	289.81
624.192	311.81
624.399	306.81
624.606	291.81
624.812	303.81
625.019	312.81
625.226	303.81
625.433	294.81
625.639	301.81
625.846	285.81
626.053	315.81
626.259	311.81
626.466	296.81
626.673	294.81
626.879	271.81
627.086	306.81
627.293	303.81
627.499	291.81
627.706	289.81
627.912	280.81
628.119	292.81
628.325	303.81
628.532	289.81
628.738	282.81
628.945	258.81
629.151	281.81
629.357	264.81
629.564	269.81
629.77	253.81
629.976	277.81
630.183	269.81
630.389	253.81
630.595	264.81
630.802	263.81
631.008	255.81
631.214	269.81
631.42	265.81
631.627	272.81
631.833	241.81
632.039	250.81
632.245	259.81
632.451	263.81
632.657	266.81
632.863	264.81
633.069	258.81
633.275	244.81
633.481	255.81
633.688	273.81
633.893	267.81
634.099	262.81
634.305	248.81
634.511	260.81
634.717	258.81
634.923	243.81
635.129	241.81
635.335	264.81
635.541	264.81
635.747	253.81
635.952	244.81
636.158	244.81
636.364	246.81
636.57	253.81
636.775	253.81
636.981	253.81
637.187	235.81
637.392	232.81
637.598	240.81
637.804	247.81
638.009	248.81
638.215	248.81
638.421	228.81
638.626	233.81
638.832	259.81
639.037	232.81
639.243	220.81
639.448	230.81
639.654	234.81
639.859	215.81
640.065	244.81
640.27	249.81
640.475	239.81
640.681	233.81
640.886	220.81
641.091	219.81
641.297	228.81
641.502	249.81
641.707	220.81
641.913	232.81
642.118	234.81
642.323	216.81
642.528	213.81
642.733	214.81
642.939	224.81
643.144	215.81
643.349	224.81
643.554	229.81
643.759	227.81
643.964	218.81
644.169	225.81
644.374	227.81
644.579	211.81
644.784	220.81
644.989	232.81
645.194	211.81
645.399	226.81
645.604	224.81
645.809	242.81
646.014	214.81
646.219	210.81
646.423	212.81
646.628	213.81
646.833	217.81
647.038	222.81
647.243	210.81
647.447	217.81
647.652	214.81
647.857	221.81
648.062	223.81
648.266	211.81
648.471	227.81
648.676	219.81
648.88	229.81
649.085	222.81
649.289	239.81
649.494	206.81
649.698	209.81
649.903	216.81
650.107	208.81
650.312	188.81
650.516	203.81
650.721	189.81
650.925	199.81
651.13	200.81
651.334	183.81
651.539	203.81
651.743	215.81
651.947	205.81
652.152	185.81
652.356	180.81
652.56	176.81
652.764	177.81
652.969	178.81
653.173	187.81
653.377	169.81
653.581	179.81
653.785	165.81
653.99	164.81
654.194	166.81
654.398	155.81
654.602	171.81
654.806	168.81
655.01	163.81
655.214	151.81
655.418	154.81
655.622	142.81
655.826	159.81
656.03	150.81
656.234	146.81
656.438	162.81
656.642	152.81
656.846	138.81
657.049	146.81
657.253	147.81
657.457	151.81
657.661	130.81
657.865	133.81
658.068	125.81
658.272	135.81
658.476	120.81
658.68	117.81
658.883	99.81
659.087	119.81
659.291	111.81
659.494	102.81
659.698	100.81
659.901	95.81
660.105	107.81
660.309	100.81
660.512	103.81
660.716	93.81
660.919	102.81
661.123	101.81
661.326	112.81
661.53	95.81
661.733	67.81
661.936	88.81
662.14	76.81
662.343	95.81
662.546	75.81
662.75	70.81
662.953	87.81
663.156	88.81
663.36	97.81
663.563	68.81
663.766	77.81
663.969	78.81
664.173	76.81
664.376	92.81
664.579	82.81
664.782	77.81
664.985	81.81
665.188	97.81
665.391	71.81
665.594	75.81
665.797	81.81
666	87.81
666.203	76.81
666.406	95.81
666.609	89.81
666.812	84.81
667.015	84.81
667.218	88.81
667.421	75.81
667.624	80.81
667.827	91.81
668.03	76.81
668.232	85.81
668.435	86.81
668.638	88.81
668.841	77.81
669.043	89.81
669.246	69.81
669.449	77.81
669.651	85.81
669.854	80.81
670.057	85.81
670.259	71.81
670.462	73.81
670.665	94.81
670.867	88.81
671.07	92.81
671.272	75.81
671.475	77.81
671.677	82.81
671.88	85.81
672.082	85.81
672.284	77.81
672.487	80.81
672.689	75.81
672.892	74.81
