Data from Ni(NO3)2@0.5M.TitratingCurve.Agarose3%dH2O.NegLispCup.LampEnergy10.LIBS07252019_HRD10591_18-00-21-564.txt Node
Date: Thu Jul 25 18:00:21 EDT 2019
User: cochatt
Spectrometer: HR+D1059
Trigger mode: 1
Integration Time (sec): 1.000000E-1
Scans to average: 1
Electric dark correction enabled: true
Nonlinearity correction enabled: false
Boxcar width: 0
XAxis mode: Wavelengths
Number of Pixels in Spectrum: 2048
>>>>>Begin Spectral Data<<<<<
223.165	-12.5
223.4	-12.5
223.635	-12.5
223.869	-23.5
224.104	-20.5
224.338	-8.5
224.573	-16.5
224.808	-7.5
225.042	-10.5
225.277	-7.5
225.511	0.5
225.746	21.5
225.98	-6.5
226.215	12.5
226.449	13.5
226.683	17.5
226.918	22.5
227.152	25.5
227.387	42.5
227.621	32.5
227.856	42.5
228.09	39.5
228.324	61.5
228.559	69.5
228.793	85.5
229.027	133.5
229.262	143.5
229.496	157.5
229.73	159.5
229.964	188.5
230.199	193.5
230.433	203.5
230.667	202.5
230.901	206.5
231.136	189.5
231.37	187.5
231.604	195.5
231.838	211.5
232.072	224.5
232.306	215.5
232.541	192.5
232.775	198.5
233.009	202.5
233.243	199.5
233.477	195.5
233.711	203.5
233.945	210.5
234.179	188.5
234.413	186.5
234.647	202.5
234.881	211.5
235.115	188.5
235.349	200.5
235.583	214.5
235.817	204.5
236.051	194.5
236.285	191.5
236.519	202.5
236.753	203.5
236.987	200.5
237.221	215.5
237.455	211.5
237.689	215.5
237.922	224.5
238.156	222.5
238.39	206.5
238.624	224.5
238.858	228.5
239.091	243.5
239.325	247.5
239.559	235.5
239.793	266.5
240.027	265.5
240.26	227.5
240.494	242.5
240.728	221.5
240.961	223.5
241.195	229.5
241.429	256.5
241.662	257.5
241.896	265.5
242.13	290.5
242.363	270.5
242.597	261.5
242.83	264.5
243.064	261.5
243.298	258.5
243.531	265.5
243.765	284.5
243.998	293.5
244.232	300.5
244.465	292.5
244.699	279.5
244.932	279.5
245.166	292.5
245.399	298.5
245.633	303.5
245.866	288.5
246.099	299.5
246.333	289.5
246.566	290.5
246.8	304.5
247.033	306.5
247.266	301.5
247.5	296.5
247.733	303.5
247.966	305.5
248.2	317.5
248.433	331.5
248.666	328.5
248.899	326.5
249.133	330.5
249.366	325.5
249.599	333.5
249.832	337.5
250.066	358.5
250.299	343.5
250.532	351.5
250.765	369.5
250.998	356.5
251.231	383.5
251.465	371.5
251.698	369.5
251.931	369.5
252.164	359.5
252.397	373.5
252.63	385.5
252.863	380.5
253.096	385.5
253.329	395.5
253.562	389.5
253.795	399.5
254.028	398.5
254.261	383.5
254.494	385.5
254.727	399.5
254.96	403.5
255.193	412.5
255.426	404.5
255.659	412.5
255.892	427.5
256.124	416.5
256.357	428.5
256.59	417.5
256.823	445.5
257.056	418.5
257.289	416.5
257.521	427.5
257.754	427.5
257.987	450.5
258.22	441.5
258.452	451.5
258.685	437.5
258.918	445.5
259.151	461.5
259.383	453.5
259.616	458.5
259.849	453.5
260.081	453.5
260.314	454.5
260.547	470.5
260.779	468.5
261.012	473.5
261.244	477.5
261.477	484.5
261.71	484.5
261.942	481.5
262.175	485.5
262.407	490.5
262.64	472.5
262.872	496.5
263.105	482.5
263.337	475.5
263.57	486.5
263.802	474.5
264.035	499.5
264.267	509.5
264.499	503.5
264.732	496.5
264.964	505.5
265.197	517.5
265.429	517.5
265.661	520.5
265.894	535.5
266.126	525.5
266.358	543.5
266.591	528.5
266.823	538.5
267.055	533.5
267.287	559.5
267.52	513.5
267.752	546.5
267.984	537.5
268.216	554.5
268.448	553.5
268.681	565.5
268.913	560.5
269.145	558.5
269.377	559.5
269.609	563.5
269.841	559.5
270.073	548.5
270.306	556.5
270.538	571.5
270.77	563.5
271.002	571.5
271.234	553.5
271.466	598.5
271.698	577.5
271.93	582.5
272.162	585.5
272.394	595.5
272.626	593.5
272.858	583.5
273.09	595.5
273.322	604.5
273.553	614.5
273.785	633.5
274.017	605.5
274.249	608.5
274.481	620.5
274.713	599.5
274.945	609.5
275.176	622.5
275.408	635.5
275.64	633.5
275.872	600.5
276.104	626.5
276.335	635.5
276.567	621.5
276.799	630.5
277.031	645.5
277.262	632.5
277.494	657.5
277.726	643.5
277.957	651.5
278.189	649.5
278.421	665.5
278.652	645.5
278.884	681.5
279.115	666.5
279.347	673.5
279.579	672.5
279.81	691.5
280.042	671.5
280.273	691.5
280.505	692.5
280.736	690.5
280.968	665.5
281.199	683.5
281.431	692.5
281.662	673.5
281.894	697.5
282.125	707.5
282.356	680.5
282.588	708.5
282.819	691.5
283.051	678.5
283.282	695.5
283.513	724.5
283.745	703.5
283.976	721.5
284.207	733.5
284.439	733.5
284.67	717.5
284.901	712.5
285.132	711.5
285.364	744.5
285.595	738.5
285.826	726.5
286.057	736.5
286.288	702.5
286.52	769.5
286.751	722.5
286.982	741.5
287.213	743.5
287.444	714.5
287.675	726.5
287.906	765.5
288.138	779.5
288.369	740.5
288.6	748.5
288.831	745.5
289.062	753.5
289.293	759.5
289.524	726.5
289.755	770.5
289.986	777.5
290.217	783.5
290.448	794.5
290.679	755.5
290.91	744.5
291.141	773.5
291.371	772.5
291.602	781.5
291.833	773.5
292.064	771.5
292.295	759.5
292.526	772.5
292.757	765.5
292.987	782.5
293.218	783.5
293.449	773.5
293.68	767.5
293.91	789.5
294.141	757.5
294.372	779.5
294.603	781.5
294.833	789.5
295.064	764.5
295.295	783.5
295.525	774.5
295.756	784.5
295.987	810.5
296.217	805.5
296.448	786.5
296.679	804.5
296.909	827.5
297.14	803.5
297.37	811.5
297.601	826.5
297.831	812.5
298.062	828.5
298.292	811.5
298.523	839.5
298.753	835.5
298.984	837.5
299.214	856.5
299.445	833.5
299.675	843.5
299.905	853.5
300.136	841.5
300.366	867.5
300.597	881.5
300.827	849.5
301.057	856.5
301.288	866.5
301.518	874.5
301.748	875.5
301.979	881.5
302.209	872.5
302.439	883.5
302.669	880.5
302.9	870.5
303.13	866.5
303.36	896.5
303.59	883.5
303.82	897.5
304.051	895.5
304.281	897.5
304.511	899.5
304.741	893.5
304.971	894.5
305.201	907.5
305.431	926.5
305.661	945.5
305.891	913.5
306.121	885.5
306.352	884.5
306.582	873.5
306.812	899.5
307.042	905.5
307.272	888.5
307.502	886.5
307.731	890.5
307.961	889.5
308.191	884.5
308.421	883.5
308.651	873.5
308.881	899.5
309.111	887.5
309.341	891.5
309.571	877.5
309.8	915.5
310.03	924.5
310.26	930.5
310.49	917.5
310.72	947.5
310.949	892.5
311.179	921.5
311.409	892.5
311.639	923.5
311.868	927.5
312.098	939.5
312.328	933.5
312.557	960.5
312.787	927.5
313.017	939.5
313.246	936.5
313.476	972.5
313.706	983.5
313.935	981.5
314.165	972.5
314.394	965.5
314.624	955.5
314.853	970.5
315.083	970.5
315.312	922.5
315.542	968.5
315.771	961.5
316.001	961.5
316.23	1010.5
316.46	989.5
316.689	986.5
316.919	996.5
317.148	965.5
317.377	954.5
317.607	960.5
317.836	959.5
318.065	993.5
318.295	1008.5
318.524	997.5
318.753	972.5
318.983	971.5
319.212	937.5
319.441	986.5
319.67	977.5
319.9	993.5
320.129	995.5
320.358	1001.5
320.587	985.5
320.816	999.5
321.046	1011.5
321.275	1004.5
321.504	1004.5
321.733	1009.5
321.962	1002.5
322.191	999.5
322.42	999.5
322.649	1045.5
322.878	1036.5
323.108	1027.5
323.337	1049.5
323.566	1028.5
323.795	1050.5
324.024	1017.5
324.253	1048.5
324.482	1062.5
324.71	1019.5
324.939	1057.5
325.168	1050.5
325.397	1074.5
325.626	1085.5
325.855	1068.5
326.084	1081.5
326.313	1077.5
326.542	1101.5
326.77	1102.5
326.999	1084.5
327.228	1062.5
327.457	1073.5
327.686	1095.5
327.914	1083.5
328.143	1060.5
328.372	1098.5
328.6	1091.5
328.829	1087.5
329.058	1075.5
329.287	1082.5
329.515	1100.5
329.744	1107.5
329.972	1101.5
330.201	1112.5
330.43	1101.5
330.658	1122.5
330.887	1109.5
331.115	1145.5
331.344	1154.5
331.572	1143.5
331.801	1154.5
332.03	1193.5
332.258	1194.5
332.486	1186.5
332.715	1211.5
332.943	1194.5
333.172	1243.5
333.4	1265.5
333.629	1307.5
333.857	1292.5
334.085	1313.5
334.314	1334.5
334.542	1290.5
334.771	1324.5
334.999	1294.5
335.227	1311.5
335.455	1311.5
335.684	1281.5
335.912	1310.5
336.14	1275.5
336.369	1301.5
336.597	1300.5
336.825	1306.5
337.053	1312.5
337.281	1308.5
337.51	1251.5
337.738	1253.5
337.966	1247.5
338.194	1259.5
338.422	1275.5
338.65	1214.5
338.878	1241.5
339.106	1239.5
339.334	1207.5
339.562	1225.5
339.79	1203.5
340.018	1171.5
340.246	1184.5
340.474	1189.5
340.702	1165.5
340.93	1180.5
341.158	1148.5
341.386	1225.5
341.614	1243.5
341.842	1214.5
342.07	1201.5
342.298	1171.5
342.526	1209.5
342.754	1143.5
342.981	1146.5
343.209	1165.5
343.437	1214.5
343.665	1254.5
343.893	1287.5
344.12	1315.5
344.348	1293.5
344.576	1272.5
344.804	1315.5
345.031	1235.5
345.259	1173.5
345.487	1204.5
345.714	1176.5
345.942	1211.5
346.17	1197.5
346.397	1180.5
346.625	1152.5
346.853	1145.5
347.08	1132.5
347.308	1151.5
347.535	1115.5
347.763	1099.5
347.99	1142.5
348.218	1109.5
348.445	1130.5
348.673	1117.5
348.9	1136.5
349.128	1126.5
349.355	1126.5
349.583	1155.5
349.81	1105.5
350.037	1097.5
350.265	1062.5
350.492	1119.5
350.72	1119.5
350.947	1097.5
351.174	1111.5
351.402	1136.5
351.629	1164.5
351.856	1149.5
352.083	1118.5
352.311	1129.5
352.538	1147.5
352.765	1161.5
352.992	1055.5
353.22	1091.5
353.447	1083.5
353.674	1049.5
353.901	1108.5
354.128	1089.5
354.355	1087.5
354.583	1079.5
354.81	1091.5
355.037	1092.5
355.264	1106.5
355.491	1105.5
355.718	1090.5
355.945	1072.5
356.172	1058.5
356.399	1119.5
356.626	1108.5
356.853	1155.5
357.08	1083.5
357.307	1096.5
357.534	1085.5
357.761	1080.5
357.988	1073.5
358.215	1093.5
358.441	1064.5
358.668	1068.5
358.895	1104.5
359.122	1089.5
359.349	1077.5
359.576	1100.5
359.802	1097.5
360.029	1098.5
360.256	1076.5
360.483	1053.5
360.709	1108.5
360.936	1120.5
361.163	1087.5
361.39	1123.5
361.616	1112.5
361.843	1138.5
362.07	1139.5
362.296	1157.5
362.523	1104.5
362.749	1089.5
362.976	1092.5
363.203	1077.5
363.429	1097.5
363.656	1090.5
363.882	1125.5
364.109	1083.5
364.335	1066.5
364.562	1098.5
364.788	1109.5
365.015	1112.5
365.241	1096.5
365.468	1072.5
365.694	1095.5
365.92	1089.5
366.147	1088.5
366.373	1123.5
366.599	1098.5
366.826	1085.5
367.052	1092.5
367.278	1109.5
367.505	1083.5
367.731	1119.5
367.957	1119.5
368.184	1105.5
368.41	1108.5
368.636	1112.5
368.862	1127.5
369.089	1149.5
369.315	1120.5
369.541	1122.5
369.767	1139.5
369.993	1147.5
370.219	1157.5
370.445	1174.5
370.672	1188.5
370.898	1153.5
371.124	1160.5
371.35	1164.5
371.576	1203.5
371.802	1163.5
372.028	1171.5
372.254	1212.5
372.48	1169.5
372.706	1191.5
372.932	1179.5
373.158	1236.5
373.384	1208.5
373.61	1211.5
373.835	1202.5
374.061	1217.5
374.287	1218.5
374.513	1223.5
374.739	1228.5
374.965	1231.5
375.191	1229.5
375.416	1239.5
375.642	1242.5
375.868	1242.5
376.094	1202.5
376.319	1194.5
376.545	1184.5
376.771	1185.5
376.997	1181.5
377.222	1194.5
377.448	1195.5
377.674	1176.5
377.899	1174.5
378.125	1195.5
378.35	1188.5
378.576	1186.5
378.802	1159.5
379.027	1163.5
379.253	1175.5
379.478	1164.5
379.704	1159.5
379.929	1123.5
380.155	1183.5
380.38	1163.5
380.606	1168.5
380.831	1159.5
381.057	1173.5
381.282	1137.5
381.507	1183.5
381.733	1186.5
381.958	1181.5
382.184	1193.5
382.409	1227.5
382.634	1191.5
382.86	1184.5
383.085	1229.5
383.31	1227.5
383.535	1232.5
383.761	1241.5
383.986	1258.5
384.211	1270.5
384.436	1293.5
384.662	1293.5
384.887	1269.5
385.112	1305.5
385.337	1338.5
385.562	1325.5
385.787	1341.5
386.013	1347.5
386.238	1363.5
386.463	1331.5
386.688	1362.5
386.913	1345.5
387.138	1387.5
387.363	1366.5
387.588	1331.5
387.813	1374.5
388.038	1338.5
388.263	1344.5
388.488	1359.5
388.713	1363.5
388.938	1328.5
389.163	1353.5
389.387	1349.5
389.612	1367.5
389.837	1364.5
390.062	1365.5
390.287	1364.5
390.512	1358.5
390.736	1336.5
390.961	1419.5
391.186	1401.5
391.411	1384.5
391.636	1419.5
391.86	1457.5
392.085	1458.5
392.31	1473.5
392.534	1464.5
392.759	1463.5
392.984	1436.5
393.208	1440.5
393.433	1436.5
393.658	1413.5
393.882	1412.5
394.107	1423.5
394.331	1409.5
394.556	1442.5
394.78	1433.5
395.005	1446.5
395.229	1422.5
395.454	1471.5
395.678	1451.5
395.903	1484.5
396.127	1482.5
396.352	1484.5
396.576	1476.5
396.801	1496.5
397.025	1488.5
397.249	1494.5
397.474	1491.5
397.698	1505.5
397.922	1587.5
398.147	1572.5
398.371	1560.5
398.595	1615.5
398.82	1651.5
399.044	1731.5
399.268	1795.5
399.492	1903.5
399.717	2026.5
399.941	2055.5
400.165	1947.5
400.389	1876.5
400.613	1799.5
400.837	1783.5
401.062	1713.5
401.286	1727.5
401.51	1714.5
401.734	1650.5
401.958	1667.5
402.182	1639.5
402.406	1655.5
402.63	1647.5
402.854	1657.5
403.078	1696.5
403.302	1702.5
403.526	1687.5
403.75	1700.5
403.974	1737.5
404.198	1711.5
404.422	1738.5
404.645	1706.5
404.869	1687.5
405.093	1709.5
405.317	1737.5
405.541	1736.5
405.765	1747.5
405.988	1779.5
406.212	1781.5
406.436	1749.5
406.66	1796.5
406.883	1813.5
407.107	1884.5
407.331	1935.5
407.555	1947.5
407.778	2010.5
408.002	1950.5
408.226	1926.5
408.449	1974.5
408.673	1916.5
408.896	1884.5
409.12	1824.5
409.344	1868.5
409.567	1827.5
409.791	1834.5
410.014	1804.5
410.238	1778.5
410.461	1721.5
410.685	1762.5
410.908	1743.5
411.132	1754.5
411.355	1701.5
411.578	1699.5
411.802	1702.5
412.025	1729.5
412.249	1742.5
412.472	1717.5
412.695	1688.5
412.919	1683.5
413.142	1694.5
413.365	1648.5
413.589	1670.5
413.812	1673.5
414.035	1690.5
414.258	1667.5
414.482	1644.5
414.705	1671.5
414.928	1671.5
415.151	1655.5
415.374	1643.5
415.597	1637.5
415.821	1643.5
416.044	1612.5
416.267	1644.5
416.49	1624.5
416.713	1592.5
416.936	1569.5
417.159	1599.5
417.382	1571.5
417.605	1557.5
417.828	1603.5
418.051	1569.5
418.274	1603.5
418.497	1591.5
418.72	1593.5
418.943	1579.5
419.166	1719.5
419.389	1786.5
419.611	1759.5
419.834	1666.5
420.057	1683.5
420.28	1627.5
420.503	1538.5
420.726	1570.5
420.948	1596.5
421.171	1587.5
421.394	1589.5
421.617	1561.5
421.839	1591.5
422.062	1593.5
422.285	1546.5
422.507	1605.5
422.73	1573.5
422.953	1564.5
423.175	1591.5
423.398	1585.5
423.621	1586.5
423.843	1590.5
424.066	1605.5
424.288	1608.5
424.511	1573.5
424.733	1586.5
424.956	1550.5
425.178	1560.5
425.401	1562.5
425.623	1591.5
425.846	1541.5
426.068	1526.5
426.291	1508.5
426.513	1539.5
426.735	1539.5
426.958	1549.5
427.18	1463.5
427.402	1492.5
427.625	1541.5
427.847	1504.5
428.069	1491.5
428.292	1513.5
428.514	1458.5
428.736	1474.5
428.958	1519.5
429.181	1455.5
429.403	1471.5
429.625	1430.5
429.847	1465.5
430.069	1463.5
430.292	1498.5
430.514	1467.5
430.736	1481.5
430.958	1461.5
431.18	1473.5
431.402	1480.5
431.624	1460.5
431.846	1481.5
432.068	1491.5
432.29	1510.5
432.512	1459.5
432.734	1499.5
432.956	1475.5
433.178	1504.5
433.4	1504.5
433.622	1521.5
433.844	1512.5
434.066	1524.5
434.287	1552.5
434.509	1556.5
434.731	1571.5
434.953	1567.5
435.175	1602.5
435.397	1628.5
435.618	1539.5
435.84	1555.5
436.062	1503.5
436.284	1512.5
436.505	1482.5
436.727	1447.5
436.949	1497.5
437.17	1502.5
437.392	1471.5
437.614	1471.5
437.835	1463.5
438.057	1447.5
438.278	1416.5
438.5	1388.5
438.721	1415.5
438.943	1421.5
439.165	1429.5
439.386	1471.5
439.608	1448.5
439.829	1463.5
440.05	1445.5
440.272	1492.5
440.493	1466.5
440.715	1490.5
440.936	1530.5
441.158	1481.5
441.379	1538.5
441.6	1595.5
441.822	1588.5
442.043	1575.5
442.264	1551.5
442.486	1545.5
442.707	1560.5
442.928	1533.5
443.149	1565.5
443.371	1555.5
443.592	1632.5
443.813	1598.5
444.034	1590.5
444.255	1624.5
444.476	1655.5
444.698	1678.5
444.919	1740.5
445.14	1791.5
445.361	1722.5
445.582	1659.5
445.803	1559.5
446.024	1518.5
446.245	1526.5
446.466	1496.5
446.687	1511.5
446.908	1459.5
447.129	1425.5
447.35	1411.5
447.571	1416.5
447.792	1394.5
448.013	1385.5
448.234	1391.5
448.455	1354.5
448.675	1365.5
448.896	1353.5
449.117	1347.5
449.338	1341.5
449.559	1337.5
449.779	1316.5
450	1329.5
450.221	1327.5
450.442	1336.5
450.662	1346.5
450.883	1337.5
451.104	1379.5
451.324	1320.5
451.545	1350.5
451.766	1321.5
451.986	1335.5
452.207	1311.5
452.428	1328.5
452.648	1325.5
452.869	1255.5
453.089	1307.5
453.31	1347.5
453.53	1270.5
453.751	1319.5
453.971	1279.5
454.192	1304.5
454.412	1312.5
454.633	1289.5
454.853	1279.5
455.073	1257.5
455.294	1277.5
455.514	1285.5
455.734	1309.5
455.955	1318.5
456.175	1323.5
456.395	1270.5
456.616	1267.5
456.836	1275.5
457.056	1282.5
457.276	1234.5
457.497	1269.5
457.717	1292.5
457.937	1310.5
458.157	1305.5
458.377	1299.5
458.598	1340.5
458.818	1370.5
459.038	1419.5
459.258	1426.5
459.478	1500.5
459.698	1587.5
459.918	1565.5
460.138	1581.5
460.358	1591.5
460.578	1639.5
460.798	1692.5
461.018	1650.5
461.238	1614.5
461.458	1632.5
461.678	1584.5
461.898	1659.5
462.118	1614.5
462.338	1727.5
462.558	1733.5
462.777	1807.5
462.997	1896.5
463.217	1917.5
463.437	1969.5
463.657	1977.5
463.876	1850.5
464.096	1854.5
464.316	1814.5
464.536	1788.5
464.755	1768.5
464.975	1697.5
465.195	1649.5
465.414	1615.5
465.634	1521.5
465.854	1501.5
466.073	1505.5
466.293	1439.5
466.512	1461.5
466.732	1410.5
466.951	1443.5
467.171	1447.5
467.391	1432.5
467.61	1381.5
467.829	1373.5
468.049	1397.5
468.268	1357.5
468.488	1389.5
468.707	1358.5
468.927	1341.5
469.146	1361.5
469.365	1369.5
469.585	1385.5
469.804	1406.5
470.023	1423.5
470.243	1401.5
470.462	1405.5
470.681	1422.5
470.901	1428.5
471.12	1408.5
471.339	1409.5
471.558	1405.5
471.777	1394.5
471.997	1377.5
472.216	1388.5
472.435	1392.5
472.654	1365.5
472.873	1395.5
473.092	1366.5
473.311	1378.5
473.53	1363.5
473.749	1371.5
473.968	1375.5
474.187	1352.5
474.406	1367.5
474.625	1385.5
474.844	1364.5
475.063	1365.5
475.282	1393.5
475.501	1409.5
475.72	1413.5
475.939	1417.5
476.158	1403.5
476.377	1433.5
476.596	1443.5
476.814	1459.5
477.033	1468.5
477.252	1496.5
477.471	1456.5
477.69	1492.5
477.908	1605.5
478.127	1581.5
478.346	1603.5
478.564	1621.5
478.783	1618.5
479.002	1709.5
479.22	1717.5
479.439	1627.5
479.658	1659.5
479.876	1669.5
480.095	1659.5
480.313	1699.5
480.532	1733.5
480.751	1713.5
480.969	1695.5
481.188	1694.5
481.406	1682.5
481.624	1655.5
481.843	1647.5
482.061	1606.5
482.28	1674.5
482.498	1641.5
482.717	1631.5
482.935	1649.5
483.153	1665.5
483.372	1678.5
483.59	1681.5
483.808	1675.5
484.027	1652.5
484.245	1667.5
484.463	1669.5
484.681	1704.5
484.9	1700.5
485.118	1721.5
485.336	1674.5
485.554	1683.5
485.772	1720.5
485.99	1688.5
486.209	1671.5
486.427	1695.5
486.645	1674.5
486.863	1715.5
487.081	1705.5
487.299	1682.5
487.517	1703.5
487.735	1739.5
487.953	1721.5
488.171	1723.5
488.389	1697.5
488.607	1695.5
488.825	1689.5
489.043	1697.5
489.261	1661.5
489.479	1658.5
489.696	1682.5
489.914	1682.5
490.132	1708.5
490.35	1691.5
490.568	1715.5
490.786	1726.5
491.003	1727.5
491.221	1708.5
491.439	1704.5
491.657	1720.5
491.874	1728.5
492.092	1720.5
492.31	1721.5
492.527	1735.5
492.745	1717.5
492.963	1721.5
493.18	1708.5
493.398	1727.5
493.615	1711.5
493.833	1742.5
494.05	1695.5
494.268	1756.5
494.485	1748.5
494.703	1740.5
494.92	1800.5
495.138	1780.5
495.355	1777.5
495.573	1763.5
495.79	1809.5
496.008	1831.5
496.225	1803.5
496.442	1860.5
496.66	1837.5
496.877	1870.5
497.094	1903.5
497.312	1923.5
497.529	1938.5
497.746	1993.5
497.963	2065.5
498.181	2098.5
498.398	2124.5
498.615	2274.5
498.832	2332.5
499.049	2484.5
499.267	2584.5
499.484	2778.5
499.701	2883.5
499.918	3028.5
500.135	3239.5
500.352	3343.5
500.569	3429.5
500.786	3481.5
501.003	3392.5
501.22	3192.5
501.437	3026.5
501.654	2827.5
501.871	2657.5
502.088	2534.5
502.305	2453.5
502.522	2361.5
502.739	2254.5
502.956	2171.5
503.172	2102.5
503.389	2067.5
503.606	1979.5
503.823	1980.5
504.04	1943.5
504.256	1935.5
504.473	1891.5
504.69	1877.5
504.907	1814.5
505.123	1783.5
505.34	1756.5
505.557	1732.5
505.773	1687.5
505.99	1653.5
506.207	1624.5
506.423	1603.5
506.64	1577.5
506.856	1576.5
507.073	1588.5
507.289	1539.5
507.506	1531.5
507.722	1483.5
507.939	1515.5
508.155	1500.5
508.372	1483.5
508.588	1460.5
508.805	1461.5
509.021	1476.5
509.238	1435.5
509.454	1433.5
509.67	1433.5
509.887	1439.5
510.103	1397.5
510.319	1415.5
510.536	1408.5
510.752	1379.5
510.968	1376.5
511.184	1404.5
511.401	1388.5
511.617	1356.5
511.833	1367.5
512.049	1373.5
512.265	1378.5
512.481	1391.5
512.698	1399.5
512.914	1404.5
513.13	1380.5
513.346	1389.5
513.562	1373.5
513.778	1384.5
513.994	1367.5
514.21	1385.5
514.426	1383.5
514.642	1387.5
514.858	1443.5
515.074	1407.5
515.29	1444.5
515.506	1410.5
515.721	1467.5
515.937	1452.5
516.153	1485.5
516.369	1471.5
516.585	1535.5
516.801	1543.5
517.016	1540.5
517.232	1604.5
517.448	1642.5
517.664	1648.5
517.879	1644.5
518.095	1611.5
518.311	1626.5
518.527	1609.5
518.742	1552.5
518.958	1533.5
519.173	1515.5
519.389	1461.5
519.605	1454.5
519.82	1433.5
520.036	1420.5
520.251	1389.5
520.467	1377.5
520.682	1377.5
520.898	1329.5
521.113	1356.5
521.329	1346.5
521.544	1345.5
521.76	1310.5
521.975	1279.5
522.19	1290.5
522.406	1268.5
522.621	1298.5
522.836	1269.5
523.052	1259.5
523.267	1258.5
523.482	1256.5
523.698	1257.5
523.913	1242.5
524.128	1263.5
524.343	1247.5
524.559	1231.5
524.774	1217.5
524.989	1237.5
525.204	1237.5
525.419	1218.5
525.634	1224.5
525.849	1207.5
526.064	1238.5
526.28	1196.5
526.495	1179.5
526.71	1196.5
526.925	1201.5
527.14	1213.5
527.355	1212.5
527.57	1175.5
527.785	1203.5
527.999	1180.5
528.214	1208.5
528.429	1191.5
528.644	1200.5
528.859	1181.5
529.074	1197.5
529.289	1201.5
529.503	1206.5
529.718	1192.5
529.933	1194.5
530.148	1205.5
530.363	1205.5
530.577	1191.5
530.792	1179.5
531.007	1178.5
531.221	1176.5
531.436	1181.5
531.651	1192.5
531.865	1167.5
532.08	1167.5
532.295	1153.5
532.509	1152.5
532.724	1142.5
532.938	1178.5
533.153	1158.5
533.367	1177.5
533.582	1178.5
533.796	1186.5
534.011	1194.5
534.225	1171.5
534.44	1137.5
534.654	1118.5
534.868	1153.5
535.083	1156.5
535.297	1153.5
535.511	1129.5
535.726	1114.5
535.94	1116.5
536.154	1116.5
536.369	1113.5
536.583	1104.5
536.797	1147.5
537.011	1112.5
537.225	1095.5
537.44	1127.5
537.654	1093.5
537.868	1057.5
538.082	1094.5
538.296	1079.5
538.51	1087.5
538.724	1080.5
538.938	1081.5
539.153	1084.5
539.367	1087.5
539.581	1041.5
539.795	1078.5
540.009	1074.5
540.222	1076.5
540.436	1073.5
540.65	1068.5
540.864	1052.5
541.078	1061.5
541.292	1083.5
541.506	1074.5
541.72	1048.5
541.934	1077.5
542.147	1083.5
542.361	1073.5
542.575	1054.5
542.789	1059.5
543.002	1059.5
543.216	1062.5
543.43	1073.5
543.644	1041.5
543.857	1065.5
544.071	1040.5
544.285	1055.5
544.498	1055.5
544.712	1015.5
544.925	1033.5
545.139	1063.5
545.352	1056.5
545.566	1056.5
545.779	1051.5
545.993	1066.5
546.206	1063.5
546.42	1071.5
546.633	1079.5
546.847	1038.5
547.06	1067.5
547.274	1059.5
547.487	1025.5
547.7	1062.5
547.914	1055.5
548.127	1060.5
548.34	1059.5
548.554	1049.5
548.767	1086.5
548.98	1061.5
549.193	1029.5
549.407	1050.5
549.62	1059.5
549.833	1085.5
550.046	1084.5
550.259	1075.5
550.473	1072.5
550.686	1033.5
550.899	1040.5
551.112	1061.5
551.325	1033.5
551.538	1055.5
551.751	1061.5
551.964	1058.5
552.177	1033.5
552.39	1071.5
552.603	1057.5
552.816	1066.5
553.029	1097.5
553.242	1073.5
553.455	1096.5
553.667	1111.5
553.88	1082.5
554.093	1077.5
554.306	1029.5
554.519	1024.5
554.732	1044.5
554.944	1015.5
555.157	996.5
555.37	993.5
555.583	997.5
555.795	976.5
556.008	944.5
556.221	930.5
556.433	938.5
556.646	940.5
556.859	922.5
557.071	927.5
557.284	925.5
557.496	906.5
557.709	921.5
557.921	921.5
558.134	924.5
558.346	873.5
558.559	892.5
558.771	899.5
558.984	880.5
559.196	882.5
559.409	899.5
559.621	919.5
559.833	901.5
560.046	867.5
560.258	861.5
560.47	876.5
560.683	872.5
560.895	880.5
561.107	871.5
561.32	887.5
561.532	883.5
561.744	888.5
561.956	895.5
562.168	907.5
562.381	891.5
562.593	894.5
562.805	883.5
563.017	891.5
563.229	869.5
563.441	909.5
563.653	881.5
563.865	901.5
564.077	903.5
564.289	927.5
564.501	930.5
564.713	921.5
564.925	928.5
565.137	962.5
565.349	981.5
565.561	1022.5
565.773	1028.5
565.985	1051.5
566.197	1048.5
566.408	1100.5
566.62	1160.5
566.832	1186.5
567.044	1200.5
567.255	1208.5
567.467	1253.5
567.679	1269.5
567.891	1264.5
568.102	1250.5
568.314	1200.5
568.526	1181.5
568.737	1097.5
568.949	1059.5
569.161	1038.5
569.372	967.5
569.584	965.5
569.795	927.5
570.007	926.5
570.218	897.5
570.43	889.5
570.641	869.5
570.853	891.5
571.064	837.5
571.276	830.5
571.487	810.5
571.698	811.5
571.91	799.5
572.121	800.5
572.333	763.5
572.544	762.5
572.755	765.5
572.966	756.5
573.178	743.5
573.389	761.5
573.6	723.5
573.811	721.5
574.023	699.5
574.234	712.5
574.445	689.5
574.656	690.5
574.867	683.5
575.078	681.5
575.289	690.5
575.501	689.5
575.712	701.5
575.923	695.5
576.134	681.5
576.345	662.5
576.556	673.5
576.767	683.5
576.978	659.5
577.188	644.5
577.399	663.5
577.61	664.5
577.821	662.5
578.032	650.5
578.243	629.5
578.454	657.5
578.665	647.5
578.875	637.5
579.086	627.5
579.297	634.5
579.508	629.5
579.718	644.5
579.929	618.5
580.14	625.5
580.35	633.5
580.561	609.5
580.772	619.5
580.982	612.5
581.193	604.5
581.403	591.5
581.614	591.5
581.825	615.5
582.035	598.5
582.246	578.5
582.456	583.5
582.667	610.5
582.877	592.5
583.087	595.5
583.298	594.5
583.508	595.5
583.719	570.5
583.929	585.5
584.139	583.5
584.35	581.5
584.56	603.5
584.77	580.5
584.981	587.5
585.191	600.5
585.401	570.5
585.611	580.5
585.821	581.5
586.032	570.5
586.242	556.5
586.452	581.5
586.662	573.5
586.872	586.5
587.082	568.5
587.292	564.5
587.502	570.5
587.713	581.5
587.923	571.5
588.133	555.5
588.343	557.5
588.553	570.5
588.762	569.5
588.972	556.5
589.182	597.5
589.392	588.5
589.602	589.5
589.812	588.5
590.022	572.5
590.232	565.5
590.441	589.5
590.651	559.5
590.861	543.5
591.071	550.5
591.281	571.5
591.49	586.5
591.7	611.5
591.91	593.5
592.119	601.5
592.329	607.5
592.539	609.5
592.748	620.5
592.958	620.5
593.167	614.5
593.377	633.5
593.587	634.5
593.796	620.5
594.006	637.5
594.215	612.5
594.424	630.5
594.634	613.5
594.843	593.5
595.053	583.5
595.262	609.5
595.472	575.5
595.681	562.5
595.89	567.5
596.1	555.5
596.309	556.5
596.518	546.5
596.727	519.5
596.937	529.5
597.146	525.5
597.355	513.5
597.564	520.5
597.774	491.5
597.983	465.5
598.192	500.5
598.401	486.5
598.61	493.5
598.819	501.5
599.028	469.5
599.237	475.5
599.446	485.5
599.655	483.5
599.864	481.5
600.073	461.5
600.282	464.5
600.491	453.5
600.7	469.5
600.909	474.5
601.118	459.5
601.327	474.5
601.536	455.5
601.745	455.5
601.953	456.5
602.162	457.5
602.371	459.5
602.58	441.5
602.789	462.5
602.997	459.5
603.206	459.5
603.415	448.5
603.623	439.5
603.832	459.5
604.041	419.5
604.249	439.5
604.458	435.5
604.666	419.5
604.875	459.5
605.084	448.5
605.292	423.5
605.501	428.5
605.709	435.5
605.918	427.5
606.126	431.5
606.334	419.5
606.543	447.5
606.751	439.5
606.96	417.5
607.168	411.5
607.376	409.5
607.585	410.5
607.793	407.5
608.001	427.5
608.21	418.5
608.418	418.5
608.626	408.5
608.834	407.5
609.043	426.5
609.251	426.5
609.459	406.5
609.667	416.5
609.875	401.5
610.083	394.5
610.291	401.5
610.499	394.5
610.707	399.5
610.916	399.5
611.124	419.5
611.332	422.5
611.54	395.5
611.748	401.5
611.955	394.5
612.163	386.5
612.371	391.5
612.579	397.5
612.787	395.5
612.995	400.5
613.203	388.5
613.411	397.5
613.618	377.5
613.826	388.5
614.034	375.5
614.242	399.5
614.449	378.5
614.657	396.5
614.865	391.5
615.072	393.5
615.28	385.5
615.488	381.5
615.695	403.5
615.903	386.5
616.111	381.5
616.318	398.5
616.526	375.5
616.733	402.5
616.941	382.5
617.148	386.5
617.356	380.5
617.563	387.5
617.771	378.5
617.978	392.5
618.185	399.5
618.393	388.5
618.6	371.5
618.807	371.5
619.015	384.5
619.222	374.5
619.429	379.5
619.637	390.5
619.844	360.5
620.051	381.5
620.258	351.5
620.466	364.5
620.673	342.5
620.88	364.5
621.087	361.5
621.294	361.5
621.501	375.5
621.708	369.5
621.915	349.5
622.122	362.5
622.329	344.5
622.536	346.5
622.743	336.5
622.95	357.5
623.157	348.5
623.364	352.5
623.571	362.5
623.778	352.5
623.985	364.5
624.192	341.5
624.399	345.5
624.606	336.5
624.812	351.5
625.019	347.5
625.226	338.5
625.433	348.5
625.639	343.5
625.846	340.5
626.053	319.5
626.259	330.5
626.466	342.5
626.673	339.5
626.879	339.5
627.086	335.5
627.293	309.5
627.499	332.5
627.706	330.5
627.912	320.5
628.119	319.5
628.325	327.5
628.532	341.5
628.738	332.5
628.945	330.5
629.151	318.5
629.357	306.5
629.564	314.5
629.77	311.5
629.976	308.5
630.183	318.5
630.389	307.5
630.595	305.5
630.802	315.5
631.008	300.5
631.214	293.5
631.42	326.5
631.627	309.5
631.833	321.5
632.039	282.5
632.245	299.5
632.451	288.5
632.657	301.5
632.863	289.5
633.069	309.5
633.275	290.5
633.481	311.5
633.688	302.5
633.893	279.5
634.099	285.5
634.305	283.5
634.511	294.5
634.717	299.5
634.923	282.5
635.129	273.5
635.335	298.5
635.541	292.5
635.747	297.5
635.952	299.5
636.158	292.5
636.364	286.5
636.57	279.5
636.775	299.5
636.981	299.5
637.187	285.5
637.392	290.5
637.598	282.5
637.804	303.5
638.009	298.5
638.215	294.5
638.421	290.5
638.626	294.5
638.832	283.5
639.037	282.5
639.243	286.5
639.448	277.5
639.654	275.5
639.859	281.5
640.065	279.5
640.27	275.5
640.475	268.5
640.681	293.5
640.886	283.5
641.091	289.5
641.297	276.5
641.502	264.5
641.707	263.5
641.913	296.5
642.118	273.5
642.323	263.5
642.528	290.5
642.733	273.5
642.939	283.5
643.144	272.5
643.349	273.5
643.554	270.5
643.759	277.5
643.964	278.5
644.169	264.5
644.374	270.5
644.579	253.5
644.784	260.5
644.989	259.5
645.194	272.5
645.399	264.5
645.604	267.5
645.809	295.5
646.014	261.5
646.219	287.5
646.423	261.5
646.628	277.5
646.833	280.5
647.038	289.5
647.243	285.5
647.447	297.5
647.652	296.5
647.857	289.5
648.062	276.5
648.266	279.5
648.471	292.5
648.676	275.5
648.88	294.5
649.085	267.5
649.289	280.5
649.494	283.5
649.698	287.5
649.903	278.5
650.107	265.5
650.312	268.5
650.516	285.5
650.721	307.5
650.925	274.5
651.13	273.5
651.334	268.5
651.539	286.5
651.743	299.5
651.947	268.5
652.152	273.5
652.356	285.5
652.56	256.5
652.764	257.5
652.969	262.5
653.173	281.5
653.377	270.5
653.581	249.5
653.785	252.5
653.99	263.5
654.194	279.5
654.398	252.5
654.602	253.5
654.806	266.5
655.01	271.5
655.214	249.5
655.418	255.5
655.622	265.5
655.826	261.5
656.03	284.5
656.234	283.5
656.438	268.5
656.642	275.5
656.846	268.5
657.049	272.5
657.253	245.5
657.457	235.5
657.661	217.5
657.865	214.5
658.068	180.5
658.272	201.5
658.476	177.5
658.68	171.5
658.883	166.5
659.087	154.5
659.291	138.5
659.494	146.5
659.698	141.5
659.901	137.5
660.105	128.5
660.309	127.5
660.512	125.5
660.716	100.5
660.919	111.5
661.123	117.5
661.326	109.5
661.53	116.5
661.733	95.5
661.936	95.5
662.14	81.5
662.343	81.5
662.546	95.5
662.75	99.5
662.953	86.5
663.156	87.5
663.36	90.5
663.563	96.5
663.766	93.5
663.969	74.5
664.173	74.5
664.376	84.5
664.579	65.5
664.782	82.5
664.985	77.5
665.188	81.5
665.391	85.5
665.594	77.5
665.797	81.5
666	78.5
666.203	87.5
666.406	94.5
666.609	73.5
666.812	76.5
667.015	90.5
667.218	75.5
667.421	83.5
667.624	79.5
667.827	90.5
668.03	86.5
668.232	70.5
668.435	71.5
668.638	87.5
668.841	81.5
669.043	84.5
669.246	77.5
669.449	82.5
669.651	81.5
669.854	74.5
670.057	60.5
670.259	92.5
670.462	76.5
670.665	75.5
670.867	91.5
671.07	76.5
671.272	78.5
671.475	87.5
671.677	83.5
671.88	84.5
672.082	68.5
672.284	79.5
672.487	97.5
672.689	71.5
672.892	86.5
