Data from Ni(NO3)2@0.125M.TitratingCurve.Agarose3%dH2O.NegLispCup.LampEnergy10.LIBS07252019_HRD10591_18-10-28-568.txt Node
Date: Thu Jul 25 18:10:28 EDT 2019
User: cochatt
Spectrometer: HR+D1059
Trigger mode: 1
Integration Time (sec): 1.000000E-1
Scans to average: 1
Electric dark correction enabled: true
Nonlinearity correction enabled: false
Boxcar width: 0
XAxis mode: Wavelengths
Number of Pixels in Spectrum: 2048
>>>>>Begin Spectral Data<<<<<
223.165	-26.19
223.4	-26.19
223.635	-26.19
223.869	-24.19
224.104	-18.19
224.338	-12.19
224.573	-8.19
224.808	-9.19
225.042	-9.19
225.277	-0.19
225.511	9.81
225.746	12.81
225.98	13.81
226.215	4.81
226.449	17.81
226.683	7.81
226.918	20.81
227.152	19.81
227.387	38.81
227.621	32.81
227.856	41.81
228.09	43.81
228.324	41.81
228.559	52.81
228.793	67.81
229.027	119.81
229.262	114.81
229.496	127.81
229.73	110.81
229.964	127.81
230.199	121.81
230.433	144.81
230.667	157.81
230.901	161.81
231.136	139.81
231.37	136.81
231.604	150.81
231.838	171.81
232.072	168.81
232.306	154.81
232.541	149.81
232.775	148.81
233.009	153.81
233.243	153.81
233.477	158.81
233.711	154.81
233.945	155.81
234.179	154.81
234.413	162.81
234.647	147.81
234.881	154.81
235.115	155.81
235.349	162.81
235.583	151.81
235.817	165.81
236.051	157.81
236.285	169.81
236.519	185.81
236.753	173.81
236.987	164.81
237.221	165.81
237.455	160.81
237.689	185.81
237.922	193.81
238.156	171.81
238.39	176.81
238.624	178.81
238.858	191.81
239.091	191.81
239.325	187.81
239.559	180.81
239.793	177.81
240.027	191.81
240.26	198.81
240.494	184.81
240.728	188.81
240.961	189.81
241.195	183.81
241.429	218.81
241.662	191.81
241.896	207.81
242.13	205.81
242.363	222.81
242.597	214.81
242.83	213.81
243.064	221.81
243.298	192.81
243.531	225.81
243.765	228.81
243.998	223.81
244.232	224.81
244.465	214.81
244.699	215.81
244.932	224.81
245.166	217.81
245.399	243.81
245.633	248.81
245.866	243.81
246.099	243.81
246.333	228.81
246.566	214.81
246.8	221.81
247.033	248.81
247.266	249.81
247.5	239.81
247.733	253.81
247.966	248.81
248.2	241.81
248.433	240.81
248.666	269.81
248.899	255.81
249.133	246.81
249.366	274.81
249.599	277.81
249.832	285.81
250.066	275.81
250.299	248.81
250.532	279.81
250.765	280.81
250.998	265.81
251.231	303.81
251.465	300.81
251.698	280.81
251.931	280.81
252.164	277.81
252.397	286.81
252.63	285.81
252.863	298.81
253.096	297.81
253.329	303.81
253.562	292.81
253.795	293.81
254.028	290.81
254.261	310.81
254.494	303.81
254.727	296.81
254.96	300.81
255.193	300.81
255.426	308.81
255.659	290.81
255.892	320.81
256.124	315.81
256.357	321.81
256.59	300.81
256.823	322.81
257.056	319.81
257.289	319.81
257.521	340.81
257.754	327.81
257.987	319.81
258.22	343.81
258.452	340.81
258.685	326.81
258.918	321.81
259.151	349.81
259.383	336.81
259.616	351.81
259.849	355.81
260.081	334.81
260.314	331.81
260.547	345.81
260.779	347.81
261.012	346.81
261.244	361.81
261.477	363.81
261.71	368.81
261.942	361.81
262.175	337.81
262.407	359.81
262.64	358.81
262.872	371.81
263.105	367.81
263.337	371.81
263.57	351.81
263.802	385.81
264.035	377.81
264.267	367.81
264.499	370.81
264.732	369.81
264.964	374.81
265.197	387.81
265.429	374.81
265.661	375.81
265.894	403.81
266.126	397.81
266.358	403.81
266.591	383.81
266.823	382.81
267.055	371.81
267.287	394.81
267.52	387.81
267.752	397.81
267.984	394.81
268.216	398.81
268.448	399.81
268.681	399.81
268.913	411.81
269.145	390.81
269.377	391.81
269.609	408.81
269.841	414.81
270.073	398.81
270.306	411.81
270.538	413.81
270.77	414.81
271.002	413.81
271.234	427.81
271.466	410.81
271.698	413.81
271.93	448.81
272.162	421.81
272.394	440.81
272.626	429.81
272.858	444.81
273.09	436.81
273.322	444.81
273.553	423.81
273.785	445.81
274.017	441.81
274.249	454.81
274.481	439.81
274.713	453.81
274.945	467.81
275.176	465.81
275.408	443.81
275.64	473.81
275.872	460.81
276.104	465.81
276.335	459.81
276.567	449.81
276.799	471.81
277.031	452.81
277.262	457.81
277.494	456.81
277.726	447.81
277.957	467.81
278.189	479.81
278.421	468.81
278.652	496.81
278.884	480.81
279.115	457.81
279.347	481.81
279.579	473.81
279.81	499.81
280.042	485.81
280.273	470.81
280.505	482.81
280.736	480.81
280.968	492.81
281.199	501.81
281.431	526.81
281.662	495.81
281.894	504.81
282.125	536.81
282.356	517.81
282.588	499.81
282.819	509.81
283.051	512.81
283.282	524.81
283.513	506.81
283.745	503.81
283.976	501.81
284.207	533.81
284.439	519.81
284.67	545.81
284.901	549.81
285.132	541.81
285.364	555.81
285.595	542.81
285.826	544.81
286.057	522.81
286.288	568.81
286.52	537.81
286.751	538.81
286.982	562.81
287.213	553.81
287.444	537.81
287.675	552.81
287.906	571.81
288.138	561.81
288.369	568.81
288.6	568.81
288.831	579.81
289.062	581.81
289.293	552.81
289.524	565.81
289.755	561.81
289.986	577.81
290.217	569.81
290.448	575.81
290.679	593.81
290.91	572.81
291.141	550.81
291.371	568.81
291.602	570.81
291.833	559.81
292.064	572.81
292.295	601.81
292.526	591.81
292.757	562.81
292.987	572.81
293.218	575.81
293.449	588.81
293.68	585.81
293.91	576.81
294.141	579.81
294.372	575.81
294.603	597.81
294.833	592.81
295.064	585.81
295.295	597.81
295.525	572.81
295.756	573.81
295.987	584.81
296.217	608.81
296.448	600.81
296.679	618.81
296.909	594.81
297.14	597.81
297.37	618.81
297.601	600.81
297.831	615.81
298.062	624.81
298.292	623.81
298.523	650.81
298.753	621.81
298.984	637.81
299.214	649.81
299.445	627.81
299.675	616.81
299.905	627.81
300.136	631.81
300.366	653.81
300.597	645.81
300.827	658.81
301.057	654.81
301.288	667.81
301.518	658.81
301.748	649.81
301.979	676.81
302.209	675.81
302.439	651.81
302.669	647.81
302.9	663.81
303.13	666.81
303.36	669.81
303.59	680.81
303.82	676.81
304.051	647.81
304.281	658.81
304.511	675.81
304.741	651.81
304.971	676.81
305.201	639.81
305.431	633.81
305.661	672.81
305.891	647.81
306.121	611.81
306.352	621.81
306.582	643.81
306.812	631.81
307.042	640.81
307.272	645.81
307.502	644.81
307.731	611.81
307.961	623.81
308.191	643.81
308.421	616.81
308.651	645.81
308.881	639.81
309.111	626.81
309.341	635.81
309.571	626.81
309.8	660.81
310.03	632.81
310.26	611.81
310.49	645.81
310.72	642.81
310.949	657.81
311.179	660.81
311.409	665.81
311.639	652.81
311.868	611.81
312.098	665.81
312.328	678.81
312.557	673.81
312.787	653.81
313.017	678.81
313.246	659.81
313.476	696.81
313.706	682.81
313.935	679.81
314.165	696.81
314.394	698.81
314.624	699.81
314.853	703.81
315.083	679.81
315.312	669.81
315.542	694.81
315.771	677.81
316.001	689.81
316.23	697.81
316.46	672.81
316.689	661.81
316.919	681.81
317.148	674.81
317.377	671.81
317.607	691.81
317.836	677.81
318.065	699.81
318.295	710.81
318.524	687.81
318.753	678.81
318.983	691.81
319.212	675.81
319.441	665.81
319.67	699.81
319.9	677.81
320.129	676.81
320.358	700.81
320.587	668.81
320.816	698.81
321.046	687.81
321.275	719.81
321.504	681.81
321.733	672.81
321.962	717.81
322.191	679.81
322.42	703.81
322.649	702.81
322.878	699.81
323.108	689.81
323.337	722.81
323.566	706.81
323.795	725.81
324.024	730.81
324.253	710.81
324.482	723.81
324.71	711.81
324.939	703.81
325.168	726.81
325.397	699.81
325.626	727.81
325.855	741.81
326.084	756.81
326.313	735.81
326.542	751.81
326.77	782.81
326.999	726.81
327.228	741.81
327.457	735.81
327.686	751.81
327.914	754.81
328.143	754.81
328.372	781.81
328.6	767.81
328.829	742.81
329.058	760.81
329.287	790.81
329.515	779.81
329.744	775.81
329.972	763.81
330.201	778.81
330.43	785.81
330.658	791.81
330.887	793.81
331.115	790.81
331.344	794.81
331.572	787.81
331.801	818.81
332.03	819.81
332.258	861.81
332.486	885.81
332.715	892.81
332.943	949.81
333.172	984.81
333.4	1028.81
333.629	1047.81
333.857	1060.81
334.085	1041.81
334.314	994.81
334.542	998.81
334.771	980.81
334.999	943.81
335.227	969.81
335.455	947.81
335.684	926.81
335.912	909.81
336.14	931.81
336.369	939.81
336.597	933.81
336.825	917.81
337.053	892.81
337.281	871.81
337.51	891.81
337.738	851.81
337.966	850.81
338.194	853.81
338.422	836.81
338.65	804.81
338.878	834.81
339.106	829.81
339.334	831.81
339.562	820.81
339.79	796.81
340.018	801.81
340.246	790.81
340.474	773.81
340.702	831.81
340.93	816.81
341.158	831.81
341.386	802.81
341.614	804.81
341.842	817.81
342.07	792.81
342.298	768.81
342.526	809.81
342.754	785.81
342.981	790.81
343.209	839.81
343.437	859.81
343.665	907.81
343.893	972.81
344.12	1004.81
344.348	964.81
344.576	899.81
344.804	883.81
345.031	826.81
345.259	831.81
345.487	817.81
345.714	817.81
345.942	794.81
346.17	796.81
346.397	770.81
346.625	786.81
346.853	780.81
347.08	776.81
347.308	804.81
347.535	783.81
347.763	804.81
347.99	791.81
348.218	785.81
348.445	792.81
348.673	764.81
348.9	779.81
349.128	767.81
349.355	764.81
349.583	768.81
349.81	742.81
350.037	752.81
350.265	757.81
350.492	727.81
350.72	717.81
350.947	731.81
351.174	743.81
351.402	769.81
351.629	733.81
351.856	759.81
352.083	732.81
352.311	751.81
352.538	717.81
352.765	732.81
352.992	720.81
353.22	736.81
353.447	751.81
353.674	731.81
353.901	728.81
354.128	720.81
354.355	740.81
354.583	760.81
354.81	738.81
355.037	739.81
355.264	743.81
355.491	715.81
355.718	736.81
355.945	755.81
356.172	753.81
356.399	757.81
356.626	762.81
356.853	747.81
357.08	755.81
357.307	756.81
357.534	747.81
357.761	757.81
357.988	770.81
358.215	749.81
358.441	743.81
358.668	729.81
358.895	741.81
359.122	748.81
359.349	748.81
359.576	729.81
359.802	737.81
360.029	768.81
360.256	738.81
360.483	769.81
360.709	754.81
360.936	761.81
361.163	736.81
361.39	737.81
361.616	723.81
361.843	740.81
362.07	766.81
362.296	751.81
362.523	749.81
362.749	757.81
362.976	719.81
363.203	725.81
363.429	748.81
363.656	749.81
363.882	748.81
364.109	759.81
364.335	736.81
364.562	725.81
364.788	733.81
365.015	748.81
365.241	723.81
365.468	730.81
365.694	742.81
365.92	748.81
366.147	724.81
366.373	734.81
366.599	722.81
366.826	745.81
367.052	744.81
367.278	742.81
367.505	762.81
367.731	769.81
367.957	767.81
368.184	744.81
368.41	749.81
368.636	746.81
368.862	764.81
369.089	753.81
369.315	768.81
369.541	782.81
369.767	824.81
369.993	787.81
370.219	748.81
370.445	763.81
370.672	795.81
370.898	788.81
371.124	821.81
371.35	802.81
371.576	825.81
371.802	797.81
372.028	811.81
372.254	802.81
372.48	824.81
372.706	823.81
372.932	867.81
373.158	861.81
373.384	829.81
373.61	806.81
373.835	835.81
374.061	804.81
374.287	831.81
374.513	833.81
374.739	852.81
374.965	886.81
375.191	912.81
375.416	888.81
375.642	848.81
375.868	864.81
376.094	833.81
376.319	826.81
376.545	824.81
376.771	807.81
376.997	809.81
377.222	796.81
377.448	825.81
377.674	790.81
377.899	801.81
378.125	814.81
378.35	799.81
378.576	813.81
378.802	811.81
379.027	791.81
379.253	797.81
379.478	791.81
379.704	791.81
379.929	799.81
380.155	791.81
380.38	815.81
380.606	810.81
380.831	785.81
381.057	791.81
381.282	787.81
381.507	808.81
381.733	817.81
381.958	789.81
382.184	816.81
382.409	856.81
382.634	842.81
382.86	860.81
383.085	851.81
383.31	876.81
383.535	864.81
383.761	922.81
383.986	914.81
384.211	946.81
384.436	961.81
384.662	972.81
384.887	972.81
385.112	971.81
385.337	972.81
385.562	1001.81
385.787	999.81
386.013	1015.81
386.238	994.81
386.463	978.81
386.688	965.81
386.913	975.81
387.138	970.81
387.363	960.81
387.588	948.81
387.813	956.81
388.038	940.81
388.263	941.81
388.488	956.81
388.713	965.81
388.938	938.81
389.163	951.81
389.387	965.81
389.612	929.81
389.837	932.81
390.062	909.81
390.287	960.81
390.512	963.81
390.736	950.81
390.961	984.81
391.186	974.81
391.411	1032.81
391.636	1028.81
391.86	1095.81
392.085	1099.81
392.31	1092.81
392.534	1079.81
392.759	1049.81
392.984	1004.81
393.208	1027.81
393.433	1032.81
393.658	1058.81
393.882	1035.81
394.107	1041.81
394.331	1043.81
394.556	1037.81
394.78	1037.81
395.005	1035.81
395.229	1088.81
395.454	1057.81
395.678	1097.81
395.903	1068.81
396.127	1041.81
396.352	1038.81
396.576	1012.81
396.801	999.81
397.025	1023.81
397.249	1050.81
397.474	1079.81
397.698	1093.81
397.922	1091.81
398.147	1068.81
398.371	1096.81
398.595	1146.81
398.82	1188.81
399.044	1239.81
399.268	1417.81
399.492	1659.81
399.717	1925.81
399.941	1924.81
400.165	1687.81
400.389	1451.81
400.613	1352.81
400.837	1257.81
401.062	1243.81
401.286	1225.81
401.51	1232.81
401.734	1201.81
401.958	1239.81
402.182	1244.81
402.406	1242.81
402.63	1283.81
402.854	1285.81
403.078	1293.81
403.302	1334.81
403.526	1385.81
403.75	1424.81
403.974	1441.81
404.198	1420.81
404.422	1409.81
404.645	1407.81
404.869	1374.81
405.093	1395.81
405.317	1355.81
405.541	1349.81
405.765	1315.81
405.988	1272.81
406.212	1318.81
406.436	1331.81
406.66	1392.81
406.883	1391.81
407.107	1491.81
407.331	1520.81
407.555	1567.81
407.778	1556.81
408.002	1538.81
408.226	1533.81
408.449	1440.81
408.673	1400.81
408.896	1349.81
409.12	1373.81
409.344	1392.81
409.567	1374.81
409.791	1355.81
410.014	1371.81
410.238	1370.81
410.461	1375.81
410.685	1342.81
410.908	1364.81
411.132	1292.81
411.355	1264.81
411.578	1298.81
411.802	1274.81
412.025	1288.81
412.249	1304.81
412.472	1297.81
412.695	1206.81
412.919	1228.81
413.142	1204.81
413.365	1218.81
413.589	1243.81
413.812	1161.81
414.035	1222.81
414.258	1210.81
414.482	1188.81
414.705	1261.81
414.928	1241.81
415.151	1235.81
415.374	1172.81
415.597	1221.81
415.821	1160.81
416.044	1168.81
416.267	1169.81
416.49	1185.81
416.713	1179.81
416.936	1193.81
417.159	1151.81
417.382	1180.81
417.605	1164.81
417.828	1196.81
418.051	1219.81
418.274	1192.81
418.497	1207.81
418.72	1232.81
418.943	1235.81
419.166	1329.81
419.389	1420.81
419.611	1387.81
419.834	1297.81
420.057	1250.81
420.28	1230.81
420.503	1169.81
420.726	1205.81
420.948	1179.81
421.171	1200.81
421.394	1205.81
421.617	1177.81
421.839	1194.81
422.062	1231.81
422.285	1183.81
422.507	1216.81
422.73	1222.81
422.953	1279.81
423.175	1280.81
423.398	1294.81
423.621	1287.81
423.843	1327.81
424.066	1311.81
424.288	1282.81
424.511	1289.81
424.733	1268.81
424.956	1246.81
425.178	1260.81
425.401	1234.81
425.623	1199.81
425.846	1175.81
426.068	1155.81
426.291	1173.81
426.513	1131.81
426.735	1137.81
426.958	1101.81
427.18	1086.81
427.402	1105.81
427.625	1112.81
427.847	1080.81
428.069	1059.81
428.292	1068.81
428.514	1042.81
428.736	1054.81
428.958	1084.81
429.181	1051.81
429.403	1041.81
429.625	1045.81
429.847	1014.81
430.069	1057.81
430.292	1044.81
430.514	1029.81
430.736	1047.81
430.958	1054.81
431.18	1062.81
431.402	1048.81
431.624	1035.81
431.846	1075.81
432.068	1047.81
432.29	1104.81
432.512	1047.81
432.734	1088.81
432.956	1077.81
433.178	1097.81
433.4	1052.81
433.622	1064.81
433.844	1075.81
434.066	1080.81
434.287	1094.81
434.509	1152.81
434.731	1184.81
434.953	1208.81
435.175	1251.81
435.397	1193.81
435.618	1111.81
435.84	1126.81
436.062	1098.81
436.284	1071.81
436.505	1065.81
436.727	1078.81
436.949	1086.81
437.17	1106.81
437.392	1084.81
437.614	1024.81
437.835	1023.81
438.057	1033.81
438.278	1048.81
438.5	1014.81
438.721	995.81
438.943	1031.81
439.165	1039.81
439.386	1063.81
439.608	1095.81
439.829	1059.81
440.05	1069.81
440.272	1111.81
440.493	1105.81
440.715	1104.81
440.936	1120.81
441.158	1128.81
441.379	1158.81
441.6	1217.81
441.822	1221.81
442.043	1229.81
442.264	1179.81
442.486	1168.81
442.707	1220.81
442.928	1185.81
443.149	1205.81
443.371	1204.81
443.592	1226.81
443.813	1205.81
444.034	1240.81
444.255	1259.81
444.476	1347.81
444.698	1415.81
444.919	1491.81
445.14	1506.81
445.361	1387.81
445.582	1259.81
445.803	1191.81
446.024	1153.81
446.245	1135.81
446.466	1114.81
446.687	1067.81
446.908	1080.81
447.129	1015.81
447.35	1044.81
447.571	1047.81
447.792	994.81
448.013	992.81
448.234	1023.81
448.455	999.81
448.675	987.81
448.896	977.81
449.117	969.81
449.338	1001.81
449.559	994.81
449.779	982.81
450	956.81
450.221	976.81
450.442	1008.81
450.662	1006.81
450.883	988.81
451.104	1019.81
451.324	1011.81
451.545	1025.81
451.766	989.81
451.986	968.81
452.207	986.81
452.428	995.81
452.648	992.81
452.869	959.81
453.089	954.81
453.31	969.81
453.53	978.81
453.751	939.81
453.971	925.81
454.192	941.81
454.412	909.81
454.633	912.81
454.853	912.81
455.073	923.81
455.294	955.81
455.514	912.81
455.734	937.81
455.955	871.81
456.175	897.81
456.395	892.81
456.616	901.81
456.836	926.81
457.056	943.81
457.276	914.81
457.497	903.81
457.717	922.81
457.937	910.81
458.157	946.81
458.377	919.81
458.598	969.81
458.818	1002.81
459.038	1013.81
459.258	1063.81
459.478	1091.81
459.698	1122.81
459.918	1160.81
460.138	1195.81
460.358	1297.81
460.578	1283.81
460.798	1316.81
461.018	1295.81
461.238	1315.81
461.458	1231.81
461.678	1233.81
461.898	1302.81
462.118	1314.81
462.338	1369.81
462.558	1428.81
462.777	1441.81
462.997	1586.81
463.217	1757.81
463.437	1787.81
463.657	1595.81
463.876	1485.81
464.096	1468.81
464.316	1503.81
464.536	1521.81
464.755	1460.81
464.975	1419.81
465.195	1338.81
465.414	1251.81
465.634	1169.81
465.854	1126.81
466.073	1074.81
466.293	1078.81
466.512	1058.81
466.732	1063.81
466.951	1043.81
467.171	1039.81
467.391	1071.81
467.61	1050.81
467.829	1014.81
468.049	1004.81
468.268	987.81
468.488	973.81
468.707	978.81
468.927	995.81
469.146	976.81
469.365	1007.81
469.585	993.81
469.804	1002.81
470.023	1021.81
470.243	1043.81
470.462	1063.81
470.681	1080.81
470.901	1079.81
471.12	1043.81
471.339	1031.81
471.558	1009.81
471.777	1000.81
471.997	988.81
472.216	968.81
472.435	958.81
472.654	928.81
472.873	933.81
473.092	959.81
473.311	969.81
473.53	959.81
473.749	961.81
473.968	940.81
474.187	935.81
474.406	959.81
474.625	949.81
474.844	971.81
475.063	948.81
475.282	976.81
475.501	959.81
475.72	982.81
475.939	997.81
476.158	996.81
476.377	1009.81
476.596	999.81
476.814	1031.81
477.033	1002.81
477.252	1017.81
477.471	1054.81
477.69	1074.81
477.908	1104.81
478.127	1121.81
478.346	1149.81
478.564	1157.81
478.783	1166.81
479.002	1202.81
479.22	1226.81
479.439	1205.81
479.658	1207.81
479.876	1199.81
480.095	1237.81
480.313	1265.81
480.532	1295.81
480.751	1279.81
480.969	1243.81
481.188	1169.81
481.406	1174.81
481.624	1158.81
481.843	1120.81
482.061	1111.81
482.28	1089.81
482.498	1104.81
482.717	1116.81
482.935	1096.81
483.153	1082.81
483.372	1103.81
483.59	1099.81
483.808	1075.81
484.027	1079.81
484.245	1097.81
484.463	1107.81
484.681	1133.81
484.9	1124.81
485.118	1150.81
485.336	1161.81
485.554	1159.81
485.772	1163.81
485.99	1173.81
486.209	1183.81
486.427	1161.81
486.645	1158.81
486.863	1152.81
487.081	1155.81
487.299	1145.81
487.517	1162.81
487.735	1167.81
487.953	1153.81
488.171	1158.81
488.389	1163.81
488.607	1127.81
488.825	1145.81
489.043	1144.81
489.261	1104.81
489.479	1115.81
489.696	1140.81
489.914	1145.81
490.132	1142.81
490.35	1125.81
490.568	1181.81
490.786	1163.81
491.003	1167.81
491.221	1188.81
491.439	1174.81
491.657	1145.81
491.874	1161.81
492.092	1163.81
492.31	1179.81
492.527	1235.81
492.745	1169.81
492.963	1148.81
493.18	1183.81
493.398	1235.81
493.615	1235.81
493.833	1223.81
494.05	1229.81
494.268	1223.81
494.485	1204.81
494.703	1206.81
494.92	1227.81
495.138	1220.81
495.355	1213.81
495.573	1232.81
495.79	1206.81
496.008	1229.81
496.225	1232.81
496.442	1254.81
496.66	1234.81
496.877	1268.81
497.094	1274.81
497.312	1317.81
497.529	1318.81
497.746	1386.81
497.963	1457.81
498.181	1519.81
498.398	1502.81
498.615	1629.81
498.832	1755.81
499.049	1903.81
499.267	2031.81
499.484	2291.81
499.701	2521.81
499.918	2780.81
500.135	3232.81
500.352	3767.81
500.569	3968.81
500.786	3913.81
501.003	3538.81
501.22	3149.81
501.437	2717.81
501.654	2443.81
501.871	2164.81
502.088	1977.81
502.305	1874.81
502.522	1766.81
502.739	1675.81
502.956	1616.81
503.172	1522.81
503.389	1434.81
503.606	1421.81
503.823	1400.81
504.04	1376.81
504.256	1411.81
504.473	1484.81
504.69	1500.81
504.907	1494.81
505.123	1371.81
505.34	1266.81
505.557	1192.81
505.773	1207.81
505.99	1163.81
506.207	1130.81
506.423	1094.81
506.64	1098.81
506.856	1090.81
507.073	1091.81
507.289	1091.81
507.506	1091.81
507.722	1086.81
507.939	1068.81
508.155	1052.81
508.372	1033.81
508.588	1033.81
508.805	1011.81
509.021	1031.81
509.238	993.81
509.454	994.81
509.67	1009.81
509.887	997.81
510.103	996.81
510.319	972.81
510.536	991.81
510.752	979.81
510.968	1004.81
511.184	972.81
511.401	972.81
511.617	996.81
511.833	989.81
512.049	956.81
512.265	988.81
512.481	969.81
512.698	949.81
512.914	987.81
513.13	973.81
513.346	963.81
513.562	1000.81
513.778	975.81
513.994	989.81
514.21	987.81
514.426	996.81
514.642	986.81
514.858	1025.81
515.074	1036.81
515.29	1044.81
515.506	1005.81
515.721	1034.81
515.937	1075.81
516.153	1120.81
516.369	1097.81
516.585	1141.81
516.801	1169.81
517.016	1183.81
517.232	1265.81
517.448	1343.81
517.664	1422.81
517.879	1411.81
518.095	1434.81
518.311	1371.81
518.527	1314.81
518.742	1265.81
518.958	1203.81
519.173	1142.81
519.389	1121.81
519.605	1103.81
519.82	1035.81
520.036	1048.81
520.251	1019.81
520.467	1002.81
520.682	985.81
520.898	996.81
521.113	996.81
521.329	962.81
521.544	970.81
521.76	951.81
521.975	953.81
522.19	941.81
522.406	946.81
522.621	938.81
522.836	906.81
523.052	940.81
523.267	929.81
523.482	913.81
523.698	904.81
523.913	926.81
524.128	938.81
524.343	919.81
524.559	910.81
524.774	906.81
524.989	929.81
525.204	877.81
525.419	892.81
525.634	881.81
525.849	884.81
526.064	887.81
526.28	885.81
526.495	899.81
526.71	884.81
526.925	897.81
527.14	871.81
527.355	876.81
527.57	852.81
527.785	909.81
527.999	893.81
528.214	899.81
528.429	911.81
528.644	897.81
528.859	894.81
529.074	908.81
529.289	915.81
529.503	916.81
529.718	893.81
529.933	892.81
530.148	907.81
530.363	889.81
530.577	904.81
530.792	892.81
531.007	893.81
531.221	871.81
531.436	891.81
531.651	890.81
531.865	912.81
532.08	901.81
532.295	888.81
532.509	888.81
532.724	888.81
532.938	853.81
533.153	914.81
533.367	889.81
533.582	877.81
533.796	888.81
534.011	883.81
534.225	869.81
534.44	859.81
534.654	871.81
534.868	850.81
535.083	853.81
535.297	849.81
535.511	846.81
535.726	864.81
535.94	871.81
536.154	846.81
536.369	888.81
536.583	847.81
536.797	821.81
537.011	804.81
537.225	817.81
537.44	827.81
537.654	827.81
537.868	787.81
538.082	804.81
538.296	801.81
538.51	792.81
538.724	811.81
538.938	788.81
539.153	783.81
539.367	824.81
539.581	789.81
539.795	787.81
540.009	769.81
540.222	801.81
540.436	812.81
540.65	778.81
540.864	803.81
541.078	792.81
541.292	812.81
541.506	778.81
541.72	799.81
541.934	791.81
542.147	797.81
542.361	807.81
542.575	782.81
542.789	767.81
543.002	776.81
543.216	787.81
543.43	799.81
543.644	779.81
543.857	775.81
544.071	797.81
544.285	787.81
544.498	793.81
544.712	799.81
544.925	834.81
545.139	804.81
545.352	826.81
545.566	825.81
545.779	795.81
545.993	825.81
546.206	820.81
546.42	787.81
546.633	810.81
546.847	802.81
547.06	787.81
547.274	817.81
547.487	820.81
547.7	812.81
547.914	836.81
548.127	844.81
548.34	812.81
548.554	824.81
548.767	819.81
548.98	825.81
549.193	833.81
549.407	827.81
549.62	861.81
549.833	851.81
550.046	840.81
550.259	821.81
550.473	793.81
550.686	824.81
550.899	782.81
551.112	789.81
551.325	775.81
551.538	759.81
551.751	779.81
551.964	792.81
552.177	792.81
552.39	799.81
552.603	833.81
552.816	842.81
553.029	889.81
553.242	899.81
553.455	888.81
553.667	900.81
553.88	899.81
554.093	887.81
554.306	863.81
554.519	832.81
554.732	798.81
554.944	785.81
555.157	781.81
555.37	772.81
555.583	776.81
555.795	739.81
556.008	727.81
556.221	738.81
556.433	738.81
556.646	730.81
556.859	729.81
557.071	701.81
557.284	706.81
557.496	694.81
557.709	699.81
557.921	691.81
558.134	685.81
558.346	708.81
558.559	680.81
558.771	684.81
558.984	684.81
559.196	661.81
559.409	684.81
559.621	668.81
559.833	647.81
560.046	649.81
560.258	703.81
560.47	663.81
560.683	681.81
560.895	649.81
561.107	650.81
561.32	663.81
561.532	671.81
561.744	658.81
561.956	662.81
562.168	675.81
562.381	666.81
562.593	685.81
562.805	685.81
563.017	678.81
563.229	671.81
563.441	653.81
563.653	679.81
563.865	683.81
564.077	683.81
564.289	705.81
564.501	696.81
564.713	697.81
564.925	715.81
565.137	746.81
565.349	743.81
565.561	759.81
565.773	807.81
565.985	823.81
566.197	888.81
566.408	941.81
566.62	1015.81
566.832	1105.81
567.044	1132.81
567.255	1088.81
567.467	1153.81
567.679	1231.81
567.891	1321.81
568.102	1383.81
568.314	1361.81
568.526	1141.81
568.737	1027.81
568.949	939.81
569.161	829.81
569.372	807.81
569.584	738.81
569.795	728.81
570.007	705.81
570.218	657.81
570.43	673.81
570.641	707.81
570.853	698.81
571.064	682.81
571.276	688.81
571.487	659.81
571.698	616.81
571.91	607.81
572.121	603.81
572.333	597.81
572.544	605.81
572.755	580.81
572.966	569.81
573.178	585.81
573.389	590.81
573.6	559.81
573.811	538.81
574.023	559.81
574.234	540.81
574.445	543.81
574.656	565.81
574.867	547.81
575.078	543.81
575.289	556.81
575.501	523.81
575.712	540.81
575.923	555.81
576.134	540.81
576.345	524.81
576.556	520.81
576.767	519.81
576.978	536.81
577.188	532.81
577.399	507.81
577.61	517.81
577.821	491.81
578.032	493.81
578.243	508.81
578.454	478.81
578.665	487.81
578.875	475.81
579.086	484.81
579.297	476.81
579.508	501.81
579.718	469.81
579.929	455.81
580.14	463.81
580.35	463.81
580.561	462.81
580.772	459.81
580.982	478.81
581.193	461.81
581.403	451.81
581.614	468.81
581.825	484.81
582.035	477.81
582.246	461.81
582.456	463.81
582.667	460.81
582.877	455.81
583.087	452.81
583.298	457.81
583.508	455.81
583.719	451.81
583.929	456.81
584.139	452.81
584.35	450.81
584.56	469.81
584.77	444.81
584.981	447.81
585.191	429.81
585.401	428.81
585.611	433.81
585.821	429.81
586.032	458.81
586.242	443.81
586.452	452.81
586.662	447.81
586.872	459.81
587.082	447.81
587.292	428.81
587.502	419.81
587.713	419.81
587.923	427.81
588.133	429.81
588.343	419.81
588.553	427.81
588.762	439.81
588.972	435.81
589.182	422.81
589.392	421.81
589.602	419.81
589.812	450.81
590.022	422.81
590.232	443.81
590.441	437.81
590.651	459.81
590.861	449.81
591.071	448.81
591.281	459.81
591.49	451.81
591.7	484.81
591.91	457.81
592.119	460.81
592.329	497.81
592.539	487.81
592.748	520.81
592.958	568.81
593.167	565.81
593.377	556.81
593.587	560.81
593.796	561.81
594.006	582.81
594.215	580.81
594.424	599.81
594.634	580.81
594.843	543.81
595.053	497.81
595.262	480.81
595.472	490.81
595.681	487.81
595.89	458.81
596.1	461.81
596.309	425.81
596.518	414.81
596.727	427.81
596.937	412.81
597.146	407.81
597.355	416.81
597.564	409.81
597.774	388.81
597.983	414.81
598.192	399.81
598.401	381.81
598.61	383.81
598.819	374.81
599.028	375.81
599.237	377.81
599.446	350.81
599.655	383.81
599.864	375.81
600.073	372.81
600.282	368.81
600.491	352.81
600.7	360.81
600.909	351.81
601.118	357.81
601.327	379.81
601.536	353.81
601.745	363.81
601.953	370.81
602.162	357.81
602.371	356.81
602.58	360.81
602.789	358.81
602.997	367.81
603.206	340.81
603.415	352.81
603.623	348.81
603.832	340.81
604.041	333.81
604.249	349.81
604.458	333.81
604.666	340.81
604.875	341.81
605.084	359.81
605.292	347.81
605.501	331.81
605.709	325.81
605.918	324.81
606.126	349.81
606.334	339.81
606.543	323.81
606.751	338.81
606.96	327.81
607.168	351.81
607.376	311.81
607.585	324.81
607.793	330.81
608.001	344.81
608.21	340.81
608.418	322.81
608.626	327.81
608.834	331.81
609.043	325.81
609.251	316.81
609.459	324.81
609.667	357.81
609.875	332.81
610.083	314.81
610.291	343.81
610.499	335.81
610.707	328.81
610.916	327.81
611.124	323.81
611.332	317.81
611.54	317.81
611.748	333.81
611.955	312.81
612.163	333.81
612.371	332.81
612.579	333.81
612.787	328.81
612.995	314.81
613.203	315.81
613.411	308.81
613.618	337.81
613.826	309.81
614.034	315.81
614.242	312.81
614.449	328.81
614.657	322.81
614.865	319.81
615.072	326.81
615.28	331.81
615.488	331.81
615.695	319.81
615.903	324.81
616.111	327.81
616.318	325.81
616.526	330.81
616.733	326.81
616.941	314.81
617.148	330.81
617.356	325.81
617.563	330.81
617.771	310.81
617.978	320.81
618.185	308.81
618.393	323.81
618.6	319.81
618.807	324.81
619.015	324.81
619.222	304.81
619.429	301.81
619.637	305.81
619.844	303.81
620.051	297.81
620.258	293.81
620.466	288.81
620.673	293.81
620.88	297.81
621.087	294.81
621.294	297.81
621.501	317.81
621.708	291.81
621.915	279.81
622.122	297.81
622.329	288.81
622.536	299.81
622.743	297.81
622.95	280.81
623.157	290.81
623.364	279.81
623.571	294.81
623.778	280.81
623.985	282.81
624.192	267.81
624.399	290.81
624.606	275.81
624.812	283.81
625.019	272.81
625.226	285.81
625.433	271.81
625.639	262.81
625.846	257.81
626.053	255.81
626.259	285.81
626.466	267.81
626.673	268.81
626.879	266.81
627.086	260.81
627.293	254.81
627.499	269.81
627.706	275.81
627.912	263.81
628.119	248.81
628.325	251.81
628.532	241.81
628.738	258.81
628.945	250.81
629.151	262.81
629.357	247.81
629.564	264.81
629.77	245.81
629.976	251.81
630.183	247.81
630.389	257.81
630.595	237.81
630.802	247.81
631.008	241.81
631.214	258.81
631.42	228.81
631.627	248.81
631.833	226.81
632.039	239.81
632.245	243.81
632.451	251.81
632.657	234.81
632.863	231.81
633.069	253.81
633.275	236.81
633.481	239.81
633.688	232.81
633.893	235.81
634.099	235.81
634.305	240.81
634.511	237.81
634.717	215.81
634.923	224.81
635.129	231.81
635.335	229.81
635.541	218.81
635.747	225.81
635.952	209.81
636.158	222.81
636.364	222.81
636.57	226.81
636.775	218.81
636.981	225.81
637.187	228.81
637.392	225.81
637.598	221.81
637.804	233.81
638.009	226.81
638.215	223.81
638.421	215.81
638.626	199.81
638.832	208.81
639.037	212.81
639.243	209.81
639.448	207.81
639.654	225.81
639.859	206.81
640.065	210.81
640.27	208.81
640.475	203.81
640.681	201.81
640.886	190.81
641.091	220.81
641.297	196.81
641.502	203.81
641.707	210.81
641.913	219.81
642.118	211.81
642.323	214.81
642.528	205.81
642.733	205.81
642.939	194.81
643.144	199.81
643.349	217.81
643.554	211.81
643.759	209.81
643.964	210.81
644.169	221.81
644.374	188.81
644.579	192.81
644.784	203.81
644.989	201.81
645.194	200.81
645.399	192.81
645.604	188.81
645.809	204.81
646.014	214.81
646.219	204.81
646.423	219.81
646.628	210.81
646.833	204.81
647.038	216.81
647.243	192.81
647.447	219.81
647.652	228.81
647.857	204.81
648.062	216.81
648.266	220.81
648.471	220.81
648.676	227.81
648.88	224.81
649.085	222.81
649.289	206.81
649.494	205.81
649.698	218.81
649.903	192.81
650.107	196.81
650.312	200.81
650.516	195.81
650.721	208.81
650.925	209.81
651.13	202.81
651.334	197.81
651.539	177.81
651.743	165.81
651.947	192.81
652.152	178.81
652.356	168.81
652.56	169.81
652.764	175.81
652.969	172.81
653.173	171.81
653.377	162.81
653.581	164.81
653.785	162.81
653.99	161.81
654.194	151.81
654.398	150.81
654.602	143.81
654.806	166.81
655.01	153.81
655.214	134.81
655.418	141.81
655.622	155.81
655.826	161.81
656.03	158.81
656.234	165.81
656.438	150.81
656.642	144.81
656.846	163.81
657.049	142.81
657.253	141.81
657.457	149.81
657.661	131.81
657.865	115.81
658.068	122.81
658.272	127.81
658.476	112.81
658.68	116.81
658.883	124.81
659.087	105.81
659.291	114.81
659.494	115.81
659.698	115.81
659.901	108.81
660.105	101.81
660.309	101.81
660.512	93.81
660.716	113.81
660.919	102.81
661.123	96.81
661.326	89.81
661.53	89.81
661.733	87.81
661.936	87.81
662.14	96.81
662.343	98.81
662.546	84.81
662.75	85.81
662.953	89.81
663.156	92.81
663.36	84.81
663.563	82.81
663.766	93.81
663.969	96.81
664.173	82.81
664.376	82.81
664.579	86.81
664.782	70.81
664.985	84.81
665.188	77.81
665.391	89.81
665.594	83.81
665.797	80.81
666	100.81
666.203	83.81
666.406	81.81
666.609	81.81
666.812	88.81
667.015	86.81
667.218	79.81
667.421	90.81
667.624	60.81
667.827	81.81
668.03	75.81
668.232	79.81
668.435	87.81
668.638	91.81
668.841	76.81
669.043	84.81
669.246	82.81
669.449	89.81
669.651	84.81
669.854	67.81
670.057	91.81
670.259	85.81
670.462	80.81
670.665	65.81
670.867	81.81
671.07	85.81
671.272	80.81
671.475	81.81
671.677	93.81
671.88	91.81
672.082	77.81
672.284	80.81
672.487	77.81
672.689	90.81
672.892	84.81
