Data from Ni(NO3)2@0.25M.TitratingCurve.Agarose3%dH2O.NegLispCup.LampEnergy10.LIBS07252019_HRD10591_18-04-54-566.txt Node
Date: Thu Jul 25 18:04:54 EDT 2019
User: cochatt
Spectrometer: HR+D1059
Trigger mode: 1
Integration Time (sec): 1.000000E-1
Scans to average: 1
Electric dark correction enabled: true
Nonlinearity correction enabled: false
Boxcar width: 0
XAxis mode: Wavelengths
Number of Pixels in Spectrum: 2048
>>>>>Begin Spectral Data<<<<<
223.165	-4.12
223.4	-4.12
223.635	-4.12
223.869	-19.12
224.104	-19.12
224.338	-26.12
224.573	-25.12
224.808	-19.12
225.042	-10.12
225.277	1.88
225.511	8.88
225.746	5.88
225.98	9.88
226.215	24.88
226.449	1.88
226.683	20.88
226.918	14.88
227.152	33.88
227.387	24.88
227.621	44.88
227.856	34.88
228.09	43.88
228.324	60.88
228.559	47.88
228.793	69.88
229.027	116.88
229.262	123.88
229.496	122.88
229.73	139.88
229.964	153.88
230.199	141.88
230.433	146.88
230.667	163.88
230.901	158.88
231.136	149.88
231.37	151.88
231.604	161.88
231.838	165.88
232.072	167.88
232.306	169.88
232.541	160.88
232.775	180.88
233.009	166.88
233.243	157.88
233.477	175.88
233.711	180.88
233.945	170.88
234.179	162.88
234.413	175.88
234.647	185.88
234.881	171.88
235.115	171.88
235.349	205.88
235.583	181.88
235.817	175.88
236.051	185.88
236.285	189.88
236.519	203.88
236.753	185.88
236.987	188.88
237.221	170.88
237.455	187.88
237.689	192.88
237.922	189.88
238.156	191.88
238.39	194.88
238.624	192.88
238.858	197.88
239.091	204.88
239.325	205.88
239.559	201.88
239.793	204.88
240.027	241.88
240.26	225.88
240.494	225.88
240.728	219.88
240.961	223.88
241.195	216.88
241.429	219.88
241.662	243.88
241.896	228.88
242.13	237.88
242.363	226.88
242.597	227.88
242.83	242.88
243.064	234.88
243.298	253.88
243.531	262.88
243.765	244.88
243.998	285.88
244.232	267.88
244.465	256.88
244.699	261.88
244.932	262.88
245.166	265.88
245.399	275.88
245.633	267.88
245.866	287.88
246.099	275.88
246.333	281.88
246.566	279.88
246.8	293.88
247.033	281.88
247.266	274.88
247.5	296.88
247.733	295.88
247.966	298.88
248.2	305.88
248.433	298.88
248.666	311.88
248.899	315.88
249.133	313.88
249.366	311.88
249.599	330.88
249.832	321.88
250.066	345.88
250.299	331.88
250.532	317.88
250.765	342.88
250.998	359.88
251.231	353.88
251.465	351.88
251.698	338.88
251.931	338.88
252.164	343.88
252.397	360.88
252.63	371.88
252.863	371.88
253.096	385.88
253.329	371.88
253.562	374.88
253.795	382.88
254.028	386.88
254.261	393.88
254.494	380.88
254.727	387.88
254.96	381.88
255.193	391.88
255.426	394.88
255.659	392.88
255.892	394.88
256.124	387.88
256.357	408.88
256.59	412.88
256.823	408.88
257.056	404.88
257.289	405.88
257.521	432.88
257.754	425.88
257.987	402.88
258.22	423.88
258.452	420.88
258.685	445.88
258.918	431.88
259.151	441.88
259.383	423.88
259.616	443.88
259.849	443.88
260.081	456.88
260.314	459.88
260.547	443.88
260.779	451.88
261.012	469.88
261.244	465.88
261.477	454.88
261.71	478.88
261.942	435.88
262.175	486.88
262.407	477.88
262.64	462.88
262.872	461.88
263.105	439.88
263.337	476.88
263.57	479.88
263.802	469.88
264.035	494.88
264.267	504.88
264.499	488.88
264.732	500.88
264.964	511.88
265.197	488.88
265.429	491.88
265.661	507.88
265.894	495.88
266.126	521.88
266.358	529.88
266.591	544.88
266.823	503.88
267.055	521.88
267.287	523.88
267.52	524.88
267.752	532.88
267.984	530.88
268.216	516.88
268.448	543.88
268.681	518.88
268.913	521.88
269.145	537.88
269.377	551.88
269.609	531.88
269.841	528.88
270.073	540.88
270.306	557.88
270.538	545.88
270.77	531.88
271.002	545.88
271.234	558.88
271.466	566.88
271.698	568.88
271.93	553.88
272.162	566.88
272.394	593.88
272.626	592.88
272.858	590.88
273.09	587.88
273.322	564.88
273.553	591.88
273.785	580.88
274.017	555.88
274.249	586.88
274.481	597.88
274.713	584.88
274.945	607.88
275.176	619.88
275.408	609.88
275.64	603.88
275.872	577.88
276.104	599.88
276.335	615.88
276.567	609.88
276.799	607.88
277.031	611.88
277.262	584.88
277.494	619.88
277.726	618.88
277.957	609.88
278.189	627.88
278.421	634.88
278.652	644.88
278.884	642.88
279.115	624.88
279.347	642.88
279.579	641.88
279.81	628.88
280.042	645.88
280.273	640.88
280.505	649.88
280.736	660.88
280.968	637.88
281.199	658.88
281.431	657.88
281.662	690.88
281.894	660.88
282.125	653.88
282.356	679.88
282.588	689.88
282.819	691.88
283.051	667.88
283.282	690.88
283.513	667.88
283.745	665.88
283.976	693.88
284.207	651.88
284.439	685.88
284.67	698.88
284.901	709.88
285.132	703.88
285.364	708.88
285.595	711.88
285.826	706.88
286.057	711.88
286.288	692.88
286.52	730.88
286.751	716.88
286.982	725.88
287.213	712.88
287.444	722.88
287.675	743.88
287.906	703.88
288.138	728.88
288.369	705.88
288.6	728.88
288.831	727.88
289.062	715.88
289.293	722.88
289.524	727.88
289.755	722.88
289.986	735.88
290.217	716.88
290.448	730.88
290.679	736.88
290.91	748.88
291.141	729.88
291.371	740.88
291.602	764.88
291.833	732.88
292.064	728.88
292.295	733.88
292.526	741.88
292.757	744.88
292.987	746.88
293.218	724.88
293.449	767.88
293.68	722.88
293.91	749.88
294.141	727.88
294.372	736.88
294.603	735.88
294.833	736.88
295.064	756.88
295.295	732.88
295.525	773.88
295.756	771.88
295.987	771.88
296.217	753.88
296.448	743.88
296.679	760.88
296.909	775.88
297.14	767.88
297.37	780.88
297.601	793.88
297.831	795.88
298.062	805.88
298.292	811.88
298.523	817.88
298.753	832.88
298.984	807.88
299.214	790.88
299.445	797.88
299.675	792.88
299.905	785.88
300.136	798.88
300.366	787.88
300.597	835.88
300.827	811.88
301.057	845.88
301.288	840.88
301.518	817.88
301.748	850.88
301.979	868.88
302.209	856.88
302.439	854.88
302.669	847.88
302.9	863.88
303.13	846.88
303.36	871.88
303.59	858.88
303.82	855.88
304.051	877.88
304.281	838.88
304.511	863.88
304.741	848.88
304.971	851.88
305.201	836.88
305.431	863.88
305.661	848.88
305.891	853.88
306.121	831.88
306.352	856.88
306.582	865.88
306.812	821.88
307.042	834.88
307.272	856.88
307.502	816.88
307.731	821.88
307.961	831.88
308.191	829.88
308.421	828.88
308.651	840.88
308.881	844.88
309.111	864.88
309.341	832.88
309.571	860.88
309.8	857.88
310.03	887.88
310.26	866.88
310.49	853.88
310.72	856.88
310.949	868.88
311.179	856.88
311.409	876.88
311.639	836.88
311.868	869.88
312.098	887.88
312.328	883.88
312.557	899.88
312.787	892.88
313.017	884.88
313.246	914.88
313.476	906.88
313.706	922.88
313.935	926.88
314.165	922.88
314.394	961.88
314.624	941.88
314.853	892.88
315.083	922.88
315.312	957.88
315.542	935.88
315.771	938.88
316.001	930.88
316.23	900.88
316.46	926.88
316.689	927.88
316.919	927.88
317.148	928.88
317.377	908.88
317.607	922.88
317.836	903.88
318.065	936.88
318.295	946.88
318.524	915.88
318.753	917.88
318.983	946.88
319.212	943.88
319.441	936.88
319.67	956.88
319.9	924.88
320.129	934.88
320.358	945.88
320.587	943.88
320.816	958.88
321.046	941.88
321.275	955.88
321.504	965.88
321.733	951.88
321.962	963.88
322.191	1003.88
322.42	980.88
322.649	986.88
322.878	952.88
323.108	959.88
323.337	978.88
323.566	998.88
323.795	1022.88
324.024	1023.88
324.253	1016.88
324.482	1023.88
324.71	1016.88
324.939	1014.88
325.168	1029.88
325.397	1022.88
325.626	1059.88
325.855	1073.88
326.084	1058.88
326.313	1072.88
326.542	1086.88
326.77	1088.88
326.999	1065.88
327.228	1052.88
327.457	1063.88
327.686	1072.88
327.914	1061.88
328.143	1081.88
328.372	1069.88
328.6	1081.88
328.829	1080.88
329.058	1113.88
329.287	1118.88
329.515	1111.88
329.744	1097.88
329.972	1121.88
330.201	1150.88
330.43	1145.88
330.658	1143.88
330.887	1148.88
331.115	1155.88
331.344	1160.88
331.572	1188.88
331.801	1221.88
332.03	1232.88
332.258	1228.88
332.486	1281.88
332.715	1290.88
332.943	1305.88
333.172	1346.88
333.4	1403.88
333.629	1435.88
333.857	1425.88
334.085	1475.88
334.314	1464.88
334.542	1466.88
334.771	1463.88
334.999	1419.88
335.227	1424.88
335.455	1459.88
335.684	1450.88
335.912	1421.88
336.14	1436.88
336.369	1370.88
336.597	1364.88
336.825	1380.88
337.053	1399.88
337.281	1384.88
337.51	1361.88
337.738	1290.88
337.966	1247.88
338.194	1290.88
338.422	1279.88
338.65	1244.88
338.878	1251.88
339.106	1255.88
339.334	1235.88
339.562	1228.88
339.79	1229.88
340.018	1175.88
340.246	1204.88
340.474	1211.88
340.702	1187.88
340.93	1178.88
341.158	1218.88
341.386	1210.88
341.614	1228.88
341.842	1232.88
342.07	1207.88
342.298	1195.88
342.526	1196.88
342.754	1201.88
342.981	1204.88
343.209	1221.88
343.437	1295.88
343.665	1343.88
343.893	1415.88
344.12	1395.88
344.348	1388.88
344.576	1379.88
344.804	1324.88
345.031	1270.88
345.259	1224.88
345.487	1234.88
345.714	1199.88
345.942	1187.88
346.17	1210.88
346.397	1155.88
346.625	1211.88
346.853	1171.88
347.08	1143.88
347.308	1181.88
347.535	1149.88
347.763	1143.88
347.99	1140.88
348.218	1148.88
348.445	1185.88
348.673	1131.88
348.9	1167.88
349.128	1137.88
349.355	1151.88
349.583	1165.88
349.81	1124.88
350.037	1124.88
350.265	1121.88
350.492	1125.88
350.72	1117.88
350.947	1127.88
351.174	1096.88
351.402	1121.88
351.629	1136.88
351.856	1108.88
352.083	1132.88
352.311	1123.88
352.538	1135.88
352.765	1140.88
352.992	1107.88
353.22	1100.88
353.447	1097.88
353.674	1089.88
353.901	1113.88
354.128	1075.88
354.355	1107.88
354.583	1089.88
354.81	1106.88
355.037	1106.88
355.264	1116.88
355.491	1096.88
355.718	1093.88
355.945	1092.88
356.172	1077.88
356.399	1096.88
356.626	1107.88
356.853	1137.88
357.08	1093.88
357.307	1101.88
357.534	1077.88
357.761	1101.88
357.988	1117.88
358.215	1095.88
358.441	1091.88
358.668	1089.88
358.895	1078.88
359.122	1106.88
359.349	1103.88
359.576	1087.88
359.802	1086.88
360.029	1077.88
360.256	1108.88
360.483	1103.88
360.709	1096.88
360.936	1099.88
361.163	1081.88
361.39	1101.88
361.616	1112.88
361.843	1148.88
362.07	1144.88
362.296	1117.88
362.523	1084.88
362.749	1101.88
362.976	1082.88
363.203	1095.88
363.429	1119.88
363.656	1087.88
363.882	1077.88
364.109	1094.88
364.335	1103.88
364.562	1079.88
364.788	1063.88
365.015	1106.88
365.241	1089.88
365.468	1090.88
365.694	1086.88
365.92	1072.88
366.147	1084.88
366.373	1128.88
366.599	1097.88
366.826	1083.88
367.052	1114.88
367.278	1081.88
367.505	1112.88
367.731	1109.88
367.957	1109.88
368.184	1105.88
368.41	1073.88
368.636	1100.88
368.862	1110.88
369.089	1121.88
369.315	1121.88
369.541	1124.88
369.767	1121.88
369.993	1090.88
370.219	1128.88
370.445	1109.88
370.672	1170.88
370.898	1125.88
371.124	1157.88
371.35	1171.88
371.576	1201.88
371.802	1188.88
372.028	1156.88
372.254	1147.88
372.48	1176.88
372.706	1196.88
372.932	1195.88
373.158	1216.88
373.384	1247.88
373.61	1173.88
373.835	1169.88
374.061	1215.88
374.287	1201.88
374.513	1203.88
374.739	1241.88
374.965	1261.88
375.191	1266.88
375.416	1260.88
375.642	1245.88
375.868	1217.88
376.094	1242.88
376.319	1189.88
376.545	1180.88
376.771	1187.88
376.997	1165.88
377.222	1196.88
377.448	1192.88
377.674	1170.88
377.899	1175.88
378.125	1172.88
378.35	1171.88
378.576	1146.88
378.802	1153.88
379.027	1149.88
379.253	1200.88
379.478	1135.88
379.704	1157.88
379.929	1137.88
380.155	1148.88
380.38	1183.88
380.606	1151.88
380.831	1144.88
381.057	1151.88
381.282	1138.88
381.507	1174.88
381.733	1171.88
381.958	1155.88
382.184	1152.88
382.409	1212.88
382.634	1188.88
382.86	1201.88
383.085	1217.88
383.31	1247.88
383.535	1253.88
383.761	1268.88
383.986	1297.88
384.211	1289.88
384.436	1320.88
384.662	1336.88
384.887	1349.88
385.112	1351.88
385.337	1370.88
385.562	1340.88
385.787	1410.88
386.013	1391.88
386.238	1365.88
386.463	1429.88
386.688	1441.88
386.913	1383.88
387.138	1421.88
387.363	1413.88
387.588	1359.88
387.813	1439.88
388.038	1391.88
388.263	1398.88
388.488	1431.88
388.713	1413.88
388.938	1398.88
389.163	1373.88
389.387	1358.88
389.612	1370.88
389.837	1387.88
390.062	1393.88
390.287	1388.88
390.512	1423.88
390.736	1413.88
390.961	1458.88
391.186	1451.88
391.411	1508.88
391.636	1503.88
391.86	1555.88
392.085	1574.88
392.31	1537.88
392.534	1537.88
392.759	1529.88
392.984	1503.88
393.208	1502.88
393.433	1477.88
393.658	1516.88
393.882	1473.88
394.107	1468.88
394.331	1513.88
394.556	1509.88
394.78	1520.88
395.005	1498.88
395.229	1500.88
395.454	1558.88
395.678	1555.88
395.903	1560.88
396.127	1566.88
396.352	1543.88
396.576	1526.88
396.801	1537.88
397.025	1571.88
397.249	1577.88
397.474	1632.88
397.698	1593.88
397.922	1610.88
398.147	1655.88
398.371	1692.88
398.595	1753.88
398.82	1770.88
399.044	1944.88
399.268	2052.88
399.492	2258.88
399.717	2434.88
399.941	2457.88
400.165	2346.88
400.389	2200.88
400.613	2046.88
400.837	1941.88
401.062	1922.88
401.286	1871.88
401.51	1837.88
401.734	1812.88
401.958	1820.88
402.182	1793.88
402.406	1817.88
402.63	1844.88
402.854	1916.88
403.078	1851.88
403.302	1892.88
403.526	1919.88
403.75	1908.88
403.974	1965.88
404.198	1915.88
404.422	1929.88
404.645	1885.88
404.869	1913.88
405.093	1939.88
405.317	1933.88
405.541	1943.88
405.765	1951.88
405.988	1941.88
406.212	1944.88
406.436	1994.88
406.66	2039.88
406.883	1973.88
407.107	2123.88
407.331	2187.88
407.555	2212.88
407.778	2241.88
408.002	2209.88
408.226	2173.88
408.449	2125.88
408.673	2086.88
408.896	2041.88
409.12	2023.88
409.344	2061.88
409.567	2034.88
409.791	2072.88
410.014	2015.88
410.238	1951.88
410.461	1960.88
410.685	1966.88
410.908	1955.88
411.132	1921.88
411.355	1874.88
411.578	1879.88
411.802	1880.88
412.025	1873.88
412.249	1875.88
412.472	1877.88
412.695	1884.88
412.919	1825.88
413.142	1829.88
413.365	1804.88
413.589	1828.88
413.812	1829.88
414.035	1782.88
414.258	1800.88
414.482	1804.88
414.705	1811.88
414.928	1809.88
415.151	1804.88
415.374	1811.88
415.597	1753.88
415.821	1735.88
416.044	1781.88
416.267	1779.88
416.49	1732.88
416.713	1739.88
416.936	1746.88
417.159	1763.88
417.382	1742.88
417.605	1712.88
417.828	1796.88
418.051	1776.88
418.274	1778.88
418.497	1770.88
418.72	1803.88
418.943	1834.88
419.166	1895.88
419.389	2021.88
419.611	2002.88
419.834	1959.88
420.057	1898.88
420.28	1829.88
420.503	1783.88
420.726	1759.88
420.948	1762.88
421.171	1776.88
421.394	1735.88
421.617	1756.88
421.839	1724.88
422.062	1812.88
422.285	1742.88
422.507	1770.88
422.73	1806.88
422.953	1773.88
423.175	1821.88
423.398	1800.88
423.621	1749.88
423.843	1805.88
424.066	1897.88
424.288	1805.88
424.511	1765.88
424.733	1766.88
424.956	1762.88
425.178	1776.88
425.401	1791.88
425.623	1781.88
425.846	1723.88
426.068	1762.88
426.291	1747.88
426.513	1735.88
426.735	1741.88
426.958	1707.88
427.18	1637.88
427.402	1690.88
427.625	1638.88
427.847	1633.88
428.069	1625.88
428.292	1653.88
428.514	1636.88
428.736	1596.88
428.958	1626.88
429.181	1584.88
429.403	1616.88
429.625	1580.88
429.847	1596.88
430.069	1581.88
430.292	1613.88
430.514	1539.88
430.736	1587.88
430.958	1579.88
431.18	1612.88
431.402	1599.88
431.624	1595.88
431.846	1614.88
432.068	1633.88
432.29	1645.88
432.512	1588.88
432.734	1637.88
432.956	1623.88
433.178	1619.88
433.4	1613.88
433.622	1668.88
433.844	1655.88
434.066	1655.88
434.287	1673.88
434.509	1708.88
434.731	1759.88
434.953	1798.88
435.175	1799.88
435.397	1769.88
435.618	1696.88
435.84	1660.88
436.062	1649.88
436.284	1635.88
436.505	1619.88
436.727	1653.88
436.949	1626.88
437.17	1585.88
437.392	1594.88
437.614	1591.88
437.835	1539.88
438.057	1547.88
438.278	1562.88
438.5	1519.88
438.721	1546.88
438.943	1601.88
439.165	1570.88
439.386	1578.88
439.608	1599.88
439.829	1623.88
440.05	1615.88
440.272	1591.88
440.493	1648.88
440.715	1674.88
440.936	1690.88
441.158	1703.88
441.379	1729.88
441.6	1791.88
441.822	1795.88
442.043	1777.88
442.264	1760.88
442.486	1717.88
442.707	1764.88
442.928	1754.88
443.149	1772.88
443.371	1757.88
443.592	1776.88
443.813	1778.88
444.034	1849.88
444.255	1859.88
444.476	1900.88
444.698	1977.88
444.919	2018.88
445.14	2112.88
445.361	2002.88
445.582	1848.88
445.803	1775.88
446.024	1756.88
446.245	1701.88
446.466	1677.88
446.687	1665.88
446.908	1691.88
447.129	1607.88
447.35	1596.88
447.571	1561.88
447.792	1498.88
448.013	1528.88
448.234	1488.88
448.455	1469.88
448.675	1474.88
448.896	1499.88
449.117	1489.88
449.338	1509.88
449.559	1467.88
449.779	1457.88
450	1456.88
450.221	1471.88
450.442	1489.88
450.662	1497.88
450.883	1484.88
451.104	1492.88
451.324	1479.88
451.545	1459.88
451.766	1453.88
451.986	1476.88
452.207	1445.88
452.428	1427.88
452.648	1401.88
452.869	1424.88
453.089	1371.88
453.31	1416.88
453.53	1419.88
453.751	1404.88
453.971	1391.88
454.192	1378.88
454.412	1363.88
454.633	1380.88
454.853	1397.88
455.073	1371.88
455.294	1386.88
455.514	1364.88
455.734	1344.88
455.955	1379.88
456.175	1371.88
456.395	1349.88
456.616	1375.88
456.836	1391.88
457.056	1392.88
457.276	1345.88
457.497	1385.88
457.717	1372.88
457.937	1386.88
458.157	1416.88
458.377	1428.88
458.598	1488.88
458.818	1547.88
459.038	1541.88
459.258	1592.88
459.478	1632.88
459.698	1661.88
459.918	1723.88
460.138	1770.88
460.358	1832.88
460.578	1834.88
460.798	1883.88
461.018	1890.88
461.238	1901.88
461.458	1854.88
461.678	1867.88
461.898	1910.88
462.118	1915.88
462.338	2038.88
462.558	2090.88
462.777	2160.88
462.997	2266.88
463.217	2308.88
463.437	2387.88
463.657	2304.88
463.876	2251.88
464.096	2229.88
464.316	2168.88
464.536	2155.88
464.755	2116.88
464.975	2078.88
465.195	1942.88
465.414	1917.88
465.634	1748.88
465.854	1720.88
466.073	1677.88
466.293	1617.88
466.512	1630.88
466.732	1534.88
466.951	1591.88
467.171	1577.88
467.391	1547.88
467.61	1522.88
467.829	1508.88
468.049	1533.88
468.268	1450.88
468.488	1480.88
468.707	1463.88
468.927	1498.88
469.146	1485.88
469.365	1512.88
469.585	1509.88
469.804	1563.88
470.023	1549.88
470.243	1564.88
470.462	1625.88
470.681	1559.88
470.901	1596.88
471.12	1551.88
471.339	1588.88
471.558	1563.88
471.777	1496.88
471.997	1480.88
472.216	1496.88
472.435	1503.88
472.654	1471.88
472.873	1465.88
473.092	1465.88
473.311	1440.88
473.53	1467.88
473.749	1455.88
473.968	1473.88
474.187	1445.88
474.406	1397.88
474.625	1438.88
474.844	1420.88
475.063	1458.88
475.282	1449.88
475.501	1438.88
475.72	1446.88
475.939	1465.88
476.158	1505.88
476.377	1532.88
476.596	1507.88
476.814	1526.88
477.033	1544.88
477.252	1588.88
477.471	1611.88
477.69	1641.88
477.908	1657.88
478.127	1710.88
478.346	1730.88
478.564	1773.88
478.783	1741.88
479.002	1764.88
479.22	1837.88
479.439	1843.88
479.658	1795.88
479.876	1780.88
480.095	1817.88
480.313	1887.88
480.532	1878.88
480.751	1899.88
480.969	1846.88
481.188	1768.88
481.406	1772.88
481.624	1707.88
481.843	1684.88
482.061	1677.88
482.28	1667.88
482.498	1681.88
482.717	1692.88
482.935	1660.88
483.153	1675.88
483.372	1640.88
483.59	1671.88
483.808	1669.88
484.027	1656.88
484.245	1674.88
484.463	1735.88
484.681	1695.88
484.9	1712.88
485.118	1700.88
485.336	1663.88
485.554	1684.88
485.772	1690.88
485.99	1745.88
486.209	1726.88
486.427	1745.88
486.645	1698.88
486.863	1744.88
487.081	1769.88
487.299	1721.88
487.517	1683.88
487.735	1729.88
487.953	1725.88
488.171	1725.88
488.389	1730.88
488.607	1728.88
488.825	1684.88
489.043	1712.88
489.261	1719.88
489.479	1701.88
489.696	1717.88
489.914	1719.88
490.132	1721.88
490.35	1723.88
490.568	1717.88
490.786	1720.88
491.003	1721.88
491.221	1754.88
491.439	1794.88
491.657	1796.88
491.874	1794.88
492.092	1781.88
492.31	1797.88
492.527	1812.88
492.745	1792.88
492.963	1848.88
493.18	1830.88
493.398	1819.88
493.615	1831.88
493.833	1858.88
494.05	1823.88
494.268	1840.88
494.485	1881.88
494.703	1899.88
494.92	1869.88
495.138	1889.88
495.355	1877.88
495.573	1884.88
495.79	1941.88
496.008	1950.88
496.225	1923.88
496.442	1979.88
496.66	1995.88
496.877	2042.88
497.094	2111.88
497.312	2103.88
497.529	2167.88
497.746	2260.88
497.963	2301.88
498.181	2463.88
498.398	2542.88
498.615	2676.88
498.832	2780.88
499.049	2978.88
499.267	3181.88
499.484	3505.88
499.701	3767.88
499.918	4007.88
500.135	4442.88
500.352	4694.88
500.569	4840.88
500.786	4739.88
501.003	4696.88
501.22	4389.88
501.437	4019.88
501.654	3665.88
501.871	3406.88
502.088	3158.88
502.305	3005.88
502.522	2847.88
502.739	2729.88
502.956	2607.88
503.172	2490.88
503.389	2370.88
503.606	2313.88
503.823	2276.88
504.04	2239.88
504.256	2241.88
504.473	2250.88
504.69	2192.88
504.907	2139.88
505.123	2075.88
505.34	2000.88
505.557	1933.88
505.773	1881.88
505.99	1816.88
506.207	1795.88
506.423	1796.88
506.64	1734.88
506.856	1708.88
507.073	1707.88
507.289	1686.88
507.506	1649.88
507.722	1661.88
507.939	1639.88
508.155	1647.88
508.372	1584.88
508.588	1565.88
508.805	1584.88
509.021	1569.88
509.238	1535.88
509.454	1537.88
509.67	1522.88
509.887	1537.88
510.103	1525.88
510.319	1514.88
510.536	1510.88
510.752	1492.88
510.968	1500.88
511.184	1497.88
511.401	1480.88
511.617	1497.88
511.833	1473.88
512.049	1500.88
512.265	1483.88
512.481	1502.88
512.698	1491.88
512.914	1536.88
513.13	1499.88
513.346	1497.88
513.562	1459.88
513.778	1517.88
513.994	1507.88
514.21	1526.88
514.426	1495.88
514.642	1535.88
514.858	1525.88
515.074	1541.88
515.29	1573.88
515.506	1601.88
515.721	1628.88
515.937	1653.88
516.153	1628.88
516.369	1706.88
516.585	1734.88
516.801	1826.88
517.016	1853.88
517.232	1874.88
517.448	1941.88
517.664	1999.88
517.879	2024.88
518.095	1982.88
518.311	1956.88
518.527	1921.88
518.742	1866.88
518.958	1837.88
519.173	1759.88
519.389	1695.88
519.605	1658.88
519.82	1593.88
520.036	1628.88
520.251	1585.88
520.467	1554.88
520.682	1504.88
520.898	1460.88
521.113	1468.88
521.329	1476.88
521.544	1434.88
521.76	1436.88
521.975	1418.88
522.19	1412.88
522.406	1404.88
522.621	1435.88
522.836	1396.88
523.052	1424.88
523.267	1391.88
523.482	1364.88
523.698	1377.88
523.913	1365.88
524.128	1355.88
524.343	1355.88
524.559	1386.88
524.774	1365.88
524.989	1361.88
525.204	1372.88
525.419	1355.88
525.634	1339.88
525.849	1338.88
526.064	1351.88
526.28	1308.88
526.495	1349.88
526.71	1313.88
526.925	1309.88
527.14	1324.88
527.355	1306.88
527.57	1347.88
527.785	1337.88
527.999	1328.88
528.214	1293.88
528.429	1335.88
528.644	1323.88
528.859	1332.88
529.074	1317.88
529.289	1316.88
529.503	1339.88
529.718	1316.88
529.933	1308.88
530.148	1291.88
530.363	1306.88
530.577	1321.88
530.792	1297.88
531.007	1290.88
531.221	1326.88
531.436	1330.88
531.651	1308.88
531.865	1284.88
532.08	1309.88
532.295	1319.88
532.509	1317.88
532.724	1329.88
532.938	1311.88
533.153	1296.88
533.367	1301.88
533.582	1319.88
533.796	1329.88
534.011	1318.88
534.225	1306.88
534.44	1274.88
534.654	1266.88
534.868	1285.88
535.083	1260.88
535.297	1261.88
535.511	1272.88
535.726	1298.88
535.94	1235.88
536.154	1221.88
536.369	1222.88
536.583	1242.88
536.797	1239.88
537.011	1206.88
537.225	1184.88
537.44	1203.88
537.654	1205.88
537.868	1223.88
538.082	1210.88
538.296	1218.88
538.51	1193.88
538.724	1178.88
538.938	1196.88
539.153	1201.88
539.367	1201.88
539.581	1179.88
539.795	1202.88
540.009	1182.88
540.222	1167.88
540.436	1206.88
540.65	1146.88
540.864	1186.88
541.078	1167.88
541.292	1181.88
541.506	1147.88
541.72	1185.88
541.934	1159.88
542.147	1150.88
542.361	1152.88
542.575	1163.88
542.789	1171.88
543.002	1164.88
543.216	1185.88
543.43	1178.88
543.644	1150.88
543.857	1155.88
544.071	1178.88
544.285	1206.88
544.498	1173.88
544.712	1187.88
544.925	1156.88
545.139	1189.88
545.352	1240.88
545.566	1233.88
545.779	1233.88
545.993	1187.88
546.206	1196.88
546.42	1198.88
546.633	1209.88
546.847	1223.88
547.06	1204.88
547.274	1171.88
547.487	1219.88
547.7	1223.88
547.914	1210.88
548.127	1244.88
548.34	1219.88
548.554	1220.88
548.767	1186.88
548.98	1251.88
549.193	1177.88
549.407	1226.88
549.62	1228.88
549.833	1242.88
550.046	1211.88
550.259	1213.88
550.473	1198.88
550.686	1200.88
550.899	1215.88
551.112	1206.88
551.325	1192.88
551.538	1187.88
551.751	1203.88
551.964	1199.88
552.177	1226.88
552.39	1252.88
552.603	1236.88
552.816	1271.88
553.029	1291.88
553.242	1287.88
553.455	1317.88
553.667	1289.88
553.88	1272.88
554.093	1238.88
554.306	1218.88
554.519	1207.88
554.732	1187.88
554.944	1187.88
555.157	1148.88
555.37	1128.88
555.583	1124.88
555.795	1112.88
556.008	1065.88
556.221	1061.88
556.433	1060.88
556.646	1093.88
556.859	1067.88
557.071	1033.88
557.284	1043.88
557.496	1054.88
557.709	1025.88
557.921	1041.88
558.134	1024.88
558.346	1025.88
558.559	999.88
558.771	1017.88
558.984	1013.88
559.196	1008.88
559.409	996.88
559.621	1010.88
559.833	992.88
560.046	999.88
560.258	1019.88
560.47	985.88
560.683	967.88
560.895	960.88
561.107	962.88
561.32	982.88
561.532	989.88
561.744	994.88
561.956	972.88
562.168	1002.88
562.381	993.88
562.593	1000.88
562.805	1012.88
563.017	1009.88
563.229	994.88
563.441	988.88
563.653	1023.88
563.865	1021.88
564.077	1057.88
564.289	1056.88
564.501	1057.88
564.713	1071.88
564.925	1097.88
565.137	1124.88
565.349	1155.88
565.561	1207.88
565.773	1191.88
565.985	1266.88
566.197	1343.88
566.408	1389.88
566.62	1478.88
566.832	1485.88
567.044	1546.88
567.255	1557.88
567.467	1619.88
567.679	1675.88
567.891	1709.88
568.102	1673.88
568.314	1615.88
568.526	1527.88
568.737	1446.88
568.949	1324.88
569.161	1302.88
569.372	1196.88
569.584	1140.88
569.795	1136.88
570.007	1096.88
570.218	1052.88
570.43	1027.88
570.641	1029.88
570.853	1017.88
571.064	1031.88
571.276	970.88
571.487	951.88
571.698	941.88
571.91	933.88
572.121	925.88
572.333	907.88
572.544	879.88
572.755	859.88
572.966	872.88
573.178	833.88
573.389	846.88
573.6	803.88
573.811	850.88
574.023	821.88
574.234	836.88
574.445	823.88
574.656	824.88
574.867	787.88
575.078	789.88
575.289	808.88
575.501	779.88
575.712	764.88
575.923	766.88
576.134	783.88
576.345	773.88
576.556	771.88
576.767	754.88
576.978	759.88
577.188	724.88
577.399	726.88
577.61	698.88
577.821	715.88
578.032	717.88
578.243	738.88
578.454	743.88
578.665	689.88
578.875	687.88
579.086	741.88
579.297	699.88
579.508	677.88
579.718	683.88
579.929	678.88
580.14	674.88
580.35	691.88
580.561	675.88
580.772	680.88
580.982	680.88
581.193	691.88
581.403	677.88
581.614	677.88
581.825	667.88
582.035	665.88
582.246	671.88
582.456	672.88
582.667	677.88
582.877	663.88
583.087	649.88
583.298	660.88
583.508	646.88
583.719	650.88
583.929	646.88
584.139	662.88
584.35	640.88
584.56	631.88
584.77	647.88
584.981	612.88
585.191	617.88
585.401	628.88
585.611	620.88
585.821	652.88
586.032	639.88
586.242	649.88
586.452	624.88
586.662	612.88
586.872	649.88
587.082	670.88
587.292	633.88
587.502	641.88
587.713	638.88
587.923	630.88
588.133	621.88
588.343	636.88
588.553	623.88
588.762	639.88
588.972	640.88
589.182	656.88
589.392	652.88
589.602	626.88
589.812	640.88
590.022	643.88
590.232	625.88
590.441	647.88
590.651	657.88
590.861	646.88
591.071	647.88
591.281	644.88
591.49	643.88
591.7	685.88
591.91	668.88
592.119	683.88
592.329	698.88
592.539	716.88
592.748	726.88
592.958	728.88
593.167	730.88
593.377	740.88
593.587	752.88
593.796	769.88
594.006	754.88
594.215	746.88
594.424	771.88
594.634	748.88
594.843	714.88
595.053	735.88
595.262	678.88
595.472	668.88
595.681	650.88
595.89	668.88
596.1	613.88
596.309	616.88
596.518	598.88
596.727	589.88
596.937	607.88
597.146	573.88
597.355	577.88
597.564	560.88
597.774	571.88
597.983	543.88
598.192	557.88
598.401	539.88
598.61	545.88
598.819	536.88
599.028	550.88
599.237	539.88
599.446	541.88
599.655	539.88
599.864	517.88
600.073	494.88
600.282	522.88
600.491	515.88
600.7	522.88
600.909	514.88
601.118	500.88
601.327	490.88
601.536	500.88
601.745	506.88
601.953	505.88
602.162	487.88
602.371	503.88
602.58	467.88
602.789	484.88
602.997	495.88
603.206	493.88
603.415	507.88
603.623	495.88
603.832	472.88
604.041	488.88
604.249	498.88
604.458	460.88
604.666	469.88
604.875	482.88
605.084	468.88
605.292	464.88
605.501	460.88
605.709	466.88
605.918	478.88
606.126	483.88
606.334	473.88
606.543	460.88
606.751	463.88
606.96	477.88
607.168	444.88
607.376	445.88
607.585	456.88
607.793	467.88
608.001	448.88
608.21	453.88
608.418	449.88
608.626	436.88
608.834	453.88
609.043	463.88
609.251	460.88
609.459	465.88
609.667	459.88
609.875	465.88
610.083	462.88
610.291	461.88
610.499	423.88
610.707	419.88
610.916	428.88
611.124	440.88
611.332	446.88
611.54	446.88
611.748	453.88
611.955	459.88
612.163	433.88
612.371	426.88
612.579	434.88
612.787	421.88
612.995	419.88
613.203	448.88
613.411	426.88
613.618	433.88
613.826	439.88
614.034	419.88
614.242	443.88
614.449	434.88
614.657	421.88
614.865	411.88
615.072	412.88
615.28	435.88
615.488	450.88
615.695	441.88
615.903	428.88
616.111	429.88
616.318	390.88
616.526	403.88
616.733	410.88
616.941	423.88
617.148	420.88
617.356	425.88
617.563	411.88
617.771	407.88
617.978	398.88
618.185	431.88
618.393	423.88
618.6	413.88
618.807	412.88
619.015	412.88
619.222	404.88
619.429	416.88
619.637	413.88
619.844	393.88
620.051	384.88
620.258	395.88
620.466	388.88
620.673	389.88
620.88	385.88
621.087	379.88
621.294	393.88
621.501	405.88
621.708	405.88
621.915	398.88
622.122	409.88
622.329	380.88
622.536	388.88
622.743	390.88
622.95	380.88
623.157	377.88
623.364	374.88
623.571	397.88
623.778	387.88
623.985	393.88
624.192	383.88
624.399	380.88
624.606	387.88
624.812	377.88
625.019	381.88
625.226	372.88
625.433	370.88
625.639	364.88
625.846	358.88
626.053	353.88
626.259	344.88
626.466	369.88
626.673	365.88
626.879	346.88
627.086	355.88
627.293	347.88
627.499	355.88
627.706	344.88
627.912	367.88
628.119	348.88
628.325	349.88
628.532	340.88
628.738	337.88
628.945	332.88
629.151	336.88
629.357	346.88
629.564	335.88
629.77	311.88
629.976	332.88
630.183	339.88
630.389	340.88
630.595	324.88
630.802	358.88
631.008	327.88
631.214	326.88
631.42	335.88
631.627	339.88
631.833	335.88
632.039	338.88
632.245	305.88
632.451	311.88
632.657	324.88
632.863	325.88
633.069	322.88
633.275	317.88
633.481	309.88
633.688	307.88
633.893	325.88
634.099	304.88
634.305	301.88
634.511	317.88
634.717	315.88
634.923	312.88
635.129	311.88
635.335	289.88
635.541	316.88
635.747	321.88
635.952	306.88
636.158	296.88
636.364	271.88
636.57	301.88
636.775	295.88
636.981	292.88
637.187	290.88
637.392	297.88
637.598	299.88
637.804	308.88
638.009	281.88
638.215	305.88
638.421	269.88
638.626	282.88
638.832	280.88
639.037	298.88
639.243	277.88
639.448	277.88
639.654	276.88
639.859	282.88
640.065	267.88
640.27	277.88
640.475	274.88
640.681	280.88
640.886	290.88
641.091	273.88
641.297	274.88
641.502	282.88
641.707	270.88
641.913	269.88
642.118	276.88
642.323	250.88
642.528	285.88
642.733	276.88
642.939	268.88
643.144	277.88
643.349	243.88
643.554	240.88
643.759	253.88
643.964	263.88
644.169	274.88
644.374	288.88
644.579	254.88
644.784	277.88
644.989	276.88
645.194	257.88
645.399	277.88
645.604	265.88
645.809	275.88
646.014	265.88
646.219	249.88
646.423	242.88
646.628	253.88
646.833	263.88
647.038	244.88
647.243	258.88
647.447	271.88
647.652	259.88
647.857	259.88
648.062	251.88
648.266	261.88
648.471	266.88
648.676	288.88
648.88	277.88
649.085	274.88
649.289	263.88
649.494	247.88
649.698	262.88
649.903	249.88
650.107	232.88
650.312	245.88
650.516	239.88
650.721	244.88
650.925	233.88
651.13	240.88
651.334	232.88
651.539	219.88
651.743	223.88
651.947	215.88
652.152	233.88
652.356	229.88
652.56	211.88
652.764	190.88
652.969	208.88
653.173	221.88
653.377	188.88
653.581	194.88
653.785	196.88
653.99	190.88
654.194	212.88
654.398	199.88
654.602	191.88
654.806	182.88
655.01	187.88
655.214	183.88
655.418	180.88
655.622	181.88
655.826	195.88
656.03	195.88
656.234	174.88
656.438	156.88
656.642	175.88
656.846	169.88
657.049	168.88
657.253	148.88
657.457	164.88
657.661	165.88
657.865	148.88
658.068	132.88
658.272	139.88
658.476	123.88
658.68	129.88
658.883	135.88
659.087	133.88
659.291	129.88
659.494	129.88
659.698	124.88
659.901	125.88
660.105	114.88
660.309	98.88
660.512	113.88
660.716	114.88
660.919	116.88
661.123	99.88
661.326	111.88
661.53	93.88
661.733	89.88
661.936	76.88
662.14	99.88
662.343	90.88
662.546	86.88
662.75	86.88
662.953	85.88
663.156	82.88
663.36	86.88
663.563	90.88
663.766	76.88
663.969	90.88
664.173	80.88
664.376	73.88
664.579	90.88
664.782	71.88
664.985	80.88
665.188	76.88
665.391	82.88
665.594	72.88
665.797	72.88
666	79.88
666.203	71.88
666.406	84.88
666.609	84.88
666.812	67.88
667.015	77.88
667.218	83.88
667.421	73.88
667.624	72.88
667.827	88.88
668.03	76.88
668.232	74.88
668.435	79.88
668.638	81.88
668.841	68.88
669.043	89.88
669.246	69.88
669.449	79.88
669.651	86.88
669.854	72.88
670.057	78.88
670.259	83.88
670.462	78.88
670.665	65.88
670.867	81.88
671.07	85.88
671.272	95.88
671.475	82.88
671.677	87.88
671.88	85.88
672.082	65.88
672.284	86.88
672.487	90.88
672.689	79.88
672.892	72.88
