Data from Ni(NO3)2Standard.Agarose3%.GreenCap.LampEnergy5.5.E.O_HRD10591_14-41-20-188.txt Node
Date: Mon Jul 22 14:41:20 EDT 2019
User: cochatt
Spectrometer: HR+D1059
Trigger mode: 1
Integration Time (sec): 1.000000E-1
Scans to average: 1
Electric dark correction enabled: true
Nonlinearity correction enabled: false
Boxcar width: 0
XAxis mode: Wavelengths
Number of Pixels in Spectrum: 2048
>>>>>Begin Spectral Data<<<<<
223.165	-15.62
223.4	-15.62
223.635	-15.62
223.869	-33.62
224.104	-24.62
224.338	-20.62
224.573	-10.62
224.808	-13.62
225.042	-17.62
225.277	1.38
225.511	6.38
225.746	6.38
225.98	4.38
226.215	16.38
226.449	23.38
226.683	20.38
226.918	27.38
227.152	30.38
227.387	32.38
227.621	33.38
227.856	47.38
228.09	39.38
228.324	44.38
228.559	61.38
228.793	51.38
229.027	62.38
229.262	61.38
229.496	66.38
229.73	79.38
229.964	75.38
230.199	71.38
230.433	88.38
230.667	83.38
230.901	77.38
231.136	89.38
231.37	97.38
231.604	80.38
231.838	78.38
232.072	81.38
232.306	76.38
232.541	86.38
232.775	75.38
233.009	60.38
233.243	100.38
233.477	86.38
233.711	72.38
233.945	78.38
234.179	81.38
234.413	79.38
234.647	74.38
234.881	88.38
235.115	69.38
235.349	72.38
235.583	67.38
235.817	89.38
236.051	76.38
236.285	77.38
236.519	66.38
236.753	83.38
236.987	83.38
237.221	82.38
237.455	74.38
237.689	80.38
237.922	76.38
238.156	68.38
238.39	71.38
238.624	76.38
238.858	83.38
239.091	90.38
239.325	78.38
239.559	84.38
239.793	66.38
240.027	73.38
240.26	81.38
240.494	84.38
240.728	74.38
240.961	74.38
241.195	69.38
241.429	77.38
241.662	72.38
241.896	77.38
242.13	73.38
242.363	68.38
242.597	92.38
242.83	91.38
243.064	78.38
243.298	75.38
243.531	82.38
243.765	75.38
243.998	77.38
244.232	72.38
244.465	87.38
244.699	73.38
244.932	84.38
245.166	83.38
245.399	76.38
245.633	74.38
245.866	73.38
246.099	88.38
246.333	65.38
246.566	69.38
246.8	73.38
247.033	71.38
247.266	85.38
247.5	83.38
247.733	81.38
247.966	75.38
248.2	91.38
248.433	76.38
248.666	71.38
248.899	83.38
249.133	85.38
249.366	72.38
249.599	80.38
249.832	82.38
250.066	91.38
250.299	82.38
250.532	71.38
250.765	83.38
250.998	71.38
251.231	77.38
251.465	81.38
251.698	87.38
251.931	86.38
252.164	89.38
252.397	88.38
252.63	85.38
252.863	74.38
253.096	77.38
253.329	87.38
253.562	88.38
253.795	78.38
254.028	90.38
254.261	75.38
254.494	66.38
254.727	84.38
254.96	76.38
255.193	75.38
255.426	86.38
255.659	76.38
255.892	75.38
256.124	84.38
256.357	85.38
256.59	80.38
256.823	82.38
257.056	81.38
257.289	80.38
257.521	85.38
257.754	96.38
257.987	88.38
258.22	90.38
258.452	82.38
258.685	72.38
258.918	74.38
259.151	74.38
259.383	84.38
259.616	87.38
259.849	88.38
260.081	88.38
260.314	85.38
260.547	80.38
260.779	67.38
261.012	74.38
261.244	77.38
261.477	90.38
261.71	82.38
261.942	84.38
262.175	99.38
262.407	72.38
262.64	89.38
262.872	77.38
263.105	82.38
263.337	85.38
263.57	77.38
263.802	96.38
264.035	82.38
264.267	87.38
264.499	87.38
264.732	81.38
264.964	70.38
265.197	77.38
265.429	82.38
265.661	84.38
265.894	83.38
266.126	96.38
266.358	69.38
266.591	81.38
266.823	94.38
267.055	81.38
267.287	84.38
267.52	73.38
267.752	97.38
267.984	95.38
268.216	91.38
268.448	97.38
268.681	88.38
268.913	84.38
269.145	80.38
269.377	88.38
269.609	90.38
269.841	87.38
270.073	86.38
270.306	87.38
270.538	72.38
270.77	86.38
271.002	83.38
271.234	89.38
271.466	88.38
271.698	90.38
271.93	81.38
272.162	90.38
272.394	97.38
272.626	89.38
272.858	87.38
273.09	97.38
273.322	79.38
273.553	90.38
273.785	87.38
274.017	91.38
274.249	77.38
274.481	90.38
274.713	81.38
274.945	80.38
275.176	77.38
275.408	97.38
275.64	89.38
275.872	82.38
276.104	85.38
276.335	85.38
276.567	93.38
276.799	74.38
277.031	85.38
277.262	87.38
277.494	96.38
277.726	82.38
277.957	84.38
278.189	84.38
278.421	89.38
278.652	89.38
278.884	85.38
279.115	82.38
279.347	88.38
279.579	80.38
279.81	85.38
280.042	74.38
280.273	86.38
280.505	82.38
280.736	91.38
280.968	90.38
281.199	81.38
281.431	80.38
281.662	91.38
281.894	100.38
282.125	91.38
282.356	77.38
282.588	94.38
282.819	91.38
283.051	98.38
283.282	93.38
283.513	84.38
283.745	83.38
283.976	87.38
284.207	81.38
284.439	89.38
284.67	79.38
284.901	99.38
285.132	84.38
285.364	73.38
285.595	75.38
285.826	79.38
286.057	78.38
286.288	84.38
286.52	99.38
286.751	91.38
286.982	82.38
287.213	86.38
287.444	96.38
287.675	80.38
287.906	77.38
288.138	91.38
288.369	83.38
288.6	92.38
288.831	98.38
289.062	96.38
289.293	77.38
289.524	83.38
289.755	76.38
289.986	84.38
290.217	94.38
290.448	83.38
290.679	96.38
290.91	87.38
291.141	82.38
291.371	77.38
291.602	98.38
291.833	87.38
292.064	91.38
292.295	97.38
292.526	89.38
292.757	92.38
292.987	103.38
293.218	93.38
293.449	85.38
293.68	78.38
293.91	106.38
294.141	77.38
294.372	87.38
294.603	92.38
294.833	79.38
295.064	96.38
295.295	77.38
295.525	76.38
295.756	97.38
295.987	91.38
296.217	77.38
296.448	75.38
296.679	89.38
296.909	85.38
297.14	91.38
297.37	79.38
297.601	90.38
297.831	83.38
298.062	101.38
298.292	78.38
298.523	84.38
298.753	90.38
298.984	100.38
299.214	91.38
299.445	92.38
299.675	83.38
299.905	78.38
300.136	83.38
300.366	86.38
300.597	82.38
300.827	85.38
301.057	76.38
301.288	94.38
301.518	92.38
301.748	86.38
301.979	86.38
302.209	86.38
302.439	88.38
302.669	82.38
302.9	96.38
303.13	93.38
303.36	96.38
303.59	85.38
303.82	84.38
304.051	88.38
304.281	100.38
304.511	81.38
304.741	97.38
304.971	89.38
305.201	91.38
305.431	93.38
305.661	98.38
305.891	79.38
306.121	88.38
306.352	82.38
306.582	84.38
306.812	98.38
307.042	90.38
307.272	73.38
307.502	98.38
307.731	100.38
307.961	79.38
308.191	96.38
308.421	95.38
308.651	92.38
308.881	84.38
309.111	84.38
309.341	86.38
309.571	106.38
309.8	103.38
310.03	89.38
310.26	92.38
310.49	96.38
310.72	81.38
310.949	94.38
311.179	104.38
311.409	92.38
311.639	85.38
311.868	89.38
312.098	77.38
312.328	93.38
312.557	96.38
312.787	85.38
313.017	84.38
313.246	77.38
313.476	75.38
313.706	81.38
313.935	86.38
314.165	94.38
314.394	90.38
314.624	88.38
314.853	89.38
315.083	85.38
315.312	88.38
315.542	89.38
315.771	84.38
316.001	86.38
316.23	88.38
316.46	79.38
316.689	86.38
316.919	77.38
317.148	82.38
317.377	94.38
317.607	91.38
317.836	90.38
318.065	92.38
318.295	92.38
318.524	91.38
318.753	76.38
318.983	73.38
319.212	93.38
319.441	87.38
319.67	77.38
319.9	80.38
320.129	85.38
320.358	89.38
320.587	84.38
320.816	84.38
321.046	78.38
321.275	74.38
321.504	78.38
321.733	88.38
321.962	84.38
322.191	96.38
322.42	79.38
322.649	89.38
322.878	86.38
323.108	97.38
323.337	76.38
323.566	77.38
323.795	99.38
324.024	99.38
324.253	78.38
324.482	88.38
324.71	96.38
324.939	87.38
325.168	86.38
325.397	74.38
325.626	73.38
325.855	79.38
326.084	82.38
326.313	71.38
326.542	82.38
326.77	77.38
326.999	81.38
327.228	96.38
327.457	76.38
327.686	91.38
327.914	80.38
328.143	100.38
328.372	83.38
328.6	70.38
328.829	68.38
329.058	78.38
329.287	88.38
329.515	93.38
329.744	91.38
329.972	83.38
330.201	96.38
330.43	101.38
330.658	93.38
330.887	95.38
331.115	87.38
331.344	78.38
331.572	78.38
331.801	89.38
332.03	84.38
332.258	88.38
332.486	86.38
332.715	92.38
332.943	88.38
333.172	89.38
333.4	88.38
333.629	90.38
333.857	89.38
334.085	96.38
334.314	79.38
334.542	93.38
334.771	106.38
334.999	98.38
335.227	97.38
335.455	83.38
335.684	82.38
335.912	101.38
336.14	86.38
336.369	82.38
336.597	77.38
336.825	95.38
337.053	78.38
337.281	94.38
337.51	84.38
337.738	82.38
337.966	86.38
338.194	82.38
338.422	93.38
338.65	93.38
338.878	90.38
339.106	84.38
339.334	98.38
339.562	96.38
339.79	83.38
340.018	90.38
340.246	102.38
340.474	101.38
340.702	78.38
340.93	77.38
341.158	78.38
341.386	74.38
341.614	77.38
341.842	91.38
342.07	86.38
342.298	92.38
342.526	94.38
342.754	98.38
342.981	94.38
343.209	90.38
343.437	100.38
343.665	72.38
343.893	84.38
344.12	86.38
344.348	85.38
344.576	72.38
344.804	78.38
345.031	98.38
345.259	98.38
345.487	99.38
345.714	100.38
345.942	100.38
346.17	85.38
346.397	86.38
346.625	82.38
346.853	82.38
347.08	66.38
347.308	85.38
347.535	80.38
347.763	79.38
347.99	90.38
348.218	83.38
348.445	96.38
348.673	84.38
348.9	97.38
349.128	86.38
349.355	79.38
349.583	92.38
349.81	90.38
350.037	87.38
350.265	100.38
350.492	86.38
350.72	89.38
350.947	72.38
351.174	81.38
351.402	78.38
351.629	92.38
351.856	81.38
352.083	77.38
352.311	86.38
352.538	89.38
352.765	79.38
352.992	80.38
353.22	88.38
353.447	104.38
353.674	92.38
353.901	89.38
354.128	77.38
354.355	83.38
354.583	97.38
354.81	89.38
355.037	70.38
355.264	88.38
355.491	98.38
355.718	89.38
355.945	96.38
356.172	74.38
356.399	80.38
356.626	77.38
356.853	80.38
357.08	88.38
357.307	90.38
357.534	75.38
357.761	78.38
357.988	94.38
358.215	81.38
358.441	92.38
358.668	87.38
358.895	84.38
359.122	89.38
359.349	91.38
359.576	83.38
359.802	79.38
360.029	81.38
360.256	98.38
360.483	77.38
360.709	100.38
360.936	85.38
361.163	89.38
361.39	83.38
361.616	79.38
361.843	85.38
362.07	74.38
362.296	88.38
362.523	96.38
362.749	84.38
362.976	86.38
363.203	70.38
363.429	96.38
363.656	102.38
363.882	75.38
364.109	101.38
364.335	86.38
364.562	94.38
364.788	97.38
365.015	86.38
365.241	80.38
365.468	90.38
365.694	95.38
365.92	79.38
366.147	93.38
366.373	86.38
366.599	91.38
366.826	84.38
367.052	85.38
367.278	88.38
367.505	85.38
367.731	90.38
367.957	66.38
368.184	94.38
368.41	98.38
368.636	82.38
368.862	97.38
369.089	79.38
369.315	90.38
369.541	77.38
369.767	75.38
369.993	78.38
370.219	87.38
370.445	93.38
370.672	101.38
370.898	88.38
371.124	100.38
371.35	68.38
371.576	92.38
371.802	82.38
372.028	91.38
372.254	84.38
372.48	85.38
372.706	88.38
372.932	75.38
373.158	83.38
373.384	89.38
373.61	87.38
373.835	78.38
374.061	87.38
374.287	76.38
374.513	86.38
374.739	82.38
374.965	94.38
375.191	107.38
375.416	90.38
375.642	96.38
375.868	86.38
376.094	80.38
376.319	83.38
376.545	82.38
376.771	96.38
376.997	75.38
377.222	78.38
377.448	91.38
377.674	81.38
377.899	106.38
378.125	92.38
378.35	89.38
378.576	84.38
378.802	87.38
379.027	83.38
379.253	96.38
379.478	85.38
379.704	91.38
379.929	80.38
380.155	83.38
380.38	92.38
380.606	79.38
380.831	89.38
381.057	95.38
381.282	85.38
381.507	85.38
381.733	89.38
381.958	85.38
382.184	82.38
382.409	74.38
382.634	82.38
382.86	77.38
383.085	69.38
383.31	88.38
383.535	89.38
383.761	79.38
383.986	87.38
384.211	89.38
384.436	90.38
384.662	85.38
384.887	87.38
385.112	83.38
385.337	92.38
385.562	78.38
385.787	83.38
386.013	90.38
386.238	79.38
386.463	89.38
386.688	79.38
386.913	85.38
387.138	87.38
387.363	88.38
387.588	80.38
387.813	96.38
388.038	81.38
388.263	88.38
388.488	93.38
388.713	92.38
388.938	98.38
389.163	89.38
389.387	76.38
389.612	81.38
389.837	90.38
390.062	86.38
390.287	79.38
390.512	72.38
390.736	82.38
390.961	95.38
391.186	86.38
391.411	78.38
391.636	95.38
391.86	83.38
392.085	93.38
392.31	83.38
392.534	85.38
392.759	98.38
392.984	94.38
393.208	93.38
393.433	100.38
393.658	81.38
393.882	98.38
394.107	82.38
394.331	96.38
394.556	75.38
394.78	105.38
395.005	88.38
395.229	86.38
395.454	91.38
395.678	94.38
395.903	88.38
396.127	90.38
396.352	92.38
396.576	89.38
396.801	100.38
397.025	81.38
397.249	77.38
397.474	92.38
397.698	93.38
397.922	81.38
398.147	85.38
398.371	84.38
398.595	88.38
398.82	96.38
399.044	81.38
399.268	86.38
399.492	96.38
399.717	88.38
399.941	78.38
400.165	96.38
400.389	93.38
400.613	97.38
400.837	82.38
401.062	85.38
401.286	78.38
401.51	85.38
401.734	81.38
401.958	84.38
402.182	94.38
402.406	83.38
402.63	74.38
402.854	86.38
403.078	94.38
403.302	84.38
403.526	95.38
403.75	78.38
403.974	98.38
404.198	101.38
404.422	92.38
404.645	80.38
404.869	82.38
405.093	84.38
405.317	65.38
405.541	92.38
405.765	82.38
405.988	83.38
406.212	79.38
406.436	81.38
406.66	80.38
406.883	76.38
407.107	84.38
407.331	87.38
407.555	91.38
407.778	93.38
408.002	84.38
408.226	82.38
408.449	73.38
408.673	82.38
408.896	84.38
409.12	75.38
409.344	84.38
409.567	67.38
409.791	83.38
410.014	91.38
410.238	84.38
410.461	85.38
410.685	80.38
410.908	88.38
411.132	100.38
411.355	96.38
411.578	89.38
411.802	96.38
412.025	83.38
412.249	81.38
412.472	72.38
412.695	80.38
412.919	83.38
413.142	83.38
413.365	84.38
413.589	82.38
413.812	86.38
414.035	87.38
414.258	113.38
414.482	83.38
414.705	83.38
414.928	90.38
415.151	84.38
415.374	75.38
415.597	79.38
415.821	86.38
416.044	82.38
416.267	88.38
416.49	84.38
416.713	83.38
416.936	70.38
417.159	93.38
417.382	82.38
417.605	86.38
417.828	91.38
418.051	86.38
418.274	99.38
418.497	90.38
418.72	91.38
418.943	92.38
419.166	92.38
419.389	89.38
419.611	91.38
419.834	81.38
420.057	86.38
420.28	86.38
420.503	89.38
420.726	71.38
420.948	103.38
421.171	83.38
421.394	81.38
421.617	88.38
421.839	84.38
422.062	76.38
422.285	89.38
422.507	105.38
422.73	97.38
422.953	85.38
423.175	84.38
423.398	92.38
423.621	83.38
423.843	87.38
424.066	76.38
424.288	85.38
424.511	93.38
424.733	84.38
424.956	80.38
425.178	91.38
425.401	92.38
425.623	84.38
425.846	85.38
426.068	91.38
426.291	118.38
426.513	97.38
426.735	73.38
426.958	84.38
427.18	90.38
427.402	85.38
427.625	94.38
427.847	84.38
428.069	79.38
428.292	83.38
428.514	87.38
428.736	97.38
428.958	72.38
429.181	84.38
429.403	106.38
429.625	79.38
429.847	100.38
430.069	93.38
430.292	98.38
430.514	89.38
430.736	78.38
430.958	78.38
431.18	85.38
431.402	79.38
431.624	83.38
431.846	85.38
432.068	82.38
432.29	76.38
432.512	73.38
432.734	90.38
432.956	84.38
433.178	80.38
433.4	88.38
433.622	84.38
433.844	103.38
434.066	85.38
434.287	85.38
434.509	93.38
434.731	90.38
434.953	77.38
435.175	86.38
435.397	87.38
435.618	72.38
435.84	80.38
436.062	71.38
436.284	80.38
436.505	75.38
436.727	87.38
436.949	70.38
437.17	98.38
437.392	83.38
437.614	88.38
437.835	89.38
438.057	89.38
438.278	83.38
438.5	73.38
438.721	82.38
438.943	83.38
439.165	79.38
439.386	89.38
439.608	94.38
439.829	85.38
440.05	93.38
440.272	68.38
440.493	93.38
440.715	73.38
440.936	80.38
441.158	88.38
441.379	77.38
441.6	78.38
441.822	76.38
442.043	76.38
442.264	97.38
442.486	90.38
442.707	83.38
442.928	89.38
443.149	98.38
443.371	89.38
443.592	81.38
443.813	90.38
444.034	102.38
444.255	88.38
444.476	91.38
444.698	85.38
444.919	89.38
445.14	198.38
445.361	124.38
445.582	97.38
445.803	82.38
446.024	78.38
446.245	84.38
446.466	85.38
446.687	92.38
446.908	90.38
447.129	84.38
447.35	94.38
447.571	90.38
447.792	86.38
448.013	86.38
448.234	82.38
448.455	81.38
448.675	83.38
448.896	67.38
449.117	76.38
449.338	91.38
449.559	90.38
449.779	78.38
450	102.38
450.221	105.38
450.442	94.38
450.662	80.38
450.883	67.38
451.104	87.38
451.324	86.38
451.545	98.38
451.766	89.38
451.986	82.38
452.207	77.38
452.428	74.38
452.648	101.38
452.869	80.38
453.089	95.38
453.31	78.38
453.53	89.38
453.751	80.38
453.971	87.38
454.192	79.38
454.412	90.38
454.633	86.38
454.853	97.38
455.073	74.38
455.294	94.38
455.514	85.38
455.734	82.38
455.955	97.38
456.175	74.38
456.395	71.38
456.616	81.38
456.836	86.38
457.056	78.38
457.276	90.38
457.497	70.38
457.717	82.38
457.937	86.38
458.157	82.38
458.377	86.38
458.598	80.38
458.818	83.38
459.038	84.38
459.258	82.38
459.478	88.38
459.698	81.38
459.918	87.38
460.138	92.38
460.358	84.38
460.578	75.38
460.798	80.38
461.018	88.38
461.238	104.38
461.458	90.38
461.678	85.38
461.898	91.38
462.118	91.38
462.338	89.38
462.558	101.38
462.777	94.38
462.997	86.38
463.217	96.38
463.437	98.38
463.657	82.38
463.876	77.38
464.096	82.38
464.316	88.38
464.536	88.38
464.755	82.38
464.975	91.38
465.195	86.38
465.414	80.38
465.634	92.38
465.854	83.38
466.073	101.38
466.293	91.38
466.512	95.38
466.732	97.38
466.951	81.38
467.171	93.38
467.391	84.38
467.61	95.38
467.829	88.38
468.049	85.38
468.268	61.38
468.488	72.38
468.707	89.38
468.927	86.38
469.146	91.38
469.365	93.38
469.585	100.38
469.804	71.38
470.023	83.38
470.243	96.38
470.462	84.38
470.681	89.38
470.901	87.38
471.12	95.38
471.339	86.38
471.558	85.38
471.777	89.38
471.997	86.38
472.216	71.38
472.435	82.38
472.654	81.38
472.873	87.38
473.092	81.38
473.311	85.38
473.53	80.38
473.749	94.38
473.968	94.38
474.187	85.38
474.406	87.38
474.625	77.38
474.844	77.38
475.063	76.38
475.282	87.38
475.501	102.38
475.72	88.38
475.939	88.38
476.158	78.38
476.377	88.38
476.596	78.38
476.814	91.38
477.033	83.38
477.252	99.38
477.471	85.38
477.69	92.38
477.908	89.38
478.127	100.38
478.346	86.38
478.564	92.38
478.783	86.38
479.002	100.38
479.22	88.38
479.439	95.38
479.658	86.38
479.876	72.38
480.095	91.38
480.313	69.38
480.532	93.38
480.751	74.38
480.969	104.38
481.188	78.38
481.406	77.38
481.624	81.38
481.843	87.38
482.061	89.38
482.28	92.38
482.498	77.38
482.717	87.38
482.935	85.38
483.153	91.38
483.372	93.38
483.59	88.38
483.808	95.38
484.027	87.38
484.245	91.38
484.463	99.38
484.681	106.38
484.9	90.38
485.118	100.38
485.336	78.38
485.554	84.38
485.772	87.38
485.99	93.38
486.209	96.38
486.427	101.38
486.645	93.38
486.863	90.38
487.081	90.38
487.299	99.38
487.517	79.38
487.735	84.38
487.953	87.38
488.171	82.38
488.389	102.38
488.607	90.38
488.825	77.38
489.043	87.38
489.261	104.38
489.479	96.38
489.696	93.38
489.914	103.38
490.132	93.38
490.35	92.38
490.568	83.38
490.786	106.38
491.003	90.38
491.221	96.38
491.439	90.38
491.657	97.38
491.874	94.38
492.092	81.38
492.31	91.38
492.527	100.38
492.745	103.38
492.963	93.38
493.18	93.38
493.398	83.38
493.615	89.38
493.833	84.38
494.05	81.38
494.268	94.38
494.485	112.38
494.703	106.38
494.92	86.38
495.138	101.38
495.355	99.38
495.573	105.38
495.79	81.38
496.008	98.38
496.225	97.38
496.442	113.38
496.66	96.38
496.877	97.38
497.094	96.38
497.312	85.38
497.529	87.38
497.746	104.38
497.963	97.38
498.181	84.38
498.398	69.38
498.615	85.38
498.832	93.38
499.049	87.38
499.267	95.38
499.484	105.38
499.701	102.38
499.918	101.38
500.135	115.38
500.352	100.38
500.569	120.38
500.786	106.38
501.003	102.38
501.22	98.38
501.437	118.38
501.654	103.38
501.871	96.38
502.088	95.38
502.305	93.38
502.522	100.38
502.739	87.38
502.956	85.38
503.172	87.38
503.389	90.38
503.606	91.38
503.823	99.38
504.04	82.38
504.256	90.38
504.473	95.38
504.69	91.38
504.907	88.38
505.123	82.38
505.34	90.38
505.557	92.38
505.773	100.38
505.99	87.38
506.207	105.38
506.423	87.38
506.64	84.38
506.856	95.38
507.073	91.38
507.289	91.38
507.506	98.38
507.722	94.38
507.939	79.38
508.155	93.38
508.372	95.38
508.588	91.38
508.805	85.38
509.021	95.38
509.238	97.38
509.454	85.38
509.67	84.38
509.887	94.38
510.103	87.38
510.319	78.38
510.536	91.38
510.752	76.38
510.968	86.38
511.184	98.38
511.401	83.38
511.617	87.38
511.833	90.38
512.049	94.38
512.265	91.38
512.481	89.38
512.698	107.38
512.914	91.38
513.13	78.38
513.346	107.38
513.562	92.38
513.778	99.38
513.994	94.38
514.21	97.38
514.426	98.38
514.642	90.38
514.858	87.38
515.074	95.38
515.29	83.38
515.506	74.38
515.721	87.38
515.937	102.38
516.153	90.38
516.369	97.38
516.585	80.38
516.801	96.38
517.016	78.38
517.232	97.38
517.448	87.38
517.664	90.38
517.879	84.38
518.095	78.38
518.311	82.38
518.527	92.38
518.742	100.38
518.958	77.38
519.173	110.38
519.389	88.38
519.605	102.38
519.82	82.38
520.036	91.38
520.251	87.38
520.467	96.38
520.682	96.38
520.898	98.38
521.113	89.38
521.329	98.38
521.544	87.38
521.76	86.38
521.975	101.38
522.19	75.38
522.406	102.38
522.621	83.38
522.836	80.38
523.052	90.38
523.267	104.38
523.482	78.38
523.698	88.38
523.913	79.38
524.128	83.38
524.343	92.38
524.559	87.38
524.774	98.38
524.989	92.38
525.204	81.38
525.419	96.38
525.634	85.38
525.849	91.38
526.064	90.38
526.28	94.38
526.495	77.38
526.71	108.38
526.925	104.38
527.14	85.38
527.355	94.38
527.57	88.38
527.785	85.38
527.999	81.38
528.214	91.38
528.429	84.38
528.644	95.38
528.859	92.38
529.074	89.38
529.289	100.38
529.503	88.38
529.718	83.38
529.933	75.38
530.148	92.38
530.363	91.38
530.577	100.38
530.792	86.38
531.007	104.38
531.221	88.38
531.436	90.38
531.651	77.38
531.865	89.38
532.08	101.38
532.295	92.38
532.509	81.38
532.724	89.38
532.938	86.38
533.153	80.38
533.367	103.38
533.582	87.38
533.796	94.38
534.011	77.38
534.225	96.38
534.44	92.38
534.654	94.38
534.868	74.38
535.083	86.38
535.297	71.38
535.511	84.38
535.726	97.38
535.94	89.38
536.154	97.38
536.369	82.38
536.583	96.38
536.797	89.38
537.011	92.38
537.225	96.38
537.44	92.38
537.654	85.38
537.868	78.38
538.082	84.38
538.296	96.38
538.51	102.38
538.724	94.38
538.938	89.38
539.153	106.38
539.367	90.38
539.581	92.38
539.795	94.38
540.009	87.38
540.222	89.38
540.436	96.38
540.65	88.38
540.864	78.38
541.078	90.38
541.292	91.38
541.506	90.38
541.72	104.38
541.934	101.38
542.147	92.38
542.361	91.38
542.575	93.38
542.789	99.38
543.002	86.38
543.216	89.38
543.43	78.38
543.644	98.38
543.857	88.38
544.071	93.38
544.285	93.38
544.498	86.38
544.712	98.38
544.925	82.38
545.139	88.38
545.352	91.38
545.566	96.38
545.779	85.38
545.993	94.38
546.206	85.38
546.42	100.38
546.633	85.38
546.847	84.38
547.06	86.38
547.274	97.38
547.487	96.38
547.7	96.38
547.914	84.38
548.127	83.38
548.34	92.38
548.554	98.38
548.767	93.38
548.98	93.38
549.193	92.38
549.407	92.38
549.62	86.38
549.833	101.38
550.046	89.38
550.259	91.38
550.473	95.38
550.686	92.38
550.899	91.38
551.112	91.38
551.325	96.38
551.538	93.38
551.751	84.38
551.964	88.38
552.177	90.38
552.39	92.38
552.603	83.38
552.816	90.38
553.029	91.38
553.242	89.38
553.455	86.38
553.667	88.38
553.88	87.38
554.093	68.38
554.306	91.38
554.519	102.38
554.732	96.38
554.944	87.38
555.157	97.38
555.37	78.38
555.583	83.38
555.795	98.38
556.008	99.38
556.221	79.38
556.433	93.38
556.646	99.38
556.859	81.38
557.071	77.38
557.284	92.38
557.496	92.38
557.709	77.38
557.921	104.38
558.134	89.38
558.346	81.38
558.559	84.38
558.771	84.38
558.984	78.38
559.196	90.38
559.409	90.38
559.621	75.38
559.833	81.38
560.046	86.38
560.258	90.38
560.47	89.38
560.683	99.38
560.895	79.38
561.107	99.38
561.32	96.38
561.532	79.38
561.744	74.38
561.956	86.38
562.168	80.38
562.381	95.38
562.593	85.38
562.805	77.38
563.017	93.38
563.229	86.38
563.441	101.38
563.653	96.38
563.865	102.38
564.077	76.38
564.289	84.38
564.501	94.38
564.713	84.38
564.925	111.38
565.137	82.38
565.349	91.38
565.561	92.38
565.773	90.38
565.985	94.38
566.197	85.38
566.408	88.38
566.62	82.38
566.832	85.38
567.044	81.38
567.255	104.38
567.467	74.38
567.679	85.38
567.891	93.38
568.102	97.38
568.314	98.38
568.526	96.38
568.737	104.38
568.949	94.38
569.161	88.38
569.372	87.38
569.584	91.38
569.795	89.38
570.007	87.38
570.218	88.38
570.43	92.38
570.641	92.38
570.853	89.38
571.064	91.38
571.276	89.38
571.487	89.38
571.698	75.38
571.91	72.38
572.121	70.38
572.333	88.38
572.544	96.38
572.755	84.38
572.966	76.38
573.178	77.38
573.389	81.38
573.6	86.38
573.811	91.38
574.023	91.38
574.234	96.38
574.445	86.38
574.656	78.38
574.867	86.38
575.078	89.38
575.289	74.38
575.501	76.38
575.712	87.38
575.923	95.38
576.134	87.38
576.345	86.38
576.556	90.38
576.767	102.38
576.978	90.38
577.188	90.38
577.399	75.38
577.61	78.38
577.821	104.38
578.032	96.38
578.243	87.38
578.454	90.38
578.665	100.38
578.875	89.38
579.086	100.38
579.297	85.38
579.508	73.38
579.718	78.38
579.929	74.38
580.14	76.38
580.35	93.38
580.561	85.38
580.772	88.38
580.982	99.38
581.193	86.38
581.403	101.38
581.614	82.38
581.825	86.38
582.035	92.38
582.246	99.38
582.456	91.38
582.667	80.38
582.877	85.38
583.087	74.38
583.298	82.38
583.508	119.38
583.719	84.38
583.929	96.38
584.139	95.38
584.35	103.38
584.56	85.38
584.77	89.38
584.981	75.38
585.191	85.38
585.401	88.38
585.611	79.38
585.821	84.38
586.032	98.38
586.242	82.38
586.452	88.38
586.662	87.38
586.872	90.38
587.082	76.38
587.292	90.38
587.502	84.38
587.713	76.38
587.923	97.38
588.133	92.38
588.343	91.38
588.553	91.38
588.762	82.38
588.972	76.38
589.182	86.38
589.392	92.38
589.602	101.38
589.812	104.38
590.022	98.38
590.232	92.38
590.441	92.38
590.651	86.38
590.861	74.38
591.071	86.38
591.281	108.38
591.49	91.38
591.7	90.38
591.91	91.38
592.119	85.38
592.329	77.38
592.539	98.38
592.748	84.38
592.958	92.38
593.167	84.38
593.377	104.38
593.587	96.38
593.796	86.38
594.006	107.38
594.215	89.38
594.424	77.38
594.634	103.38
594.843	86.38
595.053	85.38
595.262	82.38
595.472	94.38
595.681	78.38
595.89	85.38
596.1	83.38
596.309	82.38
596.518	69.38
596.727	90.38
596.937	77.38
597.146	92.38
597.355	89.38
597.564	80.38
597.774	96.38
597.983	80.38
598.192	89.38
598.401	83.38
598.61	95.38
598.819	93.38
599.028	85.38
599.237	72.38
599.446	98.38
599.655	80.38
599.864	95.38
600.073	90.38
600.282	84.38
600.491	89.38
600.7	100.38
600.909	91.38
601.118	84.38
601.327	83.38
601.536	84.38
601.745	84.38
601.953	89.38
602.162	91.38
602.371	100.38
602.58	92.38
602.789	90.38
602.997	95.38
603.206	80.38
603.415	85.38
603.623	84.38
603.832	83.38
604.041	81.38
604.249	90.38
604.458	89.38
604.666	93.38
604.875	92.38
605.084	81.38
605.292	70.38
605.501	78.38
605.709	87.38
605.918	101.38
606.126	86.38
606.334	98.38
606.543	90.38
606.751	89.38
606.96	96.38
607.168	86.38
607.376	87.38
607.585	88.38
607.793	96.38
608.001	86.38
608.21	80.38
608.418	76.38
608.626	79.38
608.834	93.38
609.043	89.38
609.251	97.38
609.459	65.38
609.667	89.38
609.875	99.38
610.083	91.38
610.291	75.38
610.499	87.38
610.707	90.38
610.916	84.38
611.124	90.38
611.332	67.38
611.54	77.38
611.748	86.38
611.955	88.38
612.163	87.38
612.371	74.38
612.579	87.38
612.787	91.38
612.995	84.38
613.203	99.38
613.411	98.38
613.618	85.38
613.826	92.38
614.034	93.38
614.242	91.38
614.449	78.38
614.657	94.38
614.865	94.38
615.072	83.38
615.28	95.38
615.488	85.38
615.695	87.38
615.903	100.38
616.111	88.38
616.318	87.38
616.526	81.38
616.733	88.38
616.941	90.38
617.148	81.38
617.356	87.38
617.563	90.38
617.771	97.38
617.978	90.38
618.185	77.38
618.393	92.38
618.6	104.38
618.807	86.38
619.015	89.38
619.222	97.38
619.429	87.38
619.637	81.38
619.844	94.38
620.051	96.38
620.258	83.38
620.466	75.38
620.673	80.38
620.88	89.38
621.087	93.38
621.294	94.38
621.501	92.38
621.708	85.38
621.915	92.38
622.122	90.38
622.329	90.38
622.536	98.38
622.743	95.38
622.95	85.38
623.157	87.38
623.364	81.38
623.571	73.38
623.778	88.38
623.985	100.38
624.192	72.38
624.399	88.38
624.606	84.38
624.812	83.38
625.019	93.38
625.226	93.38
625.433	90.38
625.639	89.38
625.846	91.38
626.053	94.38
626.259	94.38
626.466	91.38
626.673	70.38
626.879	92.38
627.086	89.38
627.293	99.38
627.499	96.38
627.706	81.38
627.912	93.38
628.119	90.38
628.325	101.38
628.532	85.38
628.738	77.38
628.945	89.38
629.151	89.38
629.357	85.38
629.564	88.38
629.77	80.38
629.976	81.38
630.183	93.38
630.389	69.38
630.595	86.38
630.802	80.38
631.008	88.38
631.214	75.38
631.42	82.38
631.627	89.38
631.833	89.38
632.039	96.38
632.245	85.38
632.451	102.38
632.657	93.38
632.863	83.38
633.069	88.38
633.275	96.38
633.481	91.38
633.688	94.38
633.893	95.38
634.099	82.38
634.305	86.38
634.511	94.38
634.717	93.38
634.923	88.38
635.129	87.38
635.335	91.38
635.541	93.38
635.747	86.38
635.952	88.38
636.158	75.38
636.364	83.38
636.57	76.38
636.775	75.38
636.981	89.38
637.187	87.38
637.392	86.38
637.598	93.38
637.804	86.38
638.009	96.38
638.215	78.38
638.421	88.38
638.626	73.38
638.832	76.38
639.037	74.38
639.243	84.38
639.448	98.38
639.654	105.38
639.859	62.38
640.065	73.38
640.27	83.38
640.475	87.38
640.681	81.38
640.886	90.38
641.091	84.38
641.297	86.38
641.502	86.38
641.707	65.38
641.913	77.38
642.118	80.38
642.323	77.38
642.528	98.38
642.733	98.38
642.939	73.38
643.144	83.38
643.349	93.38
643.554	85.38
643.759	104.38
643.964	82.38
644.169	73.38
644.374	88.38
644.579	85.38
644.784	93.38
644.989	86.38
645.194	91.38
645.399	94.38
645.604	77.38
645.809	85.38
646.014	85.38
646.219	91.38
646.423	89.38
646.628	85.38
646.833	90.38
647.038	84.38
647.243	76.38
647.447	86.38
647.652	100.38
647.857	77.38
648.062	85.38
648.266	80.38
648.471	97.38
648.676	77.38
648.88	79.38
649.085	76.38
649.289	84.38
649.494	76.38
649.698	82.38
649.903	85.38
650.107	92.38
650.312	92.38
650.516	77.38
650.721	87.38
650.925	84.38
651.13	85.38
651.334	87.38
651.539	73.38
651.743	82.38
651.947	92.38
652.152	85.38
652.356	107.38
652.56	91.38
652.764	78.38
652.969	94.38
653.173	79.38
653.377	82.38
653.581	94.38
653.785	76.38
653.99	81.38
654.194	83.38
654.398	85.38
654.602	74.38
654.806	80.38
655.01	75.38
655.214	86.38
655.418	84.38
655.622	81.38
655.826	84.38
656.03	82.38
656.234	76.38
656.438	73.38
656.642	76.38
656.846	100.38
657.049	72.38
657.253	98.38
657.457	83.38
657.661	86.38
657.865	86.38
658.068	90.38
658.272	73.38
658.476	92.38
658.68	78.38
658.883	82.38
659.087	78.38
659.291	76.38
659.494	79.38
659.698	96.38
659.901	84.38
660.105	74.38
660.309	97.38
660.512	84.38
660.716	92.38
660.919	93.38
661.123	80.38
661.326	87.38
661.53	82.38
661.733	81.38
661.936	86.38
662.14	75.38
662.343	82.38
662.546	67.38
662.75	77.38
662.953	96.38
663.156	90.38
663.36	88.38
663.563	83.38
663.766	81.38
663.969	87.38
664.173	83.38
664.376	82.38
664.579	86.38
664.782	92.38
664.985	76.38
665.188	91.38
665.391	83.38
665.594	89.38
665.797	86.38
666	80.38
666.203	81.38
666.406	88.38
666.609	83.38
666.812	84.38
667.015	73.38
667.218	92.38
667.421	60.38
667.624	72.38
667.827	85.38
668.03	94.38
668.232	78.38
668.435	83.38
668.638	70.38
668.841	81.38
669.043	72.38
669.246	82.38
669.449	78.38
669.651	80.38
669.854	78.38
670.057	81.38
670.259	85.38
670.462	87.38
670.665	90.38
670.867	76.38
671.07	72.38
671.272	77.38
671.475	87.38
671.677	82.38
671.88	83.38
672.082	88.38
672.284	77.38
672.487	84.38
672.689	78.38
672.892	91.38
