Data from Ni(NO3)2Standard.Agarose3%.GreenCap.LampEnergy5.5.E.O_HRD10591_14-39-44-188.txt Node
Date: Mon Jul 22 14:39:44 EDT 2019
User: cochatt
Spectrometer: HR+D1059
Trigger mode: 1
Integration Time (sec): 1.000000E-1
Scans to average: 1
Electric dark correction enabled: true
Nonlinearity correction enabled: false
Boxcar width: 0
XAxis mode: Wavelengths
Number of Pixels in Spectrum: 2048
>>>>>Begin Spectral Data<<<<<
223.165	-19.31
223.4	-19.31
223.635	-19.31
223.869	-19.31
224.104	-21.31
224.338	-25.31
224.573	-14.31
224.808	-8.31
225.042	-6.31
225.277	-14.31
225.511	1.69
225.746	12.69
225.98	6.69
226.215	2.69
226.449	26.69
226.683	12.69
226.918	31.69
227.152	33.69
227.387	28.69
227.621	23.69
227.856	43.69
228.09	53.69
228.324	60.69
228.559	46.69
228.793	57.69
229.027	58.69
229.262	62.69
229.496	58.69
229.73	73.69
229.964	61.69
230.199	73.69
230.433	62.69
230.667	72.69
230.901	84.69
231.136	78.69
231.37	82.69
231.604	98.69
231.838	78.69
232.072	82.69
232.306	88.69
232.541	88.69
232.775	82.69
233.009	92.69
233.243	84.69
233.477	77.69
233.711	82.69
233.945	77.69
234.179	71.69
234.413	87.69
234.647	75.69
234.881	67.69
235.115	78.69
235.349	78.69
235.583	84.69
235.817	81.69
236.051	67.69
236.285	88.69
236.519	77.69
236.753	82.69
236.987	85.69
237.221	73.69
237.455	81.69
237.689	74.69
237.922	83.69
238.156	75.69
238.39	90.69
238.624	76.69
238.858	77.69
239.091	67.69
239.325	75.69
239.559	78.69
239.793	77.69
240.027	88.69
240.26	65.69
240.494	87.69
240.728	68.69
240.961	85.69
241.195	84.69
241.429	76.69
241.662	72.69
241.896	74.69
242.13	58.69
242.363	75.69
242.597	64.69
242.83	76.69
243.064	78.69
243.298	84.69
243.531	71.69
243.765	83.69
243.998	77.69
244.232	86.69
244.465	77.69
244.699	100.69
244.932	80.69
245.166	79.69
245.399	78.69
245.633	74.69
245.866	84.69
246.099	88.69
246.333	68.69
246.566	83.69
246.8	82.69
247.033	83.69
247.266	81.69
247.5	75.69
247.733	74.69
247.966	75.69
248.2	94.69
248.433	85.69
248.666	79.69
248.899	77.69
249.133	76.69
249.366	91.69
249.599	86.69
249.832	79.69
250.066	89.69
250.299	90.69
250.532	84.69
250.765	82.69
250.998	77.69
251.231	77.69
251.465	81.69
251.698	84.69
251.931	87.69
252.164	87.69
252.397	81.69
252.63	83.69
252.863	96.69
253.096	70.69
253.329	84.69
253.562	84.69
253.795	77.69
254.028	84.69
254.261	73.69
254.494	81.69
254.727	85.69
254.96	89.69
255.193	79.69
255.426	74.69
255.659	82.69
255.892	93.69
256.124	87.69
256.357	84.69
256.59	75.69
256.823	76.69
257.056	88.69
257.289	64.69
257.521	82.69
257.754	78.69
257.987	87.69
258.22	84.69
258.452	86.69
258.685	78.69
258.918	81.69
259.151	86.69
259.383	91.69
259.616	87.69
259.849	89.69
260.081	94.69
260.314	94.69
260.547	81.69
260.779	84.69
261.012	75.69
261.244	78.69
261.477	77.69
261.71	66.69
261.942	80.69
262.175	91.69
262.407	80.69
262.64	84.69
262.872	93.69
263.105	89.69
263.337	77.69
263.57	86.69
263.802	78.69
264.035	73.69
264.267	70.69
264.499	83.69
264.732	78.69
264.964	101.69
265.197	91.69
265.429	72.69
265.661	89.69
265.894	84.69
266.126	81.69
266.358	99.69
266.591	80.69
266.823	86.69
267.055	70.69
267.287	87.69
267.52	72.69
267.752	83.69
267.984	86.69
268.216	88.69
268.448	97.69
268.681	70.69
268.913	86.69
269.145	92.69
269.377	73.69
269.609	71.69
269.841	98.69
270.073	78.69
270.306	97.69
270.538	82.69
270.77	87.69
271.002	92.69
271.234	95.69
271.466	87.69
271.698	75.69
271.93	86.69
272.162	75.69
272.394	83.69
272.626	90.69
272.858	83.69
273.09	106.69
273.322	83.69
273.553	81.69
273.785	89.69
274.017	79.69
274.249	96.69
274.481	69.69
274.713	81.69
274.945	86.69
275.176	81.69
275.408	85.69
275.64	83.69
275.872	93.69
276.104	86.69
276.335	84.69
276.567	81.69
276.799	89.69
277.031	71.69
277.262	97.69
277.494	90.69
277.726	82.69
277.957	77.69
278.189	82.69
278.421	89.69
278.652	86.69
278.884	92.69
279.115	86.69
279.347	98.69
279.579	87.69
279.81	80.69
280.042	81.69
280.273	78.69
280.505	73.69
280.736	82.69
280.968	89.69
281.199	88.69
281.431	91.69
281.662	88.69
281.894	92.69
282.125	83.69
282.356	89.69
282.588	78.69
282.819	92.69
283.051	99.69
283.282	80.69
283.513	105.69
283.745	81.69
283.976	96.69
284.207	79.69
284.439	94.69
284.67	93.69
284.901	72.69
285.132	81.69
285.364	84.69
285.595	86.69
285.826	91.69
286.057	81.69
286.288	98.69
286.52	84.69
286.751	82.69
286.982	89.69
287.213	67.69
287.444	86.69
287.675	84.69
287.906	93.69
288.138	84.69
288.369	84.69
288.6	87.69
288.831	92.69
289.062	96.69
289.293	83.69
289.524	71.69
289.755	90.69
289.986	93.69
290.217	83.69
290.448	97.69
290.679	91.69
290.91	75.69
291.141	99.69
291.371	82.69
291.602	102.69
291.833	84.69
292.064	99.69
292.295	77.69
292.526	97.69
292.757	88.69
292.987	93.69
293.218	84.69
293.449	76.69
293.68	76.69
293.91	80.69
294.141	87.69
294.372	81.69
294.603	88.69
294.833	73.69
295.064	88.69
295.295	82.69
295.525	90.69
295.756	90.69
295.987	91.69
296.217	84.69
296.448	62.69
296.679	71.69
296.909	70.69
297.14	96.69
297.37	93.69
297.601	105.69
297.831	91.69
298.062	75.69
298.292	84.69
298.523	82.69
298.753	81.69
298.984	93.69
299.214	92.69
299.445	80.69
299.675	97.69
299.905	91.69
300.136	101.69
300.366	86.69
300.597	88.69
300.827	80.69
301.057	88.69
301.288	88.69
301.518	92.69
301.748	88.69
301.979	81.69
302.209	92.69
302.439	89.69
302.669	82.69
302.9	93.69
303.13	92.69
303.36	98.69
303.59	97.69
303.82	97.69
304.051	93.69
304.281	88.69
304.511	98.69
304.741	78.69
304.971	88.69
305.201	89.69
305.431	85.69
305.661	86.69
305.891	77.69
306.121	69.69
306.352	84.69
306.582	102.69
306.812	88.69
307.042	88.69
307.272	100.69
307.502	105.69
307.731	90.69
307.961	99.69
308.191	84.69
308.421	88.69
308.651	97.69
308.881	96.69
309.111	76.69
309.341	85.69
309.571	95.69
309.8	94.69
310.03	96.69
310.26	87.69
310.49	97.69
310.72	88.69
310.949	80.69
311.179	92.69
311.409	79.69
311.639	95.69
311.868	83.69
312.098	100.69
312.328	91.69
312.557	101.69
312.787	85.69
313.017	85.69
313.246	79.69
313.476	94.69
313.706	94.69
313.935	85.69
314.165	83.69
314.394	81.69
314.624	91.69
314.853	82.69
315.083	88.69
315.312	84.69
315.542	92.69
315.771	105.69
316.001	93.69
316.23	84.69
316.46	92.69
316.689	78.69
316.919	94.69
317.148	86.69
317.377	86.69
317.607	73.69
317.836	87.69
318.065	94.69
318.295	99.69
318.524	88.69
318.753	85.69
318.983	92.69
319.212	86.69
319.441	102.69
319.67	92.69
319.9	85.69
320.129	89.69
320.358	90.69
320.587	97.69
320.816	98.69
321.046	94.69
321.275	93.69
321.504	96.69
321.733	83.69
321.962	91.69
322.191	86.69
322.42	98.69
322.649	83.69
322.878	84.69
323.108	90.69
323.337	92.69
323.566	92.69
323.795	90.69
324.024	97.69
324.253	64.69
324.482	88.69
324.71	93.69
324.939	83.69
325.168	95.69
325.397	87.69
325.626	81.69
325.855	83.69
326.084	81.69
326.313	97.69
326.542	101.69
326.77	101.69
326.999	86.69
327.228	104.69
327.457	76.69
327.686	94.69
327.914	98.69
328.143	93.69
328.372	94.69
328.6	85.69
328.829	78.69
329.058	77.69
329.287	72.69
329.515	89.69
329.744	86.69
329.972	87.69
330.201	87.69
330.43	81.69
330.658	85.69
330.887	93.69
331.115	86.69
331.344	92.69
331.572	93.69
331.801	88.69
332.03	92.69
332.258	87.69
332.486	91.69
332.715	98.69
332.943	94.69
333.172	94.69
333.4	90.69
333.629	92.69
333.857	95.69
334.085	99.69
334.314	85.69
334.542	86.69
334.771	84.69
334.999	87.69
335.227	92.69
335.455	89.69
335.684	84.69
335.912	84.69
336.14	89.69
336.369	90.69
336.597	100.69
336.825	86.69
337.053	84.69
337.281	90.69
337.51	107.69
337.738	96.69
337.966	80.69
338.194	94.69
338.422	87.69
338.65	93.69
338.878	91.69
339.106	102.69
339.334	91.69
339.562	90.69
339.79	82.69
340.018	90.69
340.246	98.69
340.474	93.69
340.702	96.69
340.93	82.69
341.158	93.69
341.386	81.69
341.614	85.69
341.842	94.69
342.07	82.69
342.298	93.69
342.526	105.69
342.754	97.69
342.981	84.69
343.209	97.69
343.437	95.69
343.665	76.69
343.893	105.69
344.12	95.69
344.348	94.69
344.576	102.69
344.804	82.69
345.031	100.69
345.259	96.69
345.487	93.69
345.714	88.69
345.942	83.69
346.17	88.69
346.397	89.69
346.625	79.69
346.853	80.69
347.08	91.69
347.308	89.69
347.535	92.69
347.763	79.69
347.99	93.69
348.218	90.69
348.445	88.69
348.673	99.69
348.9	81.69
349.128	81.69
349.355	71.69
349.583	86.69
349.81	89.69
350.037	84.69
350.265	92.69
350.492	81.69
350.72	82.69
350.947	92.69
351.174	92.69
351.402	92.69
351.629	83.69
351.856	91.69
352.083	94.69
352.311	89.69
352.538	82.69
352.765	109.69
352.992	81.69
353.22	84.69
353.447	82.69
353.674	84.69
353.901	91.69
354.128	90.69
354.355	89.69
354.583	84.69
354.81	93.69
355.037	93.69
355.264	103.69
355.491	79.69
355.718	92.69
355.945	95.69
356.172	92.69
356.399	82.69
356.626	93.69
356.853	98.69
357.08	91.69
357.307	80.69
357.534	90.69
357.761	82.69
357.988	87.69
358.215	103.69
358.441	101.69
358.668	99.69
358.895	83.69
359.122	78.69
359.349	83.69
359.576	88.69
359.802	81.69
360.029	93.69
360.256	100.69
360.483	93.69
360.709	90.69
360.936	108.69
361.163	95.69
361.39	88.69
361.616	86.69
361.843	88.69
362.07	92.69
362.296	87.69
362.523	85.69
362.749	69.69
362.976	89.69
363.203	98.69
363.429	76.69
363.656	82.69
363.882	79.69
364.109	86.69
364.335	89.69
364.562	85.69
364.788	91.69
365.015	85.69
365.241	91.69
365.468	95.69
365.694	105.69
365.92	77.69
366.147	89.69
366.373	100.69
366.599	89.69
366.826	89.69
367.052	94.69
367.278	86.69
367.505	93.69
367.731	85.69
367.957	76.69
368.184	95.69
368.41	86.69
368.636	84.69
368.862	87.69
369.089	89.69
369.315	90.69
369.541	81.69
369.767	76.69
369.993	78.69
370.219	89.69
370.445	92.69
370.672	98.69
370.898	85.69
371.124	92.69
371.35	102.69
371.576	82.69
371.802	98.69
372.028	84.69
372.254	85.69
372.48	78.69
372.706	79.69
372.932	98.69
373.158	96.69
373.384	95.69
373.61	82.69
373.835	103.69
374.061	83.69
374.287	66.69
374.513	78.69
374.739	82.69
374.965	88.69
375.191	86.69
375.416	102.69
375.642	97.69
375.868	98.69
376.094	96.69
376.319	96.69
376.545	90.69
376.771	81.69
376.997	89.69
377.222	84.69
377.448	75.69
377.674	82.69
377.899	96.69
378.125	99.69
378.35	87.69
378.576	83.69
378.802	103.69
379.027	85.69
379.253	96.69
379.478	70.69
379.704	81.69
379.929	101.69
380.155	93.69
380.38	85.69
380.606	101.69
380.831	99.69
381.057	93.69
381.282	88.69
381.507	84.69
381.733	97.69
381.958	86.69
382.184	85.69
382.409	88.69
382.634	70.69
382.86	92.69
383.085	88.69
383.31	101.69
383.535	86.69
383.761	99.69
383.986	85.69
384.211	85.69
384.436	93.69
384.662	84.69
384.887	72.69
385.112	89.69
385.337	91.69
385.562	84.69
385.787	82.69
386.013	93.69
386.238	82.69
386.463	90.69
386.688	77.69
386.913	78.69
387.138	86.69
387.363	79.69
387.588	93.69
387.813	98.69
388.038	100.69
388.263	96.69
388.488	87.69
388.713	91.69
388.938	93.69
389.163	98.69
389.387	79.69
389.612	89.69
389.837	84.69
390.062	76.69
390.287	77.69
390.512	77.69
390.736	96.69
390.961	88.69
391.186	96.69
391.411	85.69
391.636	84.69
391.86	84.69
392.085	85.69
392.31	88.69
392.534	93.69
392.759	92.69
392.984	83.69
393.208	107.69
393.433	93.69
393.658	92.69
393.882	83.69
394.107	78.69
394.331	81.69
394.556	87.69
394.78	93.69
395.005	75.69
395.229	88.69
395.454	82.69
395.678	85.69
395.903	87.69
396.127	84.69
396.352	72.69
396.576	82.69
396.801	73.69
397.025	80.69
397.249	84.69
397.474	84.69
397.698	85.69
397.922	90.69
398.147	83.69
398.371	100.69
398.595	93.69
398.82	100.69
399.044	82.69
399.268	85.69
399.492	95.69
399.717	89.69
399.941	93.69
400.165	86.69
400.389	84.69
400.613	82.69
400.837	86.69
401.062	82.69
401.286	89.69
401.51	87.69
401.734	86.69
401.958	98.69
402.182	87.69
402.406	87.69
402.63	98.69
402.854	81.69
403.078	94.69
403.302	79.69
403.526	73.69
403.75	80.69
403.974	76.69
404.198	92.69
404.422	101.69
404.645	93.69
404.869	94.69
405.093	77.69
405.317	88.69
405.541	101.69
405.765	89.69
405.988	96.69
406.212	89.69
406.436	92.69
406.66	89.69
406.883	101.69
407.107	95.69
407.331	91.69
407.555	91.69
407.778	103.69
408.002	78.69
408.226	85.69
408.449	77.69
408.673	92.69
408.896	89.69
409.12	77.69
409.344	93.69
409.567	82.69
409.791	90.69
410.014	96.69
410.238	84.69
410.461	96.69
410.685	94.69
410.908	94.69
411.132	84.69
411.355	95.69
411.578	89.69
411.802	86.69
412.025	83.69
412.249	85.69
412.472	90.69
412.695	99.69
412.919	83.69
413.142	79.69
413.365	93.69
413.589	84.69
413.812	82.69
414.035	86.69
414.258	100.69
414.482	86.69
414.705	90.69
414.928	101.69
415.151	98.69
415.374	82.69
415.597	102.69
415.821	98.69
416.044	101.69
416.267	87.69
416.49	105.69
416.713	88.69
416.936	83.69
417.159	82.69
417.382	96.69
417.605	77.69
417.828	85.69
418.051	93.69
418.274	89.69
418.497	92.69
418.72	91.69
418.943	92.69
419.166	75.69
419.389	93.69
419.611	91.69
419.834	82.69
420.057	101.69
420.28	99.69
420.503	98.69
420.726	82.69
420.948	96.69
421.171	92.69
421.394	82.69
421.617	88.69
421.839	90.69
422.062	94.69
422.285	82.69
422.507	77.69
422.73	86.69
422.953	93.69
423.175	75.69
423.398	89.69
423.621	86.69
423.843	81.69
424.066	88.69
424.288	89.69
424.511	87.69
424.733	97.69
424.956	89.69
425.178	72.69
425.401	91.69
425.623	89.69
425.846	98.69
426.068	89.69
426.291	94.69
426.513	93.69
426.735	78.69
426.958	94.69
427.18	90.69
427.402	84.69
427.625	83.69
427.847	88.69
428.069	97.69
428.292	87.69
428.514	84.69
428.736	92.69
428.958	91.69
429.181	78.69
429.403	89.69
429.625	97.69
429.847	84.69
430.069	85.69
430.292	87.69
430.514	83.69
430.736	82.69
430.958	121.69
431.18	89.69
431.402	86.69
431.624	86.69
431.846	84.69
432.068	93.69
432.29	87.69
432.512	90.69
432.734	85.69
432.956	89.69
433.178	91.69
433.4	80.69
433.622	92.69
433.844	94.69
434.066	97.69
434.287	95.69
434.509	96.69
434.731	82.69
434.953	86.69
435.175	93.69
435.397	97.69
435.618	83.69
435.84	83.69
436.062	88.69
436.284	88.69
436.505	82.69
436.727	88.69
436.949	77.69
437.17	80.69
437.392	96.69
437.614	86.69
437.835	73.69
438.057	100.69
438.278	88.69
438.5	90.69
438.721	78.69
438.943	92.69
439.165	87.69
439.386	94.69
439.608	91.69
439.829	82.69
440.05	84.69
440.272	77.69
440.493	88.69
440.715	92.69
440.936	98.69
441.158	88.69
441.379	94.69
441.6	87.69
441.822	81.69
442.043	91.69
442.264	99.69
442.486	82.69
442.707	77.69
442.928	95.69
443.149	93.69
443.371	106.69
443.592	86.69
443.813	91.69
444.034	81.69
444.255	96.69
444.476	80.69
444.698	100.69
444.919	90.69
445.14	206.69
445.361	147.69
445.582	91.69
445.803	100.69
446.024	82.69
446.245	88.69
446.466	95.69
446.687	81.69
446.908	86.69
447.129	89.69
447.35	91.69
447.571	78.69
447.792	94.69
448.013	83.69
448.234	82.69
448.455	93.69
448.675	89.69
448.896	96.69
449.117	88.69
449.338	95.69
449.559	77.69
449.779	93.69
450	86.69
450.221	95.69
450.442	94.69
450.662	101.69
450.883	93.69
451.104	86.69
451.324	67.69
451.545	99.69
451.766	71.69
451.986	84.69
452.207	99.69
452.428	99.69
452.648	77.69
452.869	95.69
453.089	84.69
453.31	86.69
453.53	84.69
453.751	84.69
453.971	89.69
454.192	92.69
454.412	96.69
454.633	82.69
454.853	76.69
455.073	93.69
455.294	99.69
455.514	96.69
455.734	91.69
455.955	92.69
456.175	85.69
456.395	79.69
456.616	97.69
456.836	99.69
457.056	91.69
457.276	79.69
457.497	97.69
457.717	91.69
457.937	84.69
458.157	83.69
458.377	99.69
458.598	85.69
458.818	94.69
459.038	81.69
459.258	84.69
459.478	90.69
459.698	86.69
459.918	95.69
460.138	103.69
460.358	112.69
460.578	94.69
460.798	78.69
461.018	91.69
461.238	82.69
461.458	91.69
461.678	99.69
461.898	95.69
462.118	106.69
462.338	91.69
462.558	84.69
462.777	104.69
462.997	80.69
463.217	95.69
463.437	89.69
463.657	99.69
463.876	86.69
464.096	85.69
464.316	79.69
464.536	93.69
464.755	94.69
464.975	89.69
465.195	99.69
465.414	88.69
465.634	93.69
465.854	82.69
466.073	91.69
466.293	86.69
466.512	67.69
466.732	90.69
466.951	81.69
467.171	86.69
467.391	94.69
467.61	96.69
467.829	91.69
468.049	86.69
468.268	92.69
468.488	77.69
468.707	79.69
468.927	80.69
469.146	97.69
469.365	96.69
469.585	104.69
469.804	75.69
470.023	80.69
470.243	106.69
470.462	89.69
470.681	93.69
470.901	91.69
471.12	94.69
471.339	101.69
471.558	107.69
471.777	87.69
471.997	93.69
472.216	85.69
472.435	83.69
472.654	96.69
472.873	85.69
473.092	97.69
473.311	102.69
473.53	92.69
473.749	93.69
473.968	97.69
474.187	81.69
474.406	72.69
474.625	84.69
474.844	93.69
475.063	112.69
475.282	93.69
475.501	96.69
475.72	89.69
475.939	83.69
476.158	88.69
476.377	104.69
476.596	81.69
476.814	101.69
477.033	81.69
477.252	95.69
477.471	80.69
477.69	100.69
477.908	89.69
478.127	104.69
478.346	93.69
478.564	98.69
478.783	95.69
479.002	107.69
479.22	89.69
479.439	88.69
479.658	92.69
479.876	93.69
480.095	93.69
480.313	92.69
480.532	89.69
480.751	98.69
480.969	97.69
481.188	88.69
481.406	79.69
481.624	84.69
481.843	91.69
482.061	96.69
482.28	82.69
482.498	97.69
482.717	97.69
482.935	105.69
483.153	93.69
483.372	96.69
483.59	93.69
483.808	74.69
484.027	96.69
484.245	94.69
484.463	93.69
484.681	104.69
484.9	102.69
485.118	99.69
485.336	93.69
485.554	93.69
485.772	93.69
485.99	95.69
486.209	99.69
486.427	94.69
486.645	103.69
486.863	98.69
487.081	93.69
487.299	88.69
487.517	105.69
487.735	88.69
487.953	92.69
488.171	103.69
488.389	92.69
488.607	111.69
488.825	102.69
489.043	106.69
489.261	102.69
489.479	104.69
489.696	90.69
489.914	95.69
490.132	97.69
490.35	93.69
490.568	88.69
490.786	105.69
491.003	94.69
491.221	109.69
491.439	100.69
491.657	98.69
491.874	102.69
492.092	96.69
492.31	105.69
492.527	105.69
492.745	90.69
492.963	116.69
493.18	109.69
493.398	106.69
493.615	109.69
493.833	100.69
494.05	90.69
494.268	97.69
494.485	107.69
494.703	91.69
494.92	104.69
495.138	102.69
495.355	107.69
495.573	96.69
495.79	93.69
496.008	106.69
496.225	115.69
496.442	110.69
496.66	115.69
496.877	101.69
497.094	92.69
497.312	105.69
497.529	104.69
497.746	113.69
497.963	100.69
498.181	100.69
498.398	111.69
498.615	95.69
498.832	109.69
499.049	113.69
499.267	92.69
499.484	84.69
499.701	124.69
499.918	123.69
500.135	122.69
500.352	128.69
500.569	107.69
500.786	120.69
501.003	116.69
501.22	112.69
501.437	112.69
501.654	106.69
501.871	107.69
502.088	106.69
502.305	104.69
502.522	101.69
502.739	104.69
502.956	105.69
503.172	110.69
503.389	90.69
503.606	122.69
503.823	93.69
504.04	107.69
504.256	116.69
504.473	99.69
504.69	93.69
504.907	108.69
505.123	108.69
505.34	96.69
505.557	97.69
505.773	108.69
505.99	102.69
506.207	89.69
506.423	106.69
506.64	92.69
506.856	82.69
507.073	97.69
507.289	96.69
507.506	95.69
507.722	96.69
507.939	106.69
508.155	106.69
508.372	100.69
508.588	104.69
508.805	99.69
509.021	112.69
509.238	85.69
509.454	101.69
509.67	91.69
509.887	80.69
510.103	106.69
510.319	99.69
510.536	91.69
510.752	86.69
510.968	98.69
511.184	84.69
511.401	85.69
511.617	87.69
511.833	88.69
512.049	99.69
512.265	98.69
512.481	95.69
512.698	102.69
512.914	101.69
513.13	87.69
513.346	85.69
513.562	90.69
513.778	86.69
513.994	82.69
514.21	97.69
514.426	109.69
514.642	101.69
514.858	94.69
515.074	99.69
515.29	100.69
515.506	96.69
515.721	91.69
515.937	99.69
516.153	104.69
516.369	109.69
516.585	103.69
516.801	94.69
517.016	102.69
517.232	108.69
517.448	91.69
517.664	87.69
517.879	94.69
518.095	97.69
518.311	100.69
518.527	99.69
518.742	109.69
518.958	94.69
519.173	90.69
519.389	100.69
519.605	92.69
519.82	92.69
520.036	98.69
520.251	101.69
520.467	83.69
520.682	78.69
520.898	95.69
521.113	99.69
521.329	97.69
521.544	77.69
521.76	79.69
521.975	93.69
522.19	91.69
522.406	105.69
522.621	92.69
522.836	99.69
523.052	97.69
523.267	93.69
523.482	98.69
523.698	104.69
523.913	90.69
524.128	99.69
524.343	100.69
524.559	84.69
524.774	86.69
524.989	95.69
525.204	100.69
525.419	92.69
525.634	88.69
525.849	99.69
526.064	86.69
526.28	98.69
526.495	98.69
526.71	94.69
526.925	91.69
527.14	98.69
527.355	99.69
527.57	100.69
527.785	85.69
527.999	93.69
528.214	100.69
528.429	92.69
528.644	92.69
528.859	91.69
529.074	86.69
529.289	101.69
529.503	89.69
529.718	106.69
529.933	93.69
530.148	92.69
530.363	89.69
530.577	97.69
530.792	93.69
531.007	94.69
531.221	112.69
531.436	93.69
531.651	88.69
531.865	92.69
532.08	109.69
532.295	93.69
532.509	89.69
532.724	83.69
532.938	101.69
533.153	102.69
533.367	101.69
533.582	104.69
533.796	103.69
534.011	82.69
534.225	90.69
534.44	96.69
534.654	97.69
534.868	87.69
535.083	92.69
535.297	86.69
535.511	91.69
535.726	109.69
535.94	90.69
536.154	91.69
536.369	90.69
536.583	101.69
536.797	93.69
537.011	79.69
537.225	87.69
537.44	82.69
537.654	77.69
537.868	103.69
538.082	91.69
538.296	98.69
538.51	94.69
538.724	87.69
538.938	94.69
539.153	73.69
539.367	103.69
539.581	104.69
539.795	80.69
540.009	97.69
540.222	97.69
540.436	85.69
540.65	87.69
540.864	84.69
541.078	92.69
541.292	90.69
541.506	87.69
541.72	89.69
541.934	98.69
542.147	90.69
542.361	91.69
542.575	92.69
542.789	93.69
543.002	93.69
543.216	93.69
543.43	101.69
543.644	93.69
543.857	102.69
544.071	100.69
544.285	107.69
544.498	103.69
544.712	94.69
544.925	95.69
545.139	103.69
545.352	103.69
545.566	97.69
545.779	93.69
545.993	89.69
546.206	89.69
546.42	89.69
546.633	105.69
546.847	99.69
547.06	91.69
547.274	89.69
547.487	92.69
547.7	94.69
547.914	104.69
548.127	99.69
548.34	107.69
548.554	95.69
548.767	84.69
548.98	94.69
549.193	102.69
549.407	89.69
549.62	87.69
549.833	97.69
550.046	95.69
550.259	83.69
550.473	103.69
550.686	83.69
550.899	101.69
551.112	90.69
551.325	99.69
551.538	99.69
551.751	98.69
551.964	116.69
552.177	107.69
552.39	95.69
552.603	78.69
552.816	113.69
553.029	96.69
553.242	98.69
553.455	110.69
553.667	98.69
553.88	96.69
554.093	93.69
554.306	105.69
554.519	91.69
554.732	96.69
554.944	95.69
555.157	94.69
555.37	96.69
555.583	104.69
555.795	94.69
556.008	96.69
556.221	100.69
556.433	98.69
556.646	85.69
556.859	90.69
557.071	86.69
557.284	99.69
557.496	89.69
557.709	88.69
557.921	96.69
558.134	91.69
558.346	95.69
558.559	76.69
558.771	80.69
558.984	94.69
559.196	90.69
559.409	100.69
559.621	88.69
559.833	95.69
560.046	84.69
560.258	102.69
560.47	104.69
560.683	107.69
560.895	83.69
561.107	103.69
561.32	99.69
561.532	94.69
561.744	100.69
561.956	95.69
562.168	87.69
562.381	101.69
562.593	84.69
562.805	97.69
563.017	89.69
563.229	88.69
563.441	98.69
563.653	92.69
563.865	92.69
564.077	113.69
564.289	94.69
564.501	91.69
564.713	91.69
564.925	89.69
565.137	99.69
565.349	113.69
565.561	85.69
565.773	89.69
565.985	95.69
566.197	91.69
566.408	85.69
566.62	100.69
566.832	87.69
567.044	96.69
567.255	95.69
567.467	96.69
567.679	102.69
567.891	97.69
568.102	84.69
568.314	105.69
568.526	83.69
568.737	99.69
568.949	89.69
569.161	86.69
569.372	89.69
569.584	76.69
569.795	104.69
570.007	80.69
570.218	74.69
570.43	105.69
570.641	96.69
570.853	99.69
571.064	88.69
571.276	93.69
571.487	114.69
571.698	91.69
571.91	85.69
572.121	96.69
572.333	97.69
572.544	103.69
572.755	81.69
572.966	90.69
573.178	91.69
573.389	85.69
573.6	84.69
573.811	78.69
574.023	74.69
574.234	93.69
574.445	88.69
574.656	90.69
574.867	89.69
575.078	101.69
575.289	89.69
575.501	79.69
575.712	80.69
575.923	106.69
576.134	102.69
576.345	90.69
576.556	107.69
576.767	97.69
576.978	87.69
577.188	91.69
577.399	74.69
577.61	93.69
577.821	84.69
578.032	90.69
578.243	99.69
578.454	89.69
578.665	81.69
578.875	84.69
579.086	91.69
579.297	77.69
579.508	95.69
579.718	86.69
579.929	83.69
580.14	98.69
580.35	87.69
580.561	90.69
580.772	95.69
580.982	83.69
581.193	90.69
581.403	92.69
581.614	93.69
581.825	98.69
582.035	104.69
582.246	90.69
582.456	108.69
582.667	92.69
582.877	85.69
583.087	86.69
583.298	88.69
583.508	86.69
583.719	89.69
583.929	101.69
584.139	84.69
584.35	89.69
584.56	82.69
584.77	88.69
584.981	99.69
585.191	82.69
585.401	100.69
585.611	95.69
585.821	91.69
586.032	79.69
586.242	84.69
586.452	91.69
586.662	104.69
586.872	90.69
587.082	92.69
587.292	82.69
587.502	92.69
587.713	102.69
587.923	95.69
588.133	95.69
588.343	61.69
588.553	84.69
588.762	88.69
588.972	79.69
589.182	89.69
589.392	89.69
589.602	87.69
589.812	105.69
590.022	80.69
590.232	99.69
590.441	83.69
590.651	93.69
590.861	95.69
591.071	105.69
591.281	95.69
591.49	93.69
591.7	96.69
591.91	77.69
592.119	75.69
592.329	62.69
592.539	92.69
592.748	101.69
592.958	85.69
593.167	77.69
593.377	87.69
593.587	97.69
593.796	93.69
594.006	96.69
594.215	97.69
594.424	91.69
594.634	84.69
594.843	94.69
595.053	92.69
595.262	87.69
595.472	92.69
595.681	92.69
595.89	86.69
596.1	77.69
596.309	79.69
596.518	84.69
596.727	97.69
596.937	88.69
597.146	90.69
597.355	97.69
597.564	93.69
597.774	107.69
597.983	83.69
598.192	86.69
598.401	84.69
598.61	83.69
598.819	88.69
599.028	101.69
599.237	101.69
599.446	81.69
599.655	82.69
599.864	86.69
600.073	86.69
600.282	100.69
600.491	79.69
600.7	92.69
600.909	93.69
601.118	98.69
601.327	93.69
601.536	85.69
601.745	81.69
601.953	84.69
602.162	79.69
602.371	85.69
602.58	91.69
602.789	94.69
602.997	100.69
603.206	91.69
603.415	95.69
603.623	82.69
603.832	86.69
604.041	94.69
604.249	99.69
604.458	70.69
604.666	81.69
604.875	80.69
605.084	86.69
605.292	83.69
605.501	82.69
605.709	90.69
605.918	78.69
606.126	98.69
606.334	97.69
606.543	104.69
606.751	81.69
606.96	80.69
607.168	80.69
607.376	91.69
607.585	83.69
607.793	90.69
608.001	93.69
608.21	98.69
608.418	91.69
608.626	89.69
608.834	99.69
609.043	81.69
609.251	89.69
609.459	86.69
609.667	91.69
609.875	99.69
610.083	96.69
610.291	93.69
610.499	82.69
610.707	89.69
610.916	91.69
611.124	78.69
611.332	88.69
611.54	92.69
611.748	98.69
611.955	92.69
612.163	92.69
612.371	98.69
612.579	78.69
612.787	78.69
612.995	100.69
613.203	90.69
613.411	89.69
613.618	74.69
613.826	92.69
614.034	85.69
614.242	90.69
614.449	102.69
614.657	83.69
614.865	84.69
615.072	84.69
615.28	96.69
615.488	90.69
615.695	86.69
615.903	101.69
616.111	93.69
616.318	75.69
616.526	90.69
616.733	92.69
616.941	87.69
617.148	94.69
617.356	93.69
617.563	84.69
617.771	89.69
617.978	89.69
618.185	82.69
618.393	89.69
618.6	87.69
618.807	82.69
619.015	81.69
619.222	93.69
619.429	93.69
619.637	90.69
619.844	82.69
620.051	74.69
620.258	86.69
620.466	92.69
620.673	81.69
620.88	93.69
621.087	84.69
621.294	97.69
621.501	92.69
621.708	75.69
621.915	75.69
622.122	84.69
622.329	88.69
622.536	95.69
622.743	97.69
622.95	83.69
623.157	82.69
623.364	99.69
623.571	86.69
623.778	72.69
623.985	86.69
624.192	88.69
624.399	91.69
624.606	89.69
624.812	96.69
625.019	85.69
625.226	82.69
625.433	103.69
625.639	79.69
625.846	108.69
626.053	90.69
626.259	75.69
626.466	82.69
626.673	96.69
626.879	87.69
627.086	85.69
627.293	90.69
627.499	63.69
627.706	86.69
627.912	99.69
628.119	78.69
628.325	91.69
628.532	87.69
628.738	82.69
628.945	100.69
629.151	83.69
629.357	76.69
629.564	90.69
629.77	98.69
629.976	92.69
630.183	74.69
630.389	92.69
630.595	73.69
630.802	79.69
631.008	85.69
631.214	93.69
631.42	92.69
631.627	88.69
631.833	78.69
632.039	91.69
632.245	92.69
632.451	84.69
632.657	81.69
632.863	84.69
633.069	81.69
633.275	95.69
633.481	76.69
633.688	82.69
633.893	88.69
634.099	93.69
634.305	103.69
634.511	94.69
634.717	83.69
634.923	74.69
635.129	87.69
635.335	76.69
635.541	101.69
635.747	100.69
635.952	97.69
636.158	80.69
636.364	96.69
636.57	87.69
636.775	106.69
636.981	106.69
637.187	79.69
637.392	74.69
637.598	83.69
637.804	80.69
638.009	84.69
638.215	77.69
638.421	81.69
638.626	90.69
638.832	103.69
639.037	96.69
639.243	101.69
639.448	78.69
639.654	81.69
639.859	78.69
640.065	83.69
640.27	80.69
640.475	83.69
640.681	78.69
640.886	106.69
641.091	77.69
641.297	97.69
641.502	84.69
641.707	94.69
641.913	86.69
642.118	98.69
642.323	88.69
642.528	79.69
642.733	93.69
642.939	77.69
643.144	85.69
643.349	88.69
643.554	92.69
643.759	83.69
643.964	92.69
644.169	86.69
644.374	84.69
644.579	91.69
644.784	77.69
644.989	86.69
645.194	84.69
645.399	77.69
645.604	87.69
645.809	92.69
646.014	96.69
646.219	98.69
646.423	84.69
646.628	83.69
646.833	87.69
647.038	83.69
647.243	76.69
647.447	89.69
647.652	86.69
647.857	90.69
648.062	80.69
648.266	82.69
648.471	97.69
648.676	74.69
648.88	87.69
649.085	90.69
649.289	82.69
649.494	94.69
649.698	91.69
649.903	95.69
650.107	92.69
650.312	97.69
650.516	76.69
650.721	96.69
650.925	82.69
651.13	77.69
651.334	83.69
651.539	79.69
651.743	85.69
651.947	84.69
652.152	80.69
652.356	89.69
652.56	75.69
652.764	87.69
652.969	79.69
653.173	76.69
653.377	78.69
653.581	79.69
653.785	75.69
653.99	84.69
654.194	88.69
654.398	84.69
654.602	92.69
654.806	82.69
655.01	86.69
655.214	77.69
655.418	89.69
655.622	77.69
655.826	90.69
656.03	86.69
656.234	85.69
656.438	88.69
656.642	94.69
656.846	88.69
657.049	68.69
657.253	73.69
657.457	92.69
657.661	92.69
657.865	93.69
658.068	91.69
658.272	77.69
658.476	81.69
658.68	73.69
658.883	94.69
659.087	91.69
659.291	88.69
659.494	79.69
659.698	89.69
659.901	92.69
660.105	87.69
660.309	86.69
660.512	80.69
660.716	84.69
660.919	86.69
661.123	74.69
661.326	94.69
661.53	88.69
661.733	87.69
661.936	87.69
662.14	65.69
662.343	76.69
662.546	89.69
662.75	76.69
662.953	86.69
663.156	86.69
663.36	78.69
663.563	84.69
663.766	79.69
663.969	88.69
664.173	75.69
664.376	92.69
664.579	77.69
664.782	86.69
664.985	78.69
665.188	82.69
665.391	93.69
665.594	85.69
665.797	76.69
666	85.69
666.203	82.69
666.406	83.69
666.609	78.69
666.812	101.69
667.015	74.69
667.218	85.69
667.421	81.69
667.624	88.69
667.827	86.69
668.03	82.69
668.232	76.69
668.435	81.69
668.638	75.69
668.841	77.69
669.043	84.69
669.246	85.69
669.449	84.69
669.651	88.69
669.854	84.69
670.057	93.69
670.259	82.69
670.462	74.69
670.665	79.69
670.867	93.69
671.07	71.69
671.272	85.69
671.475	91.69
671.677	87.69
671.88	88.69
672.082	80.69
672.284	100.69
672.487	87.69
672.689	86.69
672.892	86.69
