Data from Ni(NO3)2@0.125M.TitratingCurve.Agarose3%dH2O.NegLispCup.LampEnergy10.LIBS07252019_HRD10591_18-10-52-568.txt Node
Date: Thu Jul 25 18:10:52 EDT 2019
User: cochatt
Spectrometer: HR+D1059
Trigger mode: 1
Integration Time (sec): 1.000000E-1
Scans to average: 1
Electric dark correction enabled: true
Nonlinearity correction enabled: false
Boxcar width: 0
XAxis mode: Wavelengths
Number of Pixels in Spectrum: 2048
>>>>>Begin Spectral Data<<<<<
223.165	-10.25
223.4	-10.25
223.635	-10.25
223.869	-14.25
224.104	-24.25
224.338	-8.25
224.573	-8.25
224.808	-17.25
225.042	-5.25
225.277	-17.25
225.511	-13.25
225.746	-3.25
225.98	10.75
226.215	0.75
226.449	9.75
226.683	29.75
226.918	41.75
227.152	28.75
227.387	41.75
227.621	37.75
227.856	29.75
228.09	34.75
228.324	42.75
228.559	49.75
228.793	66.75
229.027	103.75
229.262	129.75
229.496	120.75
229.73	110.75
229.964	149.75
230.199	139.75
230.433	155.75
230.667	148.75
230.901	134.75
231.136	143.75
231.37	159.75
231.604	157.75
231.838	169.75
232.072	168.75
232.306	160.75
232.541	150.75
232.775	154.75
233.009	142.75
233.243	165.75
233.477	169.75
233.711	153.75
233.945	158.75
234.179	161.75
234.413	170.75
234.647	158.75
234.881	177.75
235.115	164.75
235.349	177.75
235.583	174.75
235.817	173.75
236.051	182.75
236.285	178.75
236.519	173.75
236.753	172.75
236.987	181.75
237.221	177.75
237.455	182.75
237.689	185.75
237.922	179.75
238.156	175.75
238.39	192.75
238.624	180.75
238.858	185.75
239.091	192.75
239.325	210.75
239.559	201.75
239.793	210.75
240.027	214.75
240.26	197.75
240.494	208.75
240.728	209.75
240.961	196.75
241.195	191.75
241.429	213.75
241.662	200.75
241.896	200.75
242.13	241.75
242.363	215.75
242.597	215.75
242.83	248.75
243.064	222.75
243.298	217.75
243.531	227.75
243.765	230.75
243.998	250.75
244.232	255.75
244.465	236.75
244.699	240.75
244.932	262.75
245.166	229.75
245.399	240.75
245.633	242.75
245.866	253.75
246.099	234.75
246.333	255.75
246.566	254.75
246.8	267.75
247.033	279.75
247.266	269.75
247.5	276.75
247.733	271.75
247.966	271.75
248.2	298.75
248.433	278.75
248.666	272.75
248.899	273.75
249.133	292.75
249.366	289.75
249.599	302.75
249.832	282.75
250.066	307.75
250.299	306.75
250.532	303.75
250.765	285.75
250.998	306.75
251.231	300.75
251.465	306.75
251.698	305.75
251.931	325.75
252.164	319.75
252.397	324.75
252.63	312.75
252.863	336.75
253.096	328.75
253.329	330.75
253.562	331.75
253.795	336.75
254.028	325.75
254.261	340.75
254.494	327.75
254.727	328.75
254.96	338.75
255.193	341.75
255.426	324.75
255.659	341.75
255.892	338.75
256.124	355.75
256.357	337.75
256.59	350.75
256.823	345.75
257.056	346.75
257.289	362.75
257.521	365.75
257.754	352.75
257.987	362.75
258.22	357.75
258.452	352.75
258.685	369.75
258.918	350.75
259.151	359.75
259.383	378.75
259.616	361.75
259.849	371.75
260.081	384.75
260.314	395.75
260.547	384.75
260.779	390.75
261.012	396.75
261.244	387.75
261.477	382.75
261.71	373.75
261.942	375.75
262.175	392.75
262.407	399.75
262.64	401.75
262.872	414.75
263.105	392.75
263.337	390.75
263.57	422.75
263.802	426.75
264.035	400.75
264.267	420.75
264.499	404.75
264.732	424.75
264.964	417.75
265.197	428.75
265.429	430.75
265.661	439.75
265.894	423.75
266.126	413.75
266.358	405.75
266.591	419.75
266.823	433.75
267.055	413.75
267.287	454.75
267.52	437.75
267.752	448.75
267.984	455.75
268.216	449.75
268.448	458.75
268.681	456.75
268.913	442.75
269.145	461.75
269.377	448.75
269.609	459.75
269.841	443.75
270.073	461.75
270.306	457.75
270.538	463.75
270.77	478.75
271.002	476.75
271.234	462.75
271.466	485.75
271.698	476.75
271.93	481.75
272.162	480.75
272.394	468.75
272.626	508.75
272.858	493.75
273.09	478.75
273.322	512.75
273.553	496.75
273.785	485.75
274.017	489.75
274.249	489.75
274.481	478.75
274.713	484.75
274.945	515.75
275.176	507.75
275.408	522.75
275.64	532.75
275.872	520.75
276.104	507.75
276.335	507.75
276.567	505.75
276.799	509.75
277.031	514.75
277.262	528.75
277.494	511.75
277.726	550.75
277.957	542.75
278.189	526.75
278.421	521.75
278.652	530.75
278.884	533.75
279.115	545.75
279.347	548.75
279.579	545.75
279.81	565.75
280.042	547.75
280.273	551.75
280.505	587.75
280.736	562.75
280.968	571.75
281.199	575.75
281.431	559.75
281.662	579.75
281.894	565.75
282.125	596.75
282.356	571.75
282.588	601.75
282.819	581.75
283.051	594.75
283.282	594.75
283.513	573.75
283.745	594.75
283.976	586.75
284.207	574.75
284.439	583.75
284.67	624.75
284.901	607.75
285.132	617.75
285.364	598.75
285.595	586.75
285.826	620.75
286.057	609.75
286.288	612.75
286.52	610.75
286.751	627.75
286.982	634.75
287.213	631.75
287.444	617.75
287.675	612.75
287.906	617.75
288.138	641.75
288.369	646.75
288.6	617.75
288.831	646.75
289.062	662.75
289.293	654.75
289.524	651.75
289.755	651.75
289.986	626.75
290.217	632.75
290.448	639.75
290.679	666.75
290.91	646.75
291.141	657.75
291.371	643.75
291.602	651.75
291.833	676.75
292.064	673.75
292.295	673.75
292.526	638.75
292.757	652.75
292.987	641.75
293.218	625.75
293.449	655.75
293.68	675.75
293.91	656.75
294.141	663.75
294.372	656.75
294.603	645.75
294.833	663.75
295.064	651.75
295.295	671.75
295.525	671.75
295.756	675.75
295.987	669.75
296.217	680.75
296.448	679.75
296.679	668.75
296.909	665.75
297.14	668.75
297.37	688.75
297.601	704.75
297.831	697.75
298.062	704.75
298.292	717.75
298.523	734.75
298.753	720.75
298.984	730.75
299.214	711.75
299.445	730.75
299.675	685.75
299.905	716.75
300.136	716.75
300.366	731.75
300.597	717.75
300.827	741.75
301.057	737.75
301.288	768.75
301.518	758.75
301.748	750.75
301.979	738.75
302.209	753.75
302.439	750.75
302.669	730.75
302.9	748.75
303.13	740.75
303.36	728.75
303.59	753.75
303.82	736.75
304.051	762.75
304.281	736.75
304.511	738.75
304.741	756.75
304.971	722.75
305.201	750.75
305.431	739.75
305.661	755.75
305.891	730.75
306.121	726.75
306.352	737.75
306.582	742.75
306.812	735.75
307.042	702.75
307.272	754.75
307.502	769.75
307.731	738.75
307.961	739.75
308.191	721.75
308.421	737.75
308.651	731.75
308.881	713.75
309.111	744.75
309.341	739.75
309.571	716.75
309.8	759.75
310.03	731.75
310.26	740.75
310.49	750.75
310.72	732.75
310.949	734.75
311.179	724.75
311.409	749.75
311.639	756.75
311.868	745.75
312.098	762.75
312.328	788.75
312.557	774.75
312.787	762.75
313.017	761.75
313.246	785.75
313.476	762.75
313.706	769.75
313.935	798.75
314.165	805.75
314.394	833.75
314.624	796.75
314.853	789.75
315.083	779.75
315.312	817.75
315.542	802.75
315.771	781.75
316.001	775.75
316.23	808.75
316.46	791.75
316.689	813.75
316.919	778.75
317.148	800.75
317.377	755.75
317.607	782.75
317.836	777.75
318.065	776.75
318.295	764.75
318.524	795.75
318.753	768.75
318.983	792.75
319.212	772.75
319.441	773.75
319.67	786.75
319.9	807.75
320.129	788.75
320.358	793.75
320.587	793.75
320.816	806.75
321.046	809.75
321.275	799.75
321.504	807.75
321.733	801.75
321.962	817.75
322.191	803.75
322.42	798.75
322.649	826.75
322.878	793.75
323.108	797.75
323.337	795.75
323.566	833.75
323.795	793.75
324.024	822.75
324.253	836.75
324.482	835.75
324.71	818.75
324.939	797.75
325.168	839.75
325.397	804.75
325.626	858.75
325.855	840.75
326.084	845.75
326.313	882.75
326.542	898.75
326.77	865.75
326.999	852.75
327.228	858.75
327.457	869.75
327.686	894.75
327.914	870.75
328.143	872.75
328.372	881.75
328.6	862.75
328.829	884.75
329.058	888.75
329.287	890.75
329.515	872.75
329.744	869.75
329.972	927.75
330.201	909.75
330.43	907.75
330.658	862.75
330.887	898.75
331.115	903.75
331.344	899.75
331.572	911.75
331.801	974.75
332.03	975.75
332.258	988.75
332.486	1020.75
332.715	1059.75
332.943	1111.75
333.172	1154.75
333.4	1186.75
333.629	1237.75
333.857	1216.75
334.085	1180.75
334.314	1148.75
334.542	1173.75
334.771	1166.75
334.999	1115.75
335.227	1107.75
335.455	1096.75
335.684	1079.75
335.912	1102.75
336.14	1063.75
336.369	1049.75
336.597	1073.75
336.825	1056.75
337.053	1030.75
337.281	1044.75
337.51	1008.75
337.738	1010.75
337.966	975.75
338.194	972.75
338.422	983.75
338.65	971.75
338.878	938.75
339.106	944.75
339.334	981.75
339.562	942.75
339.79	918.75
340.018	909.75
340.246	900.75
340.474	924.75
340.702	902.75
340.93	930.75
341.158	944.75
341.386	936.75
341.614	924.75
341.842	922.75
342.07	917.75
342.298	904.75
342.526	945.75
342.754	917.75
342.981	902.75
343.209	908.75
343.437	984.75
343.665	1073.75
343.893	1173.75
344.12	1179.75
344.348	1094.75
344.576	1033.75
344.804	1006.75
345.031	979.75
345.259	958.75
345.487	909.75
345.714	898.75
345.942	895.75
346.17	906.75
346.397	902.75
346.625	915.75
346.853	891.75
347.08	893.75
347.308	907.75
347.535	920.75
347.763	889.75
347.99	908.75
348.218	898.75
348.445	907.75
348.673	902.75
348.9	879.75
349.128	903.75
349.355	874.75
349.583	864.75
349.81	882.75
350.037	880.75
350.265	877.75
350.492	866.75
350.72	856.75
350.947	856.75
351.174	852.75
351.402	877.75
351.629	864.75
351.856	863.75
352.083	854.75
352.311	837.75
352.538	866.75
352.765	863.75
352.992	884.75
353.22	846.75
353.447	829.75
353.674	867.75
353.901	860.75
354.128	844.75
354.355	846.75
354.583	855.75
354.81	839.75
355.037	862.75
355.264	891.75
355.491	858.75
355.718	854.75
355.945	871.75
356.172	884.75
356.399	888.75
356.626	862.75
356.853	876.75
357.08	892.75
357.307	874.75
357.534	854.75
357.761	849.75
357.988	862.75
358.215	885.75
358.441	887.75
358.668	873.75
358.895	865.75
359.122	867.75
359.349	834.75
359.576	844.75
359.802	862.75
360.029	858.75
360.256	850.75
360.483	836.75
360.709	847.75
360.936	876.75
361.163	843.75
361.39	842.75
361.616	879.75
361.843	848.75
362.07	881.75
362.296	861.75
362.523	849.75
362.749	846.75
362.976	856.75
363.203	880.75
363.429	841.75
363.656	875.75
363.882	884.75
364.109	863.75
364.335	841.75
364.562	846.75
364.788	825.75
365.015	839.75
365.241	861.75
365.468	846.75
365.694	842.75
365.92	858.75
366.147	842.75
366.373	849.75
366.599	886.75
366.826	863.75
367.052	844.75
367.278	852.75
367.505	882.75
367.731	844.75
367.957	865.75
368.184	854.75
368.41	879.75
368.636	881.75
368.862	861.75
369.089	857.75
369.315	888.75
369.541	874.75
369.767	886.75
369.993	871.75
370.219	897.75
370.445	890.75
370.672	920.75
370.898	921.75
371.124	907.75
371.35	932.75
371.576	927.75
371.802	942.75
372.028	924.75
372.254	914.75
372.48	930.75
372.706	963.75
372.932	976.75
373.158	968.75
373.384	972.75
373.61	938.75
373.835	948.75
374.061	924.75
374.287	970.75
374.513	961.75
374.739	1006.75
374.965	1042.75
375.191	997.75
375.416	1035.75
375.642	997.75
375.868	990.75
376.094	950.75
376.319	974.75
376.545	977.75
376.771	951.75
376.997	917.75
377.222	940.75
377.448	940.75
377.674	975.75
377.899	929.75
378.125	923.75
378.35	920.75
378.576	905.75
378.802	934.75
379.027	929.75
379.253	932.75
379.478	908.75
379.704	891.75
379.929	914.75
380.155	914.75
380.38	922.75
380.606	932.75
380.831	913.75
381.057	922.75
381.282	914.75
381.507	913.75
381.733	934.75
381.958	949.75
382.184	929.75
382.409	968.75
382.634	980.75
382.86	986.75
383.085	1001.75
383.31	1001.75
383.535	1046.75
383.761	1054.75
383.986	1072.75
384.211	1047.75
384.436	1096.75
384.662	1124.75
384.887	1108.75
385.112	1127.75
385.337	1135.75
385.562	1135.75
385.787	1129.75
386.013	1145.75
386.238	1160.75
386.463	1136.75
386.688	1181.75
386.913	1109.75
387.138	1151.75
387.363	1125.75
387.588	1114.75
387.813	1101.75
388.038	1111.75
388.263	1105.75
388.488	1152.75
388.713	1118.75
388.938	1122.75
389.163	1083.75
389.387	1116.75
389.612	1106.75
389.837	1081.75
390.062	1074.75
390.287	1108.75
390.512	1092.75
390.736	1114.75
390.961	1150.75
391.186	1150.75
391.411	1210.75
391.636	1211.75
391.86	1248.75
392.085	1320.75
392.31	1270.75
392.534	1235.75
392.759	1196.75
392.984	1190.75
393.208	1176.75
393.433	1216.75
393.658	1220.75
393.882	1145.75
394.107	1220.75
394.331	1215.75
394.556	1169.75
394.78	1216.75
395.005	1227.75
395.229	1217.75
395.454	1228.75
395.678	1280.75
395.903	1290.75
396.127	1240.75
396.352	1210.75
396.576	1182.75
396.801	1201.75
397.025	1228.75
397.249	1230.75
397.474	1236.75
397.698	1281.75
397.922	1298.75
398.147	1246.75
398.371	1276.75
398.595	1335.75
398.82	1412.75
399.044	1481.75
399.268	1640.75
399.492	1951.75
399.717	2277.75
399.941	2212.75
400.165	1910.75
400.389	1714.75
400.613	1573.75
400.837	1497.75
401.062	1463.75
401.286	1442.75
401.51	1433.75
401.734	1420.75
401.958	1457.75
402.182	1459.75
402.406	1463.75
402.63	1527.75
402.854	1557.75
403.078	1544.75
403.302	1559.75
403.526	1594.75
403.75	1654.75
403.974	1673.75
404.198	1700.75
404.422	1678.75
404.645	1654.75
404.869	1627.75
405.093	1655.75
405.317	1563.75
405.541	1577.75
405.765	1552.75
405.988	1559.75
406.212	1538.75
406.436	1542.75
406.66	1608.75
406.883	1599.75
407.107	1718.75
407.331	1804.75
407.555	1872.75
407.778	1850.75
408.002	1823.75
408.226	1750.75
408.449	1699.75
408.673	1657.75
408.896	1615.75
409.12	1592.75
409.344	1605.75
409.567	1592.75
409.791	1569.75
410.014	1640.75
410.238	1573.75
410.461	1584.75
410.685	1564.75
410.908	1537.75
411.132	1483.75
411.355	1476.75
411.578	1457.75
411.802	1436.75
412.025	1480.75
412.249	1501.75
412.472	1499.75
412.695	1460.75
412.919	1399.75
413.142	1400.75
413.365	1397.75
413.589	1435.75
413.812	1449.75
414.035	1378.75
414.258	1423.75
414.482	1430.75
414.705	1443.75
414.928	1456.75
415.151	1419.75
415.374	1414.75
415.597	1416.75
415.821	1405.75
416.044	1347.75
416.267	1360.75
416.49	1370.75
416.713	1367.75
416.936	1380.75
417.159	1391.75
417.382	1374.75
417.605	1351.75
417.828	1380.75
418.051	1398.75
418.274	1436.75
418.497	1447.75
418.72	1438.75
418.943	1409.75
419.166	1504.75
419.389	1608.75
419.611	1543.75
419.834	1526.75
420.057	1458.75
420.28	1416.75
420.503	1396.75
420.726	1381.75
420.948	1404.75
421.171	1390.75
421.394	1401.75
421.617	1369.75
421.839	1414.75
422.062	1408.75
422.285	1405.75
422.507	1449.75
422.73	1440.75
422.953	1425.75
423.175	1482.75
423.398	1521.75
423.621	1496.75
423.843	1495.75
424.066	1501.75
424.288	1516.75
424.511	1490.75
424.733	1469.75
424.956	1427.75
425.178	1416.75
425.401	1398.75
425.623	1388.75
425.846	1355.75
426.068	1380.75
426.291	1343.75
426.513	1334.75
426.735	1330.75
426.958	1300.75
427.18	1278.75
427.402	1255.75
427.625	1253.75
427.847	1251.75
428.069	1218.75
428.292	1233.75
428.514	1235.75
428.736	1252.75
428.958	1239.75
429.181	1202.75
429.403	1186.75
429.625	1170.75
429.847	1191.75
430.069	1202.75
430.292	1228.75
430.514	1216.75
430.736	1219.75
430.958	1211.75
431.18	1184.75
431.402	1232.75
431.624	1201.75
431.846	1244.75
432.068	1249.75
432.29	1278.75
432.512	1217.75
432.734	1202.75
432.956	1243.75
433.178	1246.75
433.4	1235.75
433.622	1231.75
433.844	1262.75
434.066	1263.75
434.287	1281.75
434.509	1338.75
434.731	1380.75
434.953	1418.75
435.175	1422.75
435.397	1427.75
435.618	1321.75
435.84	1294.75
436.062	1271.75
436.284	1247.75
436.505	1209.75
436.727	1276.75
436.949	1234.75
437.17	1246.75
437.392	1229.75
437.614	1223.75
437.835	1170.75
438.057	1199.75
438.278	1163.75
438.5	1183.75
438.721	1181.75
438.943	1193.75
439.165	1186.75
439.386	1208.75
439.608	1236.75
439.829	1227.75
440.05	1216.75
440.272	1227.75
440.493	1279.75
440.715	1264.75
440.936	1289.75
441.158	1286.75
441.379	1311.75
441.6	1395.75
441.822	1447.75
442.043	1403.75
442.264	1414.75
442.486	1334.75
442.707	1418.75
442.928	1388.75
443.149	1379.75
443.371	1344.75
443.592	1370.75
443.813	1410.75
444.034	1399.75
444.255	1467.75
444.476	1529.75
444.698	1629.75
444.919	1707.75
445.14	1756.75
445.361	1562.75
445.582	1451.75
445.803	1341.75
446.024	1308.75
446.245	1308.75
446.466	1283.75
446.687	1237.75
446.908	1233.75
447.129	1198.75
447.35	1197.75
447.571	1200.75
447.792	1148.75
448.013	1186.75
448.234	1130.75
448.455	1136.75
448.675	1137.75
448.896	1124.75
449.117	1104.75
449.338	1118.75
449.559	1111.75
449.779	1103.75
450	1113.75
450.221	1107.75
450.442	1114.75
450.662	1129.75
450.883	1117.75
451.104	1173.75
451.324	1127.75
451.545	1138.75
451.766	1158.75
451.986	1117.75
452.207	1129.75
452.428	1132.75
452.648	1108.75
452.869	1104.75
453.089	1098.75
453.31	1098.75
453.53	1075.75
453.751	1097.75
453.971	1071.75
454.192	1075.75
454.412	1073.75
454.633	1092.75
454.853	1049.75
455.073	1057.75
455.294	1053.75
455.514	1057.75
455.734	1052.75
455.955	1033.75
456.175	1018.75
456.395	1026.75
456.616	1041.75
456.836	1045.75
457.056	1039.75
457.276	1010.75
457.497	1048.75
457.717	1065.75
457.937	1085.75
458.157	1045.75
458.377	1081.75
458.598	1119.75
458.818	1145.75
459.038	1142.75
459.258	1223.75
459.478	1230.75
459.698	1284.75
459.918	1328.75
460.138	1371.75
460.358	1466.75
460.578	1440.75
460.798	1448.75
461.018	1482.75
461.238	1441.75
461.458	1454.75
461.678	1452.75
461.898	1472.75
462.118	1474.75
462.338	1568.75
462.558	1596.75
462.777	1657.75
462.997	1830.75
463.217	2045.75
463.437	1996.75
463.657	1816.75
463.876	1727.75
464.096	1721.75
464.316	1719.75
464.536	1728.75
464.755	1679.75
464.975	1591.75
465.195	1498.75
465.414	1426.75
465.634	1315.75
465.854	1303.75
466.073	1287.75
466.293	1251.75
466.512	1204.75
466.732	1175.75
466.951	1189.75
467.171	1193.75
467.391	1206.75
467.61	1183.75
467.829	1177.75
468.049	1158.75
468.268	1158.75
468.488	1144.75
468.707	1105.75
468.927	1124.75
469.146	1100.75
469.365	1134.75
469.585	1150.75
469.804	1174.75
470.023	1206.75
470.243	1196.75
470.462	1222.75
470.681	1212.75
470.901	1201.75
471.12	1174.75
471.339	1186.75
471.558	1192.75
471.777	1126.75
471.997	1134.75
472.216	1092.75
472.435	1102.75
472.654	1138.75
472.873	1105.75
473.092	1066.75
473.311	1092.75
473.53	1085.75
473.749	1071.75
473.968	1096.75
474.187	1051.75
474.406	1066.75
474.625	1084.75
474.844	1068.75
475.063	1084.75
475.282	1084.75
475.501	1092.75
475.72	1113.75
475.939	1144.75
476.158	1106.75
476.377	1146.75
476.596	1165.75
476.814	1165.75
477.033	1158.75
477.252	1142.75
477.471	1186.75
477.69	1216.75
477.908	1265.75
478.127	1308.75
478.346	1333.75
478.564	1328.75
478.783	1404.75
479.002	1400.75
479.22	1399.75
479.439	1378.75
479.658	1376.75
479.876	1370.75
480.095	1402.75
480.313	1462.75
480.532	1495.75
480.751	1498.75
480.969	1425.75
481.188	1365.75
481.406	1337.75
481.624	1298.75
481.843	1263.75
482.061	1312.75
482.28	1260.75
482.498	1260.75
482.717	1241.75
482.935	1239.75
483.153	1245.75
483.372	1292.75
483.59	1279.75
483.808	1274.75
484.027	1274.75
484.245	1275.75
484.463	1293.75
484.681	1272.75
484.9	1333.75
485.118	1341.75
485.336	1328.75
485.554	1301.75
485.772	1334.75
485.99	1313.75
486.209	1334.75
486.427	1325.75
486.645	1346.75
486.863	1351.75
487.081	1310.75
487.299	1325.75
487.517	1346.75
487.735	1326.75
487.953	1353.75
488.171	1347.75
488.389	1309.75
488.607	1300.75
488.825	1276.75
489.043	1294.75
489.261	1310.75
489.479	1299.75
489.696	1305.75
489.914	1318.75
490.132	1352.75
490.35	1339.75
490.568	1334.75
490.786	1336.75
491.003	1321.75
491.221	1305.75
491.439	1334.75
491.657	1329.75
491.874	1344.75
492.092	1320.75
492.31	1326.75
492.527	1342.75
492.745	1333.75
492.963	1327.75
493.18	1353.75
493.398	1342.75
493.615	1398.75
493.833	1380.75
494.05	1399.75
494.268	1408.75
494.485	1357.75
494.703	1388.75
494.92	1392.75
495.138	1381.75
495.355	1380.75
495.573	1408.75
495.79	1368.75
496.008	1398.75
496.225	1413.75
496.442	1430.75
496.66	1472.75
496.877	1492.75
497.094	1482.75
497.312	1508.75
497.529	1551.75
497.746	1604.75
497.963	1622.75
498.181	1711.75
498.398	1744.75
498.615	1904.75
498.832	2032.75
499.049	2204.75
499.267	2335.75
499.484	2558.75
499.701	2933.75
499.918	3189.75
500.135	3684.75
500.352	4281.75
500.569	4489.75
500.786	4424.75
501.003	4071.75
501.22	3523.75
501.437	3145.75
501.654	2725.75
501.871	2495.75
502.088	2241.75
502.305	2143.75
502.522	2009.75
502.739	1950.75
502.956	1819.75
503.172	1752.75
503.389	1644.75
503.606	1622.75
503.823	1576.75
504.04	1574.75
504.256	1618.75
504.473	1655.75
504.69	1726.75
504.907	1664.75
505.123	1520.75
505.34	1439.75
505.557	1350.75
505.773	1364.75
505.99	1336.75
506.207	1275.75
506.423	1279.75
506.64	1265.75
506.856	1261.75
507.073	1241.75
507.289	1200.75
507.506	1235.75
507.722	1224.75
507.939	1196.75
508.155	1156.75
508.372	1186.75
508.588	1176.75
508.805	1152.75
509.021	1143.75
509.238	1139.75
509.454	1144.75
509.67	1164.75
509.887	1136.75
510.103	1136.75
510.319	1108.75
510.536	1128.75
510.752	1125.75
510.968	1110.75
511.184	1093.75
511.401	1088.75
511.617	1084.75
511.833	1117.75
512.049	1094.75
512.265	1114.75
512.481	1117.75
512.698	1104.75
512.914	1133.75
513.13	1105.75
513.346	1084.75
513.562	1105.75
513.778	1101.75
513.994	1098.75
514.21	1131.75
514.426	1118.75
514.642	1123.75
514.858	1118.75
515.074	1154.75
515.29	1144.75
515.506	1169.75
515.721	1185.75
515.937	1188.75
516.153	1206.75
516.369	1240.75
516.585	1269.75
516.801	1296.75
517.016	1394.75
517.232	1477.75
517.448	1532.75
517.664	1600.75
517.879	1612.75
518.095	1648.75
518.311	1590.75
518.527	1488.75
518.742	1414.75
518.958	1359.75
519.173	1349.75
519.389	1288.75
519.605	1208.75
519.82	1206.75
520.036	1201.75
520.251	1120.75
520.467	1177.75
520.682	1153.75
520.898	1108.75
521.113	1112.75
521.329	1078.75
521.544	1074.75
521.76	1097.75
521.975	1050.75
522.19	1070.75
522.406	1056.75
522.621	1051.75
522.836	1039.75
523.052	1034.75
523.267	1011.75
523.482	1025.75
523.698	1037.75
523.913	1013.75
524.128	1024.75
524.343	1004.75
524.559	1009.75
524.774	1014.75
524.989	998.75
525.204	1011.75
525.419	1002.75
525.634	996.75
525.849	1010.75
526.064	1004.75
526.28	996.75
526.495	966.75
526.71	994.75
526.925	1008.75
527.14	988.75
527.355	973.75
527.57	989.75
527.785	1003.75
527.999	978.75
528.214	997.75
528.429	1014.75
528.644	1020.75
528.859	1009.75
529.074	1004.75
529.289	1021.75
529.503	994.75
529.718	999.75
529.933	993.75
530.148	994.75
530.363	989.75
530.577	998.75
530.792	989.75
531.007	1000.75
531.221	997.75
531.436	1028.75
531.651	1020.75
531.865	1000.75
532.08	1012.75
532.295	1007.75
532.509	1000.75
532.724	999.75
532.938	1009.75
533.153	1001.75
533.367	1022.75
533.582	974.75
533.796	1006.75
534.011	990.75
534.225	1004.75
534.44	978.75
534.654	976.75
534.868	969.75
535.083	992.75
535.297	978.75
535.511	937.75
535.726	969.75
535.94	977.75
536.154	977.75
536.369	939.75
536.583	942.75
536.797	958.75
537.011	952.75
537.225	921.75
537.44	936.75
537.654	921.75
537.868	903.75
538.082	893.75
538.296	894.75
538.51	915.75
538.724	913.75
538.938	891.75
539.153	900.75
539.367	932.75
539.581	901.75
539.795	880.75
540.009	899.75
540.222	895.75
540.436	876.75
540.65	874.75
540.864	862.75
541.078	902.75
541.292	884.75
541.506	880.75
541.72	890.75
541.934	890.75
542.147	880.75
542.361	921.75
542.575	883.75
542.789	899.75
543.002	877.75
543.216	886.75
543.43	850.75
543.644	864.75
543.857	844.75
544.071	868.75
544.285	892.75
544.498	872.75
544.712	883.75
544.925	871.75
545.139	936.75
545.352	918.75
545.566	911.75
545.779	894.75
545.993	931.75
546.206	942.75
546.42	915.75
546.633	910.75
546.847	905.75
547.06	892.75
547.274	922.75
547.487	937.75
547.7	897.75
547.914	940.75
548.127	931.75
548.34	944.75
548.554	932.75
548.767	913.75
548.98	927.75
549.193	929.75
549.407	932.75
549.62	950.75
549.833	933.75
550.046	926.75
550.259	929.75
550.473	894.75
550.686	911.75
550.899	878.75
551.112	885.75
551.325	870.75
551.538	887.75
551.751	848.75
551.964	909.75
552.177	908.75
552.39	907.75
552.603	968.75
552.816	963.75
553.029	993.75
553.242	1013.75
553.455	1033.75
553.667	1041.75
553.88	1012.75
554.093	962.75
554.306	914.75
554.519	906.75
554.732	906.75
554.944	871.75
555.157	866.75
555.37	872.75
555.583	863.75
555.795	810.75
556.008	792.75
556.221	804.75
556.433	797.75
556.646	794.75
556.859	829.75
557.071	755.75
557.284	785.75
557.496	743.75
557.709	746.75
557.921	784.75
558.134	781.75
558.346	761.75
558.559	755.75
558.771	749.75
558.984	742.75
559.196	762.75
559.409	736.75
559.621	739.75
559.833	730.75
560.046	744.75
560.258	731.75
560.47	768.75
560.683	750.75
560.895	714.75
561.107	727.75
561.32	753.75
561.532	744.75
561.744	749.75
561.956	720.75
562.168	718.75
562.381	750.75
562.593	728.75
562.805	745.75
563.017	724.75
563.229	756.75
563.441	749.75
563.653	741.75
563.865	720.75
564.077	788.75
564.289	764.75
564.501	782.75
564.713	776.75
564.925	790.75
565.137	784.75
565.349	834.75
565.561	867.75
565.773	898.75
565.985	932.75
566.197	977.75
566.408	1032.75
566.62	1163.75
566.832	1258.75
567.044	1283.75
567.255	1292.75
567.467	1250.75
567.679	1392.75
567.891	1521.75
568.102	1558.75
568.314	1479.75
568.526	1280.75
568.737	1166.75
568.949	1060.75
569.161	1004.75
569.372	907.75
569.584	839.75
569.795	805.75
570.007	802.75
570.218	764.75
570.43	778.75
570.641	752.75
570.853	773.75
571.064	796.75
571.276	791.75
571.487	753.75
571.698	712.75
571.91	702.75
572.121	675.75
572.333	654.75
572.544	651.75
572.755	648.75
572.966	618.75
573.178	650.75
573.389	633.75
573.6	629.75
573.811	610.75
574.023	617.75
574.234	601.75
574.445	598.75
574.656	612.75
574.867	605.75
575.078	601.75
575.289	592.75
575.501	592.75
575.712	589.75
575.923	606.75
576.134	571.75
576.345	582.75
576.556	575.75
576.767	547.75
576.978	566.75
577.188	558.75
577.399	571.75
577.61	562.75
577.821	562.75
578.032	525.75
578.243	537.75
578.454	568.75
578.665	537.75
578.875	542.75
579.086	554.75
579.297	568.75
579.508	543.75
579.718	534.75
579.929	526.75
580.14	526.75
580.35	505.75
580.561	522.75
580.772	513.75
580.982	502.75
581.193	522.75
581.403	530.75
581.614	525.75
581.825	522.75
582.035	527.75
582.246	518.75
582.456	513.75
582.667	523.75
582.877	508.75
583.087	504.75
583.298	497.75
583.508	502.75
583.719	503.75
583.929	508.75
584.139	498.75
584.35	498.75
584.56	497.75
584.77	501.75
584.981	488.75
585.191	482.75
585.401	490.75
585.611	495.75
585.821	488.75
586.032	490.75
586.242	486.75
586.452	468.75
586.662	467.75
586.872	473.75
587.082	455.75
587.292	458.75
587.502	490.75
587.713	483.75
587.923	480.75
588.133	487.75
588.343	471.75
588.553	485.75
588.762	464.75
588.972	485.75
589.182	493.75
589.392	483.75
589.602	478.75
589.812	477.75
590.022	497.75
590.232	472.75
590.441	477.75
590.651	477.75
590.861	516.75
591.071	486.75
591.281	504.75
591.49	521.75
591.7	503.75
591.91	519.75
592.119	524.75
592.329	516.75
592.539	556.75
592.748	582.75
592.958	582.75
593.167	615.75
593.377	649.75
593.587	644.75
593.796	622.75
594.006	656.75
594.215	635.75
594.424	641.75
594.634	631.75
594.843	616.75
595.053	571.75
595.262	544.75
595.472	543.75
595.681	514.75
595.89	517.75
596.1	495.75
596.309	492.75
596.518	437.75
596.727	473.75
596.937	437.75
597.146	455.75
597.355	434.75
597.564	429.75
597.774	423.75
597.983	409.75
598.192	418.75
598.401	410.75
598.61	419.75
598.819	418.75
599.028	419.75
599.237	423.75
599.446	416.75
599.655	424.75
599.864	401.75
600.073	400.75
600.282	391.75
600.491	410.75
600.7	407.75
600.909	402.75
601.118	412.75
601.327	391.75
601.536	378.75
601.745	402.75
601.953	394.75
602.162	396.75
602.371	368.75
602.58	392.75
602.789	396.75
602.997	414.75
603.206	393.75
603.415	368.75
603.623	387.75
603.832	382.75
604.041	365.75
604.249	387.75
604.458	375.75
604.666	387.75
604.875	390.75
605.084	383.75
605.292	368.75
605.501	378.75
605.709	376.75
605.918	370.75
606.126	375.75
606.334	385.75
606.543	372.75
606.751	376.75
606.96	381.75
607.168	366.75
607.376	348.75
607.585	350.75
607.793	355.75
608.001	360.75
608.21	364.75
608.418	360.75
608.626	346.75
608.834	356.75
609.043	377.75
609.251	370.75
609.459	356.75
609.667	338.75
609.875	347.75
610.083	356.75
610.291	352.75
610.499	338.75
610.707	354.75
610.916	349.75
611.124	352.75
611.332	368.75
611.54	352.75
611.748	360.75
611.955	358.75
612.163	359.75
612.371	348.75
612.579	332.75
612.787	350.75
612.995	330.75
613.203	341.75
613.411	354.75
613.618	336.75
613.826	351.75
614.034	368.75
614.242	345.75
614.449	348.75
614.657	343.75
614.865	358.75
615.072	348.75
615.28	349.75
615.488	345.75
615.695	366.75
615.903	350.75
616.111	364.75
616.318	353.75
616.526	375.75
616.733	359.75
616.941	354.75
617.148	353.75
617.356	365.75
617.563	367.75
617.771	367.75
617.978	364.75
618.185	353.75
618.393	344.75
618.6	336.75
618.807	342.75
619.015	358.75
619.222	353.75
619.429	330.75
619.637	357.75
619.844	316.75
620.051	320.75
620.258	325.75
620.466	334.75
620.673	326.75
620.88	310.75
621.087	314.75
621.294	329.75
621.501	320.75
621.708	309.75
621.915	325.75
622.122	321.75
622.329	322.75
622.536	318.75
622.743	306.75
622.95	318.75
623.157	304.75
623.364	300.75
623.571	304.75
623.778	292.75
623.985	290.75
624.192	304.75
624.399	302.75
624.606	297.75
624.812	311.75
625.019	310.75
625.226	293.75
625.433	297.75
625.639	290.75
625.846	295.75
626.053	296.75
626.259	279.75
626.466	286.75
626.673	270.75
626.879	282.75
627.086	286.75
627.293	280.75
627.499	288.75
627.706	268.75
627.912	283.75
628.119	278.75
628.325	288.75
628.532	293.75
628.738	291.75
628.945	281.75
629.151	285.75
629.357	288.75
629.564	253.75
629.77	263.75
629.976	264.75
630.183	274.75
630.389	260.75
630.595	259.75
630.802	275.75
631.008	274.75
631.214	260.75
631.42	229.75
631.627	252.75
631.833	265.75
632.039	243.75
632.245	247.75
632.451	262.75
632.657	246.75
632.863	256.75
633.069	244.75
633.275	267.75
633.481	241.75
633.688	258.75
633.893	239.75
634.099	260.75
634.305	229.75
634.511	236.75
634.717	249.75
634.923	248.75
635.129	260.75
635.335	257.75
635.541	247.75
635.747	243.75
635.952	248.75
636.158	247.75
636.364	254.75
636.57	246.75
636.775	250.75
636.981	232.75
637.187	238.75
637.392	252.75
637.598	238.75
637.804	245.75
638.009	260.75
638.215	233.75
638.421	240.75
638.626	224.75
638.832	252.75
639.037	236.75
639.243	232.75
639.448	239.75
639.654	215.75
639.859	222.75
640.065	221.75
640.27	237.75
640.475	228.75
640.681	218.75
640.886	213.75
641.091	244.75
641.297	223.75
641.502	212.75
641.707	228.75
641.913	221.75
642.118	215.75
642.323	228.75
642.528	219.75
642.733	208.75
642.939	210.75
643.144	220.75
643.349	224.75
643.554	222.75
643.759	224.75
643.964	225.75
644.169	222.75
644.374	227.75
644.579	213.75
644.784	209.75
644.989	220.75
645.194	200.75
645.399	227.75
645.604	215.75
645.809	207.75
646.014	213.75
646.219	212.75
646.423	213.75
646.628	216.75
646.833	221.75
647.038	223.75
647.243	234.75
647.447	240.75
647.652	228.75
647.857	230.75
648.062	234.75
648.266	267.75
648.471	251.75
648.676	228.75
648.88	233.75
649.085	247.75
649.289	230.75
649.494	212.75
649.698	219.75
649.903	206.75
650.107	222.75
650.312	213.75
650.516	233.75
650.721	201.75
650.925	214.75
651.13	200.75
651.334	191.75
651.539	190.75
651.743	194.75
651.947	184.75
652.152	190.75
652.356	196.75
652.56	188.75
652.764	186.75
652.969	185.75
653.173	173.75
653.377	188.75
653.581	172.75
653.785	172.75
653.99	167.75
654.194	174.75
654.398	184.75
654.602	183.75
654.806	166.75
655.01	161.75
655.214	146.75
655.418	163.75
655.622	166.75
655.826	170.75
656.03	173.75
656.234	180.75
656.438	166.75
656.642	172.75
656.846	168.75
657.049	176.75
657.253	160.75
657.457	145.75
657.661	137.75
657.865	144.75
658.068	140.75
658.272	130.75
658.476	127.75
658.68	125.75
658.883	95.75
659.087	106.75
659.291	104.75
659.494	103.75
659.698	108.75
659.901	118.75
660.105	108.75
660.309	113.75
660.512	108.75
660.716	98.75
660.919	96.75
661.123	93.75
661.326	97.75
661.53	95.75
661.733	78.75
661.936	86.75
662.14	94.75
662.343	95.75
662.546	91.75
662.75	93.75
662.953	84.75
663.156	85.75
663.36	81.75
663.563	71.75
663.766	74.75
663.969	81.75
664.173	95.75
664.376	84.75
664.579	85.75
664.782	79.75
664.985	89.75
665.188	71.75
665.391	87.75
665.594	72.75
665.797	93.75
666	83.75
666.203	76.75
666.406	73.75
666.609	73.75
666.812	70.75
667.015	90.75
667.218	80.75
667.421	96.75
667.624	83.75
667.827	87.75
668.03	89.75
668.232	71.75
668.435	68.75
668.638	84.75
668.841	78.75
669.043	85.75
669.246	77.75
669.449	85.75
669.651	79.75
669.854	83.75
670.057	70.75
670.259	80.75
670.462	87.75
670.665	69.75
670.867	79.75
671.07	76.75
671.272	77.75
671.475	78.75
671.677	76.75
671.88	85.75
672.082	74.75
672.284	73.75
672.487	92.75
672.689	73.75
672.892	76.75
