Data from Ni(NO3)2@0.125M.TitratingCurve.Agarose3%dH2O.NegLispCup.LampEnergy10.LIBS07252019_HRD10591_18-09-39-567.txt Node
Date: Thu Jul 25 18:09:39 EDT 2019
User: cochatt
Spectrometer: HR+D1059
Trigger mode: 1
Integration Time (sec): 1.000000E-1
Scans to average: 1
Electric dark correction enabled: true
Nonlinearity correction enabled: false
Boxcar width: 0
XAxis mode: Wavelengths
Number of Pixels in Spectrum: 2048
>>>>>Begin Spectral Data<<<<<
223.165	-7.06
223.4	-7.06
223.635	-7.06
223.869	-21.06
224.104	-17.06
224.338	-23.06
224.573	-15.06
224.808	-13.06
225.042	-7.06
225.277	-17.06
225.511	-13.06
225.746	-10.06
225.98	14.94
226.215	15.94
226.449	24.94
226.683	26.94
226.918	34.94
227.152	25.94
227.387	38.94
227.621	28.94
227.856	59.94
228.09	45.94
228.324	51.94
228.559	68.94
228.793	74.94
229.027	107.94
229.262	112.94
229.496	130.94
229.73	124.94
229.964	124.94
230.199	127.94
230.433	141.94
230.667	132.94
230.901	157.94
231.136	149.94
231.37	136.94
231.604	143.94
231.838	154.94
232.072	142.94
232.306	148.94
232.541	154.94
232.775	161.94
233.009	167.94
233.243	156.94
233.477	150.94
233.711	152.94
233.945	162.94
234.179	161.94
234.413	163.94
234.647	175.94
234.881	159.94
235.115	163.94
235.349	160.94
235.583	157.94
235.817	160.94
236.051	151.94
236.285	148.94
236.519	172.94
236.753	164.94
236.987	169.94
237.221	164.94
237.455	164.94
237.689	180.94
237.922	172.94
238.156	162.94
238.39	181.94
238.624	186.94
238.858	184.94
239.091	181.94
239.325	185.94
239.559	182.94
239.793	182.94
240.027	185.94
240.26	193.94
240.494	192.94
240.728	185.94
240.961	200.94
241.195	195.94
241.429	197.94
241.662	178.94
241.896	192.94
242.13	202.94
242.363	208.94
242.597	216.94
242.83	222.94
243.064	208.94
243.298	206.94
243.531	213.94
243.765	228.94
243.998	215.94
244.232	227.94
244.465	210.94
244.699	243.94
244.932	236.94
245.166	230.94
245.399	220.94
245.633	220.94
245.866	212.94
246.099	245.94
246.333	267.94
246.566	242.94
246.8	249.94
247.033	250.94
247.266	238.94
247.5	244.94
247.733	245.94
247.966	251.94
248.2	243.94
248.433	257.94
248.666	230.94
248.899	247.94
249.133	238.94
249.366	247.94
249.599	232.94
249.832	258.94
250.066	275.94
250.299	262.94
250.532	266.94
250.765	269.94
250.998	264.94
251.231	295.94
251.465	279.94
251.698	290.94
251.931	293.94
252.164	282.94
252.397	289.94
252.63	275.94
252.863	286.94
253.096	305.94
253.329	295.94
253.562	300.94
253.795	297.94
254.028	297.94
254.261	310.94
254.494	294.94
254.727	299.94
254.96	315.94
255.193	318.94
255.426	300.94
255.659	301.94
255.892	318.94
256.124	301.94
256.357	293.94
256.59	314.94
256.823	309.94
257.056	310.94
257.289	317.94
257.521	323.94
257.754	340.94
257.987	316.94
258.22	312.94
258.452	339.94
258.685	337.94
258.918	333.94
259.151	316.94
259.383	329.94
259.616	326.94
259.849	330.94
260.081	343.94
260.314	351.94
260.547	343.94
260.779	343.94
261.012	343.94
261.244	342.94
261.477	359.94
261.71	364.94
261.942	339.94
262.175	348.94
262.407	356.94
262.64	345.94
262.872	362.94
263.105	346.94
263.337	353.94
263.57	354.94
263.802	361.94
264.035	391.94
264.267	374.94
264.499	358.94
264.732	396.94
264.964	378.94
265.197	364.94
265.429	367.94
265.661	379.94
265.894	380.94
266.126	392.94
266.358	387.94
266.591	364.94
266.823	380.94
267.055	376.94
267.287	401.94
267.52	382.94
267.752	386.94
267.984	399.94
268.216	412.94
268.448	402.94
268.681	400.94
268.913	428.94
269.145	403.94
269.377	399.94
269.609	407.94
269.841	412.94
270.073	398.94
270.306	434.94
270.538	403.94
270.77	404.94
271.002	393.94
271.234	424.94
271.466	402.94
271.698	404.94
271.93	411.94
272.162	418.94
272.394	418.94
272.626	415.94
272.858	414.94
273.09	445.94
273.322	434.94
273.553	430.94
273.785	420.94
274.017	439.94
274.249	429.94
274.481	426.94
274.713	440.94
274.945	423.94
275.176	443.94
275.408	446.94
275.64	447.94
275.872	446.94
276.104	448.94
276.335	448.94
276.567	454.94
276.799	457.94
277.031	444.94
277.262	460.94
277.494	462.94
277.726	454.94
277.957	454.94
278.189	452.94
278.421	471.94
278.652	472.94
278.884	482.94
279.115	461.94
279.347	470.94
279.579	472.94
279.81	469.94
280.042	474.94
280.273	475.94
280.505	514.94
280.736	492.94
280.968	489.94
281.199	496.94
281.431	494.94
281.662	484.94
281.894	498.94
282.125	490.94
282.356	516.94
282.588	501.94
282.819	506.94
283.051	502.94
283.282	503.94
283.513	489.94
283.745	523.94
283.976	503.94
284.207	517.94
284.439	528.94
284.67	515.94
284.901	517.94
285.132	536.94
285.364	530.94
285.595	540.94
285.826	540.94
286.057	523.94
286.288	555.94
286.52	542.94
286.751	550.94
286.982	538.94
287.213	552.94
287.444	529.94
287.675	532.94
287.906	534.94
288.138	556.94
288.369	546.94
288.6	567.94
288.831	547.94
289.062	542.94
289.293	553.94
289.524	565.94
289.755	562.94
289.986	557.94
290.217	588.94
290.448	562.94
290.679	549.94
290.91	556.94
291.141	548.94
291.371	559.94
291.602	557.94
291.833	554.94
292.064	561.94
292.295	560.94
292.526	540.94
292.757	562.94
292.987	586.94
293.218	566.94
293.449	578.94
293.68	551.94
293.91	570.94
294.141	578.94
294.372	560.94
294.603	583.94
294.833	582.94
295.064	545.94
295.295	552.94
295.525	575.94
295.756	558.94
295.987	562.94
296.217	568.94
296.448	585.94
296.679	579.94
296.909	596.94
297.14	584.94
297.37	622.94
297.601	592.94
297.831	606.94
298.062	619.94
298.292	626.94
298.523	640.94
298.753	637.94
298.984	614.94
299.214	640.94
299.445	610.94
299.675	620.94
299.905	628.94
300.136	596.94
300.366	620.94
300.597	633.94
300.827	652.94
301.057	671.94
301.288	650.94
301.518	678.94
301.748	667.94
301.979	662.94
302.209	652.94
302.439	655.94
302.669	647.94
302.9	643.94
303.13	667.94
303.36	648.94
303.59	630.94
303.82	657.94
304.051	644.94
304.281	609.94
304.511	628.94
304.741	620.94
304.971	654.94
305.201	660.94
305.431	637.94
305.661	647.94
305.891	634.94
306.121	638.94
306.352	638.94
306.582	640.94
306.812	643.94
307.042	615.94
307.272	616.94
307.502	631.94
307.731	615.94
307.961	644.94
308.191	630.94
308.421	590.94
308.651	631.94
308.881	617.94
309.111	615.94
309.341	638.94
309.571	638.94
309.8	614.94
310.03	622.94
310.26	604.94
310.49	636.94
310.72	626.94
310.949	634.94
311.179	624.94
311.409	634.94
311.639	638.94
311.868	643.94
312.098	650.94
312.328	669.94
312.557	649.94
312.787	686.94
313.017	654.94
313.246	675.94
313.476	659.94
313.706	681.94
313.935	697.94
314.165	698.94
314.394	688.94
314.624	692.94
314.853	647.94
315.083	682.94
315.312	678.94
315.542	649.94
315.771	668.94
316.001	651.94
316.23	662.94
316.46	650.94
316.689	660.94
316.919	682.94
317.148	658.94
317.377	667.94
317.607	645.94
317.836	649.94
318.065	640.94
318.295	642.94
318.524	654.94
318.753	653.94
318.983	651.94
319.212	658.94
319.441	683.94
319.67	640.94
319.9	660.94
320.129	645.94
320.358	648.94
320.587	643.94
320.816	678.94
321.046	692.94
321.275	664.94
321.504	676.94
321.733	671.94
321.962	670.94
322.191	666.94
322.42	709.94
322.649	686.94
322.878	663.94
323.108	681.94
323.337	709.94
323.566	692.94
323.795	672.94
324.024	682.94
324.253	676.94
324.482	701.94
324.71	694.94
324.939	690.94
325.168	700.94
325.397	684.94
325.626	704.94
325.855	696.94
326.084	738.94
326.313	752.94
326.542	741.94
326.77	747.94
326.999	723.94
327.228	712.94
327.457	727.94
327.686	736.94
327.914	738.94
328.143	753.94
328.372	762.94
328.6	742.94
328.829	738.94
329.058	709.94
329.287	741.94
329.515	744.94
329.744	736.94
329.972	733.94
330.201	759.94
330.43	766.94
330.658	764.94
330.887	731.94
331.115	769.94
331.344	790.94
331.572	788.94
331.801	788.94
332.03	813.94
332.258	834.94
332.486	863.94
332.715	876.94
332.943	900.94
333.172	966.94
333.4	996.94
333.629	1030.94
333.857	1030.94
334.085	1021.94
334.314	969.94
334.542	996.94
334.771	939.94
334.999	927.94
335.227	936.94
335.455	949.94
335.684	931.94
335.912	921.94
336.14	907.94
336.369	902.94
336.597	910.94
336.825	904.94
337.053	889.94
337.281	867.94
337.51	866.94
337.738	867.94
337.966	824.94
338.194	830.94
338.422	813.94
338.65	798.94
338.878	812.94
339.106	801.94
339.334	815.94
339.562	812.94
339.79	773.94
340.018	772.94
340.246	785.94
340.474	805.94
340.702	789.94
340.93	793.94
341.158	807.94
341.386	772.94
341.614	781.94
341.842	775.94
342.07	795.94
342.298	800.94
342.526	768.94
342.754	762.94
342.981	788.94
343.209	785.94
343.437	824.94
343.665	874.94
343.893	952.94
344.12	987.94
344.348	944.94
344.576	875.94
344.804	826.94
345.031	822.94
345.259	811.94
345.487	788.94
345.714	763.94
345.942	760.94
346.17	775.94
346.397	780.94
346.625	754.94
346.853	764.94
347.08	762.94
347.308	733.94
347.535	760.94
347.763	739.94
347.99	768.94
348.218	750.94
348.445	786.94
348.673	754.94
348.9	734.94
349.128	759.94
349.355	729.94
349.583	738.94
349.81	730.94
350.037	724.94
350.265	715.94
350.492	729.94
350.72	728.94
350.947	723.94
351.174	732.94
351.402	725.94
351.629	715.94
351.856	742.94
352.083	728.94
352.311	727.94
352.538	737.94
352.765	728.94
352.992	708.94
353.22	726.94
353.447	708.94
353.674	754.94
353.901	737.94
354.128	724.94
354.355	707.94
354.583	724.94
354.81	720.94
355.037	718.94
355.264	718.94
355.491	719.94
355.718	734.94
355.945	742.94
356.172	743.94
356.399	740.94
356.626	719.94
356.853	747.94
357.08	729.94
357.307	718.94
357.534	714.94
357.761	736.94
357.988	715.94
358.215	730.94
358.441	698.94
358.668	708.94
358.895	711.94
359.122	711.94
359.349	734.94
359.576	747.94
359.802	732.94
360.029	719.94
360.256	730.94
360.483	716.94
360.709	710.94
360.936	711.94
361.163	747.94
361.39	740.94
361.616	716.94
361.843	724.94
362.07	701.94
362.296	701.94
362.523	702.94
362.749	715.94
362.976	730.94
363.203	715.94
363.429	701.94
363.656	730.94
363.882	713.94
364.109	709.94
364.335	698.94
364.562	724.94
364.788	728.94
365.015	704.94
365.241	713.94
365.468	723.94
365.694	702.94
365.92	703.94
366.147	714.94
366.373	729.94
366.599	725.94
366.826	724.94
367.052	731.94
367.278	721.94
367.505	717.94
367.731	722.94
367.957	723.94
368.184	733.94
368.41	719.94
368.636	741.94
368.862	746.94
369.089	727.94
369.315	735.94
369.541	740.94
369.767	750.94
369.993	732.94
370.219	763.94
370.445	754.94
370.672	774.94
370.898	796.94
371.124	754.94
371.35	790.94
371.576	781.94
371.802	773.94
372.028	758.94
372.254	783.94
372.48	772.94
372.706	819.94
372.932	805.94
373.158	816.94
373.384	796.94
373.61	764.94
373.835	799.94
374.061	771.94
374.287	812.94
374.513	802.94
374.739	834.94
374.965	839.94
375.191	879.94
375.416	853.94
375.642	852.94
375.868	828.94
376.094	805.94
376.319	834.94
376.545	788.94
376.771	811.94
376.997	799.94
377.222	767.94
377.448	790.94
377.674	804.94
377.899	763.94
378.125	798.94
378.35	756.94
378.576	760.94
378.802	774.94
379.027	772.94
379.253	774.94
379.478	787.94
379.704	780.94
379.929	798.94
380.155	779.94
380.38	762.94
380.606	783.94
380.831	776.94
381.057	794.94
381.282	777.94
381.507	794.94
381.733	774.94
381.958	778.94
382.184	792.94
382.409	802.94
382.634	862.94
382.86	807.94
383.085	852.94
383.31	842.94
383.535	870.94
383.761	865.94
383.986	877.94
384.211	894.94
384.436	925.94
384.662	936.94
384.887	924.94
385.112	945.94
385.337	960.94
385.562	955.94
385.787	976.94
386.013	951.94
386.238	962.94
386.463	959.94
386.688	950.94
386.913	923.94
387.138	933.94
387.363	930.94
387.588	926.94
387.813	932.94
388.038	913.94
388.263	903.94
388.488	922.94
388.713	922.94
388.938	909.94
389.163	906.94
389.387	898.94
389.612	910.94
389.837	915.94
390.062	924.94
390.287	896.94
390.512	924.94
390.736	949.94
390.961	944.94
391.186	940.94
391.411	1003.94
391.636	1014.94
391.86	1047.94
392.085	1081.94
392.31	1069.94
392.534	1010.94
392.759	1017.94
392.984	998.94
393.208	1000.94
393.433	988.94
393.658	1018.94
393.882	1008.94
394.107	992.94
394.331	1018.94
394.556	994.94
394.78	1026.94
395.005	1013.94
395.229	999.94
395.454	1053.94
395.678	1072.94
395.903	1083.94
396.127	1053.94
396.352	1024.94
396.576	1003.94
396.801	968.94
397.025	1014.94
397.249	1030.94
397.474	1055.94
397.698	1058.94
397.922	1061.94
398.147	1031.94
398.371	1071.94
398.595	1111.94
398.82	1162.94
399.044	1247.94
399.268	1342.94
399.492	1638.94
399.717	1874.94
399.941	1855.94
400.165	1575.94
400.389	1422.94
400.613	1286.94
400.837	1250.94
401.062	1211.94
401.286	1168.94
401.51	1156.94
401.734	1190.94
401.958	1195.94
402.182	1247.94
402.406	1210.94
402.63	1250.94
402.854	1282.94
403.078	1291.94
403.302	1350.94
403.526	1350.94
403.75	1364.94
403.974	1380.94
404.198	1397.94
404.422	1406.94
404.645	1428.94
404.869	1373.94
405.093	1365.94
405.317	1366.94
405.541	1347.94
405.765	1300.94
405.988	1278.94
406.212	1306.94
406.436	1291.94
406.66	1334.94
406.883	1331.94
407.107	1430.94
407.331	1485.94
407.555	1556.94
407.778	1551.94
408.002	1506.94
408.226	1439.94
408.449	1400.94
408.673	1367.94
408.896	1364.94
409.12	1339.94
409.344	1367.94
409.567	1400.94
409.791	1371.94
410.014	1357.94
410.238	1356.94
410.461	1335.94
410.685	1321.94
410.908	1304.94
411.132	1255.94
411.355	1217.94
411.578	1246.94
411.802	1208.94
412.025	1256.94
412.249	1256.94
412.472	1237.94
412.695	1233.94
412.919	1211.94
413.142	1200.94
413.365	1167.94
413.589	1192.94
413.812	1182.94
414.035	1182.94
414.258	1154.94
414.482	1156.94
414.705	1212.94
414.928	1205.94
415.151	1208.94
415.374	1220.94
415.597	1205.94
415.821	1150.94
416.044	1147.94
416.267	1135.94
416.49	1150.94
416.713	1154.94
416.936	1169.94
417.159	1133.94
417.382	1176.94
417.605	1168.94
417.828	1161.94
418.051	1202.94
418.274	1215.94
418.497	1186.94
418.72	1199.94
418.943	1178.94
419.166	1304.94
419.389	1339.94
419.611	1355.94
419.834	1262.94
420.057	1218.94
420.28	1251.94
420.503	1178.94
420.726	1169.94
420.948	1151.94
421.171	1158.94
421.394	1176.94
421.617	1168.94
421.839	1170.94
422.062	1174.94
422.285	1168.94
422.507	1205.94
422.73	1234.94
422.953	1250.94
423.175	1238.94
423.398	1250.94
423.621	1251.94
423.843	1279.94
424.066	1252.94
424.288	1247.94
424.511	1270.94
424.733	1256.94
424.956	1213.94
425.178	1186.94
425.401	1185.94
425.623	1204.94
425.846	1146.94
426.068	1148.94
426.291	1135.94
426.513	1117.94
426.735	1117.94
426.958	1108.94
427.18	1084.94
427.402	1062.94
427.625	1084.94
427.847	1026.94
428.069	1042.94
428.292	1047.94
428.514	1043.94
428.736	1043.94
428.958	1061.94
429.181	1037.94
429.403	1031.94
429.625	1032.94
429.847	995.94
430.069	1038.94
430.292	1045.94
430.514	997.94
430.736	1005.94
430.958	1035.94
431.18	1039.94
431.402	1015.94
431.624	1012.94
431.846	1039.94
432.068	1052.94
432.29	1066.94
432.512	1019.94
432.734	1042.94
432.956	1055.94
433.178	1070.94
433.4	1045.94
433.622	1061.94
433.844	1061.94
434.066	1069.94
434.287	1076.94
434.509	1125.94
434.731	1152.94
434.953	1199.94
435.175	1196.94
435.397	1193.94
435.618	1134.94
435.84	1086.94
436.062	1058.94
436.284	1044.94
436.505	1055.94
436.727	1058.94
436.949	1055.94
437.17	1060.94
437.392	1040.94
437.614	1040.94
437.835	1029.94
438.057	1012.94
438.278	995.94
438.5	981.94
438.721	981.94
438.943	1031.94
439.165	1015.94
439.386	1036.94
439.608	1038.94
439.829	1069.94
440.05	1026.94
440.272	1027.94
440.493	1039.94
440.715	1070.94
440.936	1090.94
441.158	1112.94
441.379	1173.94
441.6	1198.94
441.822	1180.94
442.043	1212.94
442.264	1151.94
442.486	1142.94
442.707	1203.94
442.928	1154.94
443.149	1168.94
443.371	1187.94
443.592	1203.94
443.813	1198.94
444.034	1200.94
444.255	1273.94
444.476	1296.94
444.698	1396.94
444.919	1459.94
445.14	1510.94
445.361	1316.94
445.582	1230.94
445.803	1142.94
446.024	1130.94
446.245	1086.94
446.466	1096.94
446.687	1062.94
446.908	1082.94
447.129	1019.94
447.35	1038.94
447.571	1022.94
447.792	1013.94
448.013	1012.94
448.234	1011.94
448.455	1003.94
448.675	989.94
448.896	977.94
449.117	959.94
449.338	957.94
449.559	962.94
449.779	952.94
450	943.94
450.221	998.94
450.442	973.94
450.662	986.94
450.883	1024.94
451.104	1033.94
451.324	995.94
451.545	998.94
451.766	975.94
451.986	975.94
452.207	951.94
452.428	980.94
452.648	987.94
452.869	949.94
453.089	973.94
453.31	966.94
453.53	978.94
453.751	940.94
453.971	938.94
454.192	939.94
454.412	933.94
454.633	923.94
454.853	917.94
455.073	906.94
455.294	911.94
455.514	895.94
455.734	895.94
455.955	890.94
456.175	884.94
456.395	890.94
456.616	898.94
456.836	900.94
457.056	896.94
457.276	882.94
457.497	902.94
457.717	913.94
457.937	914.94
458.157	902.94
458.377	953.94
458.598	941.94
458.818	954.94
459.038	1014.94
459.258	1035.94
459.478	1050.94
459.698	1100.94
459.918	1101.94
460.138	1179.94
460.358	1247.94
460.578	1234.94
460.798	1256.94
461.018	1293.94
461.238	1245.94
461.458	1252.94
461.678	1220.94
461.898	1239.94
462.118	1262.94
462.338	1353.94
462.558	1385.94
462.777	1391.94
462.997	1575.94
463.217	1718.94
463.437	1731.94
463.657	1579.94
463.876	1458.94
464.096	1470.94
464.316	1473.94
464.536	1518.94
464.755	1372.94
464.975	1361.94
465.195	1318.94
465.414	1227.94
465.634	1157.94
465.854	1100.94
466.073	1097.94
466.293	1065.94
466.512	1052.94
466.732	1012.94
466.951	1019.94
467.171	967.94
467.391	1034.94
467.61	1019.94
467.829	1017.94
468.049	980.94
468.268	982.94
468.488	954.94
468.707	968.94
468.927	952.94
469.146	993.94
469.365	980.94
469.585	1007.94
469.804	983.94
470.023	1018.94
470.243	1018.94
470.462	1062.94
470.681	1052.94
470.901	1066.94
471.12	1026.94
471.339	1026.94
471.558	1006.94
471.777	974.94
471.997	973.94
472.216	971.94
472.435	957.94
472.654	959.94
472.873	946.94
473.092	918.94
473.311	929.94
473.53	922.94
473.749	954.94
473.968	951.94
474.187	930.94
474.406	946.94
474.625	915.94
474.844	938.94
475.063	957.94
475.282	914.94
475.501	958.94
475.72	964.94
475.939	957.94
476.158	991.94
476.377	983.94
476.596	973.94
476.814	963.94
477.033	997.94
477.252	1002.94
477.471	1011.94
477.69	1062.94
477.908	1093.94
478.127	1123.94
478.346	1114.94
478.564	1141.94
478.783	1138.94
479.002	1180.94
479.22	1191.94
479.439	1160.94
479.658	1159.94
479.876	1177.94
480.095	1174.94
480.313	1227.94
480.532	1255.94
480.751	1281.94
480.969	1202.94
481.188	1136.94
481.406	1134.94
481.624	1128.94
481.843	1068.94
482.061	1094.94
482.28	1059.94
482.498	1063.94
482.717	1057.94
482.935	1038.94
483.153	1040.94
483.372	1081.94
483.59	1054.94
483.808	1083.94
484.027	1070.94
484.245	1067.94
484.463	1071.94
484.681	1104.94
484.9	1095.94
485.118	1104.94
485.336	1120.94
485.554	1104.94
485.772	1141.94
485.99	1135.94
486.209	1130.94
486.427	1129.94
486.645	1126.94
486.863	1140.94
487.081	1150.94
487.299	1134.94
487.517	1119.94
487.735	1123.94
487.953	1128.94
488.171	1137.94
488.389	1122.94
488.607	1123.94
488.825	1094.94
489.043	1086.94
489.261	1098.94
489.479	1098.94
489.696	1140.94
489.914	1128.94
490.132	1133.94
490.35	1129.94
490.568	1146.94
490.786	1136.94
491.003	1132.94
491.221	1134.94
491.439	1147.94
491.657	1132.94
491.874	1136.94
492.092	1130.94
492.31	1146.94
492.527	1139.94
492.745	1169.94
492.963	1177.94
493.18	1172.94
493.398	1192.94
493.615	1182.94
493.833	1168.94
494.05	1181.94
494.268	1210.94
494.485	1204.94
494.703	1188.94
494.92	1202.94
495.138	1162.94
495.355	1186.94
495.573	1198.94
495.79	1184.94
496.008	1202.94
496.225	1180.94
496.442	1258.94
496.66	1251.94
496.877	1257.94
497.094	1264.94
497.312	1291.94
497.529	1312.94
497.746	1368.94
497.963	1375.94
498.181	1448.94
498.398	1514.94
498.615	1615.94
498.832	1683.94
499.049	1863.94
499.267	1983.94
499.484	2256.94
499.701	2445.94
499.918	2710.94
500.135	3145.94
500.352	3774.94
500.569	3898.94
500.786	3850.94
501.003	3552.94
501.22	3101.94
501.437	2683.94
501.654	2362.94
501.871	2155.94
502.088	1904.94
502.305	1815.94
502.522	1723.94
502.739	1676.94
502.956	1564.94
503.172	1490.94
503.389	1420.94
503.606	1400.94
503.823	1361.94
504.04	1327.94
504.256	1372.94
504.473	1411.94
504.69	1470.94
504.907	1430.94
505.123	1355.94
505.34	1254.94
505.557	1189.94
505.773	1149.94
505.99	1148.94
506.207	1122.94
506.423	1090.94
506.64	1107.94
506.856	1064.94
507.073	1070.94
507.289	1060.94
507.506	1056.94
507.722	1048.94
507.939	1060.94
508.155	1034.94
508.372	1010.94
508.588	1015.94
508.805	1007.94
509.021	1000.94
509.238	1023.94
509.454	998.94
509.67	1000.94
509.887	991.94
510.103	983.94
510.319	1006.94
510.536	949.94
510.752	962.94
510.968	983.94
511.184	941.94
511.401	954.94
511.617	942.94
511.833	966.94
512.049	917.94
512.265	963.94
512.481	965.94
512.698	959.94
512.914	962.94
513.13	964.94
513.346	969.94
513.562	963.94
513.778	984.94
513.994	977.94
514.21	968.94
514.426	950.94
514.642	972.94
514.858	971.94
515.074	965.94
515.29	998.94
515.506	1004.94
515.721	1018.94
515.937	1029.94
516.153	1037.94
516.369	1070.94
516.585	1109.94
516.801	1112.94
517.016	1210.94
517.232	1254.94
517.448	1343.94
517.664	1374.94
517.879	1388.94
518.095	1388.94
518.311	1367.94
518.527	1276.94
518.742	1188.94
518.958	1171.94
519.173	1126.94
519.389	1094.94
519.605	1038.94
519.82	1024.94
520.036	1014.94
520.251	1015.94
520.467	993.94
520.682	985.94
520.898	973.94
521.113	910.94
521.329	953.94
521.544	934.94
521.76	930.94
521.975	907.94
522.19	939.94
522.406	936.94
522.621	900.94
522.836	930.94
523.052	919.94
523.267	912.94
523.482	893.94
523.698	911.94
523.913	891.94
524.128	871.94
524.343	892.94
524.559	907.94
524.774	882.94
524.989	903.94
525.204	903.94
525.419	883.94
525.634	856.94
525.849	871.94
526.064	856.94
526.28	854.94
526.495	869.94
526.71	861.94
526.925	846.94
527.14	860.94
527.355	850.94
527.57	862.94
527.785	857.94
527.999	852.94
528.214	870.94
528.429	863.94
528.644	887.94
528.859	865.94
529.074	862.94
529.289	872.94
529.503	887.94
529.718	874.94
529.933	883.94
530.148	834.94
530.363	860.94
530.577	893.94
530.792	872.94
531.007	871.94
531.221	863.94
531.436	864.94
531.651	867.94
531.865	874.94
532.08	879.94
532.295	888.94
532.509	871.94
532.724	862.94
532.938	891.94
533.153	888.94
533.367	877.94
533.582	869.94
533.796	883.94
534.011	872.94
534.225	858.94
534.44	858.94
534.654	848.94
534.868	865.94
535.083	850.94
535.297	838.94
535.511	832.94
535.726	842.94
535.94	831.94
536.154	832.94
536.369	825.94
536.583	813.94
536.797	823.94
537.011	795.94
537.225	785.94
537.44	800.94
537.654	812.94
537.868	779.94
538.082	778.94
538.296	809.94
538.51	758.94
538.724	795.94
538.938	826.94
539.153	760.94
539.367	787.94
539.581	799.94
539.795	783.94
540.009	785.94
540.222	794.94
540.436	766.94
540.65	768.94
540.864	748.94
541.078	794.94
541.292	780.94
541.506	785.94
541.72	795.94
541.934	780.94
542.147	784.94
542.361	786.94
542.575	770.94
542.789	784.94
543.002	771.94
543.216	753.94
543.43	779.94
543.644	767.94
543.857	747.94
544.071	740.94
544.285	789.94
544.498	760.94
544.712	768.94
544.925	804.94
545.139	785.94
545.352	813.94
545.566	813.94
545.779	779.94
545.993	814.94
546.206	781.94
546.42	811.94
546.633	812.94
546.847	824.94
547.06	792.94
547.274	772.94
547.487	800.94
547.7	781.94
547.914	828.94
548.127	818.94
548.34	790.94
548.554	819.94
548.767	818.94
548.98	829.94
549.193	803.94
549.407	794.94
549.62	848.94
549.833	822.94
550.046	829.94
550.259	811.94
550.473	786.94
550.686	796.94
550.899	794.94
551.112	777.94
551.325	754.94
551.538	766.94
551.751	784.94
551.964	790.94
552.177	813.94
552.39	810.94
552.603	836.94
552.816	824.94
553.029	869.94
553.242	874.94
553.455	886.94
553.667	886.94
553.88	892.94
554.093	846.94
554.306	838.94
554.519	808.94
554.732	802.94
554.944	775.94
555.157	768.94
555.37	769.94
555.583	744.94
555.795	727.94
556.008	694.94
556.221	715.94
556.433	739.94
556.646	710.94
556.859	696.94
557.071	687.94
557.284	697.94
557.496	688.94
557.709	656.94
557.921	669.94
558.134	690.94
558.346	654.94
558.559	668.94
558.771	632.94
558.984	663.94
559.196	656.94
559.409	658.94
559.621	660.94
559.833	656.94
560.046	651.94
560.258	648.94
560.47	660.94
560.683	654.94
560.895	635.94
561.107	656.94
561.32	662.94
561.532	660.94
561.744	657.94
561.956	654.94
562.168	645.94
562.381	664.94
562.593	658.94
562.805	661.94
563.017	637.94
563.229	649.94
563.441	654.94
563.653	672.94
563.865	642.94
564.077	680.94
564.289	664.94
564.501	678.94
564.713	713.94
564.925	709.94
565.137	733.94
565.349	727.94
565.561	739.94
565.773	768.94
565.985	814.94
566.197	830.94
566.408	920.94
566.62	1003.94
566.832	1093.94
567.044	1128.94
567.255	1095.94
567.467	1098.94
567.679	1206.94
567.891	1327.94
568.102	1367.94
568.314	1295.94
568.526	1117.94
568.737	1019.94
568.949	934.94
569.161	868.94
569.372	784.94
569.584	764.94
569.795	708.94
570.007	702.94
570.218	676.94
570.43	692.94
570.641	694.94
570.853	681.94
571.064	670.94
571.276	684.94
571.487	668.94
571.698	644.94
571.91	622.94
572.121	628.94
572.333	594.94
572.544	541.94
572.755	571.94
572.966	560.94
573.178	567.94
573.389	572.94
573.6	575.94
573.811	563.94
574.023	543.94
574.234	542.94
574.445	560.94
574.656	538.94
574.867	544.94
575.078	536.94
575.289	548.94
575.501	527.94
575.712	515.94
575.923	511.94
576.134	503.94
576.345	509.94
576.556	512.94
576.767	519.94
576.978	502.94
577.188	504.94
577.399	499.94
577.61	514.94
577.821	479.94
578.032	494.94
578.243	481.94
578.454	475.94
578.665	486.94
578.875	483.94
579.086	487.94
579.297	479.94
579.508	477.94
579.718	474.94
579.929	464.94
580.14	457.94
580.35	439.94
580.561	477.94
580.772	451.94
580.982	453.94
581.193	454.94
581.403	468.94
581.614	450.94
581.825	464.94
582.035	462.94
582.246	457.94
582.456	447.94
582.667	438.94
582.877	456.94
583.087	443.94
583.298	448.94
583.508	430.94
583.719	462.94
583.929	446.94
584.139	436.94
584.35	442.94
584.56	447.94
584.77	448.94
584.981	451.94
585.191	451.94
585.401	463.94
585.611	447.94
585.821	431.94
586.032	431.94
586.242	438.94
586.452	407.94
586.662	436.94
586.872	431.94
587.082	431.94
587.292	448.94
587.502	439.94
587.713	427.94
587.923	411.94
588.133	430.94
588.343	426.94
588.553	413.94
588.762	414.94
588.972	424.94
589.182	439.94
589.392	443.94
589.602	440.94
589.812	422.94
590.022	456.94
590.232	439.94
590.441	425.94
590.651	430.94
590.861	453.94
591.071	466.94
591.281	452.94
591.49	459.94
591.7	448.94
591.91	474.94
592.119	468.94
592.329	479.94
592.539	482.94
592.748	520.94
592.958	526.94
593.167	549.94
593.377	555.94
593.587	570.94
593.796	569.94
594.006	560.94
594.215	574.94
594.424	581.94
594.634	548.94
594.843	542.94
595.053	522.94
595.262	491.94
595.472	462.94
595.681	474.94
595.89	432.94
596.1	436.94
596.309	420.94
596.518	430.94
596.727	413.94
596.937	429.94
597.146	378.94
597.355	396.94
597.564	400.94
597.774	405.94
597.983	383.94
598.192	386.94
598.401	393.94
598.61	379.94
598.819	365.94
599.028	371.94
599.237	380.94
599.446	364.94
599.655	382.94
599.864	376.94
600.073	362.94
600.282	370.94
600.491	348.94
600.7	365.94
600.909	374.94
601.118	382.94
601.327	362.94
601.536	358.94
601.745	357.94
601.953	371.94
602.162	340.94
602.371	347.94
602.58	350.94
602.789	357.94
602.997	340.94
603.206	351.94
603.415	352.94
603.623	352.94
603.832	356.94
604.041	351.94
604.249	346.94
604.458	348.94
604.666	352.94
604.875	326.94
605.084	320.94
605.292	334.94
605.501	331.94
605.709	322.94
605.918	331.94
606.126	349.94
606.334	351.94
606.543	325.94
606.751	320.94
606.96	326.94
607.168	310.94
607.376	339.94
607.585	355.94
607.793	334.94
608.001	346.94
608.21	328.94
608.418	332.94
608.626	329.94
608.834	339.94
609.043	326.94
609.251	339.94
609.459	326.94
609.667	324.94
609.875	314.94
610.083	328.94
610.291	330.94
610.499	323.94
610.707	329.94
610.916	323.94
611.124	335.94
611.332	322.94
611.54	336.94
611.748	312.94
611.955	324.94
612.163	342.94
612.371	318.94
612.579	314.94
612.787	318.94
612.995	343.94
613.203	324.94
613.411	318.94
613.618	314.94
613.826	322.94
614.034	313.94
614.242	329.94
614.449	327.94
614.657	335.94
614.865	308.94
615.072	321.94
615.28	318.94
615.488	325.94
615.695	322.94
615.903	319.94
616.111	314.94
616.318	302.94
616.526	330.94
616.733	317.94
616.941	325.94
617.148	330.94
617.356	343.94
617.563	316.94
617.771	334.94
617.978	346.94
618.185	318.94
618.393	310.94
618.6	313.94
618.807	309.94
619.015	305.94
619.222	294.94
619.429	316.94
619.637	317.94
619.844	299.94
620.051	298.94
620.258	307.94
620.466	288.94
620.673	306.94
620.88	291.94
621.087	302.94
621.294	296.94
621.501	297.94
621.708	285.94
621.915	297.94
622.122	301.94
622.329	293.94
622.536	290.94
622.743	297.94
622.95	290.94
623.157	275.94
623.364	282.94
623.571	276.94
623.778	271.94
623.985	282.94
624.192	282.94
624.399	272.94
624.606	271.94
624.812	263.94
625.019	277.94
625.226	269.94
625.433	268.94
625.639	270.94
625.846	278.94
626.053	263.94
626.259	260.94
626.466	266.94
626.673	262.94
626.879	246.94
627.086	260.94
627.293	251.94
627.499	276.94
627.706	263.94
627.912	248.94
628.119	251.94
628.325	262.94
628.532	260.94
628.738	255.94
628.945	277.94
629.151	270.94
629.357	248.94
629.564	269.94
629.77	239.94
629.976	251.94
630.183	246.94
630.389	275.94
630.595	250.94
630.802	246.94
631.008	249.94
631.214	245.94
631.42	266.94
631.627	243.94
631.833	222.94
632.039	247.94
632.245	230.94
632.451	228.94
632.657	233.94
632.863	220.94
633.069	243.94
633.275	251.94
633.481	222.94
633.688	226.94
633.893	237.94
634.099	230.94
634.305	232.94
634.511	215.94
634.717	247.94
634.923	223.94
635.129	228.94
635.335	220.94
635.541	228.94
635.747	231.94
635.952	213.94
636.158	229.94
636.364	217.94
636.57	226.94
636.775	234.94
636.981	221.94
637.187	223.94
637.392	232.94
637.598	233.94
637.804	203.94
638.009	204.94
638.215	228.94
638.421	230.94
638.626	232.94
638.832	204.94
639.037	201.94
639.243	205.94
639.448	204.94
639.654	202.94
639.859	201.94
640.065	214.94
640.27	203.94
640.475	207.94
640.681	206.94
640.886	210.94
641.091	211.94
641.297	202.94
641.502	221.94
641.707	207.94
641.913	200.94
642.118	175.94
642.323	216.94
642.528	217.94
642.733	205.94
642.939	207.94
643.144	191.94
643.349	207.94
643.554	206.94
643.759	205.94
643.964	189.94
644.169	189.94
644.374	208.94
644.579	193.94
644.784	204.94
644.989	201.94
645.194	199.94
645.399	178.94
645.604	190.94
645.809	197.94
646.014	197.94
646.219	210.94
646.423	206.94
646.628	203.94
646.833	196.94
647.038	193.94
647.243	212.94
647.447	224.94
647.652	208.94
647.857	201.94
648.062	213.94
648.266	208.94
648.471	214.94
648.676	229.94
648.88	234.94
649.085	212.94
649.289	203.94
649.494	194.94
649.698	197.94
649.903	206.94
650.107	184.94
650.312	195.94
650.516	211.94
650.721	198.94
650.925	194.94
651.13	192.94
651.334	180.94
651.539	181.94
651.743	198.94
651.947	174.94
652.152	166.94
652.356	187.94
652.56	182.94
652.764	187.94
652.969	150.94
653.173	164.94
653.377	157.94
653.581	154.94
653.785	177.94
653.99	150.94
654.194	161.94
654.398	143.94
654.602	164.94
654.806	168.94
655.01	140.94
655.214	142.94
655.418	140.94
655.622	145.94
655.826	136.94
656.03	149.94
656.234	130.94
656.438	143.94
656.642	146.94
656.846	152.94
657.049	136.94
657.253	139.94
657.457	139.94
657.661	132.94
657.865	124.94
658.068	126.94
658.272	113.94
658.476	128.94
658.68	134.94
658.883	109.94
659.087	118.94
659.291	104.94
659.494	102.94
659.698	108.94
659.901	99.94
660.105	98.94
660.309	115.94
660.512	107.94
660.716	104.94
660.919	100.94
661.123	95.94
661.326	113.94
661.53	97.94
661.733	88.94
661.936	80.94
662.14	111.94
662.343	103.94
662.546	81.94
662.75	88.94
662.953	86.94
663.156	85.94
663.36	76.94
663.563	90.94
663.766	69.94
663.969	73.94
664.173	85.94
664.376	79.94
664.579	91.94
664.782	88.94
664.985	83.94
665.188	71.94
665.391	73.94
665.594	98.94
665.797	77.94
666	92.94
666.203	88.94
666.406	93.94
666.609	93.94
666.812	87.94
667.015	81.94
667.218	87.94
667.421	90.94
667.624	88.94
667.827	93.94
668.03	89.94
668.232	86.94
668.435	78.94
668.638	83.94
668.841	75.94
669.043	78.94
669.246	86.94
669.449	88.94
669.651	87.94
669.854	91.94
670.057	77.94
670.259	74.94
670.462	89.94
670.665	69.94
670.867	87.94
671.07	75.94
671.272	88.94
671.475	87.94
671.677	83.94
671.88	80.94
672.082	86.94
672.284	87.94
672.487	86.94
672.689	86.94
672.892	83.94
