Data from Ni(NO3)2@0.5M.TitratingCurve.Agarose3%dH2O.NegLispCup.LampEnergy10.LIBS07252019_HRD10591_18-00-27-564.txt Node
Date: Thu Jul 25 18:00:27 EDT 2019
User: cochatt
Spectrometer: HR+D1059
Trigger mode: 1
Integration Time (sec): 1.000000E-1
Scans to average: 1
Electric dark correction enabled: true
Nonlinearity correction enabled: false
Boxcar width: 0
XAxis mode: Wavelengths
Number of Pixels in Spectrum: 2048
>>>>>Begin Spectral Data<<<<<
223.165	-30.38
223.4	-30.38
223.635	-30.38
223.869	-20.38
224.104	-11.38
224.338	-18.38
224.573	-7.38
224.808	-6.38
225.042	-3.38
225.277	0.62
225.511	-7.38
225.746	12.62
225.98	5.62
226.215	13.62
226.449	12.62
226.683	5.62
226.918	31.62
227.152	22.62
227.387	29.62
227.621	43.62
227.856	38.62
228.09	48.62
228.324	51.62
228.559	54.62
228.793	84.62
229.027	151.62
229.262	163.62
229.496	188.62
229.73	177.62
229.964	191.62
230.199	210.62
230.433	211.62
230.667	212.62
230.901	206.62
231.136	193.62
231.37	193.62
231.604	218.62
231.838	235.62
232.072	235.62
232.306	219.62
232.541	230.62
232.775	223.62
233.009	212.62
233.243	209.62
233.477	223.62
233.711	206.62
233.945	215.62
234.179	204.62
234.413	216.62
234.647	230.62
234.881	236.62
235.115	233.62
235.349	220.62
235.583	213.62
235.817	215.62
236.051	224.62
236.285	223.62
236.519	228.62
236.753	229.62
236.987	219.62
237.221	250.62
237.455	245.62
237.689	227.62
237.922	261.62
238.156	247.62
238.39	209.62
238.624	243.62
238.858	257.62
239.091	263.62
239.325	267.62
239.559	295.62
239.793	278.62
240.027	291.62
240.26	259.62
240.494	280.62
240.728	282.62
240.961	272.62
241.195	284.62
241.429	275.62
241.662	270.62
241.896	314.62
242.13	303.62
242.363	288.62
242.597	307.62
242.83	295.62
243.064	309.62
243.298	314.62
243.531	317.62
243.765	311.62
243.998	327.62
244.232	304.62
244.465	327.62
244.699	329.62
244.932	348.62
245.166	336.62
245.399	347.62
245.633	333.62
245.866	328.62
246.099	344.62
246.333	362.62
246.566	337.62
246.8	340.62
247.033	339.62
247.266	350.62
247.5	360.62
247.733	358.62
247.966	345.62
248.2	373.62
248.433	360.62
248.666	373.62
248.899	378.62
249.133	373.62
249.366	385.62
249.599	397.62
249.832	381.62
250.066	385.62
250.299	380.62
250.532	391.62
250.765	419.62
250.998	398.62
251.231	417.62
251.465	412.62
251.698	432.62
251.931	405.62
252.164	410.62
252.397	420.62
252.63	432.62
252.863	434.62
253.096	446.62
253.329	427.62
253.562	440.62
253.795	446.62
254.028	420.62
254.261	460.62
254.494	451.62
254.727	433.62
254.96	453.62
255.193	464.62
255.426	426.62
255.659	458.62
255.892	453.62
256.124	445.62
256.357	466.62
256.59	472.62
256.823	487.62
257.056	465.62
257.289	471.62
257.521	488.62
257.754	472.62
257.987	484.62
258.22	516.62
258.452	485.62
258.685	530.62
258.918	496.62
259.151	516.62
259.383	513.62
259.616	515.62
259.849	516.62
260.081	525.62
260.314	524.62
260.547	526.62
260.779	508.62
261.012	524.62
261.244	545.62
261.477	545.62
261.71	537.62
261.942	550.62
262.175	555.62
262.407	556.62
262.64	529.62
262.872	530.62
263.105	534.62
263.337	559.62
263.57	548.62
263.802	571.62
264.035	563.62
264.267	532.62
264.499	572.62
264.732	579.62
264.964	585.62
265.197	579.62
265.429	550.62
265.661	577.62
265.894	592.62
266.126	579.62
266.358	585.62
266.591	600.62
266.823	602.62
267.055	588.62
267.287	592.62
267.52	624.62
267.752	607.62
267.984	616.62
268.216	622.62
268.448	630.62
268.681	633.62
268.913	623.62
269.145	613.62
269.377	636.62
269.609	636.62
269.841	624.62
270.073	619.62
270.306	645.62
270.538	657.62
270.77	638.62
271.002	637.62
271.234	639.62
271.466	645.62
271.698	629.62
271.93	648.62
272.162	656.62
272.394	655.62
272.626	678.62
272.858	661.62
273.09	678.62
273.322	668.62
273.553	686.62
273.785	667.62
274.017	692.62
274.249	689.62
274.481	718.62
274.713	705.62
274.945	699.62
275.176	704.62
275.408	715.62
275.64	706.62
275.872	701.62
276.104	710.62
276.335	711.62
276.567	716.62
276.799	718.62
277.031	711.62
277.262	732.62
277.494	722.62
277.726	734.62
277.957	726.62
278.189	727.62
278.421	731.62
278.652	739.62
278.884	749.62
279.115	746.62
279.347	762.62
279.579	751.62
279.81	744.62
280.042	741.62
280.273	777.62
280.505	768.62
280.736	772.62
280.968	783.62
281.199	797.62
281.431	757.62
281.662	780.62
281.894	749.62
282.125	765.62
282.356	797.62
282.588	796.62
282.819	806.62
283.051	790.62
283.282	800.62
283.513	791.62
283.745	816.62
283.976	833.62
284.207	806.62
284.439	841.62
284.67	831.62
284.901	815.62
285.132	845.62
285.364	845.62
285.595	846.62
285.826	813.62
286.057	813.62
286.288	829.62
286.52	841.62
286.751	848.62
286.982	847.62
287.213	852.62
287.444	861.62
287.675	857.62
287.906	884.62
288.138	835.62
288.369	855.62
288.6	876.62
288.831	881.62
289.062	867.62
289.293	879.62
289.524	873.62
289.755	866.62
289.986	856.62
290.217	865.62
290.448	887.62
290.679	853.62
290.91	891.62
291.141	863.62
291.371	863.62
291.602	907.62
291.833	890.62
292.064	887.62
292.295	889.62
292.526	868.62
292.757	901.62
292.987	879.62
293.218	867.62
293.449	873.62
293.68	895.62
293.91	907.62
294.141	888.62
294.372	878.62
294.603	899.62
294.833	893.62
295.064	900.62
295.295	897.62
295.525	911.62
295.756	905.62
295.987	876.62
296.217	910.62
296.448	935.62
296.679	938.62
296.909	912.62
297.14	923.62
297.37	955.62
297.601	952.62
297.831	960.62
298.062	990.62
298.292	956.62
298.523	996.62
298.753	967.62
298.984	966.62
299.214	972.62
299.445	951.62
299.675	968.62
299.905	988.62
300.136	982.62
300.366	1008.62
300.597	1017.62
300.827	999.62
301.057	1006.62
301.288	1000.62
301.518	1002.62
301.748	1030.62
301.979	1035.62
302.209	1022.62
302.439	1011.62
302.669	1042.62
302.9	1017.62
303.13	1066.62
303.36	1067.62
303.59	1043.62
303.82	1028.62
304.051	1046.62
304.281	1034.62
304.511	1000.62
304.741	1017.62
304.971	1057.62
305.201	1058.62
305.431	1072.62
305.661	1061.62
305.891	1045.62
306.121	1012.62
306.352	1042.62
306.582	1055.62
306.812	1010.62
307.042	1029.62
307.272	1012.62
307.502	1031.62
307.731	1003.62
307.961	1006.62
308.191	1013.62
308.421	1031.62
308.651	1032.62
308.881	1034.62
309.111	1016.62
309.341	1015.62
309.571	1030.62
309.8	1049.62
310.03	1057.62
310.26	1038.62
310.49	1048.62
310.72	1070.62
310.949	1042.62
311.179	1051.62
311.409	1023.62
311.639	1047.62
311.868	1071.62
312.098	1056.62
312.328	1069.62
312.557	1072.62
312.787	1072.62
313.017	1084.62
313.246	1113.62
313.476	1091.62
313.706	1143.62
313.935	1113.62
314.165	1116.62
314.394	1126.62
314.624	1119.62
314.853	1099.62
315.083	1089.62
315.312	1160.62
315.542	1093.62
315.771	1115.62
316.001	1126.62
316.23	1118.62
316.46	1129.62
316.689	1113.62
316.919	1132.62
317.148	1126.62
317.377	1111.62
317.607	1103.62
317.836	1115.62
318.065	1097.62
318.295	1143.62
318.524	1128.62
318.753	1129.62
318.983	1084.62
319.212	1104.62
319.441	1118.62
319.67	1115.62
319.9	1123.62
320.129	1120.62
320.358	1118.62
320.587	1136.62
320.816	1159.62
321.046	1135.62
321.275	1144.62
321.504	1128.62
321.733	1131.62
321.962	1145.62
322.191	1153.62
322.42	1162.62
322.649	1158.62
322.878	1159.62
323.108	1149.62
323.337	1174.62
323.566	1197.62
323.795	1161.62
324.024	1182.62
324.253	1193.62
324.482	1189.62
324.71	1197.62
324.939	1192.62
325.168	1219.62
325.397	1214.62
325.626	1178.62
325.855	1219.62
326.084	1200.62
326.313	1256.62
326.542	1232.62
326.77	1249.62
326.999	1228.62
327.228	1211.62
327.457	1247.62
327.686	1251.62
327.914	1256.62
328.143	1227.62
328.372	1218.62
328.6	1242.62
328.829	1229.62
329.058	1210.62
329.287	1249.62
329.515	1258.62
329.744	1275.62
329.972	1244.62
330.201	1289.62
330.43	1299.62
330.658	1298.62
330.887	1310.62
331.115	1321.62
331.344	1343.62
331.572	1333.62
331.801	1335.62
332.03	1319.62
332.258	1330.62
332.486	1392.62
332.715	1384.62
332.943	1407.62
333.172	1445.62
333.4	1464.62
333.629	1447.62
333.857	1503.62
334.085	1598.62
334.314	1553.62
334.542	1519.62
334.771	1535.62
334.999	1514.62
335.227	1513.62
335.455	1541.62
335.684	1502.62
335.912	1563.62
336.14	1523.62
336.369	1517.62
336.597	1564.62
336.825	1489.62
337.053	1531.62
337.281	1503.62
337.51	1502.62
337.738	1463.62
337.966	1447.62
338.194	1466.62
338.422	1403.62
338.65	1432.62
338.878	1423.62
339.106	1408.62
339.334	1436.62
339.562	1383.62
339.79	1369.62
340.018	1347.62
340.246	1360.62
340.474	1381.62
340.702	1319.62
340.93	1352.62
341.158	1375.62
341.386	1403.62
341.614	1433.62
341.842	1378.62
342.07	1364.62
342.298	1371.62
342.526	1349.62
342.754	1343.62
342.981	1319.62
343.209	1400.62
343.437	1405.62
343.665	1448.62
343.893	1493.62
344.12	1487.62
344.348	1525.62
344.576	1493.62
344.804	1494.62
345.031	1435.62
345.259	1374.62
345.487	1371.62
345.714	1386.62
345.942	1383.62
346.17	1419.62
346.397	1381.62
346.625	1337.62
346.853	1307.62
347.08	1309.62
347.308	1325.62
347.535	1295.62
347.763	1269.62
347.99	1287.62
348.218	1275.62
348.445	1335.62
348.673	1293.62
348.9	1295.62
349.128	1297.62
349.355	1306.62
349.583	1367.62
349.81	1268.62
350.037	1278.62
350.265	1260.62
350.492	1233.62
350.72	1249.62
350.947	1287.62
351.174	1276.62
351.402	1287.62
351.629	1335.62
351.856	1324.62
352.083	1260.62
352.311	1259.62
352.538	1338.62
352.765	1329.62
352.992	1269.62
353.22	1214.62
353.447	1211.62
353.674	1201.62
353.901	1213.62
354.128	1244.62
354.355	1248.62
354.583	1249.62
354.81	1227.62
355.037	1268.62
355.264	1233.62
355.491	1252.62
355.718	1241.62
355.945	1248.62
356.172	1236.62
356.399	1240.62
356.626	1304.62
356.853	1316.62
357.08	1272.62
357.307	1268.62
357.534	1251.62
357.761	1213.62
357.988	1271.62
358.215	1250.62
358.441	1244.62
358.668	1252.62
358.895	1236.62
359.122	1246.62
359.349	1267.62
359.576	1230.62
359.802	1267.62
360.029	1252.62
360.256	1272.62
360.483	1276.62
360.709	1278.62
360.936	1252.62
361.163	1274.62
361.39	1285.62
361.616	1273.62
361.843	1283.62
362.07	1355.62
362.296	1325.62
362.523	1256.62
362.749	1256.62
362.976	1239.62
363.203	1265.62
363.429	1287.62
363.656	1279.62
363.882	1251.62
364.109	1262.62
364.335	1253.62
364.562	1235.62
364.788	1249.62
365.015	1259.62
365.241	1256.62
365.468	1269.62
365.694	1277.62
365.92	1257.62
366.147	1243.62
366.373	1268.62
366.599	1310.62
366.826	1255.62
367.052	1287.62
367.278	1283.62
367.505	1289.62
367.731	1283.62
367.957	1287.62
368.184	1294.62
368.41	1273.62
368.636	1287.62
368.862	1298.62
369.089	1314.62
369.315	1324.62
369.541	1276.62
369.767	1303.62
369.993	1300.62
370.219	1286.62
370.445	1354.62
370.672	1342.62
370.898	1323.62
371.124	1329.62
371.35	1371.62
371.576	1335.62
371.802	1349.62
372.028	1335.62
372.254	1345.62
372.48	1362.62
372.706	1397.62
372.932	1379.62
373.158	1383.62
373.384	1377.62
373.61	1360.62
373.835	1380.62
374.061	1352.62
374.287	1391.62
374.513	1397.62
374.739	1387.62
374.965	1451.62
375.191	1446.62
375.416	1448.62
375.642	1403.62
375.868	1409.62
376.094	1387.62
376.319	1345.62
376.545	1344.62
376.771	1382.62
376.997	1376.62
377.222	1360.62
377.448	1359.62
377.674	1353.62
377.899	1368.62
378.125	1318.62
378.35	1319.62
378.576	1336.62
378.802	1350.62
379.027	1348.62
379.253	1334.62
379.478	1349.62
379.704	1369.62
379.929	1343.62
380.155	1341.62
380.38	1347.62
380.606	1348.62
380.831	1343.62
381.057	1332.62
381.282	1324.62
381.507	1353.62
381.733	1378.62
381.958	1375.62
382.184	1379.62
382.409	1402.62
382.634	1377.62
382.86	1375.62
383.085	1391.62
383.31	1424.62
383.535	1404.62
383.761	1455.62
383.986	1435.62
384.211	1497.62
384.436	1486.62
384.662	1509.62
384.887	1519.62
385.112	1501.62
385.337	1513.62
385.562	1560.62
385.787	1567.62
386.013	1606.62
386.238	1576.62
386.463	1613.62
386.688	1613.62
386.913	1551.62
387.138	1620.62
387.363	1578.62
387.588	1611.62
387.813	1625.62
388.038	1588.62
388.263	1612.62
388.488	1609.62
388.713	1587.62
388.938	1579.62
389.163	1573.62
389.387	1606.62
389.612	1583.62
389.837	1598.62
390.062	1540.62
390.287	1617.62
390.512	1607.62
390.736	1614.62
390.961	1619.62
391.186	1599.62
391.411	1673.62
391.636	1689.62
391.86	1707.62
392.085	1726.62
392.31	1744.62
392.534	1726.62
392.759	1720.62
392.984	1689.62
393.208	1658.62
393.433	1674.62
393.658	1707.62
393.882	1656.62
394.107	1678.62
394.331	1696.62
394.556	1646.62
394.78	1667.62
395.005	1693.62
395.229	1729.62
395.454	1743.62
395.678	1768.62
395.903	1773.62
396.127	1755.62
396.352	1710.62
396.576	1756.62
396.801	1705.62
397.025	1741.62
397.249	1811.62
397.474	1834.62
397.698	1801.62
397.922	1835.62
398.147	1831.62
398.371	1880.62
398.595	1922.62
398.82	1993.62
399.044	2081.62
399.268	2152.62
399.492	2281.62
399.717	2452.62
399.941	2490.62
400.165	2383.62
400.389	2299.62
400.613	2187.62
400.837	2158.62
401.062	2074.62
401.286	1987.62
401.51	2022.62
401.734	1976.62
401.958	1975.62
402.182	2001.62
402.406	1960.62
402.63	2006.62
402.854	1963.62
403.078	1970.62
403.302	2004.62
403.526	1995.62
403.75	2041.62
403.974	2061.62
404.198	2019.62
404.422	2046.62
404.645	2021.62
404.869	2047.62
405.093	2039.62
405.317	2072.62
405.541	2107.62
405.765	2055.62
405.988	2086.62
406.212	2102.62
406.436	2093.62
406.66	2145.62
406.883	2172.62
407.107	2242.62
407.331	2313.62
407.555	2348.62
407.778	2349.62
408.002	2337.62
408.226	2309.62
408.449	2334.62
408.673	2202.62
408.896	2200.62
409.12	2160.62
409.344	2183.62
409.567	2115.62
409.791	2141.62
410.014	2127.62
410.238	2128.62
410.461	2082.62
410.685	2083.62
410.908	2116.62
411.132	2080.62
411.355	2036.62
411.578	2012.62
411.802	2051.62
412.025	1997.62
412.249	2092.62
412.472	2047.62
412.695	1984.62
412.919	1996.62
413.142	2018.62
413.365	1940.62
413.589	1951.62
413.812	1925.62
414.035	1923.62
414.258	1932.62
414.482	1926.62
414.705	1961.62
414.928	2015.62
415.151	1969.62
415.374	1946.62
415.597	1922.62
415.821	1914.62
416.044	1870.62
416.267	1892.62
416.49	1893.62
416.713	1794.62
416.936	1902.62
417.159	1870.62
417.382	1864.62
417.605	1843.62
417.828	1878.62
418.051	1885.62
418.274	1862.62
418.497	1871.62
418.72	1932.62
418.943	1892.62
419.166	2008.62
419.389	2097.62
419.611	2124.62
419.834	2024.62
420.057	1987.62
420.28	1929.62
420.503	1904.62
420.726	1866.62
420.948	1814.62
421.171	1860.62
421.394	1859.62
421.617	1847.62
421.839	1874.62
422.062	1883.62
422.285	1821.62
422.507	1880.62
422.73	1870.62
422.953	1900.62
423.175	1867.62
423.398	1904.62
423.621	1872.62
423.843	1890.62
424.066	1904.62
424.288	1880.62
424.511	1870.62
424.733	1891.62
424.956	1841.62
425.178	1897.62
425.401	1879.62
425.623	1871.62
425.846	1848.62
426.068	1805.62
426.291	1810.62
426.513	1862.62
426.735	1816.62
426.958	1813.62
427.18	1801.62
427.402	1760.62
427.625	1807.62
427.847	1757.62
428.069	1693.62
428.292	1757.62
428.514	1777.62
428.736	1726.62
428.958	1773.62
429.181	1719.62
429.403	1671.62
429.625	1702.62
429.847	1715.62
430.069	1693.62
430.292	1681.62
430.514	1718.62
430.736	1728.62
430.958	1718.62
431.18	1724.62
431.402	1750.62
431.624	1697.62
431.846	1743.62
432.068	1757.62
432.29	1798.62
432.512	1703.62
432.734	1762.62
432.956	1720.62
433.178	1760.62
433.4	1758.62
433.622	1780.62
433.844	1788.62
434.066	1797.62
434.287	1803.62
434.509	1832.62
434.731	1871.62
434.953	1890.62
435.175	1869.62
435.397	1897.62
435.618	1834.62
435.84	1803.62
436.062	1786.62
436.284	1757.62
436.505	1766.62
436.727	1718.62
436.949	1743.62
437.17	1777.62
437.392	1745.62
437.614	1701.62
437.835	1663.62
438.057	1685.62
438.278	1649.62
438.5	1649.62
438.721	1711.62
438.943	1713.62
439.165	1673.62
439.386	1709.62
439.608	1663.62
439.829	1687.62
440.05	1696.62
440.272	1760.62
440.493	1739.62
440.715	1731.62
440.936	1797.62
441.158	1815.62
441.379	1736.62
441.6	1843.62
441.822	1819.62
442.043	1896.62
442.264	1878.62
442.486	1819.62
442.707	1825.62
442.928	1843.62
443.149	1859.62
443.371	1856.62
443.592	1920.62
443.813	1889.62
444.034	1867.62
444.255	1861.62
444.476	1951.62
444.698	2008.62
444.919	2050.62
445.14	2118.62
445.361	2013.62
445.582	1941.62
445.803	1855.62
446.024	1805.62
446.245	1803.62
446.466	1761.62
446.687	1741.62
446.908	1774.62
447.129	1715.62
447.35	1673.62
447.571	1656.62
447.792	1617.62
448.013	1624.62
448.234	1637.62
448.455	1651.62
448.675	1623.62
448.896	1598.62
449.117	1604.62
449.338	1589.62
449.559	1592.62
449.779	1573.62
450	1558.62
450.221	1555.62
450.442	1565.62
450.662	1569.62
450.883	1577.62
451.104	1621.62
451.324	1543.62
451.545	1585.62
451.766	1571.62
451.986	1574.62
452.207	1555.62
452.428	1545.62
452.648	1553.62
452.869	1533.62
453.089	1542.62
453.31	1567.62
453.53	1529.62
453.751	1500.62
453.971	1479.62
454.192	1513.62
454.412	1523.62
454.633	1511.62
454.853	1473.62
455.073	1459.62
455.294	1503.62
455.514	1515.62
455.734	1501.62
455.955	1499.62
456.175	1550.62
456.395	1491.62
456.616	1487.62
456.836	1485.62
457.056	1492.62
457.276	1482.62
457.497	1511.62
457.717	1526.62
457.937	1508.62
458.157	1566.62
458.377	1541.62
458.598	1579.62
458.818	1616.62
459.038	1628.62
459.258	1679.62
459.478	1760.62
459.698	1820.62
459.918	1811.62
460.138	1865.62
460.358	1939.62
460.578	1919.62
460.798	1946.62
461.018	1975.62
461.238	1957.62
461.458	1936.62
461.678	1938.62
461.898	2026.62
462.118	2003.62
462.338	2039.62
462.558	2114.62
462.777	2184.62
462.997	2257.62
463.217	2305.62
463.437	2323.62
463.657	2299.62
463.876	2188.62
464.096	2192.62
464.316	2173.62
464.536	2131.62
464.755	2088.62
464.975	2025.62
465.195	1955.62
465.414	1914.62
465.634	1835.62
465.854	1805.62
466.073	1740.62
466.293	1707.62
466.512	1689.62
466.732	1669.62
466.951	1657.62
467.171	1675.62
467.391	1685.62
467.61	1657.62
467.829	1657.62
468.049	1610.62
468.268	1627.62
468.488	1608.62
468.707	1614.62
468.927	1607.62
469.146	1582.62
469.365	1633.62
469.585	1660.62
469.804	1646.62
470.023	1617.62
470.243	1668.62
470.462	1650.62
470.681	1672.62
470.901	1676.62
471.12	1665.62
471.339	1670.62
471.558	1648.62
471.777	1645.62
471.997	1620.62
472.216	1635.62
472.435	1604.62
472.654	1616.62
472.873	1584.62
473.092	1590.62
473.311	1609.62
473.53	1594.62
473.749	1588.62
473.968	1587.62
474.187	1595.62
474.406	1563.62
474.625	1596.62
474.844	1593.62
475.063	1637.62
475.282	1635.62
475.501	1638.62
475.72	1678.62
475.939	1627.62
476.158	1634.62
476.377	1652.62
476.596	1665.62
476.814	1667.62
477.033	1712.62
477.252	1717.62
477.471	1719.62
477.69	1788.62
477.908	1804.62
478.127	1875.62
478.346	1848.62
478.564	1863.62
478.783	1904.62
479.002	1960.62
479.22	1983.62
479.439	1961.62
479.658	1947.62
479.876	1936.62
480.095	1935.62
480.313	1998.62
480.532	2030.62
480.751	2020.62
480.969	1996.62
481.188	1992.62
481.406	1934.62
481.624	1971.62
481.843	1937.62
482.061	1901.62
482.28	1859.62
482.498	1846.62
482.717	1861.62
482.935	1876.62
483.153	1870.62
483.372	1904.62
483.59	1910.62
483.808	1886.62
484.027	1874.62
484.245	1923.62
484.463	1906.62
484.681	1915.62
484.9	1915.62
485.118	1944.62
485.336	1959.62
485.554	1940.62
485.772	1955.62
485.99	1933.62
486.209	1913.62
486.427	1950.62
486.645	1946.62
486.863	1958.62
487.081	1919.62
487.299	1983.62
487.517	1951.62
487.735	1950.62
487.953	2028.62
488.171	1969.62
488.389	1968.62
488.607	1936.62
488.825	1968.62
489.043	1930.62
489.261	1942.62
489.479	1898.62
489.696	1910.62
489.914	1927.62
490.132	1976.62
490.35	1927.62
490.568	1979.62
490.786	1943.62
491.003	1984.62
491.221	2002.62
491.439	2001.62
491.657	1981.62
491.874	1948.62
492.092	1979.62
492.31	1959.62
492.527	1974.62
492.745	2003.62
492.963	2002.62
493.18	1943.62
493.398	1961.62
493.615	2056.62
493.833	2012.62
494.05	2006.62
494.268	2045.62
494.485	2066.62
494.703	2027.62
494.92	2069.62
495.138	2052.62
495.355	2062.62
495.573	2037.62
495.79	2105.62
496.008	2111.62
496.225	2125.62
496.442	2135.62
496.66	2186.62
496.877	2209.62
497.094	2217.62
497.312	2286.62
497.529	2312.62
497.746	2373.62
497.963	2385.62
498.181	2466.62
498.398	2583.62
498.615	2683.62
498.832	2848.62
499.049	2915.62
499.267	3080.62
499.484	3301.62
499.701	3547.62
499.918	3708.62
500.135	3964.62
500.352	4164.62
500.569	4245.62
500.786	4239.62
501.003	4157.62
501.22	3898.62
501.437	3721.62
501.654	3431.62
501.871	3259.62
502.088	3047.62
502.305	2941.62
502.522	2808.62
502.739	2706.62
502.956	2613.62
503.172	2519.62
503.389	2459.62
503.606	2397.62
503.823	2325.62
504.04	2293.62
504.256	2280.62
504.473	2296.62
504.69	2284.62
504.907	2235.62
505.123	2145.62
505.34	2153.62
505.557	2077.62
505.773	2015.62
505.99	1975.62
506.207	1909.62
506.423	1881.62
506.64	1843.62
506.856	1849.62
507.073	1812.62
507.289	1785.62
507.506	1780.62
507.722	1812.62
507.939	1803.62
508.155	1746.62
508.372	1752.62
508.588	1694.62
508.805	1703.62
509.021	1708.62
509.238	1722.62
509.454	1669.62
509.67	1665.62
509.887	1654.62
510.103	1624.62
510.319	1640.62
510.536	1647.62
510.752	1623.62
510.968	1651.62
511.184	1635.62
511.401	1615.62
511.617	1592.62
511.833	1607.62
512.049	1604.62
512.265	1603.62
512.481	1639.62
512.698	1627.62
512.914	1590.62
513.13	1602.62
513.346	1658.62
513.562	1603.62
513.778	1611.62
513.994	1634.62
514.21	1632.62
514.426	1654.62
514.642	1605.62
514.858	1661.62
515.074	1677.62
515.29	1696.62
515.506	1670.62
515.721	1709.62
515.937	1716.62
516.153	1778.62
516.369	1776.62
516.585	1740.62
516.801	1878.62
517.016	1880.62
517.232	1873.62
517.448	1940.62
517.664	1984.62
517.879	1981.62
518.095	1923.62
518.311	1928.62
518.527	1884.62
518.742	1883.62
518.958	1829.62
519.173	1788.62
519.389	1811.62
519.605	1760.62
519.82	1671.62
520.036	1695.62
520.251	1626.62
520.467	1628.62
520.682	1640.62
520.898	1570.62
521.113	1566.62
521.329	1538.62
521.544	1557.62
521.76	1565.62
521.975	1542.62
522.19	1487.62
522.406	1489.62
522.621	1516.62
522.836	1509.62
523.052	1500.62
523.267	1488.62
523.482	1461.62
523.698	1512.62
523.913	1447.62
524.128	1483.62
524.343	1431.62
524.559	1463.62
524.774	1441.62
524.989	1469.62
525.204	1440.62
525.419	1443.62
525.634	1424.62
525.849	1443.62
526.064	1417.62
526.28	1441.62
526.495	1429.62
526.71	1441.62
526.925	1410.62
527.14	1409.62
527.355	1415.62
527.57	1420.62
527.785	1383.62
527.999	1420.62
528.214	1441.62
528.429	1414.62
528.644	1403.62
528.859	1411.62
529.074	1404.62
529.289	1384.62
529.503	1419.62
529.718	1398.62
529.933	1376.62
530.148	1403.62
530.363	1400.62
530.577	1378.62
530.792	1387.62
531.007	1368.62
531.221	1414.62
531.436	1399.62
531.651	1407.62
531.865	1409.62
532.08	1392.62
532.295	1415.62
532.509	1360.62
532.724	1402.62
532.938	1382.62
533.153	1385.62
533.367	1366.62
533.582	1359.62
533.796	1381.62
534.011	1376.62
534.225	1357.62
534.44	1354.62
534.654	1316.62
534.868	1364.62
535.083	1382.62
535.297	1347.62
535.511	1336.62
535.726	1340.62
535.94	1327.62
536.154	1317.62
536.369	1301.62
536.583	1292.62
536.797	1337.62
537.011	1331.62
537.225	1301.62
537.44	1291.62
537.654	1274.62
537.868	1255.62
538.082	1267.62
538.296	1271.62
538.51	1275.62
538.724	1293.62
538.938	1271.62
539.153	1257.62
539.367	1296.62
539.581	1266.62
539.795	1243.62
540.009	1237.62
540.222	1236.62
540.436	1258.62
540.65	1270.62
540.864	1250.62
541.078	1256.62
541.292	1247.62
541.506	1262.62
541.72	1250.62
541.934	1238.62
542.147	1238.62
542.361	1226.62
542.575	1241.62
542.789	1226.62
543.002	1191.62
543.216	1251.62
543.43	1219.62
543.644	1251.62
543.857	1259.62
544.071	1231.62
544.285	1248.62
544.498	1261.62
544.712	1210.62
544.925	1229.62
545.139	1265.62
545.352	1254.62
545.566	1224.62
545.779	1231.62
545.993	1249.62
546.206	1234.62
546.42	1238.62
546.633	1245.62
546.847	1252.62
547.06	1221.62
547.274	1271.62
547.487	1276.62
547.7	1234.62
547.914	1275.62
548.127	1249.62
548.34	1249.62
548.554	1254.62
548.767	1213.62
548.98	1256.62
549.193	1239.62
549.407	1208.62
549.62	1284.62
549.833	1298.62
550.046	1251.62
550.259	1239.62
550.473	1242.62
550.686	1205.62
550.899	1254.62
551.112	1222.62
551.325	1216.62
551.538	1246.62
551.751	1215.62
551.964	1229.62
552.177	1298.62
552.39	1259.62
552.603	1267.62
552.816	1289.62
553.029	1275.62
553.242	1294.62
553.455	1286.62
553.667	1302.62
553.88	1293.62
554.093	1248.62
554.306	1215.62
554.519	1216.62
554.732	1211.62
554.944	1184.62
555.157	1162.62
555.37	1147.62
555.583	1180.62
555.795	1157.62
556.008	1125.62
556.221	1131.62
556.433	1085.62
556.646	1098.62
556.859	1088.62
557.071	1060.62
557.284	1084.62
557.496	1101.62
557.709	1080.62
557.921	1075.62
558.134	1070.62
558.346	1059.62
558.559	1045.62
558.771	1041.62
558.984	1065.62
559.196	1035.62
559.409	1057.62
559.621	1053.62
559.833	1012.62
560.046	1059.62
560.258	1002.62
560.47	1006.62
560.683	1000.62
560.895	1027.62
561.107	1031.62
561.32	1002.62
561.532	1040.62
561.744	1013.62
561.956	1043.62
562.168	1053.62
562.381	1057.62
562.593	1044.62
562.805	1021.62
563.017	1006.62
563.229	1021.62
563.441	1045.62
563.653	1060.62
563.865	1049.62
564.077	1077.62
564.289	1075.62
564.501	1108.62
564.713	1131.62
564.925	1139.62
565.137	1128.62
565.349	1157.62
565.561	1177.62
565.773	1179.62
565.985	1269.62
566.197	1308.62
566.408	1373.62
566.62	1386.62
566.832	1419.62
567.044	1415.62
567.255	1499.62
567.467	1490.62
567.679	1521.62
567.891	1557.62
568.102	1534.62
568.314	1498.62
568.526	1421.62
568.737	1377.62
568.949	1268.62
569.161	1205.62
569.372	1150.62
569.584	1128.62
569.795	1133.62
570.007	1098.62
570.218	1047.62
570.43	1081.62
570.641	1073.62
570.853	1014.62
571.064	1006.62
571.276	1004.62
571.487	974.62
571.698	942.62
571.91	948.62
572.121	929.62
572.333	910.62
572.544	921.62
572.755	885.62
572.966	872.62
573.178	875.62
573.389	880.62
573.6	875.62
573.811	845.62
574.023	893.62
574.234	858.62
574.445	854.62
574.656	837.62
574.867	845.62
575.078	835.62
575.289	812.62
575.501	815.62
575.712	832.62
575.923	803.62
576.134	809.62
576.345	805.62
576.556	803.62
576.767	797.62
576.978	773.62
577.188	795.62
577.399	795.62
577.61	761.62
577.821	762.62
578.032	755.62
578.243	751.62
578.454	736.62
578.665	751.62
578.875	756.62
579.086	732.62
579.297	748.62
579.508	753.62
579.718	756.62
579.929	736.62
580.14	734.62
580.35	716.62
580.561	724.62
580.772	713.62
580.982	732.62
581.193	705.62
581.403	716.62
581.614	691.62
581.825	710.62
582.035	693.62
582.246	696.62
582.456	708.62
582.667	723.62
582.877	717.62
583.087	685.62
583.298	680.62
583.508	671.62
583.719	685.62
583.929	691.62
584.139	684.62
584.35	654.62
584.56	683.62
584.77	687.62
584.981	671.62
585.191	671.62
585.401	672.62
585.611	675.62
585.821	673.62
586.032	658.62
586.242	670.62
586.452	659.62
586.662	679.62
586.872	654.62
587.082	671.62
587.292	671.62
587.502	696.62
587.713	656.62
587.923	680.62
588.133	655.62
588.343	669.62
588.553	701.62
588.762	682.62
588.972	684.62
589.182	716.62
589.392	720.62
589.602	697.62
589.812	696.62
590.022	694.62
590.232	665.62
590.441	656.62
590.651	665.62
590.861	667.62
591.071	683.62
591.281	682.62
591.49	692.62
591.7	681.62
591.91	712.62
592.119	689.62
592.329	709.62
592.539	695.62
592.748	726.62
592.958	724.62
593.167	725.62
593.377	730.62
593.587	744.62
593.796	746.62
594.006	748.62
594.215	763.62
594.424	739.62
594.634	724.62
594.843	735.62
595.053	702.62
595.262	691.62
595.472	661.62
595.681	651.62
595.89	684.62
596.1	637.62
596.309	636.62
596.518	633.62
596.727	623.62
596.937	629.62
597.146	593.62
597.355	593.62
597.564	568.62
597.774	591.62
597.983	576.62
598.192	579.62
598.401	589.62
598.61	570.62
598.819	569.62
599.028	559.62
599.237	527.62
599.446	538.62
599.655	564.62
599.864	556.62
600.073	567.62
600.282	567.62
600.491	557.62
600.7	555.62
600.909	534.62
601.118	524.62
601.327	534.62
601.536	525.62
601.745	559.62
601.953	532.62
602.162	527.62
602.371	516.62
602.58	536.62
602.789	515.62
602.997	511.62
603.206	528.62
603.415	509.62
603.623	526.62
603.832	504.62
604.041	523.62
604.249	509.62
604.458	508.62
604.666	500.62
604.875	508.62
605.084	508.62
605.292	516.62
605.501	504.62
605.709	487.62
605.918	492.62
606.126	491.62
606.334	502.62
606.543	503.62
606.751	491.62
606.96	479.62
607.168	490.62
607.376	475.62
607.585	487.62
607.793	499.62
608.001	488.62
608.21	475.62
608.418	486.62
608.626	489.62
608.834	458.62
609.043	489.62
609.251	484.62
609.459	497.62
609.667	474.62
609.875	487.62
610.083	481.62
610.291	472.62
610.499	480.62
610.707	483.62
610.916	445.62
611.124	483.62
611.332	480.62
611.54	454.62
611.748	463.62
611.955	449.62
612.163	468.62
612.371	455.62
612.579	448.62
612.787	455.62
612.995	466.62
613.203	475.62
613.411	459.62
613.618	483.62
613.826	448.62
614.034	444.62
614.242	471.62
614.449	451.62
614.657	461.62
614.865	449.62
615.072	460.62
615.28	471.62
615.488	463.62
615.695	451.62
615.903	437.62
616.111	453.62
616.318	439.62
616.526	441.62
616.733	442.62
616.941	441.62
617.148	456.62
617.356	441.62
617.563	422.62
617.771	449.62
617.978	447.62
618.185	440.62
618.393	436.62
618.6	438.62
618.807	441.62
619.015	444.62
619.222	447.62
619.429	445.62
619.637	421.62
619.844	422.62
620.051	411.62
620.258	414.62
620.466	419.62
620.673	402.62
620.88	417.62
621.087	429.62
621.294	419.62
621.501	417.62
621.708	432.62
621.915	428.62
622.122	408.62
622.329	430.62
622.536	418.62
622.743	400.62
622.95	409.62
623.157	398.62
623.364	414.62
623.571	421.62
623.778	404.62
623.985	413.62
624.192	390.62
624.399	396.62
624.606	407.62
624.812	379.62
625.019	381.62
625.226	407.62
625.433	393.62
625.639	385.62
625.846	402.62
626.053	401.62
626.259	383.62
626.466	394.62
626.673	401.62
626.879	393.62
627.086	382.62
627.293	378.62
627.499	387.62
627.706	376.62
627.912	363.62
628.119	377.62
628.325	379.62
628.532	367.62
628.738	365.62
628.945	383.62
629.151	359.62
629.357	367.62
629.564	371.62
629.77	366.62
629.976	333.62
630.183	362.62
630.389	365.62
630.595	345.62
630.802	370.62
631.008	347.62
631.214	364.62
631.42	347.62
631.627	375.62
631.833	363.62
632.039	351.62
632.245	335.62
632.451	351.62
632.657	339.62
632.863	356.62
633.069	365.62
633.275	341.62
633.481	334.62
633.688	336.62
633.893	334.62
634.099	352.62
634.305	326.62
634.511	325.62
634.717	329.62
634.923	328.62
635.129	318.62
635.335	331.62
635.541	343.62
635.747	319.62
635.952	336.62
636.158	340.62
636.364	339.62
636.57	328.62
636.775	316.62
636.981	317.62
637.187	335.62
637.392	309.62
637.598	324.62
637.804	332.62
638.009	324.62
638.215	318.62
638.421	321.62
638.626	327.62
638.832	327.62
639.037	329.62
639.243	329.62
639.448	319.62
639.654	315.62
639.859	316.62
640.065	313.62
640.27	325.62
640.475	319.62
640.681	327.62
640.886	305.62
641.091	302.62
641.297	315.62
641.502	303.62
641.707	316.62
641.913	316.62
642.118	305.62
642.323	312.62
642.528	307.62
642.733	304.62
642.939	305.62
643.144	304.62
643.349	308.62
643.554	315.62
643.759	295.62
643.964	302.62
644.169	281.62
644.374	308.62
644.579	304.62
644.784	300.62
644.989	300.62
645.194	303.62
645.399	316.62
645.604	286.62
645.809	307.62
646.014	292.62
646.219	320.62
646.423	321.62
646.628	325.62
646.833	316.62
647.038	287.62
647.243	317.62
647.447	324.62
647.652	296.62
647.857	320.62
648.062	328.62
648.266	294.62
648.471	326.62
648.676	343.62
648.88	324.62
649.085	319.62
649.289	297.62
649.494	300.62
649.698	311.62
649.903	281.62
650.107	324.62
650.312	304.62
650.516	299.62
650.721	291.62
650.925	279.62
651.13	286.62
651.334	282.62
651.539	285.62
651.743	292.62
651.947	277.62
652.152	297.62
652.356	289.62
652.56	259.62
652.764	272.62
652.969	274.62
653.173	272.62
653.377	256.62
653.581	247.62
653.785	283.62
653.99	283.62
654.194	263.62
654.398	260.62
654.602	263.62
654.806	249.62
655.01	270.62
655.214	269.62
655.418	258.62
655.622	249.62
655.826	250.62
656.03	265.62
656.234	276.62
656.438	279.62
656.642	272.62
656.846	261.62
657.049	259.62
657.253	241.62
657.457	227.62
657.661	206.62
657.865	195.62
658.068	194.62
658.272	193.62
658.476	186.62
658.68	176.62
658.883	187.62
659.087	161.62
659.291	149.62
659.494	144.62
659.698	137.62
659.901	131.62
660.105	127.62
660.309	122.62
660.512	120.62
660.716	112.62
660.919	118.62
661.123	125.62
661.326	112.62
661.53	108.62
661.733	113.62
661.936	98.62
662.14	95.62
662.343	103.62
662.546	95.62
662.75	79.62
662.953	99.62
663.156	95.62
663.36	99.62
663.563	90.62
663.766	87.62
663.969	84.62
664.173	76.62
664.376	91.62
664.579	98.62
664.782	87.62
664.985	87.62
665.188	84.62
665.391	90.62
665.594	89.62
665.797	87.62
666	84.62
666.203	80.62
666.406	90.62
666.609	90.62
666.812	85.62
667.015	103.62
667.218	79.62
667.421	92.62
667.624	82.62
667.827	72.62
668.03	68.62
668.232	95.62
668.435	75.62
668.638	98.62
668.841	81.62
669.043	81.62
669.246	92.62
669.449	96.62
669.651	85.62
669.854	77.62
670.057	78.62
670.259	85.62
670.462	75.62
670.665	103.62
670.867	86.62
671.07	89.62
671.272	67.62
671.475	89.62
671.677	89.62
671.88	82.62
672.082	80.62
672.284	93.62
672.487	59.62
672.689	83.62
672.892	75.62
