Data from Ni(NO3)2@0.5M.TitratingCurve.Agarose3%dH2O.NegLispCup.LampEnergy10.LIBS07252019_HRD10591_17-58-46-564.txt Node
Date: Thu Jul 25 17:58:46 EDT 2019
User: cochatt
Spectrometer: HR+D1059
Trigger mode: 1
Integration Time (sec): 1.000000E-1
Scans to average: 1
Electric dark correction enabled: true
Nonlinearity correction enabled: false
Boxcar width: 0
XAxis mode: Wavelengths
Number of Pixels in Spectrum: 2048
>>>>>Begin Spectral Data<<<<<
223.165	-21.12
223.4	-21.12
223.635	-21.12
223.869	-21.12
224.104	-17.12
224.338	-14.12
224.573	-26.12
224.808	-7.12
225.042	-10.12
225.277	-0.12
225.511	2.88
225.746	9.88
225.98	3.88
226.215	8.88
226.449	15.88
226.683	17.88
226.918	12.88
227.152	44.88
227.387	30.88
227.621	39.88
227.856	52.88
228.09	44.88
228.324	56.88
228.559	63.88
228.793	91.88
229.027	151.88
229.262	179.88
229.496	171.88
229.73	175.88
229.964	226.88
230.199	267.88
230.433	255.88
230.667	217.88
230.901	221.88
231.136	211.88
231.37	223.88
231.604	222.88
231.838	245.88
232.072	236.88
232.306	221.88
232.541	221.88
232.775	187.88
233.009	199.88
233.243	195.88
233.477	192.88
233.711	192.88
233.945	212.88
234.179	212.88
234.413	205.88
234.647	198.88
234.881	202.88
235.115	211.88
235.349	179.88
235.583	186.88
235.817	168.88
236.051	191.88
236.285	187.88
236.519	195.88
236.753	183.88
236.987	193.88
237.221	204.88
237.455	203.88
237.689	189.88
237.922	226.88
238.156	202.88
238.39	213.88
238.624	206.88
238.858	221.88
239.091	218.88
239.325	234.88
239.559	253.88
239.793	269.88
240.027	272.88
240.26	215.88
240.494	206.88
240.728	218.88
240.961	235.88
241.195	214.88
241.429	226.88
241.662	231.88
241.896	279.88
242.13	288.88
242.363	262.88
242.597	231.88
242.83	232.88
243.064	242.88
243.298	260.88
243.531	247.88
243.765	262.88
243.998	266.88
244.232	293.88
244.465	269.88
244.699	251.88
244.932	263.88
245.166	253.88
245.399	237.88
245.633	254.88
245.866	277.88
246.099	281.88
246.333	268.88
246.566	263.88
246.8	264.88
247.033	270.88
247.266	274.88
247.5	293.88
247.733	300.88
247.966	299.88
248.2	303.88
248.433	297.88
248.666	283.88
248.899	283.88
249.133	295.88
249.366	283.88
249.599	301.88
249.832	310.88
250.066	300.88
250.299	309.88
250.532	312.88
250.765	319.88
250.998	321.88
251.231	364.88
251.465	385.88
251.698	364.88
251.931	348.88
252.164	315.88
252.397	332.88
252.63	329.88
252.863	312.88
253.096	328.88
253.329	333.88
253.562	321.88
253.795	351.88
254.028	333.88
254.261	333.88
254.494	378.88
254.727	357.88
254.96	363.88
255.193	360.88
255.426	353.88
255.659	363.88
255.892	379.88
256.124	379.88
256.357	389.88
256.59	378.88
256.823	356.88
257.056	377.88
257.289	360.88
257.521	384.88
257.754	391.88
257.987	369.88
258.22	375.88
258.452	381.88
258.685	398.88
258.918	395.88
259.151	386.88
259.383	381.88
259.616	382.88
259.849	394.88
260.081	385.88
260.314	380.88
260.547	417.88
260.779	414.88
261.012	416.88
261.244	421.88
261.477	425.88
261.71	427.88
261.942	412.88
262.175	425.88
262.407	437.88
262.64	443.88
262.872	425.88
263.105	432.88
263.337	451.88
263.57	451.88
263.802	445.88
264.035	436.88
264.267	431.88
264.499	446.88
264.732	455.88
264.964	448.88
265.197	459.88
265.429	439.88
265.661	439.88
265.894	443.88
266.126	452.88
266.358	482.88
266.591	460.88
266.823	486.88
267.055	460.88
267.287	454.88
267.52	454.88
267.752	468.88
267.984	477.88
268.216	482.88
268.448	469.88
268.681	486.88
268.913	475.88
269.145	496.88
269.377	472.88
269.609	490.88
269.841	484.88
270.073	479.88
270.306	496.88
270.538	486.88
270.77	483.88
271.002	495.88
271.234	482.88
271.466	529.88
271.698	504.88
271.93	509.88
272.162	511.88
272.394	508.88
272.626	513.88
272.858	527.88
273.09	508.88
273.322	544.88
273.553	524.88
273.785	537.88
274.017	517.88
274.249	541.88
274.481	547.88
274.713	533.88
274.945	558.88
275.176	548.88
275.408	519.88
275.64	536.88
275.872	539.88
276.104	563.88
276.335	563.88
276.567	557.88
276.799	555.88
277.031	576.88
277.262	535.88
277.494	571.88
277.726	571.88
277.957	567.88
278.189	558.88
278.421	569.88
278.652	571.88
278.884	581.88
279.115	576.88
279.347	593.88
279.579	572.88
279.81	593.88
280.042	579.88
280.273	583.88
280.505	593.88
280.736	594.88
280.968	605.88
281.199	586.88
281.431	589.88
281.662	601.88
281.894	576.88
282.125	593.88
282.356	616.88
282.588	576.88
282.819	604.88
283.051	611.88
283.282	603.88
283.513	614.88
283.745	618.88
283.976	613.88
284.207	628.88
284.439	631.88
284.67	643.88
284.901	632.88
285.132	628.88
285.364	616.88
285.595	603.88
285.826	622.88
286.057	635.88
286.288	647.88
286.52	645.88
286.751	655.88
286.982	636.88
287.213	636.88
287.444	631.88
287.675	629.88
287.906	638.88
288.138	658.88
288.369	652.88
288.6	649.88
288.831	654.88
289.062	651.88
289.293	650.88
289.524	670.88
289.755	660.88
289.986	647.88
290.217	663.88
290.448	663.88
290.679	662.88
290.91	679.88
291.141	655.88
291.371	694.88
291.602	656.88
291.833	669.88
292.064	663.88
292.295	657.88
292.526	648.88
292.757	662.88
292.987	679.88
293.218	697.88
293.449	653.88
293.68	671.88
293.91	689.88
294.141	673.88
294.372	656.88
294.603	677.88
294.833	687.88
295.064	677.88
295.295	695.88
295.525	691.88
295.756	687.88
295.987	674.88
296.217	708.88
296.448	688.88
296.679	663.88
296.909	707.88
297.14	679.88
297.37	719.88
297.601	698.88
297.831	697.88
298.062	699.88
298.292	719.88
298.523	740.88
298.753	723.88
298.984	743.88
299.214	741.88
299.445	734.88
299.675	744.88
299.905	750.88
300.136	741.88
300.366	819.88
300.597	813.88
300.827	779.88
301.057	766.88
301.288	766.88
301.518	782.88
301.748	742.88
301.979	752.88
302.209	769.88
302.439	766.88
302.669	776.88
302.9	741.88
303.13	760.88
303.36	772.88
303.59	788.88
303.82	792.88
304.051	808.88
304.281	781.88
304.511	799.88
304.741	791.88
304.971	779.88
305.201	821.88
305.431	846.88
305.661	808.88
305.891	805.88
306.121	809.88
306.352	805.88
306.582	784.88
306.812	776.88
307.042	776.88
307.272	793.88
307.502	775.88
307.731	779.88
307.961	784.88
308.191	786.88
308.421	798.88
308.651	796.88
308.881	774.88
309.111	763.88
309.341	765.88
309.571	800.88
309.8	810.88
310.03	833.88
310.26	865.88
310.49	894.88
310.72	839.88
310.949	784.88
311.179	821.88
311.409	823.88
311.639	800.88
311.868	828.88
312.098	820.88
312.328	838.88
312.557	857.88
312.787	822.88
313.017	860.88
313.246	879.88
313.476	872.88
313.706	892.88
313.935	840.88
314.165	839.88
314.394	840.88
314.624	833.88
314.853	845.88
315.083	849.88
315.312	868.88
315.542	838.88
315.771	853.88
316.001	865.88
316.23	868.88
316.46	859.88
316.689	867.88
316.919	872.88
317.148	864.88
317.377	889.88
317.607	871.88
317.836	862.88
318.065	884.88
318.295	894.88
318.524	855.88
318.753	889.88
318.983	881.88
319.212	895.88
319.441	899.88
319.67	887.88
319.9	886.88
320.129	912.88
320.358	896.88
320.587	891.88
320.816	908.88
321.046	916.88
321.275	926.88
321.504	898.88
321.733	904.88
321.962	915.88
322.191	904.88
322.42	923.88
322.649	916.88
322.878	924.88
323.108	909.88
323.337	929.88
323.566	962.88
323.795	951.88
324.024	937.88
324.253	908.88
324.482	944.88
324.71	943.88
324.939	932.88
325.168	936.88
325.397	929.88
325.626	944.88
325.855	955.88
326.084	966.88
326.313	945.88
326.542	958.88
326.77	973.88
326.999	991.88
327.228	1004.88
327.457	974.88
327.686	969.88
327.914	983.88
328.143	985.88
328.372	983.88
328.6	959.88
328.829	960.88
329.058	977.88
329.287	997.88
329.515	984.88
329.744	964.88
329.972	989.88
330.201	1004.88
330.43	999.88
330.658	1030.88
330.887	1005.88
331.115	1015.88
331.344	1051.88
331.572	1053.88
331.801	1081.88
332.03	1096.88
332.258	1062.88
332.486	1067.88
332.715	1100.88
332.943	1097.88
333.172	1078.88
333.4	1104.88
333.629	1118.88
333.857	1076.88
334.085	1130.88
334.314	1126.88
334.542	1145.88
334.771	1156.88
334.999	1131.88
335.227	1151.88
335.455	1128.88
335.684	1146.88
335.912	1162.88
336.14	1153.88
336.369	1127.88
336.597	1165.88
336.825	1158.88
337.053	1164.88
337.281	1182.88
337.51	1150.88
337.738	1142.88
337.966	1158.88
338.194	1187.88
338.422	1160.88
338.65	1113.88
338.878	1106.88
339.106	1137.88
339.334	1131.88
339.562	1149.88
339.79	1085.88
340.018	1076.88
340.246	1058.88
340.474	1077.88
340.702	1081.88
340.93	1104.88
341.158	1095.88
341.386	1159.88
341.614	1201.88
341.842	1163.88
342.07	1102.88
342.298	1111.88
342.526	1117.88
342.754	1115.88
342.981	1086.88
343.209	1093.88
343.437	1155.88
343.665	1163.88
343.893	1147.88
344.12	1171.88
344.348	1161.88
344.576	1193.88
344.804	1186.88
345.031	1139.88
345.259	1151.88
345.487	1131.88
345.714	1148.88
345.942	1145.88
346.17	1215.88
346.397	1163.88
346.625	1088.88
346.853	1051.88
347.08	1044.88
347.308	1067.88
347.535	1093.88
347.763	1057.88
347.99	1029.88
348.218	1048.88
348.445	1059.88
348.673	1043.88
348.9	1047.88
349.128	1046.88
349.355	1108.88
349.583	1108.88
349.81	1049.88
350.037	1027.88
350.265	1042.88
350.492	1055.88
350.72	1038.88
350.947	1072.88
351.174	1092.88
351.402	1145.88
351.629	1151.88
351.856	1120.88
352.083	1055.88
352.311	1107.88
352.538	1153.88
352.765	1145.88
352.992	1030.88
353.22	1007.88
353.447	991.88
353.674	1002.88
353.901	1007.88
354.128	1007.88
354.355	990.88
354.583	1032.88
354.81	989.88
355.037	1007.88
355.264	1030.88
355.491	1014.88
355.718	1007.88
355.945	1033.88
356.172	998.88
356.399	1037.88
356.626	1070.88
356.853	1105.88
357.08	1032.88
357.307	1040.88
357.534	1063.88
357.761	1020.88
357.988	1007.88
358.215	1025.88
358.441	993.88
358.668	996.88
358.895	1012.88
359.122	991.88
359.349	1005.88
359.576	1017.88
359.802	1033.88
360.029	1047.88
360.256	1029.88
360.483	1046.88
360.709	1033.88
360.936	1027.88
361.163	1040.88
361.39	1057.88
361.616	1061.88
361.843	1109.88
362.07	1131.88
362.296	1110.88
362.523	1030.88
362.749	1036.88
362.976	1033.88
363.203	1027.88
363.429	1006.88
363.656	1031.88
363.882	1022.88
364.109	1014.88
364.335	1016.88
364.562	1018.88
364.788	1009.88
365.015	1031.88
365.241	1051.88
365.468	1040.88
365.694	1040.88
365.92	1048.88
366.147	1025.88
366.373	1016.88
366.599	1014.88
366.826	1028.88
367.052	1037.88
367.278	1036.88
367.505	1033.88
367.731	1053.88
367.957	1066.88
368.184	1051.88
368.41	1035.88
368.636	1056.88
368.862	1044.88
369.089	1061.88
369.315	1036.88
369.541	1059.88
369.767	1053.88
369.993	1028.88
370.219	1059.88
370.445	1029.88
370.672	1067.88
370.898	1075.88
371.124	1075.88
371.35	1102.88
371.576	1091.88
371.802	1089.88
372.028	1095.88
372.254	1080.88
372.48	1106.88
372.706	1120.88
372.932	1092.88
373.158	1099.88
373.384	1083.88
373.61	1115.88
373.835	1112.88
374.061	1089.88
374.287	1120.88
374.513	1100.88
374.739	1128.88
374.965	1124.88
375.191	1118.88
375.416	1123.88
375.642	1091.88
375.868	1140.88
376.094	1117.88
376.319	1088.88
376.545	1088.88
376.771	1067.88
376.997	1087.88
377.222	1106.88
377.448	1077.88
377.674	1088.88
377.899	1079.88
378.125	1072.88
378.35	1085.88
378.576	1104.88
378.802	1075.88
379.027	1085.88
379.253	1083.88
379.478	1068.88
379.704	1103.88
379.929	1091.88
380.155	1105.88
380.38	1056.88
380.606	1080.88
380.831	1091.88
381.057	1104.88
381.282	1088.88
381.507	1091.88
381.733	1097.88
381.958	1117.88
382.184	1115.88
382.409	1096.88
382.634	1111.88
382.86	1105.88
383.085	1099.88
383.31	1100.88
383.535	1148.88
383.761	1136.88
383.986	1151.88
384.211	1139.88
384.436	1121.88
384.662	1160.88
384.887	1165.88
385.112	1166.88
385.337	1206.88
385.562	1199.88
385.787	1191.88
386.013	1248.88
386.238	1199.88
386.463	1207.88
386.688	1222.88
386.913	1218.88
387.138	1206.88
387.363	1234.88
387.588	1205.88
387.813	1227.88
388.038	1229.88
388.263	1232.88
388.488	1234.88
388.713	1241.88
388.938	1224.88
389.163	1207.88
389.387	1248.88
389.612	1248.88
389.837	1211.88
390.062	1224.88
390.287	1254.88
390.512	1217.88
390.736	1231.88
390.961	1256.88
391.186	1241.88
391.411	1243.88
391.636	1305.88
391.86	1292.88
392.085	1311.88
392.31	1288.88
392.534	1272.88
392.759	1263.88
392.984	1308.88
393.208	1269.88
393.433	1345.88
393.658	1288.88
393.882	1282.88
394.107	1273.88
394.331	1290.88
394.556	1291.88
394.78	1307.88
395.005	1272.88
395.229	1304.88
395.454	1328.88
395.678	1332.88
395.903	1331.88
396.127	1310.88
396.352	1299.88
396.576	1298.88
396.801	1305.88
397.025	1333.88
397.249	1305.88
397.474	1384.88
397.698	1340.88
397.922	1349.88
398.147	1413.88
398.371	1383.88
398.595	1403.88
398.82	1431.88
399.044	1476.88
399.268	1526.88
399.492	1606.88
399.717	1617.88
399.941	1685.88
400.165	1662.88
400.389	1639.88
400.613	1584.88
400.837	1495.88
401.062	1487.88
401.286	1508.88
401.51	1485.88
401.734	1440.88
401.958	1481.88
402.182	1413.88
402.406	1467.88
402.63	1435.88
402.854	1449.88
403.078	1444.88
403.302	1467.88
403.526	1449.88
403.75	1470.88
403.974	1453.88
404.198	1447.88
404.422	1453.88
404.645	1452.88
404.869	1493.88
405.093	1505.88
405.317	1494.88
405.541	1495.88
405.765	1470.88
405.988	1478.88
406.212	1485.88
406.436	1537.88
406.66	1577.88
406.883	1566.88
407.107	1606.88
407.331	1596.88
407.555	1647.88
407.778	1669.88
408.002	1640.88
408.226	1660.88
408.449	1622.88
408.673	1597.88
408.896	1566.88
409.12	1537.88
409.344	1610.88
409.567	1552.88
409.791	1508.88
410.014	1524.88
410.238	1514.88
410.461	1505.88
410.685	1555.88
410.908	1493.88
411.132	1490.88
411.355	1488.88
411.578	1535.88
411.802	1471.88
412.025	1463.88
412.249	1481.88
412.472	1517.88
412.695	1471.88
412.919	1490.88
413.142	1478.88
413.365	1473.88
413.589	1472.88
413.812	1468.88
414.035	1442.88
414.258	1481.88
414.482	1432.88
414.705	1481.88
414.928	1452.88
415.151	1447.88
415.374	1437.88
415.597	1446.88
415.821	1380.88
416.044	1436.88
416.267	1441.88
416.49	1439.88
416.713	1389.88
416.936	1424.88
417.159	1407.88
417.382	1391.88
417.605	1344.88
417.828	1390.88
418.051	1414.88
418.274	1392.88
418.497	1354.88
418.72	1378.88
418.943	1392.88
419.166	1456.88
419.389	1496.88
419.611	1479.88
419.834	1466.88
420.057	1449.88
420.28	1427.88
420.503	1356.88
420.726	1373.88
420.948	1351.88
421.171	1360.88
421.394	1376.88
421.617	1399.88
421.839	1403.88
422.062	1398.88
422.285	1336.88
422.507	1411.88
422.73	1365.88
422.953	1388.88
423.175	1408.88
423.398	1363.88
423.621	1371.88
423.843	1407.88
424.066	1387.88
424.288	1406.88
424.511	1314.88
424.733	1363.88
424.956	1359.88
425.178	1392.88
425.401	1362.88
425.623	1399.88
425.846	1381.88
426.068	1387.88
426.291	1366.88
426.513	1360.88
426.735	1341.88
426.958	1340.88
427.18	1351.88
427.402	1331.88
427.625	1334.88
427.847	1326.88
428.069	1327.88
428.292	1343.88
428.514	1315.88
428.736	1309.88
428.958	1331.88
429.181	1306.88
429.403	1325.88
429.625	1336.88
429.847	1316.88
430.069	1351.88
430.292	1341.88
430.514	1288.88
430.736	1352.88
430.958	1315.88
431.18	1328.88
431.402	1368.88
431.624	1301.88
431.846	1333.88
432.068	1350.88
432.29	1327.88
432.512	1348.88
432.734	1345.88
432.956	1348.88
433.178	1379.88
433.4	1378.88
433.622	1423.88
433.844	1417.88
434.066	1448.88
434.287	1388.88
434.509	1376.88
434.731	1412.88
434.953	1432.88
435.175	1448.88
435.397	1495.88
435.618	1395.88
435.84	1384.88
436.062	1363.88
436.284	1375.88
436.505	1353.88
436.727	1340.88
436.949	1361.88
437.17	1368.88
437.392	1354.88
437.614	1319.88
437.835	1295.88
438.057	1302.88
438.278	1269.88
438.5	1277.88
438.721	1307.88
438.943	1359.88
439.165	1288.88
439.386	1312.88
439.608	1321.88
439.829	1300.88
440.05	1320.88
440.272	1335.88
440.493	1351.88
440.715	1354.88
440.936	1384.88
441.158	1387.88
441.379	1378.88
441.6	1433.88
441.822	1424.88
442.043	1405.88
442.264	1403.88
442.486	1385.88
442.707	1363.88
442.928	1415.88
443.149	1389.88
443.371	1448.88
443.592	1528.88
443.813	1452.88
444.034	1426.88
444.255	1467.88
444.476	1444.88
444.698	1484.88
444.919	1508.88
445.14	1592.88
445.361	1539.88
445.582	1472.88
445.803	1435.88
446.024	1364.88
446.245	1354.88
446.466	1359.88
446.687	1312.88
446.908	1341.88
447.129	1276.88
447.35	1320.88
447.571	1251.88
447.792	1238.88
448.013	1253.88
448.234	1257.88
448.455	1233.88
448.675	1250.88
448.896	1214.88
449.117	1230.88
449.338	1245.88
449.559	1216.88
449.779	1193.88
450	1242.88
450.221	1193.88
450.442	1193.88
450.662	1263.88
450.883	1223.88
451.104	1271.88
451.324	1248.88
451.545	1192.88
451.766	1203.88
451.986	1205.88
452.207	1163.88
452.428	1174.88
452.648	1199.88
452.869	1201.88
453.089	1215.88
453.31	1229.88
453.53	1195.88
453.751	1179.88
453.971	1174.88
454.192	1238.88
454.412	1219.88
454.633	1174.88
454.853	1167.88
455.073	1192.88
455.294	1185.88
455.514	1194.88
455.734	1217.88
455.955	1247.88
456.175	1227.88
456.395	1191.88
456.616	1143.88
456.836	1164.88
457.056	1199.88
457.276	1129.88
457.497	1225.88
457.717	1233.88
457.937	1246.88
458.157	1212.88
458.377	1190.88
458.598	1234.88
458.818	1250.88
459.038	1248.88
459.258	1292.88
459.478	1439.88
459.698	1519.88
459.918	1531.88
460.138	1451.88
460.358	1424.88
460.578	1498.88
460.798	1508.88
461.018	1540.88
461.238	1442.88
461.458	1451.88
461.678	1432.88
461.898	1461.88
462.118	1438.88
462.338	1508.88
462.558	1565.88
462.777	1599.88
462.997	1635.88
463.217	1621.88
463.437	1744.88
463.657	1729.88
463.876	1616.88
464.096	1559.88
464.316	1569.88
464.536	1576.88
464.755	1500.88
464.975	1443.88
465.195	1452.88
465.414	1439.88
465.634	1385.88
465.854	1352.88
466.073	1316.88
466.293	1319.88
466.512	1287.88
466.732	1302.88
466.951	1315.88
467.171	1303.88
467.391	1307.88
467.61	1318.88
467.829	1296.88
468.049	1297.88
468.268	1255.88
468.488	1255.88
468.707	1293.88
468.927	1309.88
469.146	1266.88
469.365	1304.88
469.585	1300.88
469.804	1300.88
470.023	1292.88
470.243	1267.88
470.462	1270.88
470.681	1276.88
470.901	1297.88
471.12	1301.88
471.339	1249.88
471.558	1264.88
471.777	1308.88
471.997	1259.88
472.216	1244.88
472.435	1248.88
472.654	1289.88
472.873	1279.88
473.092	1243.88
473.311	1271.88
473.53	1285.88
473.749	1300.88
473.968	1272.88
474.187	1255.88
474.406	1258.88
474.625	1289.88
474.844	1298.88
475.063	1317.88
475.282	1335.88
475.501	1323.88
475.72	1303.88
475.939	1299.88
476.158	1306.88
476.377	1339.88
476.596	1359.88
476.814	1351.88
477.033	1334.88
477.252	1384.88
477.471	1368.88
477.69	1421.88
477.908	1449.88
478.127	1412.88
478.346	1423.88
478.564	1461.88
478.783	1485.88
479.002	1574.88
479.22	1641.88
479.439	1557.88
479.658	1536.88
479.876	1511.88
480.095	1535.88
480.313	1531.88
480.532	1567.88
480.751	1563.88
480.969	1523.88
481.188	1502.88
481.406	1479.88
481.624	1483.88
481.843	1473.88
482.061	1483.88
482.28	1492.88
482.498	1522.88
482.717	1547.88
482.935	1537.88
483.153	1546.88
483.372	1579.88
483.59	1647.88
483.808	1535.88
484.027	1551.88
484.245	1541.88
484.463	1533.88
484.681	1544.88
484.9	1543.88
485.118	1523.88
485.336	1563.88
485.554	1532.88
485.772	1566.88
485.99	1582.88
486.209	1536.88
486.427	1528.88
486.645	1550.88
486.863	1549.88
487.081	1527.88
487.299	1529.88
487.517	1572.88
487.735	1606.88
487.953	1641.88
488.171	1590.88
488.389	1578.88
488.607	1559.88
488.825	1580.88
489.043	1565.88
489.261	1563.88
489.479	1587.88
489.696	1531.88
489.914	1540.88
490.132	1566.88
490.35	1579.88
490.568	1548.88
490.786	1587.88
491.003	1573.88
491.221	1579.88
491.439	1605.88
491.657	1580.88
491.874	1560.88
492.092	1617.88
492.31	1647.88
492.527	1598.88
492.745	1620.88
492.963	1613.88
493.18	1607.88
493.398	1597.88
493.615	1623.88
493.833	1638.88
494.05	1625.88
494.268	1606.88
494.485	1610.88
494.703	1621.88
494.92	1614.88
495.138	1657.88
495.355	1653.88
495.573	1640.88
495.79	1642.88
496.008	1687.88
496.225	1687.88
496.442	1711.88
496.66	1724.88
496.877	1717.88
497.094	1732.88
497.312	1765.88
497.529	1753.88
497.746	1798.88
497.963	1835.88
498.181	1871.88
498.398	1927.88
498.615	1948.88
498.832	2018.88
499.049	2086.88
499.267	2138.88
499.484	2244.88
499.701	2365.88
499.918	2519.88
500.135	2596.88
500.352	2658.88
500.569	2723.88
500.786	2723.88
501.003	2644.88
501.22	2577.88
501.437	2452.88
501.654	2345.88
501.871	2252.88
502.088	2217.88
502.305	2133.88
502.522	2076.88
502.739	2004.88
502.956	1909.88
503.172	1884.88
503.389	1811.88
503.606	1807.88
503.823	1774.88
504.04	1757.88
504.256	1745.88
504.473	1748.88
504.69	1682.88
504.907	1674.88
505.123	1616.88
505.34	1615.88
505.557	1587.88
505.773	1556.88
505.99	1541.88
506.207	1483.88
506.423	1493.88
506.64	1500.88
506.856	1446.88
507.073	1453.88
507.289	1440.88
507.506	1460.88
507.722	1421.88
507.939	1398.88
508.155	1411.88
508.372	1404.88
508.588	1360.88
508.805	1374.88
509.021	1372.88
509.238	1365.88
509.454	1323.88
509.67	1333.88
509.887	1330.88
510.103	1320.88
510.319	1320.88
510.536	1304.88
510.752	1297.88
510.968	1334.88
511.184	1282.88
511.401	1300.88
511.617	1296.88
511.833	1299.88
512.049	1319.88
512.265	1291.88
512.481	1246.88
512.698	1285.88
512.914	1308.88
513.13	1297.88
513.346	1308.88
513.562	1318.88
513.778	1315.88
513.994	1279.88
514.21	1292.88
514.426	1341.88
514.642	1355.88
514.858	1343.88
515.074	1315.88
515.29	1335.88
515.506	1335.88
515.721	1389.88
515.937	1323.88
516.153	1351.88
516.369	1347.88
516.585	1378.88
516.801	1373.88
517.016	1393.88
517.232	1409.88
517.448	1435.88
517.664	1472.88
517.879	1422.88
518.095	1470.88
518.311	1416.88
518.527	1388.88
518.742	1397.88
518.958	1363.88
519.173	1352.88
519.389	1334.88
519.605	1307.88
519.82	1303.88
520.036	1318.88
520.251	1279.88
520.467	1242.88
520.682	1242.88
520.898	1217.88
521.113	1250.88
521.329	1253.88
521.544	1239.88
521.76	1239.88
521.975	1252.88
522.19	1217.88
522.406	1212.88
522.621	1229.88
522.836	1181.88
523.052	1185.88
523.267	1166.88
523.482	1184.88
523.698	1184.88
523.913	1200.88
524.128	1145.88
524.343	1146.88
524.559	1154.88
524.774	1160.88
524.989	1163.88
525.204	1200.88
525.419	1131.88
525.634	1157.88
525.849	1160.88
526.064	1157.88
526.28	1136.88
526.495	1114.88
526.71	1123.88
526.925	1143.88
527.14	1159.88
527.355	1141.88
527.57	1120.88
527.785	1132.88
527.999	1154.88
528.214	1135.88
528.429	1125.88
528.644	1146.88
528.859	1093.88
529.074	1112.88
529.289	1110.88
529.503	1119.88
529.718	1123.88
529.933	1131.88
530.148	1063.88
530.363	1105.88
530.577	1103.88
530.792	1127.88
531.007	1068.88
531.221	1091.88
531.436	1103.88
531.651	1084.88
531.865	1111.88
532.08	1089.88
532.295	1090.88
532.509	1070.88
532.724	1078.88
532.938	1076.88
533.153	1097.88
533.367	1110.88
533.582	1116.88
533.796	1099.88
534.011	1110.88
534.225	1087.88
534.44	1077.88
534.654	1076.88
534.868	1085.88
535.083	1087.88
535.297	1058.88
535.511	1055.88
535.726	1032.88
535.94	1059.88
536.154	1047.88
536.369	1059.88
536.583	1004.88
536.797	1026.88
537.011	1028.88
537.225	1017.88
537.44	1017.88
537.654	1017.88
537.868	1017.88
538.082	987.88
538.296	1015.88
538.51	995.88
538.724	1035.88
538.938	1009.88
539.153	1019.88
539.367	1028.88
539.581	994.88
539.795	1000.88
540.009	987.88
540.222	1006.88
540.436	979.88
540.65	1008.88
540.864	1005.88
541.078	1004.88
541.292	991.88
541.506	1012.88
541.72	1003.88
541.934	973.88
542.147	1008.88
542.361	996.88
542.575	977.88
542.789	977.88
543.002	985.88
543.216	969.88
543.43	988.88
543.644	979.88
543.857	1000.88
544.071	995.88
544.285	1011.88
544.498	1004.88
544.712	1001.88
544.925	1033.88
545.139	988.88
545.352	983.88
545.566	984.88
545.779	1001.88
545.993	998.88
546.206	994.88
546.42	995.88
546.633	983.88
546.847	995.88
547.06	983.88
547.274	992.88
547.487	990.88
547.7	969.88
547.914	1027.88
548.127	982.88
548.34	979.88
548.554	971.88
548.767	967.88
548.98	997.88
549.193	990.88
549.407	987.88
549.62	982.88
549.833	981.88
550.046	996.88
550.259	995.88
550.473	966.88
550.686	969.88
550.899	977.88
551.112	953.88
551.325	970.88
551.538	961.88
551.751	947.88
551.964	958.88
552.177	971.88
552.39	965.88
552.603	972.88
552.816	973.88
553.029	995.88
553.242	982.88
553.455	977.88
553.667	993.88
553.88	977.88
554.093	950.88
554.306	935.88
554.519	963.88
554.732	937.88
554.944	935.88
555.157	928.88
555.37	929.88
555.583	912.88
555.795	905.88
556.008	901.88
556.221	875.88
556.433	855.88
556.646	868.88
556.859	857.88
557.071	896.88
557.284	865.88
557.496	865.88
557.709	865.88
557.921	842.88
558.134	833.88
558.346	842.88
558.559	837.88
558.771	844.88
558.984	859.88
559.196	802.88
559.409	806.88
559.621	861.88
559.833	838.88
560.046	830.88
560.258	828.88
560.47	837.88
560.683	814.88
560.895	830.88
561.107	814.88
561.32	806.88
561.532	804.88
561.744	831.88
561.956	815.88
562.168	801.88
562.381	814.88
562.593	822.88
562.805	845.88
563.017	835.88
563.229	812.88
563.441	846.88
563.653	825.88
563.865	845.88
564.077	838.88
564.289	854.88
564.501	868.88
564.713	853.88
564.925	873.88
565.137	882.88
565.349	897.88
565.561	903.88
565.773	908.88
565.985	945.88
566.197	964.88
566.408	929.88
566.62	1008.88
566.832	1008.88
567.044	1021.88
567.255	1023.88
567.467	1024.88
567.679	1026.88
567.891	1076.88
568.102	1028.88
568.314	1009.88
568.526	1007.88
568.737	944.88
568.949	913.88
569.161	881.88
569.372	862.88
569.584	857.88
569.795	846.88
570.007	838.88
570.218	796.88
570.43	814.88
570.641	776.88
570.853	807.88
571.064	789.88
571.276	758.88
571.487	759.88
571.698	740.88
571.91	751.88
572.121	725.88
572.333	740.88
572.544	710.88
572.755	712.88
572.966	702.88
573.178	682.88
573.389	665.88
573.6	687.88
573.811	683.88
574.023	663.88
574.234	633.88
574.445	670.88
574.656	648.88
574.867	647.88
575.078	644.88
575.289	647.88
575.501	663.88
575.712	639.88
575.923	628.88
576.134	618.88
576.345	651.88
576.556	632.88
576.767	633.88
576.978	639.88
577.188	631.88
577.399	614.88
577.61	622.88
577.821	611.88
578.032	596.88
578.243	601.88
578.454	607.88
578.665	620.88
578.875	592.88
579.086	584.88
579.297	582.88
579.508	573.88
579.718	601.88
579.929	587.88
580.14	571.88
580.35	573.88
580.561	574.88
580.772	583.88
580.982	579.88
581.193	576.88
581.403	554.88
581.614	585.88
581.825	559.88
582.035	569.88
582.246	554.88
582.456	565.88
582.667	565.88
582.877	557.88
583.087	559.88
583.298	537.88
583.508	548.88
583.719	556.88
583.929	545.88
584.139	555.88
584.35	568.88
584.56	543.88
584.77	569.88
584.981	544.88
585.191	536.88
585.401	548.88
585.611	543.88
585.821	541.88
586.032	575.88
586.242	537.88
586.452	523.88
586.662	527.88
586.872	551.88
587.082	537.88
587.292	558.88
587.502	541.88
587.713	539.88
587.923	538.88
588.133	523.88
588.343	524.88
588.553	529.88
588.762	538.88
588.972	541.88
589.182	613.88
589.392	585.88
589.602	549.88
589.812	589.88
590.022	560.88
590.232	539.88
590.441	527.88
590.651	545.88
590.861	509.88
591.071	536.88
591.281	536.88
591.49	549.88
591.7	541.88
591.91	551.88
592.119	546.88
592.329	558.88
592.539	543.88
592.748	532.88
592.958	549.88
593.167	542.88
593.377	537.88
593.587	568.88
593.796	573.88
594.006	554.88
594.215	571.88
594.424	577.88
594.634	527.88
594.843	528.88
595.053	541.88
595.262	505.88
595.472	515.88
595.681	512.88
595.89	470.88
596.1	506.88
596.309	499.88
596.518	495.88
596.727	488.88
596.937	481.88
597.146	481.88
597.355	485.88
597.564	463.88
597.774	461.88
597.983	487.88
598.192	465.88
598.401	450.88
598.61	436.88
598.819	458.88
599.028	462.88
599.237	448.88
599.446	441.88
599.655	441.88
599.864	449.88
600.073	448.88
600.282	437.88
600.491	426.88
600.7	441.88
600.909	432.88
601.118	447.88
601.327	454.88
601.536	435.88
601.745	437.88
601.953	439.88
602.162	431.88
602.371	431.88
602.58	433.88
602.789	437.88
602.997	415.88
603.206	432.88
603.415	421.88
603.623	410.88
603.832	417.88
604.041	426.88
604.249	396.88
604.458	404.88
604.666	406.88
604.875	401.88
605.084	401.88
605.292	417.88
605.501	396.88
605.709	417.88
605.918	406.88
606.126	404.88
606.334	414.88
606.543	412.88
606.751	406.88
606.96	404.88
607.168	391.88
607.376	407.88
607.585	401.88
607.793	393.88
608.001	414.88
608.21	408.88
608.418	394.88
608.626	401.88
608.834	398.88
609.043	407.88
609.251	389.88
609.459	390.88
609.667	376.88
609.875	400.88
610.083	395.88
610.291	408.88
610.499	401.88
610.707	393.88
610.916	388.88
611.124	379.88
611.332	382.88
611.54	390.88
611.748	386.88
611.955	369.88
612.163	379.88
612.371	381.88
612.579	379.88
612.787	389.88
612.995	378.88
613.203	393.88
613.411	375.88
613.618	364.88
613.826	381.88
614.034	373.88
614.242	369.88
614.449	366.88
614.657	385.88
614.865	367.88
615.072	375.88
615.28	371.88
615.488	380.88
615.695	351.88
615.903	360.88
616.111	359.88
616.318	395.88
616.526	381.88
616.733	373.88
616.941	368.88
617.148	361.88
617.356	369.88
617.563	367.88
617.771	376.88
617.978	352.88
618.185	363.88
618.393	357.88
618.6	359.88
618.807	368.88
619.015	371.88
619.222	368.88
619.429	355.88
619.637	350.88
619.844	359.88
620.051	364.88
620.258	332.88
620.466	372.88
620.673	347.88
620.88	337.88
621.087	329.88
621.294	342.88
621.501	360.88
621.708	332.88
621.915	355.88
622.122	331.88
622.329	346.88
622.536	351.88
622.743	349.88
622.95	340.88
623.157	328.88
623.364	338.88
623.571	337.88
623.778	341.88
623.985	333.88
624.192	329.88
624.399	333.88
624.606	339.88
624.812	324.88
625.019	349.88
625.226	331.88
625.433	330.88
625.639	327.88
625.846	328.88
626.053	333.88
626.259	348.88
626.466	335.88
626.673	317.88
626.879	321.88
627.086	325.88
627.293	331.88
627.499	317.88
627.706	325.88
627.912	300.88
628.119	321.88
628.325	328.88
628.532	320.88
628.738	308.88
628.945	298.88
629.151	311.88
629.357	312.88
629.564	301.88
629.77	315.88
629.976	316.88
630.183	318.88
630.389	311.88
630.595	312.88
630.802	313.88
631.008	283.88
631.214	309.88
631.42	318.88
631.627	302.88
631.833	307.88
632.039	316.88
632.245	309.88
632.451	291.88
632.657	294.88
632.863	283.88
633.069	267.88
633.275	305.88
633.481	299.88
633.688	279.88
633.893	273.88
634.099	286.88
634.305	283.88
634.511	286.88
634.717	291.88
634.923	309.88
635.129	287.88
635.335	280.88
635.541	288.88
635.747	291.88
635.952	292.88
636.158	279.88
636.364	279.88
636.57	271.88
636.775	276.88
636.981	289.88
637.187	289.88
637.392	293.88
637.598	287.88
637.804	286.88
638.009	285.88
638.215	300.88
638.421	260.88
638.626	281.88
638.832	272.88
639.037	284.88
639.243	277.88
639.448	278.88
639.654	270.88
639.859	274.88
640.065	280.88
640.27	273.88
640.475	292.88
640.681	286.88
640.886	291.88
641.091	276.88
641.297	273.88
641.502	271.88
641.707	258.88
641.913	248.88
642.118	281.88
642.323	271.88
642.528	271.88
642.733	283.88
642.939	277.88
643.144	272.88
643.349	270.88
643.554	286.88
643.759	277.88
643.964	263.88
644.169	263.88
644.374	281.88
644.579	271.88
644.784	279.88
644.989	251.88
645.194	276.88
645.399	277.88
645.604	282.88
645.809	263.88
646.014	259.88
646.219	272.88
646.423	273.88
646.628	257.88
646.833	286.88
647.038	273.88
647.243	267.88
647.447	269.88
647.652	294.88
647.857	280.88
648.062	277.88
648.266	285.88
648.471	278.88
648.676	283.88
648.88	283.88
649.085	281.88
649.289	272.88
649.494	275.88
649.698	284.88
649.903	279.88
650.107	271.88
650.312	289.88
650.516	270.88
650.721	259.88
650.925	249.88
651.13	271.88
651.334	268.88
651.539	278.88
651.743	287.88
651.947	273.88
652.152	257.88
652.356	277.88
652.56	256.88
652.764	247.88
652.969	269.88
653.173	257.88
653.377	257.88
653.581	262.88
653.785	270.88
653.99	254.88
654.194	252.88
654.398	264.88
654.602	242.88
654.806	224.88
655.01	254.88
655.214	238.88
655.418	263.88
655.622	265.88
655.826	254.88
656.03	272.88
656.234	287.88
656.438	293.88
656.642	290.88
656.846	283.88
657.049	257.88
657.253	267.88
657.457	233.88
657.661	227.88
657.865	210.88
658.068	209.88
658.272	216.88
658.476	186.88
658.68	171.88
658.883	189.88
659.087	153.88
659.291	155.88
659.494	147.88
659.698	148.88
659.901	136.88
660.105	134.88
660.309	129.88
660.512	118.88
660.716	110.88
660.919	112.88
661.123	113.88
661.326	101.88
661.53	117.88
661.733	124.88
661.936	123.88
662.14	116.88
662.343	84.88
662.546	106.88
662.75	107.88
662.953	103.88
663.156	96.88
663.36	84.88
663.563	87.88
663.766	89.88
663.969	89.88
664.173	94.88
664.376	99.88
664.579	84.88
664.782	86.88
664.985	96.88
665.188	83.88
665.391	90.88
665.594	86.88
665.797	77.88
666	88.88
666.203	98.88
666.406	91.88
666.609	92.88
666.812	81.88
667.015	90.88
667.218	83.88
667.421	85.88
667.624	76.88
667.827	81.88
668.03	79.88
668.232	81.88
668.435	77.88
668.638	89.88
668.841	78.88
669.043	83.88
669.246	83.88
669.449	70.88
669.651	73.88
669.854	84.88
670.057	77.88
670.259	94.88
670.462	93.88
670.665	73.88
670.867	92.88
671.07	89.88
671.272	96.88
671.475	85.88
671.677	97.88
671.88	71.88
672.082	73.88
672.284	94.88
672.487	68.88
672.689	78.88
672.892	72.88
