Data from Ni(NO3)2@0.25M.TitratingCurve.Agarose3%dH2O.NegLispCup.LampEnergy10.LIBS07252019_HRD10591_18-05-00-566.txt Node
Date: Thu Jul 25 18:05:00 EDT 2019
User: cochatt
Spectrometer: HR+D1059
Trigger mode: 1
Integration Time (sec): 1.000000E-1
Scans to average: 1
Electric dark correction enabled: true
Nonlinearity correction enabled: false
Boxcar width: 0
XAxis mode: Wavelengths
Number of Pixels in Spectrum: 2048
>>>>>Begin Spectral Data<<<<<
223.165	-18.25
223.4	-18.25
223.635	-18.25
223.869	-22.25
224.104	-23.25
224.338	-4.25
224.573	-14.25
224.808	-16.25
225.042	-9.25
225.277	-4.25
225.511	6.75
225.746	3.75
225.98	21.75
226.215	-3.25
226.449	6.75
226.683	16.75
226.918	37.75
227.152	21.75
227.387	27.75
227.621	29.75
227.856	49.75
228.09	43.75
228.324	36.75
228.559	65.75
228.793	55.75
229.027	86.75
229.262	94.75
229.496	78.75
229.73	98.75
229.964	105.75
230.199	121.75
230.433	106.75
230.667	107.75
230.901	104.75
231.136	111.75
231.37	117.75
231.604	120.75
231.838	115.75
232.072	122.75
232.306	109.75
232.541	122.75
232.775	108.75
233.009	113.75
233.243	107.75
233.477	109.75
233.711	101.75
233.945	117.75
234.179	114.75
234.413	127.75
234.647	119.75
234.881	119.75
235.115	115.75
235.349	104.75
235.583	121.75
235.817	108.75
236.051	117.75
236.285	128.75
236.519	117.75
236.753	112.75
236.987	118.75
237.221	116.75
237.455	111.75
237.689	101.75
237.922	120.75
238.156	117.75
238.39	118.75
238.624	108.75
238.858	109.75
239.091	124.75
239.325	127.75
239.559	117.75
239.793	125.75
240.027	117.75
240.26	105.75
240.494	124.75
240.728	130.75
240.961	123.75
241.195	142.75
241.429	123.75
241.662	128.75
241.896	127.75
242.13	134.75
242.363	133.75
242.597	139.75
242.83	130.75
243.064	133.75
243.298	133.75
243.531	136.75
243.765	145.75
243.998	135.75
244.232	153.75
244.465	122.75
244.699	125.75
244.932	141.75
245.166	152.75
245.399	140.75
245.633	157.75
245.866	130.75
246.099	143.75
246.333	149.75
246.566	153.75
246.8	137.75
247.033	146.75
247.266	142.75
247.5	150.75
247.733	155.75
247.966	149.75
248.2	154.75
248.433	151.75
248.666	165.75
248.899	155.75
249.133	167.75
249.366	161.75
249.599	167.75
249.832	175.75
250.066	171.75
250.299	170.75
250.532	171.75
250.765	177.75
250.998	191.75
251.231	207.75
251.465	180.75
251.698	202.75
251.931	189.75
252.164	208.75
252.397	194.75
252.63	203.75
252.863	188.75
253.096	212.75
253.329	214.75
253.562	210.75
253.795	207.75
254.028	212.75
254.261	224.75
254.494	208.75
254.727	212.75
254.96	230.75
255.193	223.75
255.426	218.75
255.659	204.75
255.892	228.75
256.124	229.75
256.357	211.75
256.59	232.75
256.823	222.75
257.056	253.75
257.289	241.75
257.521	230.75
257.754	235.75
257.987	266.75
258.22	248.75
258.452	245.75
258.685	255.75
258.918	235.75
259.151	251.75
259.383	264.75
259.616	251.75
259.849	239.75
260.081	255.75
260.314	255.75
260.547	263.75
260.779	269.75
261.012	265.75
261.244	256.75
261.477	250.75
261.71	269.75
261.942	250.75
262.175	274.75
262.407	283.75
262.64	273.75
262.872	276.75
263.105	287.75
263.337	292.75
263.57	283.75
263.802	285.75
264.035	283.75
264.267	281.75
264.499	287.75
264.732	281.75
264.964	303.75
265.197	305.75
265.429	299.75
265.661	303.75
265.894	286.75
266.126	288.75
266.358	298.75
266.591	275.75
266.823	303.75
267.055	297.75
267.287	297.75
267.52	295.75
267.752	292.75
267.984	315.75
268.216	283.75
268.448	310.75
268.681	319.75
268.913	282.75
269.145	315.75
269.377	313.75
269.609	313.75
269.841	304.75
270.073	322.75
270.306	325.75
270.538	307.75
270.77	304.75
271.002	310.75
271.234	312.75
271.466	310.75
271.698	305.75
271.93	309.75
272.162	324.75
272.394	317.75
272.626	327.75
272.858	321.75
273.09	320.75
273.322	330.75
273.553	308.75
273.785	316.75
274.017	316.75
274.249	321.75
274.481	316.75
274.713	334.75
274.945	323.75
275.176	348.75
275.408	312.75
275.64	318.75
275.872	341.75
276.104	338.75
276.335	332.75
276.567	327.75
276.799	309.75
277.031	309.75
277.262	328.75
277.494	321.75
277.726	329.75
277.957	350.75
278.189	353.75
278.421	333.75
278.652	321.75
278.884	343.75
279.115	319.75
279.347	356.75
279.579	332.75
279.81	340.75
280.042	330.75
280.273	342.75
280.505	342.75
280.736	355.75
280.968	351.75
281.199	338.75
281.431	360.75
281.662	346.75
281.894	352.75
282.125	353.75
282.356	338.75
282.588	361.75
282.819	355.75
283.051	348.75
283.282	356.75
283.513	364.75
283.745	355.75
283.976	355.75
284.207	350.75
284.439	346.75
284.67	363.75
284.901	375.75
285.132	350.75
285.364	345.75
285.595	367.75
285.826	351.75
286.057	345.75
286.288	368.75
286.52	376.75
286.751	355.75
286.982	356.75
287.213	359.75
287.444	351.75
287.675	363.75
287.906	368.75
288.138	362.75
288.369	352.75
288.6	351.75
288.831	359.75
289.062	383.75
289.293	367.75
289.524	362.75
289.755	372.75
289.986	357.75
290.217	352.75
290.448	364.75
290.679	368.75
290.91	380.75
291.141	386.75
291.371	363.75
291.602	361.75
291.833	372.75
292.064	357.75
292.295	363.75
292.526	341.75
292.757	371.75
292.987	372.75
293.218	362.75
293.449	372.75
293.68	351.75
293.91	379.75
294.141	377.75
294.372	355.75
294.603	363.75
294.833	369.75
295.064	361.75
295.295	353.75
295.525	362.75
295.756	374.75
295.987	364.75
296.217	383.75
296.448	372.75
296.679	389.75
296.909	378.75
297.14	375.75
297.37	375.75
297.601	377.75
297.831	376.75
298.062	372.75
298.292	376.75
298.523	383.75
298.753	385.75
298.984	388.75
299.214	373.75
299.445	378.75
299.675	396.75
299.905	397.75
300.136	395.75
300.366	396.75
300.597	427.75
300.827	407.75
301.057	386.75
301.288	410.75
301.518	423.75
301.748	406.75
301.979	392.75
302.209	419.75
302.439	401.75
302.669	413.75
302.9	424.75
303.13	404.75
303.36	400.75
303.59	407.75
303.82	443.75
304.051	436.75
304.281	415.75
304.511	425.75
304.741	413.75
304.971	431.75
305.201	428.75
305.431	444.75
305.661	422.75
305.891	443.75
306.121	421.75
306.352	418.75
306.582	405.75
306.812	388.75
307.042	431.75
307.272	423.75
307.502	417.75
307.731	405.75
307.961	428.75
308.191	423.75
308.421	416.75
308.651	413.75
308.881	425.75
309.111	434.75
309.341	405.75
309.571	412.75
309.8	423.75
310.03	428.75
310.26	438.75
310.49	437.75
310.72	427.75
310.949	434.75
311.179	460.75
311.409	449.75
311.639	433.75
311.868	437.75
312.098	443.75
312.328	436.75
312.557	455.75
312.787	452.75
313.017	471.75
313.246	483.75
313.476	485.75
313.706	466.75
313.935	457.75
314.165	466.75
314.394	460.75
314.624	467.75
314.853	465.75
315.083	466.75
315.312	496.75
315.542	484.75
315.771	493.75
316.001	494.75
316.23	501.75
316.46	490.75
316.689	495.75
316.919	492.75
317.148	486.75
317.377	507.75
317.607	509.75
317.836	511.75
318.065	502.75
318.295	508.75
318.524	503.75
318.753	501.75
318.983	507.75
319.212	511.75
319.441	525.75
319.67	531.75
319.9	524.75
320.129	503.75
320.358	535.75
320.587	524.75
320.816	544.75
321.046	529.75
321.275	555.75
321.504	534.75
321.733	563.75
321.962	541.75
322.191	553.75
322.42	539.75
322.649	554.75
322.878	541.75
323.108	563.75
323.337	573.75
323.566	576.75
323.795	576.75
324.024	589.75
324.253	574.75
324.482	580.75
324.71	583.75
324.939	587.75
325.168	603.75
325.397	582.75
325.626	591.75
325.855	616.75
326.084	599.75
326.313	616.75
326.542	626.75
326.77	609.75
326.999	625.75
327.228	614.75
327.457	616.75
327.686	619.75
327.914	630.75
328.143	643.75
328.372	603.75
328.6	623.75
328.829	637.75
329.058	645.75
329.287	662.75
329.515	668.75
329.744	687.75
329.972	659.75
330.201	661.75
330.43	675.75
330.658	668.75
330.887	676.75
331.115	671.75
331.344	699.75
331.572	683.75
331.801	710.75
332.03	728.75
332.258	716.75
332.486	716.75
332.715	731.75
332.943	768.75
333.172	773.75
333.4	749.75
333.629	777.75
333.857	794.75
334.085	769.75
334.314	817.75
334.542	795.75
334.771	808.75
334.999	813.75
335.227	821.75
335.455	813.75
335.684	792.75
335.912	839.75
336.14	808.75
336.369	832.75
336.597	817.75
336.825	830.75
337.053	837.75
337.281	843.75
337.51	806.75
337.738	807.75
337.966	806.75
338.194	824.75
338.422	790.75
338.65	757.75
338.878	746.75
339.106	769.75
339.334	757.75
339.562	744.75
339.79	755.75
340.018	737.75
340.246	715.75
340.474	754.75
340.702	757.75
340.93	747.75
341.158	728.75
341.386	741.75
341.614	795.75
341.842	757.75
342.07	744.75
342.298	763.75
342.526	751.75
342.754	740.75
342.981	737.75
343.209	742.75
343.437	787.75
343.665	799.75
343.893	821.75
344.12	810.75
344.348	820.75
344.576	833.75
344.804	816.75
345.031	793.75
345.259	784.75
345.487	784.75
345.714	796.75
345.942	796.75
346.17	762.75
346.397	757.75
346.625	741.75
346.853	727.75
347.08	718.75
347.308	725.75
347.535	732.75
347.763	729.75
347.99	707.75
348.218	708.75
348.445	741.75
348.673	717.75
348.9	706.75
349.128	745.75
349.355	691.75
349.583	745.75
349.81	691.75
350.037	706.75
350.265	733.75
350.492	700.75
350.72	720.75
350.947	699.75
351.174	731.75
351.402	720.75
351.629	744.75
351.856	728.75
352.083	712.75
352.311	739.75
352.538	730.75
352.765	765.75
352.992	697.75
353.22	688.75
353.447	684.75
353.674	670.75
353.901	677.75
354.128	695.75
354.355	685.75
354.583	681.75
354.81	681.75
355.037	697.75
355.264	707.75
355.491	677.75
355.718	690.75
355.945	706.75
356.172	690.75
356.399	699.75
356.626	727.75
356.853	729.75
357.08	701.75
357.307	643.75
357.534	671.75
357.761	699.75
357.988	688.75
358.215	681.75
358.441	691.75
358.668	672.75
358.895	673.75
359.122	669.75
359.349	688.75
359.576	671.75
359.802	693.75
360.029	680.75
360.256	698.75
360.483	697.75
360.709	689.75
360.936	706.75
361.163	671.75
361.39	686.75
361.616	689.75
361.843	683.75
362.07	742.75
362.296	744.75
362.523	714.75
362.749	699.75
362.976	678.75
363.203	693.75
363.429	703.75
363.656	701.75
363.882	669.75
364.109	675.75
364.335	680.75
364.562	689.75
364.788	667.75
365.015	695.75
365.241	671.75
365.468	676.75
365.694	684.75
365.92	658.75
366.147	677.75
366.373	674.75
366.599	685.75
366.826	692.75
367.052	683.75
367.278	681.75
367.505	666.75
367.731	665.75
367.957	689.75
368.184	676.75
368.41	679.75
368.636	695.75
368.862	684.75
369.089	685.75
369.315	720.75
369.541	703.75
369.767	712.75
369.993	698.75
370.219	702.75
370.445	696.75
370.672	707.75
370.898	695.75
371.124	713.75
371.35	741.75
371.576	719.75
371.802	704.75
372.028	710.75
372.254	704.75
372.48	729.75
372.706	701.75
372.932	726.75
373.158	723.75
373.384	733.75
373.61	716.75
373.835	707.75
374.061	717.75
374.287	723.75
374.513	731.75
374.739	749.75
374.965	740.75
375.191	752.75
375.416	773.75
375.642	718.75
375.868	697.75
376.094	709.75
376.319	694.75
376.545	715.75
376.771	724.75
376.997	704.75
377.222	707.75
377.448	683.75
377.674	708.75
377.899	681.75
378.125	659.75
378.35	711.75
378.576	714.75
378.802	669.75
379.027	693.75
379.253	701.75
379.478	681.75
379.704	660.75
379.929	667.75
380.155	680.75
380.38	694.75
380.606	695.75
380.831	709.75
381.057	711.75
381.282	693.75
381.507	662.75
381.733	693.75
381.958	716.75
382.184	683.75
382.409	726.75
382.634	709.75
382.86	699.75
383.085	715.75
383.31	708.75
383.535	695.75
383.761	731.75
383.986	732.75
384.211	724.75
384.436	735.75
384.662	711.75
384.887	738.75
385.112	729.75
385.337	779.75
385.562	767.75
385.787	757.75
386.013	771.75
386.238	789.75
386.463	793.75
386.688	785.75
386.913	769.75
387.138	790.75
387.363	780.75
387.588	757.75
387.813	797.75
388.038	776.75
388.263	783.75
388.488	781.75
388.713	769.75
388.938	789.75
389.163	788.75
389.387	799.75
389.612	791.75
389.837	788.75
390.062	789.75
390.287	806.75
390.512	819.75
390.736	783.75
390.961	803.75
391.186	832.75
391.411	807.75
391.636	795.75
391.86	824.75
392.085	824.75
392.31	842.75
392.534	837.75
392.759	877.75
392.984	837.75
393.208	829.75
393.433	861.75
393.658	844.75
393.882	815.75
394.107	816.75
394.331	824.75
394.556	842.75
394.78	822.75
395.005	851.75
395.229	839.75
395.454	845.75
395.678	857.75
395.903	869.75
396.127	884.75
396.352	867.75
396.576	859.75
396.801	850.75
397.025	864.75
397.249	895.75
397.474	899.75
397.698	916.75
397.922	908.75
398.147	913.75
398.371	897.75
398.595	957.75
398.82	948.75
399.044	998.75
399.268	1064.75
399.492	1093.75
399.717	1155.75
399.941	1143.75
400.165	1135.75
400.389	1095.75
400.613	1077.75
400.837	1048.75
401.062	1045.75
401.286	1011.75
401.51	1011.75
401.734	962.75
401.958	995.75
402.182	987.75
402.406	975.75
402.63	956.75
402.854	970.75
403.078	996.75
403.302	989.75
403.526	975.75
403.75	1000.75
403.974	1021.75
404.198	981.75
404.422	1025.75
404.645	983.75
404.869	994.75
405.093	1011.75
405.317	1017.75
405.541	1031.75
405.765	1012.75
405.988	1040.75
406.212	1028.75
406.436	1027.75
406.66	1061.75
406.883	1100.75
407.107	1106.75
407.331	1148.75
407.555	1130.75
407.778	1126.75
408.002	1150.75
408.226	1091.75
408.449	1142.75
408.673	1091.75
408.896	1096.75
409.12	1096.75
409.344	1095.75
409.567	1051.75
409.791	1071.75
410.014	1082.75
410.238	1076.75
410.461	1090.75
410.685	1060.75
410.908	1038.75
411.132	1047.75
411.355	1036.75
411.578	1028.75
411.802	1040.75
412.025	1043.75
412.249	1034.75
412.472	1054.75
412.695	1041.75
412.919	999.75
413.142	1019.75
413.365	1031.75
413.589	1042.75
413.812	1018.75
414.035	990.75
414.258	1004.75
414.482	994.75
414.705	1017.75
414.928	1025.75
415.151	1021.75
415.374	1049.75
415.597	996.75
415.821	986.75
416.044	949.75
416.267	989.75
416.49	971.75
416.713	975.75
416.936	1021.75
417.159	981.75
417.382	984.75
417.605	984.75
417.828	995.75
418.051	988.75
418.274	985.75
418.497	960.75
418.72	978.75
418.943	1012.75
419.166	1024.75
419.389	1120.75
419.611	1137.75
419.834	1049.75
420.057	1035.75
420.28	1001.75
420.503	1001.75
420.726	976.75
420.948	1002.75
421.171	976.75
421.394	993.75
421.617	972.75
421.839	996.75
422.062	1001.75
422.285	988.75
422.507	1019.75
422.73	1004.75
422.953	1001.75
423.175	1005.75
423.398	1010.75
423.621	998.75
423.843	1021.75
424.066	1022.75
424.288	998.75
424.511	1014.75
424.733	1010.75
424.956	1013.75
425.178	978.75
425.401	987.75
425.623	1021.75
425.846	991.75
426.068	988.75
426.291	1008.75
426.513	985.75
426.735	1010.75
426.958	998.75
427.18	981.75
427.402	1018.75
427.625	987.75
427.847	992.75
428.069	956.75
428.292	991.75
428.514	973.75
428.736	973.75
428.958	1004.75
429.181	973.75
429.403	949.75
429.625	972.75
429.847	980.75
430.069	957.75
430.292	971.75
430.514	988.75
430.736	965.75
430.958	945.75
431.18	977.75
431.402	988.75
431.624	963.75
431.846	963.75
432.068	981.75
432.29	990.75
432.512	959.75
432.734	1011.75
432.956	974.75
433.178	1020.75
433.4	991.75
433.622	1014.75
433.844	994.75
434.066	1011.75
434.287	974.75
434.509	1005.75
434.731	1011.75
434.953	1032.75
435.175	1045.75
435.397	1061.75
435.618	1025.75
435.84	1004.75
436.062	971.75
436.284	991.75
436.505	983.75
436.727	989.75
436.949	1009.75
437.17	968.75
437.392	972.75
437.614	958.75
437.835	961.75
438.057	979.75
438.278	968.75
438.5	945.75
438.721	960.75
438.943	945.75
439.165	960.75
439.386	966.75
439.608	988.75
439.829	939.75
440.05	967.75
440.272	989.75
440.493	993.75
440.715	998.75
440.936	1002.75
441.158	1019.75
441.379	1011.75
441.6	1052.75
441.822	1043.75
442.043	1068.75
442.264	1048.75
442.486	1016.75
442.707	1030.75
442.928	1051.75
443.149	1030.75
443.371	1059.75
443.592	1057.75
443.813	1059.75
444.034	1074.75
444.255	1065.75
444.476	1069.75
444.698	1109.75
444.919	1118.75
445.14	1259.75
445.361	1120.75
445.582	1113.75
445.803	1064.75
446.024	1060.75
446.245	1047.75
446.466	1031.75
446.687	1001.75
446.908	1026.75
447.129	968.75
447.35	960.75
447.571	969.75
447.792	962.75
448.013	939.75
448.234	937.75
448.455	927.75
448.675	934.75
448.896	935.75
449.117	893.75
449.338	904.75
449.559	927.75
449.779	922.75
450	915.75
450.221	917.75
450.442	891.75
450.662	908.75
450.883	928.75
451.104	908.75
451.324	923.75
451.545	880.75
451.766	888.75
451.986	877.75
452.207	900.75
452.428	895.75
452.648	893.75
452.869	872.75
453.089	850.75
453.31	895.75
453.53	883.75
453.751	858.75
453.971	873.75
454.192	869.75
454.412	842.75
454.633	895.75
454.853	889.75
455.073	855.75
455.294	885.75
455.514	893.75
455.734	886.75
455.955	873.75
456.175	863.75
456.395	899.75
456.616	852.75
456.836	865.75
457.056	867.75
457.276	856.75
457.497	896.75
457.717	883.75
457.937	883.75
458.157	919.75
458.377	909.75
458.598	937.75
458.818	927.75
459.038	953.75
459.258	951.75
459.478	979.75
459.698	973.75
459.918	1025.75
460.138	1051.75
460.358	1059.75
460.578	1094.75
460.798	1099.75
461.018	1116.75
461.238	1119.75
461.458	1109.75
461.678	1117.75
461.898	1166.75
462.118	1103.75
462.338	1171.75
462.558	1194.75
462.777	1210.75
462.997	1221.75
463.217	1283.75
463.437	1283.75
463.657	1292.75
463.876	1234.75
464.096	1239.75
464.316	1217.75
464.536	1197.75
464.755	1183.75
464.975	1155.75
465.195	1137.75
465.414	1073.75
465.634	1017.75
465.854	1043.75
466.073	1050.75
466.293	989.75
466.512	978.75
466.732	990.75
466.951	979.75
467.171	987.75
467.391	957.75
467.61	954.75
467.829	944.75
468.049	973.75
468.268	961.75
468.488	934.75
468.707	930.75
468.927	966.75
469.146	961.75
469.365	969.75
469.585	956.75
469.804	963.75
470.023	955.75
470.243	962.75
470.462	974.75
470.681	958.75
470.901	953.75
471.12	957.75
471.339	957.75
471.558	979.75
471.777	935.75
471.997	987.75
472.216	961.75
472.435	924.75
472.654	917.75
472.873	927.75
473.092	958.75
473.311	937.75
473.53	943.75
473.749	939.75
473.968	940.75
474.187	947.75
474.406	951.75
474.625	949.75
474.844	950.75
475.063	962.75
475.282	978.75
475.501	945.75
475.72	1012.75
475.939	990.75
476.158	977.75
476.377	1012.75
476.596	978.75
476.814	986.75
477.033	984.75
477.252	996.75
477.471	1052.75
477.69	1049.75
477.908	1051.75
478.127	1092.75
478.346	1120.75
478.564	1121.75
478.783	1121.75
479.002	1133.75
479.22	1128.75
479.439	1156.75
479.658	1134.75
479.876	1114.75
480.095	1112.75
480.313	1163.75
480.532	1155.75
480.751	1158.75
480.969	1119.75
481.188	1157.75
481.406	1100.75
481.624	1113.75
481.843	1100.75
482.061	1110.75
482.28	1097.75
482.498	1078.75
482.717	1104.75
482.935	1096.75
483.153	1115.75
483.372	1132.75
483.59	1112.75
483.808	1124.75
484.027	1108.75
484.245	1121.75
484.463	1114.75
484.681	1143.75
484.9	1139.75
485.118	1130.75
485.336	1153.75
485.554	1151.75
485.772	1148.75
485.99	1137.75
486.209	1152.75
486.427	1144.75
486.645	1153.75
486.863	1177.75
487.081	1153.75
487.299	1162.75
487.517	1119.75
487.735	1141.75
487.953	1169.75
488.171	1160.75
488.389	1164.75
488.607	1139.75
488.825	1161.75
489.043	1143.75
489.261	1167.75
489.479	1143.75
489.696	1142.75
489.914	1162.75
490.132	1149.75
490.35	1204.75
490.568	1175.75
490.786	1192.75
491.003	1213.75
491.221	1203.75
491.439	1163.75
491.657	1165.75
491.874	1194.75
492.092	1221.75
492.31	1238.75
492.527	1239.75
492.745	1249.75
492.963	1203.75
493.18	1221.75
493.398	1225.75
493.615	1241.75
493.833	1211.75
494.05	1222.75
494.268	1249.75
494.485	1238.75
494.703	1228.75
494.92	1258.75
495.138	1260.75
495.355	1280.75
495.573	1274.75
495.79	1282.75
496.008	1294.75
496.225	1303.75
496.442	1289.75
496.66	1311.75
496.877	1347.75
497.094	1365.75
497.312	1385.75
497.529	1434.75
497.746	1444.75
497.963	1469.75
498.181	1541.75
498.398	1559.75
498.615	1635.75
498.832	1673.75
499.049	1731.75
499.267	1821.75
499.484	1864.75
499.701	1990.75
499.918	2101.75
500.135	2169.75
500.352	2256.75
500.569	2284.75
500.786	2329.75
501.003	2262.75
501.22	2207.75
501.437	2075.75
501.654	1943.75
501.871	1887.75
502.088	1831.75
502.305	1756.75
502.522	1718.75
502.739	1676.75
502.956	1611.75
503.172	1515.75
503.389	1489.75
503.606	1447.75
503.823	1463.75
504.04	1393.75
504.256	1402.75
504.473	1393.75
504.69	1378.75
504.907	1369.75
505.123	1301.75
505.34	1302.75
505.557	1236.75
505.773	1233.75
505.99	1197.75
506.207	1200.75
506.423	1155.75
506.64	1191.75
506.856	1172.75
507.073	1103.75
507.289	1121.75
507.506	1124.75
507.722	1119.75
507.939	1093.75
508.155	1098.75
508.372	1108.75
508.588	1079.75
508.805	1030.75
509.021	1044.75
509.238	1038.75
509.454	1040.75
509.67	1054.75
509.887	1063.75
510.103	1030.75
510.319	1031.75
510.536	1028.75
510.752	1005.75
510.968	1008.75
511.184	1015.75
511.401	994.75
511.617	962.75
511.833	1019.75
512.049	985.75
512.265	1002.75
512.481	1014.75
512.698	1007.75
512.914	1009.75
513.13	1006.75
513.346	976.75
513.562	1021.75
513.778	1017.75
513.994	1030.75
514.21	1011.75
514.426	1008.75
514.642	1022.75
514.858	1033.75
515.074	1029.75
515.29	1064.75
515.506	1073.75
515.721	1065.75
515.937	1075.75
516.153	1085.75
516.369	1080.75
516.585	1079.75
516.801	1125.75
517.016	1128.75
517.232	1154.75
517.448	1173.75
517.664	1176.75
517.879	1141.75
518.095	1149.75
518.311	1173.75
518.527	1146.75
518.742	1144.75
518.958	1099.75
519.173	1108.75
519.389	1083.75
519.605	1066.75
519.82	1055.75
520.036	1039.75
520.251	1003.75
520.467	1013.75
520.682	1051.75
520.898	975.75
521.113	999.75
521.329	980.75
521.544	953.75
521.76	963.75
521.975	990.75
522.19	954.75
522.406	943.75
522.621	987.75
522.836	951.75
523.052	931.75
523.267	956.75
523.482	959.75
523.698	919.75
523.913	940.75
524.128	949.75
524.343	943.75
524.559	933.75
524.774	901.75
524.989	909.75
525.204	929.75
525.419	919.75
525.634	901.75
525.849	892.75
526.064	917.75
526.28	929.75
526.495	898.75
526.71	922.75
526.925	887.75
527.14	859.75
527.355	891.75
527.57	884.75
527.785	892.75
527.999	913.75
528.214	899.75
528.429	896.75
528.644	895.75
528.859	892.75
529.074	880.75
529.289	905.75
529.503	929.75
529.718	900.75
529.933	899.75
530.148	891.75
530.363	895.75
530.577	899.75
530.792	876.75
531.007	903.75
531.221	885.75
531.436	895.75
531.651	918.75
531.865	888.75
532.08	857.75
532.295	882.75
532.509	873.75
532.724	865.75
532.938	869.75
533.153	877.75
533.367	877.75
533.582	884.75
533.796	899.75
534.011	875.75
534.225	867.75
534.44	859.75
534.654	857.75
534.868	866.75
535.083	865.75
535.297	855.75
535.511	839.75
535.726	852.75
535.94	829.75
536.154	840.75
536.369	821.75
536.583	853.75
536.797	834.75
537.011	827.75
537.225	837.75
537.44	835.75
537.654	818.75
537.868	815.75
538.082	799.75
538.296	809.75
538.51	843.75
538.724	803.75
538.938	809.75
539.153	821.75
539.367	827.75
539.581	820.75
539.795	816.75
540.009	809.75
540.222	817.75
540.436	807.75
540.65	815.75
540.864	807.75
541.078	801.75
541.292	804.75
541.506	815.75
541.72	806.75
541.934	833.75
542.147	849.75
542.361	805.75
542.575	822.75
542.789	826.75
543.002	809.75
543.216	778.75
543.43	772.75
543.644	821.75
543.857	806.75
544.071	817.75
544.285	801.75
544.498	807.75
544.712	795.75
544.925	818.75
545.139	818.75
545.352	811.75
545.566	795.75
545.779	835.75
545.993	829.75
546.206	797.75
546.42	805.75
546.633	819.75
546.847	817.75
547.06	825.75
547.274	849.75
547.487	824.75
547.7	823.75
547.914	827.75
548.127	839.75
548.34	825.75
548.554	789.75
548.767	803.75
548.98	805.75
549.193	793.75
549.407	810.75
549.62	811.75
549.833	815.75
550.046	803.75
550.259	818.75
550.473	812.75
550.686	804.75
550.899	824.75
551.112	795.75
551.325	795.75
551.538	794.75
551.751	796.75
551.964	800.75
552.177	813.75
552.39	801.75
552.603	837.75
552.816	844.75
553.029	821.75
553.242	822.75
553.455	815.75
553.667	825.75
553.88	825.75
554.093	827.75
554.306	791.75
554.519	788.75
554.732	781.75
554.944	762.75
555.157	779.75
555.37	768.75
555.583	762.75
555.795	751.75
556.008	747.75
556.221	731.75
556.433	719.75
556.646	720.75
556.859	749.75
557.071	726.75
557.284	725.75
557.496	723.75
557.709	708.75
557.921	712.75
558.134	709.75
558.346	697.75
558.559	707.75
558.771	684.75
558.984	684.75
559.196	712.75
559.409	697.75
559.621	688.75
559.833	667.75
560.046	681.75
560.258	671.75
560.47	687.75
560.683	667.75
560.895	652.75
561.107	680.75
561.32	692.75
561.532	683.75
561.744	684.75
561.956	691.75
562.168	685.75
562.381	679.75
562.593	693.75
562.805	667.75
563.017	711.75
563.229	696.75
563.441	694.75
563.653	701.75
563.865	713.75
564.077	700.75
564.289	693.75
564.501	693.75
564.713	736.75
564.925	742.75
565.137	740.75
565.349	756.75
565.561	754.75
565.773	767.75
565.985	765.75
566.197	788.75
566.408	844.75
566.62	853.75
566.832	885.75
567.044	885.75
567.255	884.75
567.467	894.75
567.679	900.75
567.891	919.75
568.102	874.75
568.314	881.75
568.526	856.75
568.737	836.75
568.949	799.75
569.161	747.75
569.372	773.75
569.584	752.75
569.795	693.75
570.007	699.75
570.218	688.75
570.43	700.75
570.641	674.75
570.853	685.75
571.064	656.75
571.276	659.75
571.487	619.75
571.698	634.75
571.91	628.75
572.121	630.75
572.333	609.75
572.544	593.75
572.755	569.75
572.966	600.75
573.178	575.75
573.389	564.75
573.6	544.75
573.811	589.75
574.023	549.75
574.234	552.75
574.445	545.75
574.656	542.75
574.867	561.75
575.078	540.75
575.289	564.75
575.501	548.75
575.712	538.75
575.923	518.75
576.134	539.75
576.345	539.75
576.556	538.75
576.767	532.75
576.978	507.75
577.188	519.75
577.399	519.75
577.61	506.75
577.821	496.75
578.032	510.75
578.243	508.75
578.454	496.75
578.665	508.75
578.875	481.75
579.086	529.75
579.297	504.75
579.508	509.75
579.718	496.75
579.929	502.75
580.14	483.75
580.35	484.75
580.561	478.75
580.772	467.75
580.982	495.75
581.193	472.75
581.403	451.75
581.614	470.75
581.825	482.75
582.035	477.75
582.246	446.75
582.456	476.75
582.667	484.75
582.877	470.75
583.087	474.75
583.298	466.75
583.508	458.75
583.719	474.75
583.929	478.75
584.139	467.75
584.35	449.75
584.56	456.75
584.77	477.75
584.981	443.75
585.191	461.75
585.401	458.75
585.611	448.75
585.821	448.75
586.032	440.75
586.242	456.75
586.452	449.75
586.662	440.75
586.872	434.75
587.082	440.75
587.292	445.75
587.502	428.75
587.713	464.75
587.923	448.75
588.133	426.75
588.343	439.75
588.553	445.75
588.762	449.75
588.972	435.75
589.182	476.75
589.392	465.75
589.602	447.75
589.812	459.75
590.022	465.75
590.232	433.75
590.441	445.75
590.651	444.75
590.861	452.75
591.071	454.75
591.281	461.75
591.49	451.75
591.7	450.75
591.91	478.75
592.119	473.75
592.329	450.75
592.539	460.75
592.748	469.75
592.958	467.75
593.167	446.75
593.377	453.75
593.587	464.75
593.796	476.75
594.006	476.75
594.215	482.75
594.424	456.75
594.634	463.75
594.843	472.75
595.053	445.75
595.262	465.75
595.472	436.75
595.681	427.75
595.89	423.75
596.1	431.75
596.309	413.75
596.518	395.75
596.727	419.75
596.937	407.75
597.146	411.75
597.355	399.75
597.564	410.75
597.774	394.75
597.983	389.75
598.192	396.75
598.401	380.75
598.61	389.75
598.819	379.75
599.028	387.75
599.237	408.75
599.446	388.75
599.655	379.75
599.864	378.75
600.073	377.75
600.282	374.75
600.491	371.75
600.7	374.75
600.909	350.75
601.118	358.75
601.327	385.75
601.536	372.75
601.745	378.75
601.953	355.75
602.162	357.75
602.371	377.75
602.58	357.75
602.789	363.75
602.997	350.75
603.206	344.75
603.415	356.75
603.623	337.75
603.832	363.75
604.041	353.75
604.249	352.75
604.458	360.75
604.666	327.75
604.875	332.75
605.084	344.75
605.292	345.75
605.501	332.75
605.709	341.75
605.918	360.75
606.126	355.75
606.334	333.75
606.543	325.75
606.751	338.75
606.96	333.75
607.168	329.75
607.376	324.75
607.585	320.75
607.793	340.75
608.001	352.75
608.21	337.75
608.418	344.75
608.626	343.75
608.834	323.75
609.043	315.75
609.251	334.75
609.459	339.75
609.667	335.75
609.875	340.75
610.083	352.75
610.291	343.75
610.499	317.75
610.707	327.75
610.916	334.75
611.124	321.75
611.332	309.75
611.54	327.75
611.748	309.75
611.955	312.75
612.163	313.75
612.371	328.75
612.579	322.75
612.787	303.75
612.995	330.75
613.203	320.75
613.411	320.75
613.618	332.75
613.826	319.75
614.034	311.75
614.242	301.75
614.449	294.75
614.657	321.75
614.865	304.75
615.072	327.75
615.28	300.75
615.488	313.75
615.695	294.75
615.903	311.75
616.111	315.75
616.318	320.75
616.526	315.75
616.733	321.75
616.941	319.75
617.148	314.75
617.356	301.75
617.563	312.75
617.771	331.75
617.978	315.75
618.185	301.75
618.393	310.75
618.6	294.75
618.807	303.75
619.015	309.75
619.222	307.75
619.429	283.75
619.637	307.75
619.844	311.75
620.051	288.75
620.258	280.75
620.466	283.75
620.673	307.75
620.88	276.75
621.087	303.75
621.294	281.75
621.501	305.75
621.708	272.75
621.915	316.75
622.122	279.75
622.329	293.75
622.536	280.75
622.743	298.75
622.95	295.75
623.157	283.75
623.364	284.75
623.571	296.75
623.778	297.75
623.985	278.75
624.192	296.75
624.399	272.75
624.606	275.75
624.812	288.75
625.019	291.75
625.226	259.75
625.433	295.75
625.639	264.75
625.846	270.75
626.053	276.75
626.259	269.75
626.466	275.75
626.673	282.75
626.879	259.75
627.086	263.75
627.293	261.75
627.499	286.75
627.706	288.75
627.912	274.75
628.119	247.75
628.325	280.75
628.532	264.75
628.738	259.75
628.945	261.75
629.151	239.75
629.357	261.75
629.564	258.75
629.77	269.75
629.976	251.75
630.183	255.75
630.389	258.75
630.595	259.75
630.802	248.75
631.008	239.75
631.214	245.75
631.42	239.75
631.627	232.75
631.833	232.75
632.039	268.75
632.245	247.75
632.451	224.75
632.657	245.75
632.863	241.75
633.069	240.75
633.275	252.75
633.481	232.75
633.688	244.75
633.893	243.75
634.099	244.75
634.305	244.75
634.511	249.75
634.717	231.75
634.923	241.75
635.129	232.75
635.335	242.75
635.541	241.75
635.747	249.75
635.952	230.75
636.158	230.75
636.364	237.75
636.57	228.75
636.775	209.75
636.981	246.75
637.187	248.75
637.392	232.75
637.598	220.75
637.804	224.75
638.009	239.75
638.215	223.75
638.421	244.75
638.626	219.75
638.832	230.75
639.037	216.75
639.243	230.75
639.448	230.75
639.654	230.75
639.859	217.75
640.065	211.75
640.27	217.75
640.475	225.75
640.681	208.75
640.886	223.75
641.091	227.75
641.297	222.75
641.502	218.75
641.707	212.75
641.913	213.75
642.118	225.75
642.323	209.75
642.528	217.75
642.733	215.75
642.939	220.75
643.144	210.75
643.349	210.75
643.554	225.75
643.759	208.75
643.964	213.75
644.169	200.75
644.374	217.75
644.579	207.75
644.784	203.75
644.989	212.75
645.194	221.75
645.399	222.75
645.604	216.75
645.809	197.75
646.014	208.75
646.219	223.75
646.423	208.75
646.628	212.75
646.833	209.75
647.038	220.75
647.243	199.75
647.447	218.75
647.652	224.75
647.857	207.75
648.062	205.75
648.266	216.75
648.471	231.75
648.676	213.75
648.88	220.75
649.085	220.75
649.289	231.75
649.494	196.75
649.698	207.75
649.903	211.75
650.107	201.75
650.312	219.75
650.516	200.75
650.721	218.75
650.925	211.75
651.13	217.75
651.334	188.75
651.539	196.75
651.743	199.75
651.947	209.75
652.152	196.75
652.356	188.75
652.56	191.75
652.764	199.75
652.969	192.75
653.173	187.75
653.377	187.75
653.581	173.75
653.785	195.75
653.99	176.75
654.194	179.75
654.398	192.75
654.602	187.75
654.806	181.75
655.01	163.75
655.214	163.75
655.418	158.75
655.622	170.75
655.826	183.75
656.03	171.75
656.234	171.75
656.438	174.75
656.642	164.75
656.846	160.75
657.049	162.75
657.253	167.75
657.457	156.75
657.661	150.75
657.865	144.75
658.068	137.75
658.272	144.75
658.476	114.75
658.68	130.75
658.883	126.75
659.087	119.75
659.291	113.75
659.494	111.75
659.698	118.75
659.901	116.75
660.105	113.75
660.309	95.75
660.512	112.75
660.716	111.75
660.919	86.75
661.123	94.75
661.326	85.75
661.53	93.75
661.733	86.75
661.936	92.75
662.14	83.75
662.343	84.75
662.546	100.75
662.75	103.75
662.953	88.75
663.156	87.75
663.36	97.75
663.563	84.75
663.766	97.75
663.969	93.75
664.173	87.75
664.376	87.75
664.579	76.75
664.782	83.75
664.985	79.75
665.188	104.75
665.391	82.75
665.594	76.75
665.797	74.75
666	68.75
666.203	70.75
666.406	99.75
666.609	70.75
666.812	85.75
667.015	83.75
667.218	81.75
667.421	65.75
667.624	82.75
667.827	87.75
668.03	77.75
668.232	90.75
668.435	81.75
668.638	91.75
668.841	71.75
669.043	88.75
669.246	78.75
669.449	77.75
669.651	80.75
669.854	80.75
670.057	76.75
670.259	72.75
670.462	77.75
670.665	84.75
670.867	84.75
671.07	78.75
671.272	91.75
671.475	72.75
671.677	95.75
671.88	96.75
672.082	76.75
672.284	85.75
672.487	84.75
672.689	78.75
672.892	71.75
