Data from Ni(NO3)2Standard.Agarose3%.GreenCap.LampEnergy5.5.E.O_HRD10591_14-40-41-188.txt Node
Date: Mon Jul 22 14:40:41 EDT 2019
User: cochatt
Spectrometer: HR+D1059
Trigger mode: 1
Integration Time (sec): 1.000000E-1
Scans to average: 1
Electric dark correction enabled: true
Nonlinearity correction enabled: false
Boxcar width: 0
XAxis mode: Wavelengths
Number of Pixels in Spectrum: 2048
>>>>>Begin Spectral Data<<<<<
223.165	-31.31
223.4	-31.31
223.635	-31.31
223.869	-8.31
224.104	-26.31
224.338	-27.31
224.573	-8.31
224.808	-5.31
225.042	-18.31
225.277	3.69
225.511	9.69
225.746	-5.31
225.98	13.69
226.215	3.69
226.449	10.69
226.683	23.69
226.918	26.69
227.152	38.69
227.387	29.69
227.621	36.69
227.856	55.69
228.09	47.69
228.324	48.69
228.559	63.69
228.793	51.69
229.027	65.69
229.262	48.69
229.496	43.69
229.73	77.69
229.964	76.69
230.199	68.69
230.433	68.69
230.667	78.69
230.901	72.69
231.136	76.69
231.37	72.69
231.604	87.69
231.838	90.69
232.072	71.69
232.306	93.69
232.541	85.69
232.775	81.69
233.009	71.69
233.243	81.69
233.477	79.69
233.711	83.69
233.945	70.69
234.179	71.69
234.413	94.69
234.647	79.69
234.881	76.69
235.115	95.69
235.349	73.69
235.583	76.69
235.817	69.69
236.051	87.69
236.285	72.69
236.519	75.69
236.753	72.69
236.987	84.69
237.221	90.69
237.455	83.69
237.689	86.69
237.922	74.69
238.156	74.69
238.39	77.69
238.624	81.69
238.858	69.69
239.091	82.69
239.325	75.69
239.559	83.69
239.793	77.69
240.027	70.69
240.26	92.69
240.494	69.69
240.728	84.69
240.961	65.69
241.195	67.69
241.429	80.69
241.662	81.69
241.896	78.69
242.13	63.69
242.363	73.69
242.597	74.69
242.83	72.69
243.064	69.69
243.298	91.69
243.531	81.69
243.765	94.69
243.998	86.69
244.232	92.69
244.465	91.69
244.699	62.69
244.932	72.69
245.166	78.69
245.399	83.69
245.633	84.69
245.866	84.69
246.099	85.69
246.333	86.69
246.566	80.69
246.8	73.69
247.033	71.69
247.266	89.69
247.5	91.69
247.733	69.69
247.966	90.69
248.2	80.69
248.433	68.69
248.666	81.69
248.899	82.69
249.133	62.69
249.366	85.69
249.599	52.69
249.832	75.69
250.066	81.69
250.299	73.69
250.532	84.69
250.765	87.69
250.998	71.69
251.231	80.69
251.465	76.69
251.698	78.69
251.931	78.69
252.164	75.69
252.397	77.69
252.63	75.69
252.863	85.69
253.096	79.69
253.329	83.69
253.562	75.69
253.795	74.69
254.028	75.69
254.261	92.69
254.494	94.69
254.727	71.69
254.96	80.69
255.193	72.69
255.426	82.69
255.659	64.69
255.892	99.69
256.124	84.69
256.357	72.69
256.59	78.69
256.823	89.69
257.056	93.69
257.289	78.69
257.521	80.69
257.754	88.69
257.987	73.69
258.22	80.69
258.452	82.69
258.685	76.69
258.918	76.69
259.151	87.69
259.383	79.69
259.616	95.69
259.849	72.69
260.081	75.69
260.314	83.69
260.547	80.69
260.779	87.69
261.012	84.69
261.244	102.69
261.477	86.69
261.71	90.69
261.942	79.69
262.175	73.69
262.407	67.69
262.64	95.69
262.872	90.69
263.105	90.69
263.337	94.69
263.57	86.69
263.802	77.69
264.035	82.69
264.267	65.69
264.499	69.69
264.732	92.69
264.964	72.69
265.197	87.69
265.429	96.69
265.661	80.69
265.894	92.69
266.126	98.69
266.358	84.69
266.591	101.69
266.823	85.69
267.055	73.69
267.287	92.69
267.52	95.69
267.752	71.69
267.984	88.69
268.216	81.69
268.448	89.69
268.681	88.69
268.913	91.69
269.145	84.69
269.377	71.69
269.609	87.69
269.841	92.69
270.073	79.69
270.306	82.69
270.538	87.69
270.77	101.69
271.002	99.69
271.234	77.69
271.466	89.69
271.698	92.69
271.93	74.69
272.162	81.69
272.394	80.69
272.626	81.69
272.858	78.69
273.09	82.69
273.322	80.69
273.553	78.69
273.785	77.69
274.017	71.69
274.249	83.69
274.481	85.69
274.713	82.69
274.945	91.69
275.176	102.69
275.408	77.69
275.64	80.69
275.872	87.69
276.104	76.69
276.335	87.69
276.567	98.69
276.799	89.69
277.031	99.69
277.262	104.69
277.494	100.69
277.726	88.69
277.957	80.69
278.189	104.69
278.421	75.69
278.652	71.69
278.884	75.69
279.115	97.69
279.347	78.69
279.579	83.69
279.81	95.69
280.042	93.69
280.273	80.69
280.505	80.69
280.736	78.69
280.968	77.69
281.199	83.69
281.431	77.69
281.662	97.69
281.894	72.69
282.125	89.69
282.356	77.69
282.588	97.69
282.819	103.69
283.051	85.69
283.282	87.69
283.513	85.69
283.745	89.69
283.976	81.69
284.207	80.69
284.439	81.69
284.67	82.69
284.901	98.69
285.132	89.69
285.364	98.69
285.595	94.69
285.826	93.69
286.057	79.69
286.288	80.69
286.52	77.69
286.751	83.69
286.982	90.69
287.213	82.69
287.444	96.69
287.675	86.69
287.906	95.69
288.138	82.69
288.369	97.69
288.6	92.69
288.831	80.69
289.062	94.69
289.293	82.69
289.524	77.69
289.755	73.69
289.986	79.69
290.217	87.69
290.448	84.69
290.679	89.69
290.91	86.69
291.141	82.69
291.371	97.69
291.602	97.69
291.833	99.69
292.064	101.69
292.295	85.69
292.526	85.69
292.757	96.69
292.987	86.69
293.218	91.69
293.449	79.69
293.68	87.69
293.91	80.69
294.141	89.69
294.372	77.69
294.603	94.69
294.833	92.69
295.064	93.69
295.295	87.69
295.525	89.69
295.756	103.69
295.987	89.69
296.217	92.69
296.448	85.69
296.679	94.69
296.909	91.69
297.14	95.69
297.37	99.69
297.601	81.69
297.831	86.69
298.062	97.69
298.292	103.69
298.523	81.69
298.753	94.69
298.984	87.69
299.214	93.69
299.445	93.69
299.675	90.69
299.905	83.69
300.136	83.69
300.366	88.69
300.597	100.69
300.827	86.69
301.057	86.69
301.288	85.69
301.518	88.69
301.748	86.69
301.979	82.69
302.209	84.69
302.439	81.69
302.669	84.69
302.9	95.69
303.13	87.69
303.36	95.69
303.59	89.69
303.82	96.69
304.051	85.69
304.281	79.69
304.511	87.69
304.741	87.69
304.971	92.69
305.201	100.69
305.431	85.69
305.661	101.69
305.891	90.69
306.121	88.69
306.352	88.69
306.582	100.69
306.812	78.69
307.042	82.69
307.272	76.69
307.502	87.69
307.731	87.69
307.961	94.69
308.191	88.69
308.421	82.69
308.651	88.69
308.881	84.69
309.111	93.69
309.341	105.69
309.571	82.69
309.8	81.69
310.03	92.69
310.26	95.69
310.49	84.69
310.72	96.69
310.949	98.69
311.179	87.69
311.409	80.69
311.639	107.69
311.868	79.69
312.098	81.69
312.328	90.69
312.557	87.69
312.787	80.69
313.017	92.69
313.246	93.69
313.476	96.69
313.706	75.69
313.935	89.69
314.165	99.69
314.394	98.69
314.624	85.69
314.853	93.69
315.083	77.69
315.312	87.69
315.542	88.69
315.771	92.69
316.001	98.69
316.23	89.69
316.46	91.69
316.689	85.69
316.919	85.69
317.148	78.69
317.377	85.69
317.607	101.69
317.836	101.69
318.065	102.69
318.295	105.69
318.524	86.69
318.753	103.69
318.983	91.69
319.212	90.69
319.441	87.69
319.67	92.69
319.9	92.69
320.129	87.69
320.358	93.69
320.587	94.69
320.816	86.69
321.046	84.69
321.275	89.69
321.504	95.69
321.733	94.69
321.962	97.69
322.191	86.69
322.42	88.69
322.649	80.69
322.878	91.69
323.108	89.69
323.337	86.69
323.566	85.69
323.795	91.69
324.024	74.69
324.253	75.69
324.482	89.69
324.71	79.69
324.939	97.69
325.168	97.69
325.397	84.69
325.626	89.69
325.855	92.69
326.084	94.69
326.313	81.69
326.542	92.69
326.77	106.69
326.999	100.69
327.228	86.69
327.457	94.69
327.686	80.69
327.914	85.69
328.143	106.69
328.372	87.69
328.6	95.69
328.829	95.69
329.058	84.69
329.287	89.69
329.515	93.69
329.744	92.69
329.972	86.69
330.201	93.69
330.43	81.69
330.658	89.69
330.887	81.69
331.115	86.69
331.344	80.69
331.572	90.69
331.801	97.69
332.03	85.69
332.258	95.69
332.486	110.69
332.715	95.69
332.943	89.69
333.172	102.69
333.4	87.69
333.629	88.69
333.857	95.69
334.085	94.69
334.314	102.69
334.542	92.69
334.771	90.69
334.999	103.69
335.227	85.69
335.455	79.69
335.684	95.69
335.912	90.69
336.14	98.69
336.369	97.69
336.597	87.69
336.825	101.69
337.053	89.69
337.281	89.69
337.51	76.69
337.738	96.69
337.966	96.69
338.194	72.69
338.422	104.69
338.65	83.69
338.878	79.69
339.106	88.69
339.334	88.69
339.562	90.69
339.79	93.69
340.018	91.69
340.246	97.69
340.474	93.69
340.702	88.69
340.93	101.69
341.158	93.69
341.386	76.69
341.614	93.69
341.842	86.69
342.07	87.69
342.298	78.69
342.526	86.69
342.754	83.69
342.981	88.69
343.209	94.69
343.437	97.69
343.665	97.69
343.893	102.69
344.12	98.69
344.348	90.69
344.576	97.69
344.804	83.69
345.031	81.69
345.259	85.69
345.487	101.69
345.714	75.69
345.942	86.69
346.17	82.69
346.397	85.69
346.625	96.69
346.853	90.69
347.08	85.69
347.308	94.69
347.535	96.69
347.763	91.69
347.99	91.69
348.218	86.69
348.445	111.69
348.673	88.69
348.9	85.69
349.128	89.69
349.355	93.69
349.583	97.69
349.81	77.69
350.037	97.69
350.265	76.69
350.492	93.69
350.72	95.69
350.947	98.69
351.174	92.69
351.402	83.69
351.629	96.69
351.856	99.69
352.083	87.69
352.311	88.69
352.538	93.69
352.765	87.69
352.992	87.69
353.22	96.69
353.447	77.69
353.674	91.69
353.901	95.69
354.128	87.69
354.355	85.69
354.583	87.69
354.81	93.69
355.037	96.69
355.264	80.69
355.491	85.69
355.718	103.69
355.945	85.69
356.172	88.69
356.399	92.69
356.626	96.69
356.853	86.69
357.08	93.69
357.307	82.69
357.534	83.69
357.761	74.69
357.988	64.69
358.215	91.69
358.441	78.69
358.668	95.69
358.895	92.69
359.122	81.69
359.349	86.69
359.576	79.69
359.802	86.69
360.029	82.69
360.256	88.69
360.483	89.69
360.709	92.69
360.936	108.69
361.163	92.69
361.39	99.69
361.616	93.69
361.843	91.69
362.07	110.69
362.296	90.69
362.523	87.69
362.749	89.69
362.976	89.69
363.203	92.69
363.429	95.69
363.656	81.69
363.882	92.69
364.109	103.69
364.335	109.69
364.562	98.69
364.788	85.69
365.015	98.69
365.241	85.69
365.468	105.69
365.694	82.69
365.92	92.69
366.147	70.69
366.373	101.69
366.599	84.69
366.826	108.69
367.052	81.69
367.278	88.69
367.505	78.69
367.731	93.69
367.957	75.69
368.184	76.69
368.41	90.69
368.636	96.69
368.862	86.69
369.089	82.69
369.315	94.69
369.541	81.69
369.767	80.69
369.993	108.69
370.219	100.69
370.445	96.69
370.672	82.69
370.898	88.69
371.124	88.69
371.35	87.69
371.576	97.69
371.802	89.69
372.028	84.69
372.254	82.69
372.48	82.69
372.706	88.69
372.932	91.69
373.158	78.69
373.384	92.69
373.61	98.69
373.835	108.69
374.061	75.69
374.287	99.69
374.513	84.69
374.739	93.69
374.965	94.69
375.191	86.69
375.416	94.69
375.642	85.69
375.868	93.69
376.094	80.69
376.319	96.69
376.545	96.69
376.771	91.69
376.997	95.69
377.222	81.69
377.448	86.69
377.674	95.69
377.899	99.69
378.125	90.69
378.35	89.69
378.576	77.69
378.802	83.69
379.027	94.69
379.253	101.69
379.478	83.69
379.704	76.69
379.929	77.69
380.155	94.69
380.38	90.69
380.606	99.69
380.831	91.69
381.057	92.69
381.282	94.69
381.507	81.69
381.733	95.69
381.958	80.69
382.184	77.69
382.409	92.69
382.634	70.69
382.86	95.69
383.085	86.69
383.31	81.69
383.535	107.69
383.761	88.69
383.986	92.69
384.211	94.69
384.436	89.69
384.662	88.69
384.887	91.69
385.112	86.69
385.337	89.69
385.562	102.69
385.787	89.69
386.013	92.69
386.238	99.69
386.463	90.69
386.688	83.69
386.913	105.69
387.138	96.69
387.363	80.69
387.588	91.69
387.813	87.69
388.038	73.69
388.263	100.69
388.488	97.69
388.713	94.69
388.938	92.69
389.163	83.69
389.387	84.69
389.612	80.69
389.837	89.69
390.062	92.69
390.287	97.69
390.512	90.69
390.736	93.69
390.961	89.69
391.186	98.69
391.411	86.69
391.636	84.69
391.86	97.69
392.085	74.69
392.31	83.69
392.534	80.69
392.759	88.69
392.984	70.69
393.208	81.69
393.433	95.69
393.658	92.69
393.882	99.69
394.107	87.69
394.331	91.69
394.556	93.69
394.78	103.69
395.005	85.69
395.229	92.69
395.454	88.69
395.678	85.69
395.903	103.69
396.127	77.69
396.352	89.69
396.576	88.69
396.801	94.69
397.025	84.69
397.249	97.69
397.474	91.69
397.698	91.69
397.922	100.69
398.147	91.69
398.371	80.69
398.595	78.69
398.82	96.69
399.044	92.69
399.268	84.69
399.492	82.69
399.717	96.69
399.941	91.69
400.165	94.69
400.389	90.69
400.613	105.69
400.837	93.69
401.062	84.69
401.286	96.69
401.51	86.69
401.734	93.69
401.958	95.69
402.182	94.69
402.406	85.69
402.63	86.69
402.854	105.69
403.078	85.69
403.302	89.69
403.526	92.69
403.75	95.69
403.974	96.69
404.198	87.69
404.422	93.69
404.645	104.69
404.869	98.69
405.093	95.69
405.317	75.69
405.541	89.69
405.765	92.69
405.988	83.69
406.212	88.69
406.436	82.69
406.66	91.69
406.883	85.69
407.107	78.69
407.331	84.69
407.555	102.69
407.778	97.69
408.002	86.69
408.226	92.69
408.449	91.69
408.673	82.69
408.896	99.69
409.12	102.69
409.344	81.69
409.567	91.69
409.791	99.69
410.014	99.69
410.238	74.69
410.461	87.69
410.685	94.69
410.908	76.69
411.132	86.69
411.355	94.69
411.578	91.69
411.802	86.69
412.025	86.69
412.249	91.69
412.472	86.69
412.695	88.69
412.919	78.69
413.142	94.69
413.365	98.69
413.589	88.69
413.812	66.69
414.035	83.69
414.258	81.69
414.482	84.69
414.705	97.69
414.928	95.69
415.151	77.69
415.374	95.69
415.597	97.69
415.821	73.69
416.044	75.69
416.267	78.69
416.49	85.69
416.713	84.69
416.936	99.69
417.159	81.69
417.382	96.69
417.605	75.69
417.828	81.69
418.051	84.69
418.274	92.69
418.497	95.69
418.72	82.69
418.943	80.69
419.166	75.69
419.389	85.69
419.611	84.69
419.834	87.69
420.057	90.69
420.28	97.69
420.503	95.69
420.726	76.69
420.948	87.69
421.171	73.69
421.394	79.69
421.617	89.69
421.839	68.69
422.062	89.69
422.285	80.69
422.507	88.69
422.73	97.69
422.953	82.69
423.175	83.69
423.398	75.69
423.621	81.69
423.843	85.69
424.066	80.69
424.288	72.69
424.511	87.69
424.733	112.69
424.956	85.69
425.178	95.69
425.401	90.69
425.623	92.69
425.846	72.69
426.068	83.69
426.291	79.69
426.513	84.69
426.735	83.69
426.958	93.69
427.18	96.69
427.402	89.69
427.625	84.69
427.847	96.69
428.069	81.69
428.292	90.69
428.514	87.69
428.736	94.69
428.958	88.69
429.181	87.69
429.403	80.69
429.625	100.69
429.847	77.69
430.069	78.69
430.292	94.69
430.514	81.69
430.736	93.69
430.958	87.69
431.18	76.69
431.402	100.69
431.624	79.69
431.846	90.69
432.068	89.69
432.29	87.69
432.512	93.69
432.734	93.69
432.956	89.69
433.178	90.69
433.4	83.69
433.622	79.69
433.844	75.69
434.066	84.69
434.287	81.69
434.509	100.69
434.731	101.69
434.953	96.69
435.175	77.69
435.397	90.69
435.618	79.69
435.84	96.69
436.062	107.69
436.284	88.69
436.505	89.69
436.727	86.69
436.949	89.69
437.17	92.69
437.392	86.69
437.614	80.69
437.835	83.69
438.057	84.69
438.278	81.69
438.5	88.69
438.721	88.69
438.943	79.69
439.165	85.69
439.386	85.69
439.608	90.69
439.829	80.69
440.05	89.69
440.272	84.69
440.493	92.69
440.715	79.69
440.936	82.69
441.158	82.69
441.379	95.69
441.6	91.69
441.822	79.69
442.043	85.69
442.264	95.69
442.486	85.69
442.707	84.69
442.928	73.69
443.149	93.69
443.371	91.69
443.592	87.69
443.813	93.69
444.034	100.69
444.255	77.69
444.476	83.69
444.698	97.69
444.919	93.69
445.14	203.69
445.361	135.69
445.582	95.69
445.803	97.69
446.024	77.69
446.245	88.69
446.466	79.69
446.687	77.69
446.908	86.69
447.129	79.69
447.35	77.69
447.571	80.69
447.792	91.69
448.013	95.69
448.234	88.69
448.455	88.69
448.675	87.69
448.896	88.69
449.117	98.69
449.338	90.69
449.559	80.69
449.779	89.69
450	81.69
450.221	88.69
450.442	91.69
450.662	96.69
450.883	83.69
451.104	94.69
451.324	99.69
451.545	86.69
451.766	76.69
451.986	86.69
452.207	85.69
452.428	78.69
452.648	96.69
452.869	99.69
453.089	95.69
453.31	85.69
453.53	99.69
453.751	89.69
453.971	84.69
454.192	91.69
454.412	91.69
454.633	94.69
454.853	87.69
455.073	88.69
455.294	82.69
455.514	82.69
455.734	92.69
455.955	82.69
456.175	88.69
456.395	78.69
456.616	84.69
456.836	85.69
457.056	83.69
457.276	79.69
457.497	73.69
457.717	80.69
457.937	81.69
458.157	89.69
458.377	90.69
458.598	89.69
458.818	90.69
459.038	102.69
459.258	91.69
459.478	82.69
459.698	94.69
459.918	90.69
460.138	79.69
460.358	82.69
460.578	96.69
460.798	91.69
461.018	87.69
461.238	97.69
461.458	96.69
461.678	81.69
461.898	88.69
462.118	96.69
462.338	82.69
462.558	89.69
462.777	88.69
462.997	78.69
463.217	85.69
463.437	86.69
463.657	91.69
463.876	89.69
464.096	90.69
464.316	87.69
464.536	96.69
464.755	93.69
464.975	86.69
465.195	87.69
465.414	83.69
465.634	100.69
465.854	84.69
466.073	94.69
466.293	98.69
466.512	94.69
466.732	97.69
466.951	96.69
467.171	75.69
467.391	87.69
467.61	82.69
467.829	89.69
468.049	90.69
468.268	83.69
468.488	84.69
468.707	91.69
468.927	99.69
469.146	84.69
469.365	77.69
469.585	93.69
469.804	85.69
470.023	71.69
470.243	89.69
470.462	83.69
470.681	87.69
470.901	81.69
471.12	76.69
471.339	85.69
471.558	90.69
471.777	83.69
471.997	83.69
472.216	85.69
472.435	83.69
472.654	72.69
472.873	85.69
473.092	99.69
473.311	96.69
473.53	96.69
473.749	91.69
473.968	92.69
474.187	89.69
474.406	92.69
474.625	92.69
474.844	102.69
475.063	89.69
475.282	95.69
475.501	102.69
475.72	103.69
475.939	90.69
476.158	105.69
476.377	85.69
476.596	87.69
476.814	104.69
477.033	80.69
477.252	92.69
477.471	97.69
477.69	92.69
477.908	84.69
478.127	96.69
478.346	95.69
478.564	80.69
478.783	89.69
479.002	101.69
479.22	94.69
479.439	96.69
479.658	77.69
479.876	93.69
480.095	100.69
480.313	89.69
480.532	92.69
480.751	98.69
480.969	92.69
481.188	80.69
481.406	93.69
481.624	83.69
481.843	87.69
482.061	102.69
482.28	96.69
482.498	92.69
482.717	102.69
482.935	92.69
483.153	82.69
483.372	87.69
483.59	107.69
483.808	96.69
484.027	82.69
484.245	91.69
484.463	88.69
484.681	98.69
484.9	99.69
485.118	90.69
485.336	97.69
485.554	84.69
485.772	97.69
485.99	106.69
486.209	91.69
486.427	96.69
486.645	107.69
486.863	87.69
487.081	99.69
487.299	106.69
487.517	83.69
487.735	90.69
487.953	103.69
488.171	117.69
488.389	100.69
488.607	83.69
488.825	100.69
489.043	83.69
489.261	102.69
489.479	101.69
489.696	93.69
489.914	85.69
490.132	96.69
490.35	86.69
490.568	104.69
490.786	88.69
491.003	99.69
491.221	107.69
491.439	93.69
491.657	103.69
491.874	92.69
492.092	104.69
492.31	104.69
492.527	107.69
492.745	95.69
492.963	89.69
493.18	85.69
493.398	103.69
493.615	90.69
493.833	91.69
494.05	105.69
494.268	95.69
494.485	101.69
494.703	100.69
494.92	109.69
495.138	103.69
495.355	108.69
495.573	102.69
495.79	103.69
496.008	88.69
496.225	86.69
496.442	90.69
496.66	108.69
496.877	91.69
497.094	97.69
497.312	101.69
497.529	100.69
497.746	110.69
497.963	92.69
498.181	90.69
498.398	108.69
498.615	107.69
498.832	87.69
499.049	114.69
499.267	104.69
499.484	101.69
499.701	109.69
499.918	105.69
500.135	112.69
500.352	115.69
500.569	119.69
500.786	128.69
501.003	111.69
501.22	101.69
501.437	108.69
501.654	97.69
501.871	104.69
502.088	101.69
502.305	122.69
502.522	99.69
502.739	94.69
502.956	101.69
503.172	107.69
503.389	101.69
503.606	96.69
503.823	103.69
504.04	89.69
504.256	100.69
504.473	93.69
504.69	101.69
504.907	108.69
505.123	104.69
505.34	100.69
505.557	94.69
505.773	101.69
505.99	82.69
506.207	99.69
506.423	102.69
506.64	103.69
506.856	92.69
507.073	86.69
507.289	101.69
507.506	82.69
507.722	103.69
507.939	99.69
508.155	93.69
508.372	89.69
508.588	85.69
508.805	91.69
509.021	99.69
509.238	80.69
509.454	84.69
509.67	103.69
509.887	92.69
510.103	100.69
510.319	91.69
510.536	94.69
510.752	104.69
510.968	88.69
511.184	87.69
511.401	91.69
511.617	96.69
511.833	95.69
512.049	109.69
512.265	94.69
512.481	88.69
512.698	103.69
512.914	104.69
513.13	82.69
513.346	92.69
513.562	99.69
513.778	98.69
513.994	93.69
514.21	80.69
514.426	78.69
514.642	101.69
514.858	89.69
515.074	95.69
515.29	104.69
515.506	89.69
515.721	101.69
515.937	99.69
516.153	90.69
516.369	84.69
516.585	92.69
516.801	100.69
517.016	84.69
517.232	91.69
517.448	96.69
517.664	92.69
517.879	92.69
518.095	86.69
518.311	102.69
518.527	92.69
518.742	111.69
518.958	90.69
519.173	94.69
519.389	101.69
519.605	88.69
519.82	94.69
520.036	113.69
520.251	95.69
520.467	85.69
520.682	87.69
520.898	97.69
521.113	91.69
521.329	103.69
521.544	86.69
521.76	96.69
521.975	81.69
522.19	84.69
522.406	97.69
522.621	95.69
522.836	87.69
523.052	90.69
523.267	99.69
523.482	92.69
523.698	91.69
523.913	105.69
524.128	100.69
524.343	76.69
524.559	93.69
524.774	101.69
524.989	84.69
525.204	88.69
525.419	95.69
525.634	93.69
525.849	85.69
526.064	104.69
526.28	99.69
526.495	89.69
526.71	87.69
526.925	86.69
527.14	90.69
527.355	89.69
527.57	85.69
527.785	104.69
527.999	87.69
528.214	91.69
528.429	97.69
528.644	85.69
528.859	75.69
529.074	86.69
529.289	106.69
529.503	91.69
529.718	112.69
529.933	106.69
530.148	91.69
530.363	101.69
530.577	88.69
530.792	71.69
531.007	86.69
531.221	95.69
531.436	93.69
531.651	88.69
531.865	91.69
532.08	81.69
532.295	95.69
532.509	95.69
532.724	91.69
532.938	93.69
533.153	103.69
533.367	78.69
533.582	97.69
533.796	95.69
534.011	89.69
534.225	87.69
534.44	93.69
534.654	91.69
534.868	86.69
535.083	92.69
535.297	78.69
535.511	90.69
535.726	94.69
535.94	86.69
536.154	100.69
536.369	100.69
536.583	97.69
536.797	85.69
537.011	88.69
537.225	82.69
537.44	92.69
537.654	100.69
537.868	91.69
538.082	88.69
538.296	97.69
538.51	101.69
538.724	88.69
538.938	94.69
539.153	84.69
539.367	95.69
539.581	95.69
539.795	93.69
540.009	82.69
540.222	81.69
540.436	92.69
540.65	78.69
540.864	90.69
541.078	101.69
541.292	101.69
541.506	111.69
541.72	88.69
541.934	97.69
542.147	96.69
542.361	88.69
542.575	78.69
542.789	96.69
543.002	92.69
543.216	78.69
543.43	85.69
543.644	103.69
543.857	94.69
544.071	96.69
544.285	87.69
544.498	89.69
544.712	89.69
544.925	90.69
545.139	87.69
545.352	111.69
545.566	93.69
545.779	80.69
545.993	100.69
546.206	85.69
546.42	89.69
546.633	105.69
546.847	90.69
547.06	104.69
547.274	87.69
547.487	83.69
547.7	108.69
547.914	94.69
548.127	90.69
548.34	105.69
548.554	100.69
548.767	113.69
548.98	92.69
549.193	89.69
549.407	92.69
549.62	84.69
549.833	77.69
550.046	91.69
550.259	93.69
550.473	109.69
550.686	98.69
550.899	93.69
551.112	108.69
551.325	86.69
551.538	78.69
551.751	92.69
551.964	92.69
552.177	81.69
552.39	102.69
552.603	102.69
552.816	100.69
553.029	85.69
553.242	104.69
553.455	81.69
553.667	93.69
553.88	88.69
554.093	93.69
554.306	94.69
554.519	95.69
554.732	88.69
554.944	103.69
555.157	105.69
555.37	93.69
555.583	94.69
555.795	72.69
556.008	93.69
556.221	87.69
556.433	111.69
556.646	94.69
556.859	99.69
557.071	104.69
557.284	91.69
557.496	88.69
557.709	96.69
557.921	92.69
558.134	77.69
558.346	87.69
558.559	88.69
558.771	80.69
558.984	82.69
559.196	91.69
559.409	95.69
559.621	96.69
559.833	108.69
560.046	104.69
560.258	89.69
560.47	88.69
560.683	93.69
560.895	87.69
561.107	95.69
561.32	93.69
561.532	80.69
561.744	80.69
561.956	84.69
562.168	91.69
562.381	95.69
562.593	87.69
562.805	87.69
563.017	85.69
563.229	76.69
563.441	95.69
563.653	88.69
563.865	100.69
564.077	105.69
564.289	103.69
564.501	95.69
564.713	86.69
564.925	95.69
565.137	92.69
565.349	85.69
565.561	100.69
565.773	94.69
565.985	82.69
566.197	85.69
566.408	85.69
566.62	88.69
566.832	94.69
567.044	80.69
567.255	92.69
567.467	87.69
567.679	100.69
567.891	99.69
568.102	92.69
568.314	84.69
568.526	87.69
568.737	88.69
568.949	85.69
569.161	75.69
569.372	94.69
569.584	92.69
569.795	73.69
570.007	102.69
570.218	103.69
570.43	86.69
570.641	84.69
570.853	97.69
571.064	89.69
571.276	90.69
571.487	88.69
571.698	97.69
571.91	107.69
572.121	95.69
572.333	90.69
572.544	85.69
572.755	93.69
572.966	101.69
573.178	94.69
573.389	103.69
573.6	80.69
573.811	89.69
574.023	83.69
574.234	99.69
574.445	79.69
574.656	99.69
574.867	89.69
575.078	94.69
575.289	105.69
575.501	94.69
575.712	90.69
575.923	94.69
576.134	88.69
576.345	91.69
576.556	89.69
576.767	84.69
576.978	94.69
577.188	84.69
577.399	92.69
577.61	83.69
577.821	76.69
578.032	91.69
578.243	95.69
578.454	87.69
578.665	98.69
578.875	88.69
579.086	93.69
579.297	108.69
579.508	92.69
579.718	89.69
579.929	90.69
580.14	80.69
580.35	79.69
580.561	86.69
580.772	87.69
580.982	79.69
581.193	85.69
581.403	75.69
581.614	91.69
581.825	81.69
582.035	94.69
582.246	94.69
582.456	101.69
582.667	89.69
582.877	86.69
583.087	102.69
583.298	86.69
583.508	84.69
583.719	96.69
583.929	85.69
584.139	91.69
584.35	85.69
584.56	88.69
584.77	93.69
584.981	93.69
585.191	93.69
585.401	94.69
585.611	88.69
585.821	105.69
586.032	109.69
586.242	84.69
586.452	88.69
586.662	89.69
586.872	83.69
587.082	78.69
587.292	80.69
587.502	86.69
587.713	90.69
587.923	92.69
588.133	91.69
588.343	96.69
588.553	90.69
588.762	98.69
588.972	80.69
589.182	108.69
589.392	89.69
589.602	105.69
589.812	104.69
590.022	100.69
590.232	92.69
590.441	73.69
590.651	75.69
590.861	85.69
591.071	84.69
591.281	104.69
591.49	78.69
591.7	93.69
591.91	99.69
592.119	88.69
592.329	91.69
592.539	94.69
592.748	94.69
592.958	97.69
593.167	87.69
593.377	85.69
593.587	85.69
593.796	108.69
594.006	81.69
594.215	81.69
594.424	99.69
594.634	89.69
594.843	81.69
595.053	87.69
595.262	94.69
595.472	95.69
595.681	93.69
595.89	95.69
596.1	79.69
596.309	96.69
596.518	89.69
596.727	95.69
596.937	87.69
597.146	88.69
597.355	101.69
597.564	92.69
597.774	94.69
597.983	87.69
598.192	80.69
598.401	98.69
598.61	87.69
598.819	92.69
599.028	75.69
599.237	88.69
599.446	83.69
599.655	106.69
599.864	93.69
600.073	83.69
600.282	84.69
600.491	90.69
600.7	88.69
600.909	86.69
601.118	99.69
601.327	83.69
601.536	95.69
601.745	89.69
601.953	79.69
602.162	87.69
602.371	77.69
602.58	91.69
602.789	100.69
602.997	89.69
603.206	81.69
603.415	111.69
603.623	94.69
603.832	87.69
604.041	103.69
604.249	89.69
604.458	89.69
604.666	84.69
604.875	88.69
605.084	84.69
605.292	92.69
605.501	79.69
605.709	79.69
605.918	93.69
606.126	98.69
606.334	69.69
606.543	86.69
606.751	95.69
606.96	90.69
607.168	88.69
607.376	92.69
607.585	100.69
607.793	94.69
608.001	91.69
608.21	84.69
608.418	88.69
608.626	100.69
608.834	92.69
609.043	102.69
609.251	86.69
609.459	80.69
609.667	96.69
609.875	77.69
610.083	95.69
610.291	94.69
610.499	95.69
610.707	93.69
610.916	83.69
611.124	78.69
611.332	95.69
611.54	94.69
611.748	96.69
611.955	90.69
612.163	97.69
612.371	93.69
612.579	91.69
612.787	100.69
612.995	87.69
613.203	83.69
613.411	81.69
613.618	89.69
613.826	100.69
614.034	97.69
614.242	88.69
614.449	93.69
614.657	88.69
614.865	71.69
615.072	79.69
615.28	87.69
615.488	81.69
615.695	87.69
615.903	81.69
616.111	74.69
616.318	96.69
616.526	92.69
616.733	91.69
616.941	88.69
617.148	85.69
617.356	82.69
617.563	76.69
617.771	81.69
617.978	79.69
618.185	97.69
618.393	94.69
618.6	89.69
618.807	84.69
619.015	102.69
619.222	89.69
619.429	87.69
619.637	93.69
619.844	81.69
620.051	93.69
620.258	87.69
620.466	87.69
620.673	86.69
620.88	92.69
621.087	82.69
621.294	97.69
621.501	89.69
621.708	89.69
621.915	82.69
622.122	84.69
622.329	86.69
622.536	90.69
622.743	82.69
622.95	90.69
623.157	93.69
623.364	95.69
623.571	103.69
623.778	96.69
623.985	89.69
624.192	95.69
624.399	78.69
624.606	95.69
624.812	89.69
625.019	88.69
625.226	81.69
625.433	90.69
625.639	83.69
625.846	105.69
626.053	86.69
626.259	77.69
626.466	99.69
626.673	87.69
626.879	88.69
627.086	99.69
627.293	83.69
627.499	82.69
627.706	91.69
627.912	94.69
628.119	76.69
628.325	83.69
628.532	88.69
628.738	85.69
628.945	79.69
629.151	85.69
629.357	92.69
629.564	92.69
629.77	91.69
629.976	87.69
630.183	78.69
630.389	103.69
630.595	82.69
630.802	81.69
631.008	88.69
631.214	84.69
631.42	92.69
631.627	91.69
631.833	78.69
632.039	94.69
632.245	84.69
632.451	98.69
632.657	91.69
632.863	89.69
633.069	85.69
633.275	86.69
633.481	87.69
633.688	107.69
633.893	92.69
634.099	88.69
634.305	94.69
634.511	82.69
634.717	103.69
634.923	86.69
635.129	94.69
635.335	88.69
635.541	77.69
635.747	89.69
635.952	95.69
636.158	80.69
636.364	68.69
636.57	80.69
636.775	84.69
636.981	91.69
637.187	95.69
637.392	99.69
637.598	94.69
637.804	83.69
638.009	85.69
638.215	101.69
638.421	82.69
638.626	100.69
638.832	89.69
639.037	84.69
639.243	90.69
639.448	78.69
639.654	94.69
639.859	96.69
640.065	91.69
640.27	94.69
640.475	102.69
640.681	103.69
640.886	82.69
641.091	88.69
641.297	88.69
641.502	79.69
641.707	82.69
641.913	74.69
642.118	79.69
642.323	83.69
642.528	91.69
642.733	85.69
642.939	94.69
643.144	93.69
643.349	79.69
643.554	97.69
643.759	78.69
643.964	77.69
644.169	100.69
644.374	89.69
644.579	92.69
644.784	77.69
644.989	82.69
645.194	86.69
645.399	89.69
645.604	82.69
645.809	79.69
646.014	78.69
646.219	84.69
646.423	86.69
646.628	89.69
646.833	91.69
647.038	87.69
647.243	89.69
647.447	88.69
647.652	101.69
647.857	91.69
648.062	83.69
648.266	84.69
648.471	85.69
648.676	86.69
648.88	74.69
649.085	81.69
649.289	88.69
649.494	75.69
649.698	82.69
649.903	88.69
650.107	107.69
650.312	85.69
650.516	90.69
650.721	70.69
650.925	99.69
651.13	100.69
651.334	87.69
651.539	72.69
651.743	88.69
651.947	83.69
652.152	91.69
652.356	90.69
652.56	88.69
652.764	97.69
652.969	87.69
653.173	72.69
653.377	78.69
653.581	78.69
653.785	77.69
653.99	88.69
654.194	90.69
654.398	84.69
654.602	97.69
654.806	73.69
655.01	87.69
655.214	89.69
655.418	92.69
655.622	94.69
655.826	86.69
656.03	90.69
656.234	101.69
656.438	67.69
656.642	83.69
656.846	99.69
657.049	79.69
657.253	89.69
657.457	78.69
657.661	95.69
657.865	97.69
658.068	88.69
658.272	84.69
658.476	76.69
658.68	76.69
658.883	86.69
659.087	85.69
659.291	76.69
659.494	93.69
659.698	98.69
659.901	97.69
660.105	94.69
660.309	84.69
660.512	87.69
660.716	81.69
660.919	82.69
661.123	103.69
661.326	84.69
661.53	83.69
661.733	97.69
661.936	108.69
662.14	94.69
662.343	82.69
662.546	88.69
662.75	73.69
662.953	83.69
663.156	77.69
663.36	85.69
663.563	99.69
663.766	85.69
663.969	72.69
664.173	90.69
664.376	77.69
664.579	81.69
664.782	87.69
664.985	82.69
665.188	74.69
665.391	90.69
665.594	74.69
665.797	80.69
666	82.69
666.203	85.69
666.406	61.69
666.609	79.69
666.812	90.69
667.015	84.69
667.218	86.69
667.421	94.69
667.624	73.69
667.827	93.69
668.03	85.69
668.232	83.69
668.435	87.69
668.638	91.69
668.841	88.69
669.043	76.69
669.246	76.69
669.449	100.69
669.651	87.69
669.854	82.69
670.057	90.69
670.259	77.69
670.462	85.69
670.665	94.69
670.867	71.69
671.07	96.69
671.272	70.69
671.475	83.69
671.677	73.69
671.88	90.69
672.082	85.69
672.284	90.69
672.487	91.69
672.689	77.69
672.892	83.69
