Data from Ni(NO3)2@0.125M.TitratingCurve.Agarose3%dH2O.NegLispCup.LampEnergy10.LIBS07252019_HRD10591_18-09-21-567.txt Node
Date: Thu Jul 25 18:09:21 EDT 2019
User: cochatt
Spectrometer: HR+D1059
Trigger mode: 1
Integration Time (sec): 1.000000E-1
Scans to average: 1
Electric dark correction enabled: true
Nonlinearity correction enabled: false
Boxcar width: 0
XAxis mode: Wavelengths
Number of Pixels in Spectrum: 2048
>>>>>Begin Spectral Data<<<<<
223.165	-10.75
223.4	-10.75
223.635	-10.75
223.869	-19.75
224.104	-23.75
224.338	-6.75
224.573	-25.75
224.808	-9.75
225.042	-6.75
225.277	0.25
225.511	-15.75
225.746	5.25
225.98	9.25
226.215	13.25
226.449	23.25
226.683	13.25
226.918	23.25
227.152	31.25
227.387	39.25
227.621	42.25
227.856	37.25
228.09	45.25
228.324	38.25
228.559	50.25
228.793	53.25
229.027	109.25
229.262	117.25
229.496	117.25
229.73	131.25
229.964	109.25
230.199	139.25
230.433	143.25
230.667	150.25
230.901	145.25
231.136	150.25
231.37	134.25
231.604	147.25
231.838	155.25
232.072	163.25
232.306	154.25
232.541	181.25
232.775	159.25
233.009	175.25
233.243	154.25
233.477	185.25
233.711	175.25
233.945	161.25
234.179	165.25
234.413	171.25
234.647	160.25
234.881	154.25
235.115	159.25
235.349	156.25
235.583	169.25
235.817	169.25
236.051	158.25
236.285	173.25
236.519	165.25
236.753	156.25
236.987	180.25
237.221	183.25
237.455	182.25
237.689	161.25
237.922	166.25
238.156	172.25
238.39	204.25
238.624	185.25
238.858	182.25
239.091	184.25
239.325	189.25
239.559	192.25
239.793	199.25
240.027	195.25
240.26	192.25
240.494	209.25
240.728	183.25
240.961	207.25
241.195	200.25
241.429	198.25
241.662	201.25
241.896	220.25
242.13	214.25
242.363	214.25
242.597	215.25
242.83	212.25
243.064	215.25
243.298	217.25
243.531	223.25
243.765	238.25
243.998	229.25
244.232	221.25
244.465	243.25
244.699	238.25
244.932	234.25
245.166	231.25
245.399	257.25
245.633	245.25
245.866	253.25
246.099	254.25
246.333	251.25
246.566	265.25
246.8	248.25
247.033	233.25
247.266	258.25
247.5	246.25
247.733	258.25
247.966	266.25
248.2	257.25
248.433	263.25
248.666	270.25
248.899	270.25
249.133	263.25
249.366	267.25
249.599	279.25
249.832	285.25
250.066	282.25
250.299	274.25
250.532	306.25
250.765	306.25
250.998	282.25
251.231	278.25
251.465	277.25
251.698	307.25
251.931	307.25
252.164	317.25
252.397	311.25
252.63	327.25
252.863	318.25
253.096	331.25
253.329	331.25
253.562	319.25
253.795	330.25
254.028	315.25
254.261	329.25
254.494	323.25
254.727	325.25
254.96	326.25
255.193	318.25
255.426	323.25
255.659	333.25
255.892	345.25
256.124	343.25
256.357	344.25
256.59	342.25
256.823	341.25
257.056	359.25
257.289	358.25
257.521	338.25
257.754	362.25
257.987	363.25
258.22	359.25
258.452	364.25
258.685	347.25
258.918	355.25
259.151	346.25
259.383	366.25
259.616	351.25
259.849	380.25
260.081	370.25
260.314	383.25
260.547	369.25
260.779	362.25
261.012	385.25
261.244	382.25
261.477	370.25
261.71	383.25
261.942	397.25
262.175	393.25
262.407	381.25
262.64	405.25
262.872	389.25
263.105	400.25
263.337	387.25
263.57	396.25
263.802	395.25
264.035	406.25
264.267	414.25
264.499	403.25
264.732	398.25
264.964	387.25
265.197	378.25
265.429	415.25
265.661	396.25
265.894	405.25
266.126	432.25
266.358	409.25
266.591	415.25
266.823	433.25
267.055	437.25
267.287	436.25
267.52	422.25
267.752	427.25
267.984	423.25
268.216	422.25
268.448	442.25
268.681	430.25
268.913	446.25
269.145	464.25
269.377	451.25
269.609	437.25
269.841	433.25
270.073	442.25
270.306	436.25
270.538	439.25
270.77	438.25
271.002	425.25
271.234	439.25
271.466	448.25
271.698	435.25
271.93	458.25
272.162	454.25
272.394	483.25
272.626	445.25
272.858	460.25
273.09	450.25
273.322	478.25
273.553	453.25
273.785	471.25
274.017	457.25
274.249	453.25
274.481	486.25
274.713	493.25
274.945	502.25
275.176	481.25
275.408	495.25
275.64	497.25
275.872	494.25
276.104	498.25
276.335	500.25
276.567	492.25
276.799	505.25
277.031	517.25
277.262	493.25
277.494	498.25
277.726	505.25
277.957	498.25
278.189	505.25
278.421	499.25
278.652	541.25
278.884	518.25
279.115	520.25
279.347	535.25
279.579	513.25
279.81	519.25
280.042	527.25
280.273	528.25
280.505	551.25
280.736	528.25
280.968	514.25
281.199	519.25
281.431	539.25
281.662	524.25
281.894	539.25
282.125	567.25
282.356	556.25
282.588	555.25
282.819	538.25
283.051	569.25
283.282	551.25
283.513	571.25
283.745	545.25
283.976	583.25
284.207	581.25
284.439	573.25
284.67	561.25
284.901	573.25
285.132	573.25
285.364	582.25
285.595	578.25
285.826	583.25
286.057	588.25
286.288	583.25
286.52	595.25
286.751	585.25
286.982	584.25
287.213	607.25
287.444	591.25
287.675	593.25
287.906	603.25
288.138	612.25
288.369	587.25
288.6	591.25
288.831	611.25
289.062	614.25
289.293	604.25
289.524	617.25
289.755	606.25
289.986	609.25
290.217	613.25
290.448	607.25
290.679	610.25
290.91	613.25
291.141	607.25
291.371	611.25
291.602	603.25
291.833	619.25
292.064	629.25
292.295	635.25
292.526	632.25
292.757	630.25
292.987	607.25
293.218	608.25
293.449	631.25
293.68	624.25
293.91	631.25
294.141	610.25
294.372	611.25
294.603	608.25
294.833	645.25
295.064	617.25
295.295	608.25
295.525	636.25
295.756	609.25
295.987	635.25
296.217	637.25
296.448	642.25
296.679	622.25
296.909	671.25
297.14	665.25
297.37	636.25
297.601	675.25
297.831	650.25
298.062	671.25
298.292	680.25
298.523	680.25
298.753	694.25
298.984	665.25
299.214	676.25
299.445	650.25
299.675	678.25
299.905	681.25
300.136	670.25
300.366	671.25
300.597	714.25
300.827	711.25
301.057	717.25
301.288	718.25
301.518	701.25
301.748	720.25
301.979	711.25
302.209	709.25
302.439	725.25
302.669	717.25
302.9	711.25
303.13	687.25
303.36	701.25
303.59	695.25
303.82	715.25
304.051	685.25
304.281	689.25
304.511	687.25
304.741	698.25
304.971	707.25
305.201	701.25
305.431	687.25
305.661	693.25
305.891	685.25
306.121	726.25
306.352	703.25
306.582	716.25
306.812	695.25
307.042	677.25
307.272	707.25
307.502	673.25
307.731	682.25
307.961	706.25
308.191	683.25
308.421	697.25
308.651	703.25
308.881	661.25
309.111	690.25
309.341	676.25
309.571	697.25
309.8	715.25
310.03	714.25
310.26	699.25
310.49	689.25
310.72	682.25
310.949	731.25
311.179	679.25
311.409	708.25
311.639	721.25
311.868	705.25
312.098	711.25
312.328	700.25
312.557	739.25
312.787	719.25
313.017	736.25
313.246	727.25
313.476	734.25
313.706	764.25
313.935	748.25
314.165	757.25
314.394	761.25
314.624	754.25
314.853	742.25
315.083	715.25
315.312	732.25
315.542	732.25
315.771	709.25
316.001	722.25
316.23	735.25
316.46	720.25
316.689	743.25
316.919	739.25
317.148	710.25
317.377	737.25
317.607	693.25
317.836	702.25
318.065	730.25
318.295	734.25
318.524	739.25
318.753	737.25
318.983	719.25
319.212	743.25
319.441	736.25
319.67	710.25
319.9	706.25
320.129	717.25
320.358	762.25
320.587	736.25
320.816	728.25
321.046	724.25
321.275	740.25
321.504	751.25
321.733	745.25
321.962	730.25
322.191	747.25
322.42	734.25
322.649	763.25
322.878	779.25
323.108	748.25
323.337	758.25
323.566	758.25
323.795	764.25
324.024	781.25
324.253	765.25
324.482	757.25
324.71	757.25
324.939	779.25
325.168	760.25
325.397	758.25
325.626	791.25
325.855	793.25
326.084	805.25
326.313	835.25
326.542	843.25
326.77	844.25
326.999	805.25
327.228	777.25
327.457	798.25
327.686	796.25
327.914	804.25
328.143	810.25
328.372	812.25
328.6	810.25
328.829	829.25
329.058	817.25
329.287	800.25
329.515	826.25
329.744	829.25
329.972	833.25
330.201	828.25
330.43	869.25
330.658	874.25
330.887	870.25
331.115	852.25
331.344	842.25
331.572	855.25
331.801	889.25
332.03	899.25
332.258	919.25
332.486	950.25
332.715	996.25
332.943	1033.25
333.172	1081.25
333.4	1130.25
333.629	1150.25
333.857	1165.25
334.085	1083.25
334.314	1117.25
334.542	1076.25
334.771	1069.25
334.999	1041.25
335.227	1027.25
335.455	998.25
335.684	1011.25
335.912	1021.25
336.14	991.25
336.369	995.25
336.597	1014.25
336.825	996.25
337.053	990.25
337.281	986.25
337.51	974.25
337.738	931.25
337.966	911.25
338.194	913.25
338.422	909.25
338.65	887.25
338.878	920.25
339.106	917.25
339.334	911.25
339.562	895.25
339.79	859.25
340.018	859.25
340.246	864.25
340.474	847.25
340.702	866.25
340.93	897.25
341.158	859.25
341.386	885.25
341.614	894.25
341.842	862.25
342.07	842.25
342.298	847.25
342.526	862.25
342.754	887.25
342.981	834.25
343.209	862.25
343.437	921.25
343.665	967.25
343.893	1067.25
344.12	1104.25
344.348	1034.25
344.576	999.25
344.804	967.25
345.031	893.25
345.259	857.25
345.487	870.25
345.714	859.25
345.942	853.25
346.17	869.25
346.397	873.25
346.625	872.25
346.853	846.25
347.08	824.25
347.308	845.25
347.535	819.25
347.763	846.25
347.99	838.25
348.218	853.25
348.445	834.25
348.673	825.25
348.9	826.25
349.128	840.25
349.355	833.25
349.583	842.25
349.81	810.25
350.037	814.25
350.265	827.25
350.492	809.25
350.72	844.25
350.947	805.25
351.174	802.25
351.402	819.25
351.629	829.25
351.856	786.25
352.083	805.25
352.311	777.25
352.538	783.25
352.765	809.25
352.992	812.25
353.22	803.25
353.447	797.25
353.674	797.25
353.901	810.25
354.128	790.25
354.355	802.25
354.583	813.25
354.81	786.25
355.037	794.25
355.264	815.25
355.491	820.25
355.718	813.25
355.945	807.25
356.172	805.25
356.399	801.25
356.626	813.25
356.853	843.25
357.08	807.25
357.307	814.25
357.534	804.25
357.761	831.25
357.988	815.25
358.215	801.25
358.441	787.25
358.668	757.25
358.895	775.25
359.122	792.25
359.349	808.25
359.576	825.25
359.802	790.25
360.029	796.25
360.256	794.25
360.483	819.25
360.709	803.25
360.936	819.25
361.163	788.25
361.39	803.25
361.616	795.25
361.843	772.25
362.07	799.25
362.296	802.25
362.523	804.25
362.749	799.25
362.976	830.25
363.203	805.25
363.429	793.25
363.656	817.25
363.882	799.25
364.109	789.25
364.335	789.25
364.562	766.25
364.788	821.25
365.015	810.25
365.241	805.25
365.468	802.25
365.694	794.25
365.92	793.25
366.147	793.25
366.373	774.25
366.599	789.25
366.826	794.25
367.052	794.25
367.278	819.25
367.505	793.25
367.731	797.25
367.957	790.25
368.184	805.25
368.41	804.25
368.636	827.25
368.862	825.25
369.089	803.25
369.315	839.25
369.541	839.25
369.767	846.25
369.993	842.25
370.219	831.25
370.445	854.25
370.672	844.25
370.898	840.25
371.124	856.25
371.35	865.25
371.576	870.25
371.802	879.25
372.028	866.25
372.254	875.25
372.48	891.25
372.706	895.25
372.932	909.25
373.158	904.25
373.384	887.25
373.61	857.25
373.835	865.25
374.061	867.25
374.287	885.25
374.513	901.25
374.739	934.25
374.965	959.25
375.191	972.25
375.416	977.25
375.642	940.25
375.868	913.25
376.094	932.25
376.319	894.25
376.545	882.25
376.771	899.25
376.997	892.25
377.222	881.25
377.448	850.25
377.674	889.25
377.899	847.25
378.125	870.25
378.35	851.25
378.576	850.25
378.802	866.25
379.027	855.25
379.253	857.25
379.478	851.25
379.704	850.25
379.929	873.25
380.155	849.25
380.38	866.25
380.606	886.25
380.831	890.25
381.057	856.25
381.282	862.25
381.507	847.25
381.733	854.25
381.958	881.25
382.184	903.25
382.409	899.25
382.634	909.25
382.86	926.25
383.085	940.25
383.31	917.25
383.535	967.25
383.761	937.25
383.986	998.25
384.211	995.25
384.436	1008.25
384.662	1021.25
384.887	1052.25
385.112	1053.25
385.337	1051.25
385.562	1079.25
385.787	1059.25
386.013	1083.25
386.238	1070.25
386.463	1058.25
386.688	1052.25
386.913	1061.25
387.138	1038.25
387.363	1022.25
387.588	1024.25
387.813	1038.25
388.038	1014.25
388.263	1041.25
388.488	1052.25
388.713	1023.25
388.938	1016.25
389.163	997.25
389.387	1029.25
389.612	998.25
389.837	998.25
390.062	1004.25
390.287	1006.25
390.512	1034.25
390.736	1036.25
390.961	1019.25
391.186	1041.25
391.411	1095.25
391.636	1137.25
391.86	1155.25
392.085	1209.25
392.31	1173.25
392.534	1141.25
392.759	1128.25
392.984	1139.25
393.208	1109.25
393.433	1107.25
393.658	1064.25
393.882	1090.25
394.107	1097.25
394.331	1109.25
394.556	1109.25
394.78	1102.25
395.005	1117.25
395.229	1128.25
395.454	1177.25
395.678	1155.25
395.903	1197.25
396.127	1179.25
396.352	1121.25
396.576	1091.25
396.801	1072.25
397.025	1090.25
397.249	1121.25
397.474	1149.25
397.698	1175.25
397.922	1183.25
398.147	1188.25
398.371	1145.25
398.595	1218.25
398.82	1281.25
399.044	1382.25
399.268	1509.25
399.492	1813.25
399.717	2064.25
399.941	2041.25
400.165	1806.25
400.389	1579.25
400.613	1473.25
400.837	1397.25
401.062	1316.25
401.286	1345.25
401.51	1310.25
401.734	1315.25
401.958	1321.25
402.182	1335.25
402.406	1384.25
402.63	1395.25
402.854	1431.25
403.078	1426.25
403.302	1482.25
403.526	1471.25
403.75	1531.25
403.974	1532.25
404.198	1614.25
404.422	1595.25
404.645	1517.25
404.869	1524.25
405.093	1483.25
405.317	1497.25
405.541	1413.25
405.765	1437.25
405.988	1459.25
406.212	1428.25
406.436	1423.25
406.66	1494.25
406.883	1488.25
407.107	1629.25
407.331	1680.25
407.555	1773.25
407.778	1725.25
408.002	1702.25
408.226	1606.25
408.449	1602.25
408.673	1510.25
408.896	1476.25
409.12	1493.25
409.344	1483.25
409.567	1514.25
409.791	1537.25
410.014	1536.25
410.238	1491.25
410.461	1490.25
410.685	1447.25
410.908	1445.25
411.132	1430.25
411.355	1388.25
411.578	1375.25
411.802	1359.25
412.025	1368.25
412.249	1383.25
412.472	1387.25
412.695	1331.25
412.919	1315.25
413.142	1336.25
413.365	1289.25
413.589	1343.25
413.812	1325.25
414.035	1285.25
414.258	1289.25
414.482	1320.25
414.705	1347.25
414.928	1342.25
415.151	1326.25
415.374	1295.25
415.597	1342.25
415.821	1316.25
416.044	1294.25
416.267	1266.25
416.49	1286.25
416.713	1278.25
416.936	1263.25
417.159	1262.25
417.382	1287.25
417.605	1309.25
417.828	1306.25
418.051	1314.25
418.274	1317.25
418.497	1341.25
418.72	1352.25
418.943	1359.25
419.166	1421.25
419.389	1545.25
419.611	1475.25
419.834	1407.25
420.057	1348.25
420.28	1334.25
420.503	1282.25
420.726	1274.25
420.948	1293.25
421.171	1296.25
421.394	1305.25
421.617	1277.25
421.839	1301.25
422.062	1343.25
422.285	1291.25
422.507	1374.25
422.73	1358.25
422.953	1377.25
423.175	1435.25
423.398	1400.25
423.621	1397.25
423.843	1405.25
424.066	1419.25
424.288	1406.25
424.511	1345.25
424.733	1367.25
424.956	1354.25
425.178	1326.25
425.401	1314.25
425.623	1294.25
425.846	1276.25
426.068	1258.25
426.291	1233.25
426.513	1242.25
426.735	1229.25
426.958	1223.25
427.18	1185.25
427.402	1179.25
427.625	1196.25
427.847	1157.25
428.069	1172.25
428.292	1163.25
428.514	1163.25
428.736	1174.25
428.958	1159.25
429.181	1139.25
429.403	1126.25
429.625	1173.25
429.847	1124.25
430.069	1124.25
430.292	1121.25
430.514	1100.25
430.736	1148.25
430.958	1133.25
431.18	1120.25
431.402	1130.25
431.624	1153.25
431.846	1139.25
432.068	1181.25
432.29	1177.25
432.512	1166.25
432.734	1153.25
432.956	1133.25
433.178	1146.25
433.4	1159.25
433.622	1167.25
433.844	1164.25
434.066	1189.25
434.287	1201.25
434.509	1209.25
434.731	1272.25
434.953	1341.25
435.175	1333.25
435.397	1322.25
435.618	1226.25
435.84	1196.25
436.062	1185.25
436.284	1159.25
436.505	1170.25
436.727	1171.25
436.949	1168.25
437.17	1186.25
437.392	1163.25
437.614	1147.25
437.835	1094.25
438.057	1146.25
438.278	1077.25
438.5	1118.25
438.721	1111.25
438.943	1148.25
439.165	1115.25
439.386	1091.25
439.608	1164.25
439.829	1151.25
440.05	1128.25
440.272	1167.25
440.493	1152.25
440.715	1175.25
440.936	1228.25
441.158	1211.25
441.379	1269.25
441.6	1311.25
441.822	1342.25
442.043	1318.25
442.264	1335.25
442.486	1274.25
442.707	1293.25
442.928	1283.25
443.149	1329.25
443.371	1257.25
443.592	1304.25
443.813	1328.25
444.034	1351.25
444.255	1385.25
444.476	1442.25
444.698	1513.25
444.919	1628.25
445.14	1655.25
445.361	1480.25
445.582	1387.25
445.803	1293.25
446.024	1230.25
446.245	1250.25
446.466	1211.25
446.687	1164.25
446.908	1154.25
447.129	1149.25
447.35	1144.25
447.571	1109.25
447.792	1099.25
448.013	1102.25
448.234	1093.25
448.455	1069.25
448.675	1085.25
448.896	1091.25
449.117	1035.25
449.338	1081.25
449.559	1053.25
449.779	1070.25
450	1058.25
450.221	1052.25
450.442	1082.25
450.662	1059.25
450.883	1092.25
451.104	1104.25
451.324	1121.25
451.545	1104.25
451.766	1074.25
451.986	1059.25
452.207	1053.25
452.428	1052.25
452.648	1077.25
452.869	1019.25
453.089	1041.25
453.31	1054.25
453.53	1027.25
453.751	1036.25
453.971	1037.25
454.192	1051.25
454.412	1010.25
454.633	1020.25
454.853	1003.25
455.073	983.25
455.294	1005.25
455.514	997.25
455.734	987.25
455.955	976.25
456.175	994.25
456.395	978.25
456.616	964.25
456.836	990.25
457.056	986.25
457.276	963.25
457.497	993.25
457.717	965.25
457.937	964.25
458.157	1009.25
458.377	1006.25
458.598	1029.25
458.818	1061.25
459.038	1099.25
459.258	1126.25
459.478	1195.25
459.698	1179.25
459.918	1283.25
460.138	1313.25
460.358	1385.25
460.578	1366.25
460.798	1386.25
461.018	1447.25
461.238	1373.25
461.458	1361.25
461.678	1389.25
461.898	1403.25
462.118	1380.25
462.338	1465.25
462.558	1527.25
462.777	1570.25
462.997	1735.25
463.217	1897.25
463.437	1926.25
463.657	1724.25
463.876	1612.25
464.096	1655.25
464.316	1623.25
464.536	1636.25
464.755	1561.25
464.975	1521.25
465.195	1460.25
465.414	1333.25
465.634	1276.25
465.854	1206.25
466.073	1196.25
466.293	1181.25
466.512	1141.25
466.732	1146.25
466.951	1108.25
467.171	1093.25
467.391	1124.25
467.61	1137.25
467.829	1111.25
468.049	1085.25
468.268	1040.25
468.488	1064.25
468.707	1029.25
468.927	1072.25
469.146	1063.25
469.365	1060.25
469.585	1077.25
469.804	1130.25
470.023	1145.25
470.243	1137.25
470.462	1131.25
470.681	1127.25
470.901	1187.25
471.12	1139.25
471.339	1087.25
471.558	1071.25
471.777	1091.25
471.997	1067.25
472.216	1063.25
472.435	1055.25
472.654	1029.25
472.873	1029.25
473.092	1042.25
473.311	1036.25
473.53	1042.25
473.749	1022.25
473.968	1015.25
474.187	1020.25
474.406	1028.25
474.625	1032.25
474.844	1029.25
475.063	1058.25
475.282	1049.25
475.501	1057.25
475.72	1049.25
475.939	1041.25
476.158	1020.25
476.377	1092.25
476.596	1037.25
476.814	1071.25
477.033	1077.25
477.252	1121.25
477.471	1154.25
477.69	1135.25
477.908	1221.25
478.127	1266.25
478.346	1233.25
478.564	1269.25
478.783	1298.25
479.002	1300.25
479.22	1321.25
479.439	1317.25
479.658	1323.25
479.876	1277.25
480.095	1322.25
480.313	1371.25
480.532	1436.25
480.751	1415.25
480.969	1330.25
481.188	1285.25
481.406	1285.25
481.624	1211.25
481.843	1213.25
482.061	1177.25
482.28	1185.25
482.498	1181.25
482.717	1165.25
482.935	1187.25
483.153	1185.25
483.372	1167.25
483.59	1187.25
483.808	1190.25
484.027	1206.25
484.245	1194.25
484.463	1207.25
484.681	1233.25
484.9	1208.25
485.118	1242.25
485.336	1212.25
485.554	1220.25
485.772	1255.25
485.99	1269.25
486.209	1273.25
486.427	1190.25
486.645	1239.25
486.863	1299.25
487.081	1261.25
487.299	1267.25
487.517	1255.25
487.735	1251.25
487.953	1228.25
488.171	1253.25
488.389	1223.25
488.607	1224.25
488.825	1237.25
489.043	1207.25
489.261	1198.25
489.479	1229.25
489.696	1224.25
489.914	1231.25
490.132	1244.25
490.35	1220.25
490.568	1196.25
490.786	1259.25
491.003	1252.25
491.221	1261.25
491.439	1255.25
491.657	1304.25
491.874	1237.25
492.092	1233.25
492.31	1287.25
492.527	1254.25
492.745	1250.25
492.963	1285.25
493.18	1288.25
493.398	1282.25
493.615	1296.25
493.833	1307.25
494.05	1323.25
494.268	1310.25
494.485	1300.25
494.703	1278.25
494.92	1331.25
495.138	1334.25
495.355	1323.25
495.573	1291.25
495.79	1316.25
496.008	1323.25
496.225	1342.25
496.442	1327.25
496.66	1373.25
496.877	1368.25
497.094	1385.25
497.312	1374.25
497.529	1444.25
497.746	1489.25
497.963	1558.25
498.181	1606.25
498.398	1685.25
498.615	1750.25
498.832	1927.25
499.049	2062.25
499.267	2208.25
499.484	2380.25
499.701	2745.25
499.918	3009.25
500.135	3521.25
500.352	4020.25
500.569	4323.25
500.786	4212.25
501.003	3843.25
501.22	3445.25
501.437	2901.25
501.654	2542.25
501.871	2337.25
502.088	2175.25
502.305	1998.25
502.522	1898.25
502.739	1835.25
502.956	1702.25
503.172	1655.25
503.389	1575.25
503.606	1560.25
503.823	1483.25
504.04	1491.25
504.256	1541.25
504.473	1585.25
504.69	1608.25
504.907	1581.25
505.123	1432.25
505.34	1380.25
505.557	1299.25
505.773	1263.25
505.99	1244.25
506.207	1216.25
506.423	1246.25
506.64	1211.25
506.856	1199.25
507.073	1191.25
507.289	1165.25
507.506	1164.25
507.722	1158.25
507.939	1168.25
508.155	1114.25
508.372	1137.25
508.588	1099.25
508.805	1127.25
509.021	1095.25
509.238	1115.25
509.454	1077.25
509.67	1099.25
509.887	1067.25
510.103	1073.25
510.319	1082.25
510.536	1037.25
510.752	1051.25
510.968	1053.25
511.184	1074.25
511.401	1037.25
511.617	1050.25
511.833	1020.25
512.049	1045.25
512.265	1079.25
512.481	1041.25
512.698	1037.25
512.914	1043.25
513.13	1023.25
513.346	1051.25
513.562	1028.25
513.778	1059.25
513.994	1051.25
514.21	1086.25
514.426	1066.25
514.642	1069.25
514.858	1076.25
515.074	1079.25
515.29	1091.25
515.506	1094.25
515.721	1094.25
515.937	1158.25
516.153	1155.25
516.369	1175.25
516.585	1203.25
516.801	1257.25
517.016	1296.25
517.232	1363.25
517.448	1437.25
517.664	1521.25
517.879	1519.25
518.095	1545.25
518.311	1483.25
518.527	1413.25
518.742	1347.25
518.958	1275.25
519.173	1230.25
519.389	1219.25
519.605	1171.25
519.82	1133.25
520.036	1165.25
520.251	1090.25
520.467	1052.25
520.682	1063.25
520.898	1081.25
521.113	1038.25
521.329	1039.25
521.544	1011.25
521.76	1016.25
521.975	982.25
522.19	1027.25
522.406	1022.25
522.621	1023.25
522.836	999.25
523.052	977.25
523.267	1002.25
523.482	991.25
523.698	963.25
523.913	947.25
524.128	986.25
524.343	974.25
524.559	956.25
524.774	955.25
524.989	967.25
525.204	964.25
525.419	962.25
525.634	949.25
525.849	937.25
526.064	930.25
526.28	951.25
526.495	942.25
526.71	928.25
526.925	929.25
527.14	925.25
527.355	936.25
527.57	946.25
527.785	949.25
527.999	951.25
528.214	939.25
528.429	963.25
528.644	940.25
528.859	941.25
529.074	938.25
529.289	951.25
529.503	959.25
529.718	967.25
529.933	935.25
530.148	941.25
530.363	979.25
530.577	956.25
530.792	937.25
531.007	927.25
531.221	965.25
531.436	924.25
531.651	941.25
531.865	964.25
532.08	951.25
532.295	934.25
532.509	943.25
532.724	936.25
532.938	953.25
533.153	953.25
533.367	931.25
533.582	954.25
533.796	963.25
534.011	965.25
534.225	940.25
534.44	927.25
534.654	938.25
534.868	932.25
535.083	907.25
535.297	889.25
535.511	882.25
535.726	923.25
535.94	899.25
536.154	917.25
536.369	892.25
536.583	873.25
536.797	894.25
537.011	870.25
537.225	864.25
537.44	879.25
537.654	862.25
537.868	859.25
538.082	863.25
538.296	856.25
538.51	880.25
538.724	885.25
538.938	852.25
539.153	844.25
539.367	870.25
539.581	874.25
539.795	857.25
540.009	828.25
540.222	851.25
540.436	846.25
540.65	823.25
540.864	843.25
541.078	819.25
541.292	849.25
541.506	854.25
541.72	858.25
541.934	878.25
542.147	881.25
542.361	852.25
542.575	819.25
542.789	844.25
543.002	811.25
543.216	825.25
543.43	833.25
543.644	830.25
543.857	844.25
544.071	821.25
544.285	851.25
544.498	849.25
544.712	833.25
544.925	878.25
545.139	841.25
545.352	888.25
545.566	870.25
545.779	875.25
545.993	883.25
546.206	874.25
546.42	872.25
546.633	854.25
546.847	851.25
547.06	873.25
547.274	874.25
547.487	862.25
547.7	867.25
547.914	862.25
548.127	892.25
548.34	899.25
548.554	879.25
548.767	881.25
548.98	847.25
549.193	867.25
549.407	909.25
549.62	889.25
549.833	914.25
550.046	928.25
550.259	892.25
550.473	860.25
550.686	836.25
550.899	853.25
551.112	874.25
551.325	833.25
551.538	821.25
551.751	840.25
551.964	848.25
552.177	886.25
552.39	859.25
552.603	881.25
552.816	930.25
553.029	919.25
553.242	943.25
553.455	947.25
553.667	988.25
553.88	968.25
554.093	920.25
554.306	906.25
554.519	858.25
554.732	843.25
554.944	855.25
555.157	821.25
555.37	832.25
555.583	821.25
555.795	818.25
556.008	794.25
556.221	779.25
556.433	792.25
556.646	762.25
556.859	745.25
557.071	739.25
557.284	743.25
557.496	734.25
557.709	755.25
557.921	713.25
558.134	734.25
558.346	717.25
558.559	730.25
558.771	731.25
558.984	724.25
559.196	722.25
559.409	709.25
559.621	707.25
559.833	711.25
560.046	726.25
560.258	693.25
560.47	701.25
560.683	685.25
560.895	696.25
561.107	721.25
561.32	712.25
561.532	685.25
561.744	706.25
561.956	705.25
562.168	708.25
562.381	726.25
562.593	715.25
562.805	713.25
563.017	710.25
563.229	705.25
563.441	718.25
563.653	711.25
563.865	703.25
564.077	715.25
564.289	733.25
564.501	739.25
564.713	765.25
564.925	769.25
565.137	796.25
565.349	776.25
565.561	805.25
565.773	839.25
565.985	888.25
566.197	925.25
566.408	1000.25
566.62	1090.25
566.832	1175.25
567.044	1222.25
567.255	1199.25
567.467	1202.25
567.679	1292.25
567.891	1419.25
568.102	1494.25
568.314	1391.25
568.526	1192.25
568.737	1103.25
568.949	1003.25
569.161	911.25
569.372	841.25
569.584	805.25
569.795	789.25
570.007	765.25
570.218	730.25
570.43	716.25
570.641	725.25
570.853	731.25
571.064	723.25
571.276	734.25
571.487	717.25
571.698	713.25
571.91	645.25
572.121	640.25
572.333	644.25
572.544	601.25
572.755	606.25
572.966	600.25
573.178	613.25
573.389	575.25
573.6	587.25
573.811	585.25
574.023	575.25
574.234	561.25
574.445	581.25
574.656	597.25
574.867	599.25
575.078	574.25
575.289	573.25
575.501	573.25
575.712	568.25
575.923	546.25
576.134	546.25
576.345	544.25
576.556	538.25
576.767	553.25
576.978	548.25
577.188	546.25
577.399	532.25
577.61	549.25
577.821	533.25
578.032	516.25
578.243	521.25
578.454	529.25
578.665	519.25
578.875	509.25
579.086	501.25
579.297	498.25
579.508	525.25
579.718	513.25
579.929	495.25
580.14	498.25
580.35	490.25
580.561	484.25
580.772	493.25
580.982	505.25
581.193	503.25
581.403	513.25
581.614	487.25
581.825	488.25
582.035	486.25
582.246	511.25
582.456	490.25
582.667	482.25
582.877	473.25
583.087	483.25
583.298	483.25
583.508	488.25
583.719	471.25
583.929	475.25
584.139	484.25
584.35	456.25
584.56	485.25
584.77	484.25
584.981	488.25
585.191	462.25
585.401	455.25
585.611	487.25
585.821	464.25
586.032	473.25
586.242	461.25
586.452	459.25
586.662	463.25
586.872	462.25
587.082	441.25
587.292	465.25
587.502	469.25
587.713	465.25
587.923	461.25
588.133	458.25
588.343	442.25
588.553	463.25
588.762	463.25
588.972	453.25
589.182	447.25
589.392	456.25
589.602	471.25
589.812	462.25
590.022	476.25
590.232	488.25
590.441	473.25
590.651	469.25
590.861	468.25
591.071	462.25
591.281	469.25
591.49	488.25
591.7	489.25
591.91	485.25
592.119	493.25
592.329	505.25
592.539	515.25
592.748	549.25
592.958	561.25
593.167	561.25
593.377	593.25
593.587	603.25
593.796	610.25
594.006	582.25
594.215	631.25
594.424	632.25
594.634	594.25
594.843	575.25
595.053	577.25
595.262	521.25
595.472	510.25
595.681	475.25
595.89	467.25
596.1	484.25
596.309	458.25
596.518	462.25
596.727	447.25
596.937	411.25
597.146	433.25
597.355	423.25
597.564	429.25
597.774	411.25
597.983	390.25
598.192	388.25
598.401	436.25
598.61	404.25
598.819	400.25
599.028	384.25
599.237	400.25
599.446	392.25
599.655	383.25
599.864	386.25
600.073	406.25
600.282	378.25
600.491	365.25
600.7	374.25
600.909	375.25
601.118	390.25
601.327	387.25
601.536	374.25
601.745	385.25
601.953	377.25
602.162	382.25
602.371	363.25
602.58	373.25
602.789	383.25
602.997	363.25
603.206	378.25
603.415	346.25
603.623	367.25
603.832	360.25
604.041	365.25
604.249	354.25
604.458	357.25
604.666	372.25
604.875	345.25
605.084	366.25
605.292	356.25
605.501	379.25
605.709	365.25
605.918	360.25
606.126	357.25
606.334	372.25
606.543	366.25
606.751	355.25
606.96	357.25
607.168	348.25
607.376	343.25
607.585	350.25
607.793	356.25
608.001	358.25
608.21	341.25
608.418	351.25
608.626	349.25
608.834	349.25
609.043	339.25
609.251	342.25
609.459	330.25
609.667	350.25
609.875	340.25
610.083	350.25
610.291	337.25
610.499	345.25
610.707	335.25
610.916	338.25
611.124	335.25
611.332	329.25
611.54	344.25
611.748	344.25
611.955	333.25
612.163	345.25
612.371	325.25
612.579	309.25
612.787	363.25
612.995	337.25
613.203	333.25
613.411	309.25
613.618	330.25
613.826	328.25
614.034	341.25
614.242	324.25
614.449	318.25
614.657	351.25
614.865	345.25
615.072	324.25
615.28	331.25
615.488	337.25
615.695	330.25
615.903	319.25
616.111	359.25
616.318	334.25
616.526	354.25
616.733	333.25
616.941	325.25
617.148	350.25
617.356	346.25
617.563	339.25
617.771	338.25
617.978	332.25
618.185	326.25
618.393	331.25
618.6	340.25
618.807	330.25
619.015	330.25
619.222	328.25
619.429	339.25
619.637	323.25
619.844	315.25
620.051	318.25
620.258	331.25
620.466	318.25
620.673	315.25
620.88	309.25
621.087	313.25
621.294	319.25
621.501	305.25
621.708	294.25
621.915	308.25
622.122	315.25
622.329	299.25
622.536	298.25
622.743	292.25
622.95	307.25
623.157	302.25
623.364	298.25
623.571	307.25
623.778	301.25
623.985	290.25
624.192	290.25
624.399	285.25
624.606	299.25
624.812	277.25
625.019	281.25
625.226	249.25
625.433	276.25
625.639	281.25
625.846	271.25
626.053	262.25
626.259	298.25
626.466	269.25
626.673	289.25
626.879	275.25
627.086	285.25
627.293	280.25
627.499	280.25
627.706	290.25
627.912	297.25
628.119	279.25
628.325	275.25
628.532	272.25
628.738	285.25
628.945	259.25
629.151	271.25
629.357	290.25
629.564	245.25
629.77	264.25
629.976	281.25
630.183	244.25
630.389	257.25
630.595	258.25
630.802	262.25
631.008	263.25
631.214	271.25
631.42	257.25
631.627	263.25
631.833	245.25
632.039	242.25
632.245	231.25
632.451	250.25
632.657	234.25
632.863	268.25
633.069	249.25
633.275	230.25
633.481	237.25
633.688	243.25
633.893	224.25
634.099	233.25
634.305	236.25
634.511	231.25
634.717	241.25
634.923	230.25
635.129	221.25
635.335	252.25
635.541	250.25
635.747	244.25
635.952	236.25
636.158	239.25
636.364	254.25
636.57	235.25
636.775	231.25
636.981	236.25
637.187	235.25
637.392	237.25
637.598	223.25
637.804	230.25
638.009	247.25
638.215	256.25
638.421	220.25
638.626	234.25
638.832	220.25
639.037	220.25
639.243	222.25
639.448	222.25
639.654	211.25
639.859	218.25
640.065	226.25
640.27	228.25
640.475	226.25
640.681	221.25
640.886	211.25
641.091	229.25
641.297	223.25
641.502	207.25
641.707	209.25
641.913	218.25
642.118	213.25
642.323	203.25
642.528	216.25
642.733	214.25
642.939	212.25
643.144	207.25
643.349	211.25
643.554	202.25
643.759	195.25
643.964	213.25
644.169	205.25
644.374	211.25
644.579	214.25
644.784	207.25
644.989	213.25
645.194	207.25
645.399	218.25
645.604	210.25
645.809	210.25
646.014	213.25
646.219	218.25
646.423	224.25
646.628	192.25
646.833	216.25
647.038	223.25
647.243	222.25
647.447	238.25
647.652	205.25
647.857	218.25
648.062	225.25
648.266	213.25
648.471	236.25
648.676	216.25
648.88	226.25
649.085	228.25
649.289	222.25
649.494	228.25
649.698	211.25
649.903	211.25
650.107	208.25
650.312	197.25
650.516	186.25
650.721	196.25
650.925	207.25
651.13	199.25
651.334	177.25
651.539	201.25
651.743	185.25
651.947	196.25
652.152	168.25
652.356	179.25
652.56	183.25
652.764	172.25
652.969	187.25
653.173	171.25
653.377	157.25
653.581	175.25
653.785	174.25
653.99	171.25
654.194	173.25
654.398	175.25
654.602	174.25
654.806	158.25
655.01	158.25
655.214	143.25
655.418	155.25
655.622	155.25
655.826	155.25
656.03	161.25
656.234	172.25
656.438	158.25
656.642	166.25
656.846	141.25
657.049	163.25
657.253	135.25
657.457	147.25
657.661	139.25
657.865	127.25
658.068	141.25
658.272	125.25
658.476	123.25
658.68	116.25
658.883	121.25
659.087	103.25
659.291	120.25
659.494	109.25
659.698	106.25
659.901	100.25
660.105	108.25
660.309	116.25
660.512	98.25
660.716	93.25
660.919	101.25
661.123	104.25
661.326	98.25
661.53	110.25
661.733	101.25
661.936	101.25
662.14	84.25
662.343	103.25
662.546	87.25
662.75	89.25
662.953	84.25
663.156	97.25
663.36	100.25
663.563	94.25
663.766	78.25
663.969	92.25
664.173	85.25
664.376	85.25
664.579	75.25
664.782	81.25
664.985	69.25
665.188	94.25
665.391	78.25
665.594	87.25
665.797	86.25
666	93.25
666.203	87.25
666.406	92.25
666.609	88.25
666.812	82.25
667.015	67.25
667.218	85.25
667.421	98.25
667.624	81.25
667.827	85.25
668.03	73.25
668.232	79.25
668.435	78.25
668.638	85.25
668.841	76.25
669.043	81.25
669.246	85.25
669.449	79.25
669.651	83.25
669.854	90.25
670.057	80.25
670.259	79.25
670.462	77.25
670.665	72.25
670.867	86.25
671.07	91.25
671.272	73.25
671.475	79.25
671.677	77.25
671.88	61.25
672.082	74.25
672.284	76.25
672.487	89.25
672.689	95.25
672.892	98.25
