Data from Ni(NO3)2@0.5M.TitratingCurve.Agarose3%dH2O.NegLispCup.LampEnergy10.LIBS07252019_HRD10591_17-58-57-564.txt Node
Date: Thu Jul 25 17:58:57 EDT 2019
User: cochatt
Spectrometer: HR+D1059
Trigger mode: 1
Integration Time (sec): 1.000000E-1
Scans to average: 1
Electric dark correction enabled: true
Nonlinearity correction enabled: false
Boxcar width: 0
XAxis mode: Wavelengths
Number of Pixels in Spectrum: 2048
>>>>>Begin Spectral Data<<<<<
223.165	-22.12
223.4	-22.12
223.635	-22.12
223.869	-18.12
224.104	-19.12
224.338	-8.12
224.573	-16.12
224.808	-16.12
225.042	4.88
225.277	-15.12
225.511	1.88
225.746	4.88
225.98	4.88
226.215	8.88
226.449	14.88
226.683	16.88
226.918	17.88
227.152	39.88
227.387	17.88
227.621	32.88
227.856	51.88
228.09	46.88
228.324	55.88
228.559	54.88
228.793	84.88
229.027	136.88
229.262	139.88
229.496	146.88
229.73	172.88
229.964	182.88
230.199	222.88
230.433	214.88
230.667	213.88
230.901	192.88
231.136	185.88
231.37	185.88
231.604	189.88
231.838	206.88
232.072	216.88
232.306	215.88
232.541	187.88
232.775	174.88
233.009	173.88
233.243	180.88
233.477	173.88
233.711	178.88
233.945	181.88
234.179	172.88
234.413	199.88
234.647	176.88
234.881	179.88
235.115	193.88
235.349	182.88
235.583	188.88
235.817	166.88
236.051	179.88
236.285	170.88
236.519	181.88
236.753	183.88
236.987	191.88
237.221	200.88
237.455	175.88
237.689	187.88
237.922	184.88
238.156	191.88
238.39	195.88
238.624	183.88
238.858	189.88
239.091	200.88
239.325	204.88
239.559	229.88
239.793	239.88
240.027	221.88
240.26	189.88
240.494	200.88
240.728	206.88
240.961	207.88
241.195	182.88
241.429	207.88
241.662	233.88
241.896	237.88
242.13	238.88
242.363	219.88
242.597	220.88
242.83	215.88
243.064	225.88
243.298	225.88
243.531	244.88
243.765	232.88
243.998	249.88
244.232	247.88
244.465	224.88
244.699	246.88
244.932	235.88
245.166	232.88
245.399	232.88
245.633	240.88
245.866	236.88
246.099	243.88
246.333	230.88
246.566	245.88
246.8	261.88
247.033	245.88
247.266	257.88
247.5	253.88
247.733	255.88
247.966	279.88
248.2	276.88
248.433	265.88
248.666	281.88
248.899	277.88
249.133	266.88
249.366	263.88
249.599	281.88
249.832	279.88
250.066	268.88
250.299	288.88
250.532	264.88
250.765	271.88
250.998	310.88
251.231	323.88
251.465	333.88
251.698	331.88
251.931	299.88
252.164	320.88
252.397	317.88
252.63	312.88
252.863	313.88
253.096	305.88
253.329	313.88
253.562	304.88
253.795	316.88
254.028	304.88
254.261	308.88
254.494	326.88
254.727	334.88
254.96	330.88
255.193	341.88
255.426	341.88
255.659	319.88
255.892	346.88
256.124	348.88
256.357	348.88
256.59	332.88
256.823	339.88
257.056	343.88
257.289	352.88
257.521	361.88
257.754	335.88
257.987	347.88
258.22	360.88
258.452	368.88
258.685	359.88
258.918	371.88
259.151	359.88
259.383	359.88
259.616	365.88
259.849	366.88
260.081	365.88
260.314	377.88
260.547	379.88
260.779	377.88
261.012	381.88
261.244	363.88
261.477	398.88
261.71	397.88
261.942	384.88
262.175	388.88
262.407	390.88
262.64	404.88
262.872	407.88
263.105	392.88
263.337	410.88
263.57	407.88
263.802	397.88
264.035	411.88
264.267	422.88
264.499	407.88
264.732	407.88
264.964	401.88
265.197	415.88
265.429	422.88
265.661	424.88
265.894	401.88
266.126	414.88
266.358	432.88
266.591	421.88
266.823	413.88
267.055	424.88
267.287	414.88
267.52	424.88
267.752	436.88
267.984	426.88
268.216	455.88
268.448	464.88
268.681	450.88
268.913	441.88
269.145	445.88
269.377	447.88
269.609	479.88
269.841	472.88
270.073	455.88
270.306	453.88
270.538	463.88
270.77	453.88
271.002	446.88
271.234	455.88
271.466	445.88
271.698	457.88
271.93	480.88
272.162	459.88
272.394	492.88
272.626	460.88
272.858	472.88
273.09	493.88
273.322	480.88
273.553	478.88
273.785	460.88
274.017	479.88
274.249	475.88
274.481	502.88
274.713	478.88
274.945	478.88
275.176	500.88
275.408	513.88
275.64	519.88
275.872	485.88
276.104	492.88
276.335	481.88
276.567	481.88
276.799	493.88
277.031	489.88
277.262	513.88
277.494	533.88
277.726	526.88
277.957	521.88
278.189	505.88
278.421	515.88
278.652	515.88
278.884	526.88
279.115	527.88
279.347	525.88
279.579	492.88
279.81	552.88
280.042	532.88
280.273	528.88
280.505	548.88
280.736	553.88
280.968	542.88
281.199	548.88
281.431	569.88
281.662	561.88
281.894	555.88
282.125	541.88
282.356	574.88
282.588	563.88
282.819	551.88
283.051	551.88
283.282	557.88
283.513	576.88
283.745	587.88
283.976	573.88
284.207	546.88
284.439	576.88
284.67	580.88
284.901	590.88
285.132	559.88
285.364	576.88
285.595	548.88
285.826	579.88
286.057	592.88
286.288	573.88
286.52	575.88
286.751	612.88
286.982	595.88
287.213	583.88
287.444	579.88
287.675	597.88
287.906	593.88
288.138	617.88
288.369	581.88
288.6	604.88
288.831	627.88
289.062	586.88
289.293	599.88
289.524	603.88
289.755	615.88
289.986	616.88
290.217	576.88
290.448	605.88
290.679	609.88
290.91	608.88
291.141	601.88
291.371	602.88
291.602	609.88
291.833	583.88
292.064	607.88
292.295	600.88
292.526	608.88
292.757	620.88
292.987	586.88
293.218	600.88
293.449	612.88
293.68	593.88
293.91	610.88
294.141	628.88
294.372	616.88
294.603	622.88
294.833	613.88
295.064	613.88
295.295	616.88
295.525	611.88
295.756	624.88
295.987	613.88
296.217	628.88
296.448	611.88
296.679	623.88
296.909	629.88
297.14	659.88
297.37	631.88
297.601	648.88
297.831	649.88
298.062	659.88
298.292	659.88
298.523	682.88
298.753	649.88
298.984	677.88
299.214	688.88
299.445	663.88
299.675	677.88
299.905	704.88
300.136	691.88
300.366	694.88
300.597	705.88
300.827	712.88
301.057	711.88
301.288	723.88
301.518	727.88
301.748	711.88
301.979	696.88
302.209	668.88
302.439	685.88
302.669	691.88
302.9	704.88
303.13	691.88
303.36	703.88
303.59	707.88
303.82	731.88
304.051	721.88
304.281	706.88
304.511	712.88
304.741	732.88
304.971	713.88
305.201	725.88
305.431	766.88
305.661	750.88
305.891	744.88
306.121	698.88
306.352	720.88
306.582	703.88
306.812	702.88
307.042	717.88
307.272	713.88
307.502	688.88
307.731	690.88
307.961	679.88
308.191	683.88
308.421	700.88
308.651	717.88
308.881	710.88
309.111	713.88
309.341	713.88
309.571	724.88
309.8	734.88
310.03	734.88
310.26	729.88
310.49	777.88
310.72	773.88
310.949	741.88
311.179	734.88
311.409	724.88
311.639	735.88
311.868	741.88
312.098	743.88
312.328	736.88
312.557	741.88
312.787	757.88
313.017	752.88
313.246	767.88
313.476	798.88
313.706	779.88
313.935	748.88
314.165	764.88
314.394	763.88
314.624	760.88
314.853	783.88
315.083	789.88
315.312	787.88
315.542	806.88
315.771	784.88
316.001	816.88
316.23	785.88
316.46	780.88
316.689	790.88
316.919	779.88
317.148	811.88
317.377	772.88
317.607	786.88
317.836	804.88
318.065	791.88
318.295	828.88
318.524	808.88
318.753	802.88
318.983	812.88
319.212	796.88
319.441	805.88
319.67	824.88
319.9	809.88
320.129	803.88
320.358	804.88
320.587	793.88
320.816	827.88
321.046	820.88
321.275	813.88
321.504	818.88
321.733	843.88
321.962	820.88
322.191	855.88
322.42	827.88
322.649	854.88
322.878	841.88
323.108	824.88
323.337	849.88
323.566	853.88
323.795	851.88
324.024	838.88
324.253	845.88
324.482	848.88
324.71	851.88
324.939	858.88
325.168	864.88
325.397	851.88
325.626	860.88
325.855	873.88
326.084	867.88
326.313	887.88
326.542	899.88
326.77	849.88
326.999	865.88
327.228	877.88
327.457	887.88
327.686	905.88
327.914	899.88
328.143	872.88
328.372	880.88
328.6	902.88
328.829	875.88
329.058	917.88
329.287	897.88
329.515	886.88
329.744	907.88
329.972	889.88
330.201	921.88
330.43	919.88
330.658	932.88
330.887	935.88
331.115	886.88
331.344	925.88
331.572	926.88
331.801	937.88
332.03	944.88
332.258	982.88
332.486	961.88
332.715	959.88
332.943	953.88
333.172	1003.88
333.4	981.88
333.629	987.88
333.857	1001.88
334.085	994.88
334.314	1042.88
334.542	1037.88
334.771	1029.88
334.999	1024.88
335.227	1045.88
335.455	1059.88
335.684	1044.88
335.912	1023.88
336.14	1070.88
336.369	1044.88
336.597	1013.88
336.825	1082.88
337.053	1070.88
337.281	1042.88
337.51	1047.88
337.738	1032.88
337.966	1040.88
338.194	1036.88
338.422	1028.88
338.65	1002.88
338.878	1006.88
339.106	1001.88
339.334	1054.88
339.562	1013.88
339.79	1003.88
340.018	987.88
340.246	985.88
340.474	949.88
340.702	975.88
340.93	977.88
341.158	1002.88
341.386	1016.88
341.614	1045.88
341.842	991.88
342.07	966.88
342.298	986.88
342.526	969.88
342.754	965.88
342.981	976.88
343.209	993.88
343.437	996.88
343.665	1012.88
343.893	1001.88
344.12	1045.88
344.348	1019.88
344.576	1035.88
344.804	1061.88
345.031	1028.88
345.259	985.88
345.487	1016.88
345.714	1008.88
345.942	1015.88
346.17	1027.88
346.397	1001.88
346.625	972.88
346.853	981.88
347.08	953.88
347.308	951.88
347.535	949.88
347.763	937.88
347.99	947.88
348.218	969.88
348.445	940.88
348.673	903.88
348.9	942.88
349.128	945.88
349.355	968.88
349.583	952.88
349.81	912.88
350.037	950.88
350.265	935.88
350.492	903.88
350.72	934.88
350.947	935.88
351.174	976.88
351.402	965.88
351.629	985.88
351.856	973.88
352.083	974.88
352.311	965.88
352.538	992.88
352.765	970.88
352.992	927.88
353.22	884.88
353.447	913.88
353.674	895.88
353.901	927.88
354.128	899.88
354.355	899.88
354.583	935.88
354.81	889.88
355.037	910.88
355.264	909.88
355.491	915.88
355.718	893.88
355.945	896.88
356.172	929.88
356.399	951.88
356.626	929.88
356.853	966.88
357.08	951.88
357.307	906.88
357.534	911.88
357.761	940.88
357.988	931.88
358.215	896.88
358.441	911.88
358.668	931.88
358.895	942.88
359.122	941.88
359.349	930.88
359.576	926.88
359.802	912.88
360.029	919.88
360.256	919.88
360.483	923.88
360.709	931.88
360.936	916.88
361.163	939.88
361.39	957.88
361.616	942.88
361.843	967.88
362.07	982.88
362.296	990.88
362.523	924.88
362.749	948.88
362.976	913.88
363.203	945.88
363.429	924.88
363.656	914.88
363.882	926.88
364.109	911.88
364.335	879.88
364.562	924.88
364.788	931.88
365.015	931.88
365.241	900.88
365.468	904.88
365.694	911.88
365.92	953.88
366.147	910.88
366.373	939.88
366.599	896.88
366.826	933.88
367.052	921.88
367.278	917.88
367.505	949.88
367.731	965.88
367.957	932.88
368.184	954.88
368.41	968.88
368.636	926.88
368.862	953.88
369.089	976.88
369.315	919.88
369.541	948.88
369.767	971.88
369.993	950.88
370.219	951.88
370.445	957.88
370.672	964.88
370.898	981.88
371.124	995.88
371.35	975.88
371.576	983.88
371.802	998.88
372.028	1001.88
372.254	991.88
372.48	972.88
372.706	1035.88
372.932	1014.88
373.158	992.88
373.384	1006.88
373.61	1016.88
373.835	999.88
374.061	1031.88
374.287	1016.88
374.513	985.88
374.739	1006.88
374.965	1016.88
375.191	1007.88
375.416	1042.88
375.642	1002.88
375.868	998.88
376.094	1019.88
376.319	987.88
376.545	978.88
376.771	1027.88
376.997	963.88
377.222	981.88
377.448	1003.88
377.674	976.88
377.899	992.88
378.125	992.88
378.35	961.88
378.576	1007.88
378.802	984.88
379.027	981.88
379.253	965.88
379.478	971.88
379.704	968.88
379.929	991.88
380.155	988.88
380.38	949.88
380.606	952.88
380.831	964.88
381.057	975.88
381.282	986.88
381.507	967.88
381.733	991.88
381.958	980.88
382.184	992.88
382.409	1019.88
382.634	1019.88
382.86	1037.88
383.085	1006.88
383.31	1006.88
383.535	990.88
383.761	1002.88
383.986	982.88
384.211	1024.88
384.436	1032.88
384.662	1056.88
384.887	1051.88
385.112	1075.88
385.337	1092.88
385.562	1095.88
385.787	1065.88
386.013	1117.88
386.238	1134.88
386.463	1079.88
386.688	1107.88
386.913	1101.88
387.138	1131.88
387.363	1093.88
387.588	1096.88
387.813	1114.88
388.038	1107.88
388.263	1091.88
388.488	1100.88
388.713	1116.88
388.938	1109.88
389.163	1104.88
389.387	1101.88
389.612	1110.88
389.837	1116.88
390.062	1113.88
390.287	1146.88
390.512	1118.88
390.736	1112.88
390.961	1130.88
391.186	1111.88
391.411	1172.88
391.636	1145.88
391.86	1159.88
392.085	1196.88
392.31	1164.88
392.534	1164.88
392.759	1163.88
392.984	1147.88
393.208	1164.88
393.433	1177.88
393.658	1135.88
393.882	1173.88
394.107	1179.88
394.331	1118.88
394.556	1149.88
394.78	1158.88
395.005	1200.88
395.229	1152.88
395.454	1177.88
395.678	1213.88
395.903	1177.88
396.127	1178.88
396.352	1173.88
396.576	1158.88
396.801	1223.88
397.025	1212.88
397.249	1194.88
397.474	1230.88
397.698	1218.88
397.922	1248.88
398.147	1295.88
398.371	1253.88
398.595	1296.88
398.82	1262.88
399.044	1326.88
399.268	1380.88
399.492	1422.88
399.717	1437.88
399.941	1466.88
400.165	1469.88
400.389	1448.88
400.613	1410.88
400.837	1411.88
401.062	1350.88
401.286	1343.88
401.51	1309.88
401.734	1311.88
401.958	1289.88
402.182	1307.88
402.406	1304.88
402.63	1321.88
402.854	1298.88
403.078	1282.88
403.302	1323.88
403.526	1309.88
403.75	1295.88
403.974	1251.88
404.198	1311.88
404.422	1292.88
404.645	1325.88
404.869	1301.88
405.093	1348.88
405.317	1331.88
405.541	1339.88
405.765	1356.88
405.988	1324.88
406.212	1383.88
406.436	1402.88
406.66	1415.88
406.883	1368.88
407.107	1461.88
407.331	1451.88
407.555	1487.88
407.778	1473.88
408.002	1465.88
408.226	1482.88
408.449	1488.88
408.673	1433.88
408.896	1452.88
409.12	1409.88
409.344	1440.88
409.567	1390.88
409.791	1402.88
410.014	1401.88
410.238	1360.88
410.461	1412.88
410.685	1393.88
410.908	1358.88
411.132	1367.88
411.355	1348.88
411.578	1377.88
411.802	1373.88
412.025	1349.88
412.249	1378.88
412.472	1324.88
412.695	1351.88
412.919	1343.88
413.142	1358.88
413.365	1343.88
413.589	1341.88
413.812	1302.88
414.035	1299.88
414.258	1295.88
414.482	1303.88
414.705	1316.88
414.928	1351.88
415.151	1352.88
415.374	1333.88
415.597	1300.88
415.821	1269.88
416.044	1290.88
416.267	1277.88
416.49	1301.88
416.713	1245.88
416.936	1275.88
417.159	1234.88
417.382	1251.88
417.605	1244.88
417.828	1243.88
418.051	1259.88
418.274	1287.88
418.497	1238.88
418.72	1243.88
418.943	1225.88
419.166	1351.88
419.389	1384.88
419.611	1373.88
419.834	1326.88
420.057	1283.88
420.28	1260.88
420.503	1252.88
420.726	1260.88
420.948	1245.88
421.171	1243.88
421.394	1262.88
421.617	1245.88
421.839	1243.88
422.062	1260.88
422.285	1196.88
422.507	1268.88
422.73	1257.88
422.953	1216.88
423.175	1230.88
423.398	1222.88
423.621	1237.88
423.843	1239.88
424.066	1288.88
424.288	1263.88
424.511	1248.88
424.733	1256.88
424.956	1225.88
425.178	1252.88
425.401	1240.88
425.623	1238.88
425.846	1195.88
426.068	1242.88
426.291	1213.88
426.513	1233.88
426.735	1230.88
426.958	1241.88
427.18	1197.88
427.402	1233.88
427.625	1229.88
427.847	1204.88
428.069	1205.88
428.292	1213.88
428.514	1228.88
428.736	1204.88
428.958	1190.88
429.181	1164.88
429.403	1205.88
429.625	1233.88
429.847	1179.88
430.069	1200.88
430.292	1206.88
430.514	1220.88
430.736	1220.88
430.958	1200.88
431.18	1227.88
431.402	1242.88
431.624	1177.88
431.846	1168.88
432.068	1211.88
432.29	1235.88
432.512	1204.88
432.734	1247.88
432.956	1235.88
433.178	1246.88
433.4	1229.88
433.622	1234.88
433.844	1223.88
434.066	1261.88
434.287	1262.88
434.509	1242.88
434.731	1258.88
434.953	1222.88
435.175	1281.88
435.397	1323.88
435.618	1263.88
435.84	1242.88
436.062	1213.88
436.284	1246.88
436.505	1241.88
436.727	1207.88
436.949	1209.88
437.17	1220.88
437.392	1225.88
437.614	1198.88
437.835	1183.88
438.057	1174.88
438.278	1158.88
438.5	1168.88
438.721	1203.88
438.943	1196.88
439.165	1188.88
439.386	1173.88
439.608	1178.88
439.829	1207.88
440.05	1202.88
440.272	1212.88
440.493	1232.88
440.715	1225.88
440.936	1208.88
441.158	1217.88
441.379	1229.88
441.6	1301.88
441.822	1309.88
442.043	1271.88
442.264	1276.88
442.486	1260.88
442.707	1246.88
442.928	1279.88
443.149	1255.88
443.371	1317.88
443.592	1368.88
443.813	1341.88
444.034	1263.88
444.255	1301.88
444.476	1319.88
444.698	1295.88
444.919	1341.88
445.14	1445.88
445.361	1371.88
445.582	1291.88
445.803	1271.88
446.024	1244.88
446.245	1249.88
446.466	1246.88
446.687	1180.88
446.908	1201.88
447.129	1157.88
447.35	1169.88
447.571	1172.88
447.792	1122.88
448.013	1128.88
448.234	1132.88
448.455	1131.88
448.675	1134.88
448.896	1133.88
449.117	1114.88
449.338	1144.88
449.559	1097.88
449.779	1089.88
450	1094.88
450.221	1122.88
450.442	1103.88
450.662	1114.88
450.883	1127.88
451.104	1154.88
451.324	1089.88
451.545	1087.88
451.766	1094.88
451.986	1114.88
452.207	1108.88
452.428	1087.88
452.648	1114.88
452.869	1091.88
453.089	1075.88
453.31	1089.88
453.53	1087.88
453.751	1071.88
453.971	1107.88
454.192	1120.88
454.412	1108.88
454.633	1095.88
454.853	1071.88
455.073	1078.88
455.294	1061.88
455.514	1078.88
455.734	1097.88
455.955	1111.88
456.175	1111.88
456.395	1080.88
456.616	1060.88
456.836	1093.88
457.056	1109.88
457.276	1061.88
457.497	1105.88
457.717	1134.88
457.937	1151.88
458.157	1106.88
458.377	1106.88
458.598	1136.88
458.818	1120.88
459.038	1151.88
459.258	1154.88
459.478	1251.88
459.698	1311.88
459.918	1322.88
460.138	1329.88
460.358	1301.88
460.578	1301.88
460.798	1336.88
461.018	1336.88
461.238	1296.88
461.458	1315.88
461.678	1296.88
461.898	1317.88
462.118	1313.88
462.338	1385.88
462.558	1418.88
462.777	1429.88
462.997	1447.88
463.217	1477.88
463.437	1532.88
463.657	1507.88
463.876	1440.88
464.096	1415.88
464.316	1401.88
464.536	1380.88
464.755	1383.88
464.975	1352.88
465.195	1345.88
465.414	1301.88
465.634	1229.88
465.854	1256.88
466.073	1236.88
466.293	1214.88
466.512	1207.88
466.732	1224.88
466.951	1181.88
467.171	1185.88
467.391	1246.88
467.61	1189.88
467.829	1189.88
468.049	1161.88
468.268	1160.88
468.488	1148.88
468.707	1161.88
468.927	1193.88
469.146	1167.88
469.365	1209.88
469.585	1153.88
469.804	1167.88
470.023	1172.88
470.243	1127.88
470.462	1181.88
470.681	1176.88
470.901	1176.88
471.12	1180.88
471.339	1192.88
471.558	1183.88
471.777	1192.88
471.997	1186.88
472.216	1176.88
472.435	1132.88
472.654	1131.88
472.873	1140.88
473.092	1158.88
473.311	1140.88
473.53	1151.88
473.749	1176.88
473.968	1164.88
474.187	1140.88
474.406	1152.88
474.625	1148.88
474.844	1192.88
475.063	1178.88
475.282	1173.88
475.501	1166.88
475.72	1171.88
475.939	1189.88
476.158	1199.88
476.377	1203.88
476.596	1194.88
476.814	1229.88
477.033	1192.88
477.252	1244.88
477.471	1243.88
477.69	1272.88
477.908	1286.88
478.127	1251.88
478.346	1311.88
478.564	1341.88
478.783	1333.88
479.002	1379.88
479.22	1429.88
479.439	1335.88
479.658	1358.88
479.876	1372.88
480.095	1380.88
480.313	1403.88
480.532	1389.88
480.751	1360.88
480.969	1356.88
481.188	1366.88
481.406	1333.88
481.624	1327.88
481.843	1345.88
482.061	1341.88
482.28	1339.88
482.498	1353.88
482.717	1363.88
482.935	1345.88
483.153	1390.88
483.372	1407.88
483.59	1443.88
483.808	1364.88
484.027	1372.88
484.245	1362.88
484.463	1351.88
484.681	1368.88
484.9	1351.88
485.118	1390.88
485.336	1369.88
485.554	1371.88
485.772	1356.88
485.99	1360.88
486.209	1365.88
486.427	1375.88
486.645	1395.88
486.863	1402.88
487.081	1374.88
487.299	1379.88
487.517	1407.88
487.735	1408.88
487.953	1404.88
488.171	1412.88
488.389	1418.88
488.607	1404.88
488.825	1375.88
489.043	1365.88
489.261	1375.88
489.479	1388.88
489.696	1405.88
489.914	1349.88
490.132	1375.88
490.35	1423.88
490.568	1407.88
490.786	1438.88
491.003	1384.88
491.221	1407.88
491.439	1421.88
491.657	1400.88
491.874	1433.88
492.092	1426.88
492.31	1467.88
492.527	1429.88
492.745	1431.88
492.963	1438.88
493.18	1455.88
493.398	1467.88
493.615	1443.88
493.833	1433.88
494.05	1475.88
494.268	1446.88
494.485	1491.88
494.703	1477.88
494.92	1490.88
495.138	1483.88
495.355	1496.88
495.573	1481.88
495.79	1507.88
496.008	1511.88
496.225	1544.88
496.442	1523.88
496.66	1567.88
496.877	1583.88
497.094	1599.88
497.312	1587.88
497.529	1639.88
497.746	1647.88
497.963	1679.88
498.181	1760.88
498.398	1753.88
498.615	1791.88
498.832	1864.88
499.049	1911.88
499.267	1960.88
499.484	2027.88
499.701	2147.88
499.918	2184.88
500.135	2286.88
500.352	2323.88
500.569	2380.88
500.786	2351.88
501.003	2313.88
501.22	2276.88
501.437	2224.88
501.654	2165.88
501.871	2091.88
502.088	1977.88
502.305	1963.88
502.522	1864.88
502.739	1785.88
502.956	1748.88
503.172	1721.88
503.389	1669.88
503.606	1651.88
503.823	1610.88
504.04	1592.88
504.256	1561.88
504.473	1595.88
504.69	1555.88
504.907	1544.88
505.123	1505.88
505.34	1529.88
505.557	1455.88
505.773	1399.88
505.99	1403.88
506.207	1388.88
506.423	1373.88
506.64	1359.88
506.856	1359.88
507.073	1335.88
507.289	1322.88
507.506	1316.88
507.722	1289.88
507.939	1278.88
508.155	1296.88
508.372	1327.88
508.588	1268.88
508.805	1246.88
509.021	1258.88
509.238	1258.88
509.454	1237.88
509.67	1213.88
509.887	1183.88
510.103	1190.88
510.319	1191.88
510.536	1176.88
510.752	1174.88
510.968	1183.88
511.184	1207.88
511.401	1201.88
511.617	1196.88
511.833	1192.88
512.049	1193.88
512.265	1164.88
512.481	1177.88
512.698	1182.88
512.914	1153.88
513.13	1197.88
513.346	1176.88
513.562	1176.88
513.778	1187.88
513.994	1167.88
514.21	1179.88
514.426	1208.88
514.642	1171.88
514.858	1201.88
515.074	1231.88
515.29	1204.88
515.506	1219.88
515.721	1229.88
515.937	1225.88
516.153	1212.88
516.369	1205.88
516.585	1237.88
516.801	1264.88
517.016	1278.88
517.232	1306.88
517.448	1295.88
517.664	1326.88
517.879	1301.88
518.095	1283.88
518.311	1289.88
518.527	1256.88
518.742	1293.88
518.958	1259.88
519.173	1270.88
519.389	1223.88
519.605	1204.88
519.82	1167.88
520.036	1191.88
520.251	1165.88
520.467	1172.88
520.682	1135.88
520.898	1159.88
521.113	1151.88
521.329	1125.88
521.544	1110.88
521.76	1135.88
521.975	1098.88
522.19	1112.88
522.406	1116.88
522.621	1096.88
522.836	1075.88
523.052	1087.88
523.267	1095.88
523.482	1079.88
523.698	1095.88
523.913	1054.88
524.128	1048.88
524.343	1054.88
524.559	1085.88
524.774	1063.88
524.989	1077.88
525.204	1109.88
525.419	1079.88
525.634	1061.88
525.849	1063.88
526.064	1067.88
526.28	1040.88
526.495	1037.88
526.71	1054.88
526.925	1031.88
527.14	1029.88
527.355	1031.88
527.57	1019.88
527.785	1006.88
527.999	990.88
528.214	1013.88
528.429	1031.88
528.644	1020.88
528.859	1038.88
529.074	1039.88
529.289	1046.88
529.503	1041.88
529.718	1049.88
529.933	1011.88
530.148	1015.88
530.363	992.88
530.577	1011.88
530.792	992.88
531.007	1023.88
531.221	1018.88
531.436	1010.88
531.651	1031.88
531.865	996.88
532.08	1017.88
532.295	1005.88
532.509	986.88
532.724	1028.88
532.938	996.88
533.153	987.88
533.367	964.88
533.582	1007.88
533.796	977.88
534.011	999.88
534.225	948.88
534.44	997.88
534.654	973.88
534.868	987.88
535.083	965.88
535.297	981.88
535.511	949.88
535.726	950.88
535.94	973.88
536.154	986.88
536.369	966.88
536.583	932.88
536.797	934.88
537.011	933.88
537.225	942.88
537.44	960.88
537.654	958.88
537.868	943.88
538.082	915.88
538.296	922.88
538.51	924.88
538.724	955.88
538.938	921.88
539.153	915.88
539.367	907.88
539.581	922.88
539.795	918.88
540.009	907.88
540.222	907.88
540.436	936.88
540.65	919.88
540.864	945.88
541.078	920.88
541.292	928.88
541.506	919.88
541.72	927.88
541.934	929.88
542.147	924.88
542.361	893.88
542.575	889.88
542.789	883.88
543.002	874.88
543.216	923.88
543.43	892.88
543.644	896.88
543.857	898.88
544.071	912.88
544.285	930.88
544.498	895.88
544.712	877.88
544.925	893.88
545.139	898.88
545.352	915.88
545.566	887.88
545.779	920.88
545.993	905.88
546.206	904.88
546.42	918.88
546.633	913.88
546.847	869.88
547.06	885.88
547.274	917.88
547.487	877.88
547.7	921.88
547.914	913.88
548.127	925.88
548.34	907.88
548.554	912.88
548.767	899.88
548.98	911.88
549.193	930.88
549.407	909.88
549.62	897.88
549.833	880.88
550.046	914.88
550.259	897.88
550.473	877.88
550.686	918.88
550.899	899.88
551.112	876.88
551.325	903.88
551.538	861.88
551.751	895.88
551.964	883.88
552.177	858.88
552.39	878.88
552.603	884.88
552.816	893.88
553.029	902.88
553.242	921.88
553.455	900.88
553.667	909.88
553.88	897.88
554.093	877.88
554.306	851.88
554.519	853.88
554.732	859.88
554.944	877.88
555.157	855.88
555.37	817.88
555.583	846.88
555.795	810.88
556.008	819.88
556.221	825.88
556.433	782.88
556.646	797.88
556.859	798.88
557.071	820.88
557.284	798.88
557.496	758.88
557.709	822.88
557.921	789.88
558.134	764.88
558.346	787.88
558.559	763.88
558.771	782.88
558.984	755.88
559.196	782.88
559.409	776.88
559.621	753.88
559.833	757.88
560.046	733.88
560.258	766.88
560.47	768.88
560.683	750.88
560.895	764.88
561.107	765.88
561.32	774.88
561.532	765.88
561.744	768.88
561.956	751.88
562.168	751.88
562.381	766.88
562.593	758.88
562.805	776.88
563.017	776.88
563.229	776.88
563.441	755.88
563.653	762.88
563.865	749.88
564.077	755.88
564.289	781.88
564.501	793.88
564.713	789.88
564.925	792.88
565.137	813.88
565.349	823.88
565.561	827.88
565.773	831.88
565.985	849.88
566.197	863.88
566.408	858.88
566.62	896.88
566.832	912.88
567.044	907.88
567.255	939.88
567.467	924.88
567.679	952.88
567.891	950.88
568.102	905.88
568.314	909.88
568.526	884.88
568.737	866.88
568.949	863.88
569.161	832.88
569.372	799.88
569.584	783.88
569.795	763.88
570.007	743.88
570.218	732.88
570.43	736.88
570.641	699.88
570.853	719.88
571.064	723.88
571.276	706.88
571.487	712.88
571.698	706.88
571.91	668.88
572.121	657.88
572.333	663.88
572.544	667.88
572.755	651.88
572.966	631.88
573.178	634.88
573.389	635.88
573.6	631.88
573.811	620.88
574.023	616.88
574.234	612.88
574.445	594.88
574.656	600.88
574.867	599.88
575.078	601.88
575.289	622.88
575.501	597.88
575.712	599.88
575.923	591.88
576.134	593.88
576.345	574.88
576.556	611.88
576.767	545.88
576.978	582.88
577.188	558.88
577.399	577.88
577.61	567.88
577.821	570.88
578.032	579.88
578.243	564.88
578.454	564.88
578.665	542.88
578.875	533.88
579.086	565.88
579.297	569.88
579.508	532.88
579.718	532.88
579.929	539.88
580.14	519.88
580.35	545.88
580.561	526.88
580.772	529.88
580.982	530.88
581.193	525.88
581.403	526.88
581.614	520.88
581.825	538.88
582.035	519.88
582.246	513.88
582.456	499.88
582.667	545.88
582.877	513.88
583.087	528.88
583.298	492.88
583.508	509.88
583.719	505.88
583.929	526.88
584.139	517.88
584.35	483.88
584.56	492.88
584.77	506.88
584.981	514.88
585.191	503.88
585.401	512.88
585.611	497.88
585.821	503.88
586.032	511.88
586.242	480.88
586.452	488.88
586.662	491.88
586.872	509.88
587.082	519.88
587.292	498.88
587.502	482.88
587.713	505.88
587.923	488.88
588.133	491.88
588.343	494.88
588.553	516.88
588.762	500.88
588.972	491.88
589.182	526.88
589.392	534.88
589.602	492.88
589.812	506.88
590.022	513.88
590.232	475.88
590.441	465.88
590.651	506.88
590.861	475.88
591.071	496.88
591.281	513.88
591.49	500.88
591.7	493.88
591.91	492.88
592.119	480.88
592.329	512.88
592.539	510.88
592.748	500.88
592.958	514.88
593.167	503.88
593.377	507.88
593.587	504.88
593.796	535.88
594.006	500.88
594.215	521.88
594.424	493.88
594.634	508.88
594.843	480.88
595.053	490.88
595.262	500.88
595.472	503.88
595.681	460.88
595.89	470.88
596.1	469.88
596.309	455.88
596.518	461.88
596.727	458.88
596.937	464.88
597.146	421.88
597.355	443.88
597.564	439.88
597.774	441.88
597.983	435.88
598.192	426.88
598.401	437.88
598.61	431.88
598.819	428.88
599.028	426.88
599.237	427.88
599.446	415.88
599.655	377.88
599.864	422.88
600.073	423.88
600.282	414.88
600.491	428.88
600.7	426.88
600.909	400.88
601.118	407.88
601.327	389.88
601.536	417.88
601.745	418.88
601.953	395.88
602.162	400.88
602.371	416.88
602.58	402.88
602.789	375.88
602.997	410.88
603.206	408.88
603.415	399.88
603.623	382.88
603.832	378.88
604.041	416.88
604.249	384.88
604.458	365.88
604.666	363.88
604.875	377.88
605.084	387.88
605.292	385.88
605.501	368.88
605.709	392.88
605.918	373.88
606.126	387.88
606.334	373.88
606.543	385.88
606.751	378.88
606.96	375.88
607.168	395.88
607.376	382.88
607.585	371.88
607.793	372.88
608.001	375.88
608.21	381.88
608.418	368.88
608.626	371.88
608.834	365.88
609.043	367.88
609.251	372.88
609.459	373.88
609.667	384.88
609.875	372.88
610.083	346.88
610.291	360.88
610.499	371.88
610.707	371.88
610.916	367.88
611.124	372.88
611.332	355.88
611.54	370.88
611.748	354.88
611.955	366.88
612.163	364.88
612.371	365.88
612.579	343.88
612.787	339.88
612.995	358.88
613.203	371.88
613.411	343.88
613.618	343.88
613.826	342.88
614.034	362.88
614.242	353.88
614.449	338.88
614.657	365.88
614.865	363.88
615.072	339.88
615.28	353.88
615.488	344.88
615.695	341.88
615.903	350.88
616.111	344.88
616.318	356.88
616.526	324.88
616.733	336.88
616.941	347.88
617.148	341.88
617.356	344.88
617.563	349.88
617.771	347.88
617.978	312.88
618.185	336.88
618.393	317.88
618.6	344.88
618.807	339.88
619.015	345.88
619.222	332.88
619.429	328.88
619.637	333.88
619.844	335.88
620.051	319.88
620.258	325.88
620.466	316.88
620.673	311.88
620.88	329.88
621.087	326.88
621.294	318.88
621.501	316.88
621.708	332.88
621.915	302.88
622.122	315.88
622.329	309.88
622.536	321.88
622.743	327.88
622.95	312.88
623.157	320.88
623.364	323.88
623.571	331.88
623.778	328.88
623.985	307.88
624.192	313.88
624.399	310.88
624.606	323.88
624.812	311.88
625.019	281.88
625.226	320.88
625.433	302.88
625.639	312.88
625.846	307.88
626.053	293.88
626.259	317.88
626.466	293.88
626.673	282.88
626.879	298.88
627.086	299.88
627.293	289.88
627.499	300.88
627.706	289.88
627.912	301.88
628.119	293.88
628.325	297.88
628.532	291.88
628.738	273.88
628.945	297.88
629.151	287.88
629.357	292.88
629.564	282.88
629.77	285.88
629.976	295.88
630.183	285.88
630.389	294.88
630.595	296.88
630.802	297.88
631.008	265.88
631.214	273.88
631.42	290.88
631.627	281.88
631.833	276.88
632.039	275.88
632.245	267.88
632.451	259.88
632.657	281.88
632.863	279.88
633.069	262.88
633.275	281.88
633.481	261.88
633.688	257.88
633.893	285.88
634.099	273.88
634.305	279.88
634.511	283.88
634.717	269.88
634.923	269.88
635.129	284.88
635.335	267.88
635.541	268.88
635.747	282.88
635.952	249.88
636.158	267.88
636.364	263.88
636.57	265.88
636.775	269.88
636.981	272.88
637.187	255.88
637.392	251.88
637.598	264.88
637.804	274.88
638.009	249.88
638.215	267.88
638.421	264.88
638.626	268.88
638.832	257.88
639.037	267.88
639.243	259.88
639.448	284.88
639.654	263.88
639.859	273.88
640.065	254.88
640.27	268.88
640.475	269.88
640.681	276.88
640.886	264.88
641.091	267.88
641.297	265.88
641.502	253.88
641.707	243.88
641.913	259.88
642.118	252.88
642.323	251.88
642.528	263.88
642.733	269.88
642.939	266.88
643.144	263.88
643.349	246.88
643.554	240.88
643.759	243.88
643.964	251.88
644.169	256.88
644.374	245.88
644.579	254.88
644.784	253.88
644.989	265.88
645.194	253.88
645.399	270.88
645.604	266.88
645.809	251.88
646.014	240.88
646.219	263.88
646.423	263.88
646.628	251.88
646.833	255.88
647.038	270.88
647.243	251.88
647.447	274.88
647.652	248.88
647.857	240.88
648.062	265.88
648.266	268.88
648.471	256.88
648.676	259.88
648.88	249.88
649.085	277.88
649.289	253.88
649.494	238.88
649.698	273.88
649.903	250.88
650.107	262.88
650.312	246.88
650.516	253.88
650.721	243.88
650.925	243.88
651.13	239.88
651.334	228.88
651.539	245.88
651.743	232.88
651.947	244.88
652.152	244.88
652.356	248.88
652.56	255.88
652.764	223.88
652.969	218.88
653.173	230.88
653.377	224.88
653.581	231.88
653.785	215.88
653.99	239.88
654.194	222.88
654.398	201.88
654.602	216.88
654.806	228.88
655.01	219.88
655.214	231.88
655.418	211.88
655.622	215.88
655.826	219.88
656.03	220.88
656.234	213.88
656.438	213.88
656.642	223.88
656.846	208.88
657.049	219.88
657.253	195.88
657.457	200.88
657.661	186.88
657.865	183.88
658.068	173.88
658.272	164.88
658.476	155.88
658.68	173.88
658.883	170.88
659.087	145.88
659.291	153.88
659.494	140.88
659.698	137.88
659.901	139.88
660.105	122.88
660.309	132.88
660.512	125.88
660.716	119.88
660.919	126.88
661.123	120.88
661.326	107.88
661.53	112.88
661.733	104.88
661.936	87.88
662.14	91.88
662.343	103.88
662.546	91.88
662.75	109.88
662.953	93.88
663.156	105.88
663.36	83.88
663.563	102.88
663.766	87.88
663.969	74.88
664.173	83.88
664.376	93.88
664.579	87.88
664.782	83.88
664.985	80.88
665.188	81.88
665.391	93.88
665.594	82.88
665.797	84.88
666	85.88
666.203	80.88
666.406	82.88
666.609	69.88
666.812	88.88
667.015	104.88
667.218	95.88
667.421	87.88
667.624	77.88
667.827	86.88
668.03	80.88
668.232	79.88
668.435	85.88
668.638	85.88
668.841	76.88
669.043	98.88
669.246	91.88
669.449	92.88
669.651	77.88
669.854	88.88
670.057	103.88
670.259	90.88
670.462	71.88
670.665	90.88
670.867	89.88
671.07	87.88
671.272	83.88
671.475	101.88
671.677	95.88
671.88	85.88
672.082	82.88
672.284	92.88
672.487	81.88
672.689	104.88
672.892	99.88
