Data from Ni(NO3)2Standard.Agarose3%.GreenCap.LampEnergy5.5.E.O_HRD10591_14-41-10-188.txt Node
Date: Mon Jul 22 14:41:10 EDT 2019
User: cochatt
Spectrometer: HR+D1059
Trigger mode: 1
Integration Time (sec): 1.000000E-1
Scans to average: 1
Electric dark correction enabled: true
Nonlinearity correction enabled: false
Boxcar width: 0
XAxis mode: Wavelengths
Number of Pixels in Spectrum: 2048
>>>>>Begin Spectral Data<<<<<
223.165	-16.94
223.4	-16.94
223.635	-16.94
223.869	-17.94
224.104	-18.94
224.338	-14.94
224.573	-8.94
224.808	-17.94
225.042	-1.94
225.277	-17.94
225.511	-6.94
225.746	-3.94
225.98	11.06
226.215	11.06
226.449	23.06
226.683	23.06
226.918	24.06
227.152	34.06
227.387	28.06
227.621	46.06
227.856	42.06
228.09	46.06
228.324	59.06
228.559	60.06
228.793	60.06
229.027	63.06
229.262	65.06
229.496	71.06
229.73	74.06
229.964	72.06
230.199	69.06
230.433	63.06
230.667	84.06
230.901	89.06
231.136	88.06
231.37	80.06
231.604	85.06
231.838	79.06
232.072	89.06
232.306	90.06
232.541	92.06
232.775	93.06
233.009	84.06
233.243	83.06
233.477	81.06
233.711	96.06
233.945	85.06
234.179	91.06
234.413	84.06
234.647	86.06
234.881	85.06
235.115	104.06
235.349	84.06
235.583	80.06
235.817	84.06
236.051	81.06
236.285	84.06
236.519	90.06
236.753	74.06
236.987	83.06
237.221	99.06
237.455	89.06
237.689	71.06
237.922	91.06
238.156	83.06
238.39	69.06
238.624	68.06
238.858	100.06
239.091	82.06
239.325	89.06
239.559	75.06
239.793	91.06
240.027	74.06
240.26	86.06
240.494	88.06
240.728	75.06
240.961	99.06
241.195	100.06
241.429	77.06
241.662	81.06
241.896	72.06
242.13	73.06
242.363	73.06
242.597	81.06
242.83	79.06
243.064	81.06
243.298	89.06
243.531	92.06
243.765	68.06
243.998	77.06
244.232	86.06
244.465	79.06
244.699	84.06
244.932	89.06
245.166	82.06
245.399	92.06
245.633	84.06
245.866	83.06
246.099	81.06
246.333	78.06
246.566	87.06
246.8	89.06
247.033	97.06
247.266	94.06
247.5	94.06
247.733	77.06
247.966	79.06
248.2	64.06
248.433	87.06
248.666	71.06
248.899	98.06
249.133	81.06
249.366	80.06
249.599	89.06
249.832	81.06
250.066	87.06
250.299	76.06
250.532	82.06
250.765	86.06
250.998	77.06
251.231	86.06
251.465	90.06
251.698	73.06
251.931	80.06
252.164	86.06
252.397	87.06
252.63	97.06
252.863	74.06
253.096	90.06
253.329	91.06
253.562	86.06
253.795	88.06
254.028	77.06
254.261	84.06
254.494	79.06
254.727	95.06
254.96	83.06
255.193	94.06
255.426	93.06
255.659	80.06
255.892	88.06
256.124	86.06
256.357	106.06
256.59	96.06
256.823	83.06
257.056	78.06
257.289	89.06
257.521	114.06
257.754	88.06
257.987	76.06
258.22	97.06
258.452	98.06
258.685	90.06
258.918	95.06
259.151	86.06
259.383	92.06
259.616	80.06
259.849	92.06
260.081	81.06
260.314	68.06
260.547	91.06
260.779	77.06
261.012	86.06
261.244	84.06
261.477	74.06
261.71	80.06
261.942	78.06
262.175	76.06
262.407	89.06
262.64	89.06
262.872	81.06
263.105	82.06
263.337	84.06
263.57	74.06
263.802	91.06
264.035	86.06
264.267	73.06
264.499	80.06
264.732	88.06
264.964	77.06
265.197	91.06
265.429	82.06
265.661	98.06
265.894	89.06
266.126	84.06
266.358	93.06
266.591	80.06
266.823	83.06
267.055	81.06
267.287	89.06
267.52	81.06
267.752	90.06
267.984	85.06
268.216	80.06
268.448	75.06
268.681	74.06
268.913	98.06
269.145	93.06
269.377	82.06
269.609	90.06
269.841	85.06
270.073	88.06
270.306	91.06
270.538	93.06
270.77	82.06
271.002	77.06
271.234	87.06
271.466	79.06
271.698	87.06
271.93	96.06
272.162	69.06
272.394	103.06
272.626	94.06
272.858	82.06
273.09	79.06
273.322	85.06
273.553	95.06
273.785	87.06
274.017	85.06
274.249	87.06
274.481	81.06
274.713	85.06
274.945	95.06
275.176	74.06
275.408	92.06
275.64	84.06
275.872	73.06
276.104	90.06
276.335	88.06
276.567	99.06
276.799	89.06
277.031	82.06
277.262	88.06
277.494	77.06
277.726	84.06
277.957	85.06
278.189	83.06
278.421	91.06
278.652	89.06
278.884	90.06
279.115	90.06
279.347	90.06
279.579	85.06
279.81	96.06
280.042	93.06
280.273	82.06
280.505	89.06
280.736	85.06
280.968	91.06
281.199	90.06
281.431	114.06
281.662	91.06
281.894	90.06
282.125	106.06
282.356	93.06
282.588	95.06
282.819	82.06
283.051	91.06
283.282	98.06
283.513	87.06
283.745	92.06
283.976	86.06
284.207	94.06
284.439	87.06
284.67	82.06
284.901	103.06
285.132	96.06
285.364	94.06
285.595	84.06
285.826	86.06
286.057	82.06
286.288	89.06
286.52	93.06
286.751	106.06
286.982	90.06
287.213	93.06
287.444	98.06
287.675	88.06
287.906	70.06
288.138	84.06
288.369	78.06
288.6	84.06
288.831	81.06
289.062	76.06
289.293	80.06
289.524	87.06
289.755	86.06
289.986	95.06
290.217	90.06
290.448	81.06
290.679	88.06
290.91	99.06
291.141	101.06
291.371	101.06
291.602	85.06
291.833	94.06
292.064	82.06
292.295	84.06
292.526	96.06
292.757	96.06
292.987	88.06
293.218	86.06
293.449	94.06
293.68	92.06
293.91	77.06
294.141	104.06
294.372	88.06
294.603	91.06
294.833	90.06
295.064	94.06
295.295	87.06
295.525	85.06
295.756	94.06
295.987	80.06
296.217	83.06
296.448	88.06
296.679	91.06
296.909	99.06
297.14	81.06
297.37	90.06
297.601	100.06
297.831	87.06
298.062	95.06
298.292	85.06
298.523	83.06
298.753	106.06
298.984	87.06
299.214	88.06
299.445	91.06
299.675	90.06
299.905	81.06
300.136	95.06
300.366	85.06
300.597	81.06
300.827	98.06
301.057	98.06
301.288	102.06
301.518	78.06
301.748	98.06
301.979	88.06
302.209	88.06
302.439	93.06
302.669	93.06
302.9	91.06
303.13	98.06
303.36	97.06
303.59	96.06
303.82	103.06
304.051	81.06
304.281	86.06
304.511	97.06
304.741	84.06
304.971	95.06
305.201	86.06
305.431	80.06
305.661	79.06
305.891	81.06
306.121	77.06
306.352	96.06
306.582	89.06
306.812	94.06
307.042	87.06
307.272	81.06
307.502	100.06
307.731	82.06
307.961	97.06
308.191	95.06
308.421	85.06
308.651	81.06
308.881	87.06
309.111	97.06
309.341	94.06
309.571	95.06
309.8	97.06
310.03	90.06
310.26	96.06
310.49	95.06
310.72	96.06
310.949	80.06
311.179	76.06
311.409	88.06
311.639	87.06
311.868	88.06
312.098	90.06
312.328	92.06
312.557	93.06
312.787	87.06
313.017	91.06
313.246	90.06
313.476	85.06
313.706	93.06
313.935	91.06
314.165	109.06
314.394	93.06
314.624	91.06
314.853	90.06
315.083	81.06
315.312	76.06
315.542	69.06
315.771	88.06
316.001	90.06
316.23	82.06
316.46	103.06
316.689	95.06
316.919	90.06
317.148	89.06
317.377	92.06
317.607	84.06
317.836	94.06
318.065	92.06
318.295	85.06
318.524	95.06
318.753	92.06
318.983	85.06
319.212	89.06
319.441	85.06
319.67	103.06
319.9	104.06
320.129	77.06
320.358	98.06
320.587	94.06
320.816	78.06
321.046	88.06
321.275	94.06
321.504	95.06
321.733	86.06
321.962	101.06
322.191	80.06
322.42	94.06
322.649	97.06
322.878	95.06
323.108	84.06
323.337	77.06
323.566	83.06
323.795	94.06
324.024	103.06
324.253	96.06
324.482	93.06
324.71	89.06
324.939	104.06
325.168	89.06
325.397	90.06
325.626	103.06
325.855	94.06
326.084	85.06
326.313	93.06
326.542	87.06
326.77	93.06
326.999	95.06
327.228	91.06
327.457	71.06
327.686	96.06
327.914	82.06
328.143	89.06
328.372	93.06
328.6	95.06
328.829	83.06
329.058	92.06
329.287	89.06
329.515	87.06
329.744	101.06
329.972	101.06
330.201	69.06
330.43	87.06
330.658	83.06
330.887	90.06
331.115	87.06
331.344	83.06
331.572	102.06
331.801	97.06
332.03	98.06
332.258	97.06
332.486	91.06
332.715	84.06
332.943	93.06
333.172	91.06
333.4	90.06
333.629	91.06
333.857	100.06
334.085	88.06
334.314	94.06
334.542	97.06
334.771	90.06
334.999	88.06
335.227	91.06
335.455	102.06
335.684	95.06
335.912	105.06
336.14	98.06
336.369	92.06
336.597	92.06
336.825	89.06
337.053	86.06
337.281	82.06
337.51	73.06
337.738	89.06
337.966	93.06
338.194	98.06
338.422	98.06
338.65	81.06
338.878	89.06
339.106	85.06
339.334	94.06
339.562	85.06
339.79	85.06
340.018	73.06
340.246	74.06
340.474	96.06
340.702	83.06
340.93	97.06
341.158	102.06
341.386	90.06
341.614	82.06
341.842	93.06
342.07	91.06
342.298	82.06
342.526	82.06
342.754	95.06
342.981	89.06
343.209	88.06
343.437	94.06
343.665	98.06
343.893	95.06
344.12	92.06
344.348	93.06
344.576	89.06
344.804	88.06
345.031	100.06
345.259	102.06
345.487	95.06
345.714	88.06
345.942	95.06
346.17	96.06
346.397	90.06
346.625	89.06
346.853	84.06
347.08	78.06
347.308	90.06
347.535	81.06
347.763	109.06
347.99	101.06
348.218	91.06
348.445	95.06
348.673	94.06
348.9	90.06
349.128	95.06
349.355	80.06
349.583	76.06
349.81	94.06
350.037	92.06
350.265	87.06
350.492	94.06
350.72	88.06
350.947	92.06
351.174	88.06
351.402	87.06
351.629	94.06
351.856	99.06
352.083	86.06
352.311	88.06
352.538	86.06
352.765	85.06
352.992	82.06
353.22	83.06
353.447	100.06
353.674	96.06
353.901	93.06
354.128	87.06
354.355	90.06
354.583	91.06
354.81	94.06
355.037	82.06
355.264	82.06
355.491	81.06
355.718	100.06
355.945	90.06
356.172	88.06
356.399	85.06
356.626	80.06
356.853	90.06
357.08	95.06
357.307	76.06
357.534	89.06
357.761	94.06
357.988	82.06
358.215	86.06
358.441	99.06
358.668	77.06
358.895	86.06
359.122	107.06
359.349	91.06
359.576	90.06
359.802	74.06
360.029	78.06
360.256	87.06
360.483	85.06
360.709	99.06
360.936	89.06
361.163	92.06
361.39	92.06
361.616	73.06
361.843	88.06
362.07	96.06
362.296	98.06
362.523	85.06
362.749	85.06
362.976	100.06
363.203	98.06
363.429	84.06
363.656	99.06
363.882	88.06
364.109	96.06
364.335	93.06
364.562	94.06
364.788	89.06
365.015	104.06
365.241	98.06
365.468	99.06
365.694	82.06
365.92	88.06
366.147	72.06
366.373	74.06
366.599	84.06
366.826	92.06
367.052	101.06
367.278	80.06
367.505	90.06
367.731	94.06
367.957	91.06
368.184	84.06
368.41	96.06
368.636	96.06
368.862	84.06
369.089	89.06
369.315	94.06
369.541	88.06
369.767	83.06
369.993	89.06
370.219	86.06
370.445	85.06
370.672	90.06
370.898	93.06
371.124	82.06
371.35	91.06
371.576	97.06
371.802	100.06
372.028	100.06
372.254	91.06
372.48	81.06
372.706	95.06
372.932	91.06
373.158	88.06
373.384	93.06
373.61	93.06
373.835	90.06
374.061	86.06
374.287	93.06
374.513	88.06
374.739	83.06
374.965	79.06
375.191	71.06
375.416	85.06
375.642	77.06
375.868	91.06
376.094	93.06
376.319	86.06
376.545	87.06
376.771	89.06
376.997	83.06
377.222	80.06
377.448	86.06
377.674	99.06
377.899	85.06
378.125	93.06
378.35	87.06
378.576	78.06
378.802	90.06
379.027	93.06
379.253	85.06
379.478	87.06
379.704	92.06
379.929	89.06
380.155	81.06
380.38	90.06
380.606	95.06
380.831	90.06
381.057	77.06
381.282	85.06
381.507	86.06
381.733	108.06
381.958	92.06
382.184	75.06
382.409	105.06
382.634	84.06
382.86	94.06
383.085	88.06
383.31	74.06
383.535	100.06
383.761	88.06
383.986	96.06
384.211	89.06
384.436	95.06
384.662	79.06
384.887	87.06
385.112	90.06
385.337	85.06
385.562	89.06
385.787	95.06
386.013	95.06
386.238	85.06
386.463	79.06
386.688	94.06
386.913	96.06
387.138	88.06
387.363	87.06
387.588	96.06
387.813	97.06
388.038	96.06
388.263	83.06
388.488	89.06
388.713	83.06
388.938	92.06
389.163	84.06
389.387	88.06
389.612	88.06
389.837	85.06
390.062	99.06
390.287	89.06
390.512	87.06
390.736	97.06
390.961	89.06
391.186	85.06
391.411	94.06
391.636	85.06
391.86	95.06
392.085	90.06
392.31	90.06
392.534	91.06
392.759	101.06
392.984	96.06
393.208	78.06
393.433	81.06
393.658	88.06
393.882	95.06
394.107	96.06
394.331	82.06
394.556	84.06
394.78	88.06
395.005	87.06
395.229	82.06
395.454	76.06
395.678	69.06
395.903	86.06
396.127	85.06
396.352	92.06
396.576	97.06
396.801	93.06
397.025	93.06
397.249	90.06
397.474	82.06
397.698	88.06
397.922	96.06
398.147	81.06
398.371	87.06
398.595	80.06
398.82	93.06
399.044	82.06
399.268	85.06
399.492	99.06
399.717	109.06
399.941	104.06
400.165	91.06
400.389	89.06
400.613	98.06
400.837	77.06
401.062	78.06
401.286	89.06
401.51	108.06
401.734	78.06
401.958	85.06
402.182	86.06
402.406	97.06
402.63	90.06
402.854	82.06
403.078	82.06
403.302	80.06
403.526	73.06
403.75	86.06
403.974	84.06
404.198	86.06
404.422	82.06
404.645	90.06
404.869	98.06
405.093	92.06
405.317	86.06
405.541	88.06
405.765	96.06
405.988	107.06
406.212	102.06
406.436	89.06
406.66	110.06
406.883	93.06
407.107	96.06
407.331	84.06
407.555	86.06
407.778	97.06
408.002	88.06
408.226	76.06
408.449	91.06
408.673	99.06
408.896	93.06
409.12	82.06
409.344	89.06
409.567	70.06
409.791	94.06
410.014	90.06
410.238	95.06
410.461	81.06
410.685	79.06
410.908	88.06
411.132	96.06
411.355	86.06
411.578	103.06
411.802	87.06
412.025	87.06
412.249	80.06
412.472	95.06
412.695	81.06
412.919	87.06
413.142	89.06
413.365	92.06
413.589	80.06
413.812	80.06
414.035	85.06
414.258	86.06
414.482	85.06
414.705	100.06
414.928	95.06
415.151	72.06
415.374	88.06
415.597	79.06
415.821	77.06
416.044	85.06
416.267	86.06
416.49	76.06
416.713	85.06
416.936	73.06
417.159	82.06
417.382	104.06
417.605	103.06
417.828	92.06
418.051	96.06
418.274	85.06
418.497	85.06
418.72	79.06
418.943	84.06
419.166	88.06
419.389	81.06
419.611	86.06
419.834	93.06
420.057	81.06
420.28	88.06
420.503	85.06
420.726	84.06
420.948	96.06
421.171	96.06
421.394	85.06
421.617	88.06
421.839	88.06
422.062	93.06
422.285	100.06
422.507	86.06
422.73	82.06
422.953	88.06
423.175	86.06
423.398	97.06
423.621	95.06
423.843	87.06
424.066	79.06
424.288	89.06
424.511	88.06
424.733	90.06
424.956	101.06
425.178	89.06
425.401	84.06
425.623	94.06
425.846	72.06
426.068	81.06
426.291	100.06
426.513	105.06
426.735	97.06
426.958	93.06
427.18	99.06
427.402	80.06
427.625	93.06
427.847	90.06
428.069	85.06
428.292	86.06
428.514	87.06
428.736	87.06
428.958	83.06
429.181	74.06
429.403	84.06
429.625	82.06
429.847	89.06
430.069	97.06
430.292	96.06
430.514	99.06
430.736	82.06
430.958	95.06
431.18	85.06
431.402	89.06
431.624	93.06
431.846	97.06
432.068	102.06
432.29	93.06
432.512	109.06
432.734	83.06
432.956	102.06
433.178	88.06
433.4	95.06
433.622	96.06
433.844	89.06
434.066	110.06
434.287	109.06
434.509	94.06
434.731	98.06
434.953	98.06
435.175	85.06
435.397	80.06
435.618	94.06
435.84	93.06
436.062	94.06
436.284	96.06
436.505	92.06
436.727	106.06
436.949	85.06
437.17	80.06
437.392	92.06
437.614	76.06
437.835	80.06
438.057	91.06
438.278	102.06
438.5	82.06
438.721	89.06
438.943	81.06
439.165	103.06
439.386	83.06
439.608	83.06
439.829	94.06
440.05	82.06
440.272	87.06
440.493	86.06
440.715	88.06
440.936	82.06
441.158	82.06
441.379	84.06
441.6	92.06
441.822	80.06
442.043	78.06
442.264	94.06
442.486	71.06
442.707	86.06
442.928	93.06
443.149	91.06
443.371	105.06
443.592	97.06
443.813	101.06
444.034	97.06
444.255	105.06
444.476	92.06
444.698	82.06
444.919	78.06
445.14	201.06
445.361	148.06
445.582	91.06
445.803	86.06
446.024	94.06
446.245	80.06
446.466	88.06
446.687	90.06
446.908	88.06
447.129	86.06
447.35	96.06
447.571	87.06
447.792	77.06
448.013	75.06
448.234	72.06
448.455	87.06
448.675	97.06
448.896	99.06
449.117	92.06
449.338	96.06
449.559	89.06
449.779	72.06
450	101.06
450.221	98.06
450.442	92.06
450.662	89.06
450.883	94.06
451.104	84.06
451.324	83.06
451.545	97.06
451.766	81.06
451.986	77.06
452.207	92.06
452.428	102.06
452.648	92.06
452.869	85.06
453.089	95.06
453.31	92.06
453.53	76.06
453.751	85.06
453.971	91.06
454.192	82.06
454.412	90.06
454.633	77.06
454.853	101.06
455.073	96.06
455.294	95.06
455.514	87.06
455.734	81.06
455.955	68.06
456.175	85.06
456.395	80.06
456.616	80.06
456.836	100.06
457.056	77.06
457.276	84.06
457.497	86.06
457.717	87.06
457.937	89.06
458.157	91.06
458.377	78.06
458.598	77.06
458.818	102.06
459.038	94.06
459.258	75.06
459.478	87.06
459.698	90.06
459.918	102.06
460.138	87.06
460.358	80.06
460.578	98.06
460.798	100.06
461.018	88.06
461.238	102.06
461.458	96.06
461.678	85.06
461.898	81.06
462.118	86.06
462.338	97.06
462.558	92.06
462.777	80.06
462.997	95.06
463.217	98.06
463.437	94.06
463.657	89.06
463.876	94.06
464.096	99.06
464.316	92.06
464.536	87.06
464.755	108.06
464.975	82.06
465.195	97.06
465.414	88.06
465.634	90.06
465.854	84.06
466.073	78.06
466.293	86.06
466.512	98.06
466.732	96.06
466.951	92.06
467.171	77.06
467.391	80.06
467.61	88.06
467.829	81.06
468.049	99.06
468.268	91.06
468.488	100.06
468.707	91.06
468.927	73.06
469.146	88.06
469.365	100.06
469.585	97.06
469.804	77.06
470.023	87.06
470.243	80.06
470.462	100.06
470.681	92.06
470.901	87.06
471.12	110.06
471.339	95.06
471.558	92.06
471.777	87.06
471.997	82.06
472.216	100.06
472.435	82.06
472.654	76.06
472.873	97.06
473.092	100.06
473.311	111.06
473.53	93.06
473.749	93.06
473.968	83.06
474.187	89.06
474.406	93.06
474.625	101.06
474.844	90.06
475.063	95.06
475.282	107.06
475.501	88.06
475.72	94.06
475.939	93.06
476.158	93.06
476.377	100.06
476.596	86.06
476.814	94.06
477.033	94.06
477.252	82.06
477.471	102.06
477.69	93.06
477.908	96.06
478.127	96.06
478.346	107.06
478.564	84.06
478.783	103.06
479.002	97.06
479.22	102.06
479.439	97.06
479.658	88.06
479.876	96.06
480.095	99.06
480.313	97.06
480.532	97.06
480.751	103.06
480.969	88.06
481.188	92.06
481.406	100.06
481.624	94.06
481.843	98.06
482.061	100.06
482.28	86.06
482.498	96.06
482.717	90.06
482.935	80.06
483.153	96.06
483.372	89.06
483.59	85.06
483.808	92.06
484.027	94.06
484.245	100.06
484.463	109.06
484.681	101.06
484.9	96.06
485.118	97.06
485.336	98.06
485.554	91.06
485.772	86.06
485.99	91.06
486.209	92.06
486.427	86.06
486.645	97.06
486.863	86.06
487.081	103.06
487.299	100.06
487.517	104.06
487.735	96.06
487.953	81.06
488.171	89.06
488.389	101.06
488.607	88.06
488.825	108.06
489.043	100.06
489.261	89.06
489.479	89.06
489.696	84.06
489.914	85.06
490.132	87.06
490.35	86.06
490.568	90.06
490.786	95.06
491.003	104.06
491.221	91.06
491.439	78.06
491.657	102.06
491.874	106.06
492.092	94.06
492.31	104.06
492.527	113.06
492.745	124.06
492.963	112.06
493.18	95.06
493.398	111.06
493.615	104.06
493.833	96.06
494.05	98.06
494.268	104.06
494.485	101.06
494.703	99.06
494.92	95.06
495.138	104.06
495.355	104.06
495.573	89.06
495.79	107.06
496.008	77.06
496.225	96.06
496.442	93.06
496.66	90.06
496.877	99.06
497.094	106.06
497.312	90.06
497.529	99.06
497.746	94.06
497.963	102.06
498.181	86.06
498.398	101.06
498.615	100.06
498.832	97.06
499.049	92.06
499.267	102.06
499.484	96.06
499.701	105.06
499.918	117.06
500.135	120.06
500.352	112.06
500.569	112.06
500.786	116.06
501.003	126.06
501.22	106.06
501.437	101.06
501.654	103.06
501.871	109.06
502.088	127.06
502.305	96.06
502.522	86.06
502.739	116.06
502.956	92.06
503.172	95.06
503.389	97.06
503.606	88.06
503.823	101.06
504.04	100.06
504.256	88.06
504.473	100.06
504.69	92.06
504.907	104.06
505.123	91.06
505.34	95.06
505.557	101.06
505.773	85.06
505.99	103.06
506.207	106.06
506.423	89.06
506.64	96.06
506.856	97.06
507.073	99.06
507.289	91.06
507.506	95.06
507.722	98.06
507.939	89.06
508.155	106.06
508.372	93.06
508.588	100.06
508.805	97.06
509.021	88.06
509.238	93.06
509.454	107.06
509.67	93.06
509.887	100.06
510.103	89.06
510.319	87.06
510.536	88.06
510.752	86.06
510.968	86.06
511.184	88.06
511.401	97.06
511.617	92.06
511.833	88.06
512.049	91.06
512.265	80.06
512.481	83.06
512.698	90.06
512.914	82.06
513.13	97.06
513.346	98.06
513.562	104.06
513.778	92.06
513.994	105.06
514.21	90.06
514.426	94.06
514.642	96.06
514.858	90.06
515.074	96.06
515.29	95.06
515.506	80.06
515.721	82.06
515.937	96.06
516.153	82.06
516.369	98.06
516.585	81.06
516.801	97.06
517.016	95.06
517.232	114.06
517.448	100.06
517.664	104.06
517.879	98.06
518.095	105.06
518.311	101.06
518.527	98.06
518.742	88.06
518.958	96.06
519.173	92.06
519.389	94.06
519.605	88.06
519.82	102.06
520.036	93.06
520.251	81.06
520.467	85.06
520.682	104.06
520.898	87.06
521.113	96.06
521.329	86.06
521.544	92.06
521.76	101.06
521.975	102.06
522.19	74.06
522.406	93.06
522.621	99.06
522.836	85.06
523.052	82.06
523.267	104.06
523.482	101.06
523.698	104.06
523.913	97.06
524.128	95.06
524.343	103.06
524.559	88.06
524.774	89.06
524.989	90.06
525.204	85.06
525.419	83.06
525.634	99.06
525.849	98.06
526.064	80.06
526.28	96.06
526.495	86.06
526.71	85.06
526.925	101.06
527.14	88.06
527.355	103.06
527.57	87.06
527.785	86.06
527.999	86.06
528.214	97.06
528.429	96.06
528.644	88.06
528.859	95.06
529.074	101.06
529.289	93.06
529.503	100.06
529.718	110.06
529.933	90.06
530.148	97.06
530.363	89.06
530.577	108.06
530.792	89.06
531.007	99.06
531.221	93.06
531.436	96.06
531.651	101.06
531.865	85.06
532.08	102.06
532.295	99.06
532.509	86.06
532.724	92.06
532.938	105.06
533.153	101.06
533.367	88.06
533.582	86.06
533.796	89.06
534.011	99.06
534.225	88.06
534.44	93.06
534.654	103.06
534.868	91.06
535.083	93.06
535.297	75.06
535.511	89.06
535.726	90.06
535.94	85.06
536.154	86.06
536.369	87.06
536.583	89.06
536.797	97.06
537.011	99.06
537.225	95.06
537.44	95.06
537.654	103.06
537.868	86.06
538.082	78.06
538.296	84.06
538.51	93.06
538.724	103.06
538.938	105.06
539.153	83.06
539.367	90.06
539.581	94.06
539.795	91.06
540.009	86.06
540.222	103.06
540.436	82.06
540.65	93.06
540.864	99.06
541.078	96.06
541.292	95.06
541.506	86.06
541.72	89.06
541.934	106.06
542.147	100.06
542.361	96.06
542.575	87.06
542.789	96.06
543.002	91.06
543.216	92.06
543.43	98.06
543.644	96.06
543.857	85.06
544.071	82.06
544.285	73.06
544.498	84.06
544.712	88.06
544.925	90.06
545.139	99.06
545.352	96.06
545.566	100.06
545.779	106.06
545.993	106.06
546.206	94.06
546.42	87.06
546.633	108.06
546.847	74.06
547.06	97.06
547.274	97.06
547.487	104.06
547.7	86.06
547.914	87.06
548.127	81.06
548.34	85.06
548.554	90.06
548.767	99.06
548.98	96.06
549.193	107.06
549.407	100.06
549.62	99.06
549.833	81.06
550.046	87.06
550.259	99.06
550.473	93.06
550.686	80.06
550.899	104.06
551.112	104.06
551.325	105.06
551.538	85.06
551.751	94.06
551.964	78.06
552.177	89.06
552.39	88.06
552.603	88.06
552.816	89.06
553.029	80.06
553.242	92.06
553.455	92.06
553.667	91.06
553.88	95.06
554.093	97.06
554.306	89.06
554.519	97.06
554.732	83.06
554.944	105.06
555.157	89.06
555.37	91.06
555.583	90.06
555.795	87.06
556.008	86.06
556.221	94.06
556.433	97.06
556.646	103.06
556.859	93.06
557.071	91.06
557.284	77.06
557.496	95.06
557.709	85.06
557.921	87.06
558.134	97.06
558.346	91.06
558.559	81.06
558.771	83.06
558.984	99.06
559.196	93.06
559.409	105.06
559.621	85.06
559.833	82.06
560.046	98.06
560.258	92.06
560.47	101.06
560.683	85.06
560.895	82.06
561.107	98.06
561.32	92.06
561.532	81.06
561.744	105.06
561.956	88.06
562.168	93.06
562.381	91.06
562.593	74.06
562.805	109.06
563.017	98.06
563.229	108.06
563.441	93.06
563.653	79.06
563.865	88.06
564.077	91.06
564.289	93.06
564.501	83.06
564.713	99.06
564.925	97.06
565.137	122.06
565.349	100.06
565.561	83.06
565.773	102.06
565.985	104.06
566.197	93.06
566.408	88.06
566.62	84.06
566.832	92.06
567.044	96.06
567.255	94.06
567.467	103.06
567.679	83.06
567.891	92.06
568.102	86.06
568.314	99.06
568.526	100.06
568.737	100.06
568.949	98.06
569.161	88.06
569.372	102.06
569.584	86.06
569.795	93.06
570.007	89.06
570.218	97.06
570.43	97.06
570.641	106.06
570.853	91.06
571.064	92.06
571.276	85.06
571.487	95.06
571.698	99.06
571.91	76.06
572.121	89.06
572.333	100.06
572.544	72.06
572.755	95.06
572.966	87.06
573.178	94.06
573.389	98.06
573.6	88.06
573.811	93.06
574.023	98.06
574.234	83.06
574.445	84.06
574.656	84.06
574.867	87.06
575.078	95.06
575.289	87.06
575.501	85.06
575.712	96.06
575.923	96.06
576.134	102.06
576.345	88.06
576.556	98.06
576.767	109.06
576.978	89.06
577.188	81.06
577.399	97.06
577.61	76.06
577.821	88.06
578.032	101.06
578.243	101.06
578.454	85.06
578.665	95.06
578.875	92.06
579.086	76.06
579.297	94.06
579.508	105.06
579.718	88.06
579.929	110.06
580.14	89.06
580.35	92.06
580.561	107.06
580.772	88.06
580.982	104.06
581.193	99.06
581.403	81.06
581.614	102.06
581.825	81.06
582.035	88.06
582.246	97.06
582.456	108.06
582.667	81.06
582.877	81.06
583.087	87.06
583.298	100.06
583.508	96.06
583.719	92.06
583.929	101.06
584.139	97.06
584.35	92.06
584.56	86.06
584.77	104.06
584.981	79.06
585.191	92.06
585.401	89.06
585.611	97.06
585.821	90.06
586.032	76.06
586.242	80.06
586.452	86.06
586.662	84.06
586.872	95.06
587.082	99.06
587.292	84.06
587.502	97.06
587.713	87.06
587.923	92.06
588.133	94.06
588.343	76.06
588.553	79.06
588.762	88.06
588.972	79.06
589.182	94.06
589.392	88.06
589.602	93.06
589.812	99.06
590.022	92.06
590.232	90.06
590.441	96.06
590.651	88.06
590.861	101.06
591.071	88.06
591.281	100.06
591.49	78.06
591.7	85.06
591.91	89.06
592.119	94.06
592.329	104.06
592.539	97.06
592.748	92.06
592.958	101.06
593.167	90.06
593.377	93.06
593.587	94.06
593.796	83.06
594.006	99.06
594.215	98.06
594.424	89.06
594.634	81.06
594.843	92.06
595.053	101.06
595.262	92.06
595.472	87.06
595.681	81.06
595.89	83.06
596.1	93.06
596.309	100.06
596.518	93.06
596.727	86.06
596.937	93.06
597.146	81.06
597.355	85.06
597.564	90.06
597.774	101.06
597.983	79.06
598.192	84.06
598.401	83.06
598.61	94.06
598.819	95.06
599.028	80.06
599.237	92.06
599.446	89.06
599.655	93.06
599.864	98.06
600.073	93.06
600.282	93.06
600.491	98.06
600.7	89.06
600.909	94.06
601.118	86.06
601.327	87.06
601.536	101.06
601.745	97.06
601.953	86.06
602.162	99.06
602.371	95.06
602.58	95.06
602.789	95.06
602.997	92.06
603.206	87.06
603.415	79.06
603.623	82.06
603.832	99.06
604.041	89.06
604.249	78.06
604.458	95.06
604.666	98.06
604.875	80.06
605.084	87.06
605.292	74.06
605.501	92.06
605.709	87.06
605.918	85.06
606.126	97.06
606.334	87.06
606.543	101.06
606.751	100.06
606.96	74.06
607.168	83.06
607.376	99.06
607.585	97.06
607.793	94.06
608.001	93.06
608.21	100.06
608.418	82.06
608.626	87.06
608.834	92.06
609.043	90.06
609.251	97.06
609.459	91.06
609.667	95.06
609.875	83.06
610.083	91.06
610.291	92.06
610.499	104.06
610.707	84.06
610.916	101.06
611.124	81.06
611.332	94.06
611.54	89.06
611.748	81.06
611.955	95.06
612.163	102.06
612.371	80.06
612.579	106.06
612.787	90.06
612.995	96.06
613.203	111.06
613.411	87.06
613.618	90.06
613.826	91.06
614.034	98.06
614.242	74.06
614.449	87.06
614.657	85.06
614.865	88.06
615.072	96.06
615.28	80.06
615.488	79.06
615.695	99.06
615.903	81.06
616.111	90.06
616.318	93.06
616.526	93.06
616.733	108.06
616.941	78.06
617.148	87.06
617.356	79.06
617.563	87.06
617.771	90.06
617.978	75.06
618.185	92.06
618.393	96.06
618.6	75.06
618.807	85.06
619.015	77.06
619.222	83.06
619.429	84.06
619.637	88.06
619.844	90.06
620.051	72.06
620.258	92.06
620.466	89.06
620.673	93.06
620.88	90.06
621.087	93.06
621.294	93.06
621.501	83.06
621.708	86.06
621.915	102.06
622.122	88.06
622.329	87.06
622.536	90.06
622.743	109.06
622.95	85.06
623.157	86.06
623.364	88.06
623.571	92.06
623.778	89.06
623.985	92.06
624.192	84.06
624.399	100.06
624.606	94.06
624.812	72.06
625.019	84.06
625.226	92.06
625.433	91.06
625.639	78.06
625.846	89.06
626.053	88.06
626.259	100.06
626.466	90.06
626.673	90.06
626.879	82.06
627.086	81.06
627.293	85.06
627.499	92.06
627.706	89.06
627.912	86.06
628.119	89.06
628.325	86.06
628.532	84.06
628.738	92.06
628.945	70.06
629.151	93.06
629.357	76.06
629.564	94.06
629.77	86.06
629.976	99.06
630.183	97.06
630.389	86.06
630.595	97.06
630.802	93.06
631.008	94.06
631.214	78.06
631.42	92.06
631.627	81.06
631.833	90.06
632.039	98.06
632.245	89.06
632.451	87.06
632.657	88.06
632.863	75.06
633.069	87.06
633.275	97.06
633.481	72.06
633.688	90.06
633.893	90.06
634.099	96.06
634.305	83.06
634.511	85.06
634.717	94.06
634.923	83.06
635.129	82.06
635.335	89.06
635.541	94.06
635.747	84.06
635.952	80.06
636.158	86.06
636.364	82.06
636.57	93.06
636.775	80.06
636.981	82.06
637.187	93.06
637.392	93.06
637.598	93.06
637.804	78.06
638.009	67.06
638.215	82.06
638.421	86.06
638.626	79.06
638.832	88.06
639.037	85.06
639.243	79.06
639.448	86.06
639.654	94.06
639.859	85.06
640.065	89.06
640.27	95.06
640.475	94.06
640.681	95.06
640.886	87.06
641.091	96.06
641.297	107.06
641.502	97.06
641.707	90.06
641.913	91.06
642.118	80.06
642.323	79.06
642.528	82.06
642.733	85.06
642.939	85.06
643.144	92.06
643.349	78.06
643.554	84.06
643.759	91.06
643.964	79.06
644.169	78.06
644.374	97.06
644.579	91.06
644.784	91.06
644.989	92.06
645.194	103.06
645.399	78.06
645.604	81.06
645.809	99.06
646.014	89.06
646.219	89.06
646.423	86.06
646.628	89.06
646.833	82.06
647.038	89.06
647.243	89.06
647.447	80.06
647.652	90.06
647.857	88.06
648.062	69.06
648.266	88.06
648.471	90.06
648.676	95.06
648.88	74.06
649.085	82.06
649.289	82.06
649.494	89.06
649.698	86.06
649.903	72.06
650.107	79.06
650.312	92.06
650.516	98.06
650.721	90.06
650.925	82.06
651.13	90.06
651.334	70.06
651.539	86.06
651.743	94.06
651.947	94.06
652.152	76.06
652.356	88.06
652.56	73.06
652.764	85.06
652.969	74.06
653.173	76.06
653.377	103.06
653.581	98.06
653.785	88.06
653.99	88.06
654.194	83.06
654.398	81.06
654.602	88.06
654.806	92.06
655.01	80.06
655.214	91.06
655.418	94.06
655.622	84.06
655.826	73.06
656.03	82.06
656.234	88.06
656.438	80.06
656.642	82.06
656.846	73.06
657.049	82.06
657.253	89.06
657.457	88.06
657.661	93.06
657.865	97.06
658.068	79.06
658.272	85.06
658.476	96.06
658.68	89.06
658.883	93.06
659.087	80.06
659.291	96.06
659.494	83.06
659.698	92.06
659.901	96.06
660.105	73.06
660.309	87.06
660.512	80.06
660.716	83.06
660.919	86.06
661.123	101.06
661.326	90.06
661.53	89.06
661.733	77.06
661.936	110.06
662.14	77.06
662.343	94.06
662.546	79.06
662.75	80.06
662.953	96.06
663.156	90.06
663.36	94.06
663.563	94.06
663.766	92.06
663.969	79.06
664.173	80.06
664.376	77.06
664.579	85.06
664.782	96.06
664.985	78.06
665.188	86.06
665.391	88.06
665.594	75.06
665.797	80.06
666	84.06
666.203	86.06
666.406	90.06
666.609	95.06
666.812	80.06
667.015	77.06
667.218	82.06
667.421	81.06
667.624	81.06
667.827	85.06
668.03	83.06
668.232	95.06
668.435	83.06
668.638	88.06
668.841	86.06
669.043	96.06
669.246	71.06
669.449	89.06
669.651	88.06
669.854	83.06
670.057	81.06
670.259	83.06
670.462	73.06
670.665	94.06
670.867	80.06
671.07	86.06
671.272	75.06
671.475	75.06
671.677	88.06
671.88	90.06
672.082	89.06
672.284	91.06
672.487	80.06
672.689	100.06
672.892	77.06
