Data from Ni(NO3)2Standard.Agarose3%.GreenCap.LampEnergy5.5.E.O_HRD10591_14-40-39-204.txt Node
Date: Mon Jul 22 14:40:39 EDT 2019
User: cochatt
Spectrometer: HR+D1059
Trigger mode: 1
Integration Time (sec): 1.000000E-1
Scans to average: 1
Electric dark correction enabled: true
Nonlinearity correction enabled: false
Boxcar width: 0
XAxis mode: Wavelengths
Number of Pixels in Spectrum: 2048
>>>>>Begin Spectral Data<<<<<
223.165	-15.31
223.4	-15.31
223.635	-15.31
223.869	-18.31
224.104	-19.31
224.338	-5.31
224.573	-18.31
224.808	-17.31
225.042	-18.31
225.277	-11.31
225.511	-1.31
225.746	-14.31
225.98	11.69
226.215	10.69
226.449	16.69
226.683	23.69
226.918	28.69
227.152	47.69
227.387	36.69
227.621	27.69
227.856	50.69
228.09	39.69
228.324	37.69
228.559	56.69
228.793	45.69
229.027	55.69
229.262	41.69
229.496	61.69
229.73	64.69
229.964	70.69
230.199	72.69
230.433	69.69
230.667	85.69
230.901	74.69
231.136	74.69
231.37	71.69
231.604	61.69
231.838	66.69
232.072	76.69
232.306	92.69
232.541	84.69
232.775	76.69
233.009	79.69
233.243	68.69
233.477	81.69
233.711	87.69
233.945	74.69
234.179	71.69
234.413	68.69
234.647	75.69
234.881	84.69
235.115	71.69
235.349	64.69
235.583	66.69
235.817	59.69
236.051	72.69
236.285	76.69
236.519	61.69
236.753	74.69
236.987	77.69
237.221	79.69
237.455	82.69
237.689	78.69
237.922	66.69
238.156	75.69
238.39	66.69
238.624	70.69
238.858	80.69
239.091	68.69
239.325	57.69
239.559	74.69
239.793	71.69
240.027	70.69
240.26	71.69
240.494	69.69
240.728	75.69
240.961	86.69
241.195	83.69
241.429	74.69
241.662	60.69
241.896	69.69
242.13	65.69
242.363	78.69
242.597	75.69
242.83	81.69
243.064	70.69
243.298	69.69
243.531	58.69
243.765	69.69
243.998	75.69
244.232	71.69
244.465	71.69
244.699	86.69
244.932	69.69
245.166	77.69
245.399	62.69
245.633	82.69
245.866	70.69
246.099	85.69
246.333	56.69
246.566	77.69
246.8	79.69
247.033	77.69
247.266	86.69
247.5	91.69
247.733	90.69
247.966	64.69
248.2	81.69
248.433	71.69
248.666	66.69
248.899	81.69
249.133	73.69
249.366	84.69
249.599	62.69
249.832	67.69
250.066	73.69
250.299	70.69
250.532	81.69
250.765	71.69
250.998	79.69
251.231	78.69
251.465	68.69
251.698	84.69
251.931	78.69
252.164	71.69
252.397	70.69
252.63	62.69
252.863	79.69
253.096	76.69
253.329	71.69
253.562	80.69
253.795	93.69
254.028	78.69
254.261	70.69
254.494	80.69
254.727	74.69
254.96	65.69
255.193	61.69
255.426	73.69
255.659	83.69
255.892	69.69
256.124	80.69
256.357	74.69
256.59	72.69
256.823	71.69
257.056	81.69
257.289	70.69
257.521	79.69
257.754	65.69
257.987	88.69
258.22	83.69
258.452	80.69
258.685	95.69
258.918	78.69
259.151	81.69
259.383	71.69
259.616	75.69
259.849	73.69
260.081	60.69
260.314	89.69
260.547	80.69
260.779	79.69
261.012	71.69
261.244	88.69
261.477	84.69
261.71	89.69
261.942	69.69
262.175	79.69
262.407	73.69
262.64	92.69
262.872	62.69
263.105	80.69
263.337	81.69
263.57	84.69
263.802	71.69
264.035	68.69
264.267	84.69
264.499	75.69
264.732	68.69
264.964	75.69
265.197	75.69
265.429	73.69
265.661	100.69
265.894	73.69
266.126	80.69
266.358	75.69
266.591	72.69
266.823	85.69
267.055	94.69
267.287	87.69
267.52	96.69
267.752	86.69
267.984	76.69
268.216	80.69
268.448	78.69
268.681	84.69
268.913	80.69
269.145	87.69
269.377	75.69
269.609	80.69
269.841	84.69
270.073	81.69
270.306	80.69
270.538	89.69
270.77	83.69
271.002	82.69
271.234	88.69
271.466	76.69
271.698	94.69
271.93	73.69
272.162	80.69
272.394	63.69
272.626	80.69
272.858	77.69
273.09	78.69
273.322	80.69
273.553	79.69
273.785	68.69
274.017	75.69
274.249	71.69
274.481	71.69
274.713	89.69
274.945	86.69
275.176	80.69
275.408	73.69
275.64	81.69
275.872	82.69
276.104	80.69
276.335	85.69
276.567	85.69
276.799	77.69
277.031	88.69
277.262	85.69
277.494	82.69
277.726	78.69
277.957	86.69
278.189	74.69
278.421	80.69
278.652	85.69
278.884	74.69
279.115	90.69
279.347	72.69
279.579	66.69
279.81	93.69
280.042	83.69
280.273	86.69
280.505	81.69
280.736	80.69
280.968	79.69
281.199	90.69
281.431	87.69
281.662	64.69
281.894	80.69
282.125	83.69
282.356	77.69
282.588	87.69
282.819	87.69
283.051	80.69
283.282	83.69
283.513	71.69
283.745	66.69
283.976	77.69
284.207	82.69
284.439	82.69
284.67	79.69
284.901	75.69
285.132	67.69
285.364	66.69
285.595	96.69
285.826	77.69
286.057	84.69
286.288	76.69
286.52	85.69
286.751	87.69
286.982	82.69
287.213	78.69
287.444	80.69
287.675	78.69
287.906	81.69
288.138	76.69
288.369	95.69
288.6	86.69
288.831	84.69
289.062	84.69
289.293	71.69
289.524	77.69
289.755	70.69
289.986	78.69
290.217	79.69
290.448	92.69
290.679	82.69
290.91	86.69
291.141	90.69
291.371	77.69
291.602	85.69
291.833	85.69
292.064	83.69
292.295	82.69
292.526	84.69
292.757	64.69
292.987	73.69
293.218	77.69
293.449	92.69
293.68	81.69
293.91	83.69
294.141	79.69
294.372	81.69
294.603	72.69
294.833	83.69
295.064	77.69
295.295	66.69
295.525	85.69
295.756	87.69
295.987	93.69
296.217	73.69
296.448	77.69
296.679	82.69
296.909	92.69
297.14	81.69
297.37	69.69
297.601	69.69
297.831	93.69
298.062	68.69
298.292	78.69
298.523	85.69
298.753	84.69
298.984	68.69
299.214	82.69
299.445	78.69
299.675	69.69
299.905	84.69
300.136	72.69
300.366	85.69
300.597	70.69
300.827	79.69
301.057	85.69
301.288	92.69
301.518	81.69
301.748	73.69
301.979	75.69
302.209	88.69
302.439	76.69
302.669	101.69
302.9	85.69
303.13	87.69
303.36	84.69
303.59	86.69
303.82	72.69
304.051	87.69
304.281	80.69
304.511	74.69
304.741	85.69
304.971	80.69
305.201	84.69
305.431	82.69
305.661	85.69
305.891	73.69
306.121	70.69
306.352	86.69
306.582	87.69
306.812	81.69
307.042	86.69
307.272	80.69
307.502	72.69
307.731	95.69
307.961	77.69
308.191	74.69
308.421	89.69
308.651	83.69
308.881	86.69
309.111	88.69
309.341	81.69
309.571	74.69
309.8	78.69
310.03	91.69
310.26	97.69
310.49	81.69
310.72	70.69
310.949	79.69
311.179	80.69
311.409	73.69
311.639	74.69
311.868	91.69
312.098	80.69
312.328	80.69
312.557	84.69
312.787	87.69
313.017	81.69
313.246	97.69
313.476	86.69
313.706	63.69
313.935	70.69
314.165	80.69
314.394	74.69
314.624	93.69
314.853	93.69
315.083	80.69
315.312	85.69
315.542	84.69
315.771	88.69
316.001	87.69
316.23	75.69
316.46	70.69
316.689	82.69
316.919	81.69
317.148	81.69
317.377	69.69
317.607	83.69
317.836	78.69
318.065	74.69
318.295	97.69
318.524	77.69
318.753	81.69
318.983	84.69
319.212	93.69
319.441	76.69
319.67	81.69
319.9	82.69
320.129	74.69
320.358	71.69
320.587	72.69
320.816	88.69
321.046	80.69
321.275	78.69
321.504	73.69
321.733	78.69
321.962	85.69
322.191	79.69
322.42	70.69
322.649	77.69
322.878	78.69
323.108	86.69
323.337	90.69
323.566	79.69
323.795	71.69
324.024	68.69
324.253	90.69
324.482	93.69
324.71	77.69
324.939	78.69
325.168	95.69
325.397	74.69
325.626	89.69
325.855	73.69
326.084	81.69
326.313	101.69
326.542	76.69
326.77	80.69
326.999	71.69
327.228	81.69
327.457	81.69
327.686	89.69
327.914	83.69
328.143	76.69
328.372	69.69
328.6	75.69
328.829	87.69
329.058	86.69
329.287	88.69
329.515	87.69
329.744	82.69
329.972	64.69
330.201	69.69
330.43	89.69
330.658	87.69
330.887	86.69
331.115	73.69
331.344	83.69
331.572	74.69
331.801	88.69
332.03	77.69
332.258	68.69
332.486	79.69
332.715	89.69
332.943	81.69
333.172	89.69
333.4	87.69
333.629	71.69
333.857	85.69
334.085	84.69
334.314	78.69
334.542	75.69
334.771	90.69
334.999	78.69
335.227	72.69
335.455	95.69
335.684	95.69
335.912	81.69
336.14	78.69
336.369	89.69
336.597	70.69
336.825	87.69
337.053	87.69
337.281	101.69
337.51	97.69
337.738	69.69
337.966	70.69
338.194	83.69
338.422	63.69
338.65	78.69
338.878	92.69
339.106	94.69
339.334	77.69
339.562	70.69
339.79	89.69
340.018	89.69
340.246	81.69
340.474	77.69
340.702	92.69
340.93	84.69
341.158	83.69
341.386	78.69
341.614	83.69
341.842	88.69
342.07	74.69
342.298	79.69
342.526	96.69
342.754	91.69
342.981	79.69
343.209	85.69
343.437	83.69
343.665	85.69
343.893	93.69
344.12	88.69
344.348	74.69
344.576	87.69
344.804	81.69
345.031	77.69
345.259	77.69
345.487	81.69
345.714	78.69
345.942	71.69
346.17	84.69
346.397	90.69
346.625	88.69
346.853	82.69
347.08	88.69
347.308	77.69
347.535	75.69
347.763	97.69
347.99	77.69
348.218	84.69
348.445	74.69
348.673	73.69
348.9	81.69
349.128	84.69
349.355	90.69
349.583	70.69
349.81	69.69
350.037	77.69
350.265	78.69
350.492	84.69
350.72	71.69
350.947	80.69
351.174	79.69
351.402	77.69
351.629	89.69
351.856	77.69
352.083	80.69
352.311	61.69
352.538	81.69
352.765	91.69
352.992	81.69
353.22	86.69
353.447	92.69
353.674	80.69
353.901	80.69
354.128	101.69
354.355	71.69
354.583	78.69
354.81	82.69
355.037	84.69
355.264	80.69
355.491	81.69
355.718	88.69
355.945	78.69
356.172	67.69
356.399	70.69
356.626	84.69
356.853	84.69
357.08	77.69
357.307	87.69
357.534	88.69
357.761	85.69
357.988	79.69
358.215	87.69
358.441	90.69
358.668	79.69
358.895	80.69
359.122	71.69
359.349	92.69
359.576	68.69
359.802	82.69
360.029	78.69
360.256	93.69
360.483	77.69
360.709	75.69
360.936	88.69
361.163	84.69
361.39	87.69
361.616	84.69
361.843	73.69
362.07	81.69
362.296	81.69
362.523	80.69
362.749	73.69
362.976	82.69
363.203	88.69
363.429	96.69
363.656	69.69
363.882	79.69
364.109	83.69
364.335	86.69
364.562	82.69
364.788	81.69
365.015	70.69
365.241	70.69
365.468	85.69
365.694	82.69
365.92	80.69
366.147	85.69
366.373	84.69
366.599	79.69
366.826	92.69
367.052	76.69
367.278	77.69
367.505	82.69
367.731	81.69
367.957	78.69
368.184	62.69
368.41	88.69
368.636	72.69
368.862	87.69
369.089	87.69
369.315	88.69
369.541	74.69
369.767	74.69
369.993	82.69
370.219	88.69
370.445	81.69
370.672	78.69
370.898	72.69
371.124	81.69
371.35	74.69
371.576	73.69
371.802	86.69
372.028	76.69
372.254	79.69
372.48	64.69
372.706	92.69
372.932	80.69
373.158	75.69
373.384	91.69
373.61	81.69
373.835	84.69
374.061	83.69
374.287	71.69
374.513	96.69
374.739	78.69
374.965	96.69
375.191	85.69
375.416	94.69
375.642	86.69
375.868	78.69
376.094	69.69
376.319	74.69
376.545	81.69
376.771	79.69
376.997	81.69
377.222	74.69
377.448	93.69
377.674	75.69
377.899	79.69
378.125	77.69
378.35	92.69
378.576	88.69
378.802	71.69
379.027	83.69
379.253	80.69
379.478	76.69
379.704	81.69
379.929	91.69
380.155	79.69
380.38	82.69
380.606	79.69
380.831	74.69
381.057	75.69
381.282	76.69
381.507	84.69
381.733	96.69
381.958	79.69
382.184	81.69
382.409	79.69
382.634	75.69
382.86	93.69
383.085	81.69
383.31	81.69
383.535	76.69
383.761	86.69
383.986	75.69
384.211	72.69
384.436	85.69
384.662	84.69
384.887	94.69
385.112	81.69
385.337	69.69
385.562	73.69
385.787	74.69
386.013	82.69
386.238	86.69
386.463	86.69
386.688	84.69
386.913	72.69
387.138	79.69
387.363	82.69
387.588	91.69
387.813	80.69
388.038	79.69
388.263	86.69
388.488	85.69
388.713	88.69
388.938	73.69
389.163	72.69
389.387	82.69
389.612	84.69
389.837	77.69
390.062	92.69
390.287	80.69
390.512	88.69
390.736	87.69
390.961	72.69
391.186	87.69
391.411	85.69
391.636	77.69
391.86	72.69
392.085	86.69
392.31	87.69
392.534	83.69
392.759	84.69
392.984	86.69
393.208	80.69
393.433	65.69
393.658	85.69
393.882	76.69
394.107	70.69
394.331	81.69
394.556	86.69
394.78	80.69
395.005	89.69
395.229	76.69
395.454	80.69
395.678	86.69
395.903	73.69
396.127	74.69
396.352	76.69
396.576	79.69
396.801	77.69
397.025	75.69
397.249	91.69
397.474	66.69
397.698	78.69
397.922	78.69
398.147	70.69
398.371	83.69
398.595	76.69
398.82	102.69
399.044	78.69
399.268	80.69
399.492	91.69
399.717	68.69
399.941	88.69
400.165	89.69
400.389	79.69
400.613	81.69
400.837	80.69
401.062	65.69
401.286	82.69
401.51	81.69
401.734	83.69
401.958	82.69
402.182	88.69
402.406	77.69
402.63	85.69
402.854	79.69
403.078	79.69
403.302	82.69
403.526	91.69
403.75	87.69
403.974	72.69
404.198	74.69
404.422	91.69
404.645	64.69
404.869	84.69
405.093	78.69
405.317	75.69
405.541	88.69
405.765	83.69
405.988	88.69
406.212	75.69
406.436	87.69
406.66	89.69
406.883	88.69
407.107	74.69
407.331	76.69
407.555	82.69
407.778	95.69
408.002	96.69
408.226	80.69
408.449	85.69
408.673	85.69
408.896	84.69
409.12	81.69
409.344	76.69
409.567	76.69
409.791	72.69
410.014	90.69
410.238	83.69
410.461	84.69
410.685	100.69
410.908	84.69
411.132	86.69
411.355	80.69
411.578	76.69
411.802	83.69
412.025	82.69
412.249	79.69
412.472	78.69
412.695	86.69
412.919	75.69
413.142	68.69
413.365	89.69
413.589	94.69
413.812	72.69
414.035	72.69
414.258	78.69
414.482	68.69
414.705	84.69
414.928	66.69
415.151	85.69
415.374	100.69
415.597	69.69
415.821	80.69
416.044	83.69
416.267	86.69
416.49	89.69
416.713	74.69
416.936	87.69
417.159	74.69
417.382	83.69
417.605	77.69
417.828	82.69
418.051	79.69
418.274	72.69
418.497	85.69
418.72	74.69
418.943	71.69
419.166	77.69
419.389	99.69
419.611	76.69
419.834	101.69
420.057	82.69
420.28	78.69
420.503	81.69
420.726	73.69
420.948	77.69
421.171	79.69
421.394	75.69
421.617	81.69
421.839	85.69
422.062	69.69
422.285	70.69
422.507	93.69
422.73	82.69
422.953	77.69
423.175	82.69
423.398	77.69
423.621	78.69
423.843	79.69
424.066	81.69
424.288	83.69
424.511	78.69
424.733	81.69
424.956	82.69
425.178	72.69
425.401	74.69
425.623	81.69
425.846	86.69
426.068	79.69
426.291	71.69
426.513	93.69
426.735	82.69
426.958	89.69
427.18	77.69
427.402	87.69
427.625	85.69
427.847	70.69
428.069	85.69
428.292	89.69
428.514	77.69
428.736	85.69
428.958	72.69
429.181	85.69
429.403	89.69
429.625	80.69
429.847	74.69
430.069	88.69
430.292	82.69
430.514	79.69
430.736	89.69
430.958	86.69
431.18	78.69
431.402	71.69
431.624	86.69
431.846	89.69
432.068	93.69
432.29	90.69
432.512	72.69
432.734	81.69
432.956	91.69
433.178	85.69
433.4	79.69
433.622	76.69
433.844	82.69
434.066	70.69
434.287	68.69
434.509	66.69
434.731	82.69
434.953	77.69
435.175	82.69
435.397	82.69
435.618	94.69
435.84	86.69
436.062	101.69
436.284	83.69
436.505	72.69
436.727	83.69
436.949	86.69
437.17	76.69
437.392	72.69
437.614	98.69
437.835	79.69
438.057	82.69
438.278	80.69
438.5	98.69
438.721	77.69
438.943	86.69
439.165	75.69
439.386	84.69
439.608	87.69
439.829	75.69
440.05	94.69
440.272	76.69
440.493	70.69
440.715	80.69
440.936	88.69
441.158	61.69
441.379	69.69
441.6	80.69
441.822	87.69
442.043	89.69
442.264	89.69
442.486	90.69
442.707	88.69
442.928	79.69
443.149	96.69
443.371	82.69
443.592	75.69
443.813	67.69
444.034	86.69
444.255	85.69
444.476	80.69
444.698	89.69
444.919	89.69
445.14	200.69
445.361	134.69
445.582	74.69
445.803	88.69
446.024	70.69
446.245	81.69
446.466	79.69
446.687	84.69
446.908	81.69
447.129	83.69
447.35	79.69
447.571	87.69
447.792	69.69
448.013	86.69
448.234	69.69
448.455	86.69
448.675	74.69
448.896	86.69
449.117	80.69
449.338	72.69
449.559	83.69
449.779	76.69
450	85.69
450.221	71.69
450.442	88.69
450.662	89.69
450.883	65.69
451.104	94.69
451.324	80.69
451.545	83.69
451.766	95.69
451.986	60.69
452.207	84.69
452.428	77.69
452.648	79.69
452.869	79.69
453.089	78.69
453.31	94.69
453.53	87.69
453.751	80.69
453.971	79.69
454.192	87.69
454.412	93.69
454.633	97.69
454.853	77.69
455.073	97.69
455.294	91.69
455.514	96.69
455.734	101.69
455.955	84.69
456.175	86.69
456.395	95.69
456.616	92.69
456.836	89.69
457.056	71.69
457.276	85.69
457.497	90.69
457.717	77.69
457.937	79.69
458.157	81.69
458.377	76.69
458.598	89.69
458.818	86.69
459.038	79.69
459.258	73.69
459.478	77.69
459.698	74.69
459.918	83.69
460.138	78.69
460.358	80.69
460.578	102.69
460.798	88.69
461.018	81.69
461.238	80.69
461.458	80.69
461.678	80.69
461.898	79.69
462.118	91.69
462.338	92.69
462.558	93.69
462.777	94.69
462.997	71.69
463.217	87.69
463.437	76.69
463.657	84.69
463.876	77.69
464.096	85.69
464.316	87.69
464.536	89.69
464.755	82.69
464.975	92.69
465.195	83.69
465.414	76.69
465.634	95.69
465.854	75.69
466.073	84.69
466.293	85.69
466.512	81.69
466.732	83.69
466.951	90.69
467.171	88.69
467.391	84.69
467.61	75.69
467.829	75.69
468.049	80.69
468.268	69.69
468.488	80.69
468.707	79.69
468.927	74.69
469.146	79.69
469.365	82.69
469.585	88.69
469.804	94.69
470.023	77.69
470.243	88.69
470.462	90.69
470.681	89.69
470.901	89.69
471.12	93.69
471.339	80.69
471.558	82.69
471.777	98.69
471.997	76.69
472.216	81.69
472.435	80.69
472.654	65.69
472.873	66.69
473.092	73.69
473.311	76.69
473.53	77.69
473.749	81.69
473.968	94.69
474.187	72.69
474.406	88.69
474.625	82.69
474.844	80.69
475.063	93.69
475.282	76.69
475.501	99.69
475.72	98.69
475.939	79.69
476.158	92.69
476.377	85.69
476.596	82.69
476.814	78.69
477.033	86.69
477.252	75.69
477.471	85.69
477.69	81.69
477.908	90.69
478.127	98.69
478.346	89.69
478.564	87.69
478.783	78.69
479.002	96.69
479.22	80.69
479.439	87.69
479.658	98.69
479.876	85.69
480.095	71.69
480.313	96.69
480.532	88.69
480.751	93.69
480.969	77.69
481.188	96.69
481.406	79.69
481.624	80.69
481.843	82.69
482.061	102.69
482.28	99.69
482.498	99.69
482.717	89.69
482.935	96.69
483.153	94.69
483.372	89.69
483.59	85.69
483.808	79.69
484.027	92.69
484.245	93.69
484.463	98.69
484.681	92.69
484.9	94.69
485.118	89.69
485.336	77.69
485.554	85.69
485.772	70.69
485.99	80.69
486.209	77.69
486.427	80.69
486.645	99.69
486.863	71.69
487.081	102.69
487.299	93.69
487.517	95.69
487.735	87.69
487.953	100.69
488.171	92.69
488.389	98.69
488.607	91.69
488.825	84.69
489.043	90.69
489.261	73.69
489.479	86.69
489.696	82.69
489.914	89.69
490.132	82.69
490.35	78.69
490.568	100.69
490.786	93.69
491.003	87.69
491.221	90.69
491.439	80.69
491.657	100.69
491.874	85.69
492.092	89.69
492.31	87.69
492.527	85.69
492.745	102.69
492.963	99.69
493.18	101.69
493.398	95.69
493.615	94.69
493.833	93.69
494.05	87.69
494.268	101.69
494.485	93.69
494.703	88.69
494.92	95.69
495.138	100.69
495.355	92.69
495.573	104.69
495.79	91.69
496.008	92.69
496.225	98.69
496.442	100.69
496.66	89.69
496.877	82.69
497.094	90.69
497.312	85.69
497.529	88.69
497.746	91.69
497.963	96.69
498.181	88.69
498.398	104.69
498.615	96.69
498.832	93.69
499.049	105.69
499.267	103.69
499.484	96.69
499.701	85.69
499.918	109.69
500.135	89.69
500.352	89.69
500.569	84.69
500.786	104.69
501.003	104.69
501.22	111.69
501.437	105.69
501.654	112.69
501.871	92.69
502.088	91.69
502.305	103.69
502.522	96.69
502.739	87.69
502.956	96.69
503.172	89.69
503.389	86.69
503.606	98.69
503.823	84.69
504.04	98.69
504.256	97.69
504.473	101.69
504.69	87.69
504.907	85.69
505.123	97.69
505.34	92.69
505.557	94.69
505.773	90.69
505.99	89.69
506.207	89.69
506.423	84.69
506.64	98.69
506.856	90.69
507.073	91.69
507.289	90.69
507.506	85.69
507.722	79.69
507.939	93.69
508.155	100.69
508.372	95.69
508.588	81.69
508.805	96.69
509.021	89.69
509.238	89.69
509.454	89.69
509.67	89.69
509.887	98.69
510.103	91.69
510.319	87.69
510.536	84.69
510.752	98.69
510.968	75.69
511.184	81.69
511.401	85.69
511.617	92.69
511.833	99.69
512.049	87.69
512.265	79.69
512.481	82.69
512.698	78.69
512.914	90.69
513.13	77.69
513.346	84.69
513.562	93.69
513.778	101.69
513.994	96.69
514.21	82.69
514.426	78.69
514.642	88.69
514.858	84.69
515.074	85.69
515.29	98.69
515.506	95.69
515.721	91.69
515.937	90.69
516.153	82.69
516.369	90.69
516.585	93.69
516.801	88.69
517.016	93.69
517.232	101.69
517.448	93.69
517.664	85.69
517.879	88.69
518.095	100.69
518.311	94.69
518.527	86.69
518.742	97.69
518.958	71.69
519.173	95.69
519.389	97.69
519.605	102.69
519.82	84.69
520.036	95.69
520.251	96.69
520.467	89.69
520.682	84.69
520.898	95.69
521.113	87.69
521.329	90.69
521.544	93.69
521.76	94.69
521.975	84.69
522.19	90.69
522.406	93.69
522.621	88.69
522.836	90.69
523.052	110.69
523.267	88.69
523.482	88.69
523.698	86.69
523.913	97.69
524.128	81.69
524.343	90.69
524.559	85.69
524.774	86.69
524.989	96.69
525.204	94.69
525.419	76.69
525.634	72.69
525.849	94.69
526.064	92.69
526.28	91.69
526.495	94.69
526.71	81.69
526.925	86.69
527.14	90.69
527.355	88.69
527.57	88.69
527.785	95.69
527.999	94.69
528.214	82.69
528.429	98.69
528.644	92.69
528.859	98.69
529.074	75.69
529.289	73.69
529.503	91.69
529.718	88.69
529.933	90.69
530.148	90.69
530.363	97.69
530.577	84.69
530.792	86.69
531.007	77.69
531.221	81.69
531.436	89.69
531.651	82.69
531.865	93.69
532.08	88.69
532.295	92.69
532.509	87.69
532.724	99.69
532.938	86.69
533.153	88.69
533.367	88.69
533.582	73.69
533.796	86.69
534.011	89.69
534.225	97.69
534.44	83.69
534.654	86.69
534.868	74.69
535.083	102.69
535.297	86.69
535.511	90.69
535.726	102.69
535.94	72.69
536.154	75.69
536.369	83.69
536.583	83.69
536.797	85.69
537.011	75.69
537.225	94.69
537.44	81.69
537.654	85.69
537.868	91.69
538.082	90.69
538.296	83.69
538.51	82.69
538.724	89.69
538.938	90.69
539.153	79.69
539.367	78.69
539.581	76.69
539.795	85.69
540.009	76.69
540.222	91.69
540.436	97.69
540.65	109.69
540.864	86.69
541.078	80.69
541.292	82.69
541.506	91.69
541.72	89.69
541.934	99.69
542.147	84.69
542.361	92.69
542.575	84.69
542.789	95.69
543.002	93.69
543.216	93.69
543.43	82.69
543.644	69.69
543.857	89.69
544.071	81.69
544.285	91.69
544.498	86.69
544.712	95.69
544.925	84.69
545.139	98.69
545.352	87.69
545.566	90.69
545.779	89.69
545.993	85.69
546.206	81.69
546.42	78.69
546.633	94.69
546.847	77.69
547.06	84.69
547.274	83.69
547.487	87.69
547.7	94.69
547.914	99.69
548.127	87.69
548.34	98.69
548.554	91.69
548.767	76.69
548.98	85.69
549.193	95.69
549.407	78.69
549.62	69.69
549.833	85.69
550.046	82.69
550.259	82.69
550.473	98.69
550.686	98.69
550.899	75.69
551.112	99.69
551.325	98.69
551.538	73.69
551.751	87.69
551.964	95.69
552.177	98.69
552.39	82.69
552.603	88.69
552.816	88.69
553.029	102.69
553.242	80.69
553.455	90.69
553.667	86.69
553.88	95.69
554.093	77.69
554.306	93.69
554.519	95.69
554.732	84.69
554.944	89.69
555.157	87.69
555.37	79.69
555.583	82.69
555.795	88.69
556.008	80.69
556.221	92.69
556.433	79.69
556.646	86.69
556.859	85.69
557.071	93.69
557.284	93.69
557.496	86.69
557.709	73.69
557.921	68.69
558.134	75.69
558.346	92.69
558.559	85.69
558.771	96.69
558.984	87.69
559.196	104.69
559.409	74.69
559.621	74.69
559.833	87.69
560.046	75.69
560.258	97.69
560.47	72.69
560.683	75.69
560.895	78.69
561.107	74.69
561.32	73.69
561.532	77.69
561.744	93.69
561.956	88.69
562.168	90.69
562.381	90.69
562.593	84.69
562.805	81.69
563.017	89.69
563.229	95.69
563.441	93.69
563.653	89.69
563.865	84.69
564.077	86.69
564.289	97.69
564.501	73.69
564.713	86.69
564.925	79.69
565.137	84.69
565.349	82.69
565.561	79.69
565.773	75.69
565.985	76.69
566.197	80.69
566.408	80.69
566.62	96.69
566.832	95.69
567.044	85.69
567.255	76.69
567.467	90.69
567.679	94.69
567.891	82.69
568.102	90.69
568.314	92.69
568.526	86.69
568.737	97.69
568.949	81.69
569.161	89.69
569.372	80.69
569.584	95.69
569.795	89.69
570.007	82.69
570.218	84.69
570.43	70.69
570.641	77.69
570.853	88.69
571.064	92.69
571.276	89.69
571.487	102.69
571.698	85.69
571.91	79.69
572.121	79.69
572.333	85.69
572.544	73.69
572.755	89.69
572.966	79.69
573.178	87.69
573.389	91.69
573.6	89.69
573.811	92.69
574.023	84.69
574.234	80.69
574.445	69.69
574.656	77.69
574.867	73.69
575.078	81.69
575.289	84.69
575.501	95.69
575.712	78.69
575.923	86.69
576.134	77.69
576.345	78.69
576.556	88.69
576.767	70.69
576.978	85.69
577.188	78.69
577.399	89.69
577.61	79.69
577.821	79.69
578.032	84.69
578.243	75.69
578.454	72.69
578.665	76.69
578.875	72.69
579.086	82.69
579.297	89.69
579.508	68.69
579.718	78.69
579.929	79.69
580.14	82.69
580.35	84.69
580.561	87.69
580.772	84.69
580.982	77.69
581.193	79.69
581.403	81.69
581.614	70.69
581.825	93.69
582.035	79.69
582.246	72.69
582.456	79.69
582.667	84.69
582.877	73.69
583.087	92.69
583.298	79.69
583.508	88.69
583.719	89.69
583.929	89.69
584.139	72.69
584.35	83.69
584.56	84.69
584.77	85.69
584.981	78.69
585.191	73.69
585.401	87.69
585.611	83.69
585.821	67.69
586.032	72.69
586.242	82.69
586.452	78.69
586.662	89.69
586.872	77.69
587.082	71.69
587.292	79.69
587.502	77.69
587.713	78.69
587.923	81.69
588.133	85.69
588.343	66.69
588.553	86.69
588.762	92.69
588.972	74.69
589.182	96.69
589.392	96.69
589.602	82.69
589.812	81.69
590.022	85.69
590.232	82.69
590.441	73.69
590.651	82.69
590.861	86.69
591.071	83.69
591.281	81.69
591.49	78.69
591.7	91.69
591.91	85.69
592.119	72.69
592.329	89.69
592.539	79.69
592.748	90.69
592.958	88.69
593.167	80.69
593.377	57.69
593.587	85.69
593.796	83.69
594.006	82.69
594.215	78.69
594.424	87.69
594.634	81.69
594.843	68.69
595.053	77.69
595.262	90.69
595.472	90.69
595.681	87.69
595.89	84.69
596.1	73.69
596.309	73.69
596.518	88.69
596.727	89.69
596.937	71.69
597.146	73.69
597.355	80.69
597.564	80.69
597.774	77.69
597.983	74.69
598.192	81.69
598.401	78.69
598.61	80.69
598.819	86.69
599.028	90.69
599.237	79.69
599.446	72.69
599.655	73.69
599.864	75.69
600.073	92.69
600.282	82.69
600.491	95.69
600.7	79.69
600.909	74.69
601.118	80.69
601.327	75.69
601.536	88.69
601.745	98.69
601.953	78.69
602.162	76.69
602.371	73.69
602.58	81.69
602.789	74.69
602.997	81.69
603.206	80.69
603.415	80.69
603.623	84.69
603.832	92.69
604.041	83.69
604.249	81.69
604.458	86.69
604.666	81.69
604.875	89.69
605.084	87.69
605.292	90.69
605.501	54.69
605.709	85.69
605.918	77.69
606.126	80.69
606.334	74.69
606.543	92.69
606.751	91.69
606.96	96.69
607.168	89.69
607.376	71.69
607.585	90.69
607.793	79.69
608.001	81.69
608.21	74.69
608.418	93.69
608.626	80.69
608.834	68.69
609.043	79.69
609.251	90.69
609.459	78.69
609.667	83.69
609.875	77.69
610.083	83.69
610.291	88.69
610.499	73.69
610.707	86.69
610.916	79.69
611.124	84.69
611.332	96.69
611.54	91.69
611.748	83.69
611.955	87.69
612.163	73.69
612.371	81.69
612.579	70.69
612.787	78.69
612.995	84.69
613.203	88.69
613.411	66.69
613.618	84.69
613.826	78.69
614.034	74.69
614.242	79.69
614.449	70.69
614.657	81.69
614.865	73.69
615.072	93.69
615.28	72.69
615.488	70.69
615.695	77.69
615.903	73.69
616.111	85.69
616.318	80.69
616.526	77.69
616.733	87.69
616.941	74.69
617.148	74.69
617.356	74.69
617.563	74.69
617.771	86.69
617.978	90.69
618.185	85.69
618.393	84.69
618.6	81.69
618.807	82.69
619.015	80.69
619.222	85.69
619.429	84.69
619.637	86.69
619.844	70.69
620.051	86.69
620.258	88.69
620.466	77.69
620.673	86.69
620.88	77.69
621.087	78.69
621.294	82.69
621.501	73.69
621.708	86.69
621.915	65.69
622.122	84.69
622.329	71.69
622.536	79.69
622.743	79.69
622.95	78.69
623.157	87.69
623.364	81.69
623.571	81.69
623.778	77.69
623.985	77.69
624.192	76.69
624.399	82.69
624.606	79.69
624.812	65.69
625.019	80.69
625.226	68.69
625.433	84.69
625.639	78.69
625.846	85.69
626.053	68.69
626.259	85.69
626.466	74.69
626.673	64.69
626.879	69.69
627.086	78.69
627.293	75.69
627.499	78.69
627.706	79.69
627.912	80.69
628.119	79.69
628.325	64.69
628.532	83.69
628.738	67.69
628.945	76.69
629.151	87.69
629.357	78.69
629.564	84.69
629.77	89.69
629.976	72.69
630.183	89.69
630.389	88.69
630.595	76.69
630.802	77.69
631.008	76.69
631.214	79.69
631.42	79.69
631.627	83.69
631.833	80.69
632.039	69.69
632.245	63.69
632.451	94.69
632.657	79.69
632.863	69.69
633.069	81.69
633.275	73.69
633.481	78.69
633.688	76.69
633.893	87.69
634.099	78.69
634.305	87.69
634.511	80.69
634.717	70.69
634.923	76.69
635.129	79.69
635.335	66.69
635.541	60.69
635.747	87.69
635.952	78.69
636.158	82.69
636.364	84.69
636.57	77.69
636.775	71.69
636.981	66.69
637.187	90.69
637.392	82.69
637.598	92.69
637.804	87.69
638.009	87.69
638.215	74.69
638.421	74.69
638.626	78.69
638.832	82.69
639.037	87.69
639.243	81.69
639.448	85.69
639.654	85.69
639.859	86.69
640.065	83.69
640.27	83.69
640.475	92.69
640.681	81.69
640.886	77.69
641.091	76.69
641.297	78.69
641.502	73.69
641.707	84.69
641.913	85.69
642.118	80.69
642.323	69.69
642.528	87.69
642.733	84.69
642.939	83.69
643.144	79.69
643.349	96.69
643.554	78.69
643.759	87.69
643.964	93.69
644.169	72.69
644.374	88.69
644.579	75.69
644.784	73.69
644.989	74.69
645.194	74.69
645.399	75.69
645.604	70.69
645.809	85.69
646.014	72.69
646.219	92.69
646.423	80.69
646.628	74.69
646.833	72.69
647.038	84.69
647.243	87.69
647.447	78.69
647.652	92.69
647.857	78.69
648.062	76.69
648.266	78.69
648.471	79.69
648.676	74.69
648.88	78.69
649.085	84.69
649.289	70.69
649.494	71.69
649.698	79.69
649.903	76.69
650.107	75.69
650.312	77.69
650.516	87.69
650.721	82.69
650.925	89.69
651.13	86.69
651.334	75.69
651.539	94.69
651.743	83.69
651.947	76.69
652.152	81.69
652.356	81.69
652.56	74.69
652.764	72.69
652.969	77.69
653.173	66.69
653.377	67.69
653.581	70.69
653.785	76.69
653.99	78.69
654.194	73.69
654.398	78.69
654.602	74.69
654.806	74.69
655.01	71.69
655.214	85.69
655.418	85.69
655.622	86.69
655.826	80.69
656.03	80.69
656.234	82.69
656.438	72.69
656.642	73.69
656.846	93.69
657.049	84.69
657.253	82.69
657.457	78.69
657.661	75.69
657.865	74.69
658.068	74.69
658.272	68.69
658.476	82.69
658.68	80.69
658.883	77.69
659.087	73.69
659.291	68.69
659.494	56.69
659.698	74.69
659.901	77.69
660.105	79.69
660.309	68.69
660.512	82.69
660.716	83.69
660.919	79.69
661.123	54.69
661.326	69.69
661.53	78.69
661.733	82.69
661.936	83.69
662.14	91.69
662.343	81.69
662.546	81.69
662.75	73.69
662.953	96.69
663.156	51.69
663.36	72.69
663.563	79.69
663.766	66.69
663.969	69.69
664.173	73.69
664.376	91.69
664.579	65.69
664.782	71.69
664.985	76.69
665.188	73.69
665.391	86.69
665.594	83.69
665.797	80.69
666	79.69
666.203	77.69
666.406	82.69
666.609	72.69
666.812	68.69
667.015	79.69
667.218	84.69
667.421	68.69
667.624	78.69
667.827	79.69
668.03	69.69
668.232	79.69
668.435	76.69
668.638	76.69
668.841	64.69
669.043	72.69
669.246	80.69
669.449	71.69
669.651	70.69
669.854	74.69
670.057	77.69
670.259	87.69
670.462	81.69
670.665	73.69
670.867	81.69
671.07	78.69
671.272	88.69
671.475	95.69
671.677	85.69
671.88	80.69
672.082	88.69
672.284	77.69
672.487	81.69
672.689	82.69
672.892	77.69
