Data from Ni(NO3)2@0.0625M.TitratingCurve.Agarose3%dH2O.NegLispCup.LampEnergy10.LIBS07252019_HRD10591_18-15-05-569.txt Node
Date: Thu Jul 25 18:15:05 EDT 2019
User: cochatt
Spectrometer: HR+D1059
Trigger mode: 1
Integration Time (sec): 1.000000E-1
Scans to average: 1
Electric dark correction enabled: true
Nonlinearity correction enabled: false
Boxcar width: 0
XAxis mode: Wavelengths
Number of Pixels in Spectrum: 2048
>>>>>Begin Spectral Data<<<<<
223.165	-7.69
223.4	-7.69
223.635	-7.69
223.869	-23.69
224.104	-24.69
224.338	-4.69
224.573	-4.69
224.808	-8.69
225.042	2.31
225.277	0.31
225.511	-9.69
225.746	-9.69
225.98	5.31
226.215	5.31
226.449	18.31
226.683	11.31
226.918	25.31
227.152	25.31
227.387	40.31
227.621	36.31
227.856	46.31
228.09	38.31
228.324	50.31
228.559	45.31
228.793	54.31
229.027	113.31
229.262	107.31
229.496	113.31
229.73	108.31
229.964	132.31
230.199	131.31
230.433	134.31
230.667	140.31
230.901	135.31
231.136	140.31
231.37	148.31
231.604	152.31
231.838	145.31
232.072	139.31
232.306	133.31
232.541	151.31
232.775	153.31
233.009	155.31
233.243	145.31
233.477	152.31
233.711	155.31
233.945	142.31
234.179	154.31
234.413	151.31
234.647	145.31
234.881	140.31
235.115	140.31
235.349	147.31
235.583	158.31
235.817	154.31
236.051	147.31
236.285	160.31
236.519	166.31
236.753	172.31
236.987	176.31
237.221	165.31
237.455	172.31
237.689	148.31
237.922	177.31
238.156	173.31
238.39	165.31
238.624	166.31
238.858	173.31
239.091	175.31
239.325	179.31
239.559	187.31
239.793	184.31
240.027	180.31
240.26	172.31
240.494	188.31
240.728	186.31
240.961	188.31
241.195	193.31
241.429	193.31
241.662	177.31
241.896	194.31
242.13	191.31
242.363	199.31
242.597	204.31
242.83	185.31
243.064	204.31
243.298	202.31
243.531	208.31
243.765	203.31
243.998	188.31
244.232	206.31
244.465	212.31
244.699	220.31
244.932	215.31
245.166	217.31
245.399	228.31
245.633	227.31
245.866	200.31
246.099	233.31
246.333	218.31
246.566	228.31
246.8	219.31
247.033	229.31
247.266	233.31
247.5	250.31
247.733	234.31
247.966	240.31
248.2	261.31
248.433	239.31
248.666	231.31
248.899	258.31
249.133	245.31
249.366	242.31
249.599	264.31
249.832	249.31
250.066	262.31
250.299	260.31
250.532	260.31
250.765	231.31
250.998	256.31
251.231	259.31
251.465	277.31
251.698	273.31
251.931	283.31
252.164	255.31
252.397	274.31
252.63	274.31
252.863	279.31
253.096	277.31
253.329	284.31
253.562	290.31
253.795	292.31
254.028	306.31
254.261	277.31
254.494	290.31
254.727	278.31
254.96	269.31
255.193	284.31
255.426	268.31
255.659	289.31
255.892	291.31
256.124	269.31
256.357	293.31
256.59	295.31
256.823	300.31
257.056	295.31
257.289	320.31
257.521	312.31
257.754	318.31
257.987	301.31
258.22	307.31
258.452	328.31
258.685	308.31
258.918	289.31
259.151	299.31
259.383	309.31
259.616	303.31
259.849	323.31
260.081	309.31
260.314	329.31
260.547	331.31
260.779	333.31
261.012	345.31
261.244	351.31
261.477	320.31
261.71	338.31
261.942	337.31
262.175	336.31
262.407	329.31
262.64	344.31
262.872	325.31
263.105	346.31
263.337	349.31
263.57	342.31
263.802	368.31
264.035	359.31
264.267	352.31
264.499	354.31
264.732	342.31
264.964	347.31
265.197	336.31
265.429	357.31
265.661	358.31
265.894	360.31
266.126	362.31
266.358	378.31
266.591	357.31
266.823	357.31
267.055	374.31
267.287	362.31
267.52	380.31
267.752	359.31
267.984	368.31
268.216	376.31
268.448	376.31
268.681	379.31
268.913	390.31
269.145	403.31
269.377	383.31
269.609	380.31
269.841	380.31
270.073	372.31
270.306	353.31
270.538	368.31
270.77	381.31
271.002	382.31
271.234	383.31
271.466	390.31
271.698	401.31
271.93	397.31
272.162	387.31
272.394	401.31
272.626	402.31
272.858	381.31
273.09	415.31
273.322	432.31
273.553	403.31
273.785	396.31
274.017	420.31
274.249	404.31
274.481	406.31
274.713	438.31
274.945	422.31
275.176	414.31
275.408	407.31
275.64	417.31
275.872	421.31
276.104	435.31
276.335	420.31
276.567	425.31
276.799	426.31
277.031	428.31
277.262	460.31
277.494	435.31
277.726	422.31
277.957	423.31
278.189	444.31
278.421	445.31
278.652	450.31
278.884	452.31
279.115	443.31
279.347	446.31
279.579	453.31
279.81	459.31
280.042	475.31
280.273	441.31
280.505	459.31
280.736	462.31
280.968	460.31
281.199	466.31
281.431	476.31
281.662	450.31
281.894	468.31
282.125	446.31
282.356	489.31
282.588	470.31
282.819	482.31
283.051	485.31
283.282	466.31
283.513	466.31
283.745	475.31
283.976	475.31
284.207	514.31
284.439	499.31
284.67	496.31
284.901	509.31
285.132	480.31
285.364	486.31
285.595	497.31
285.826	471.31
286.057	482.31
286.288	499.31
286.52	505.31
286.751	499.31
286.982	520.31
287.213	524.31
287.444	494.31
287.675	535.31
287.906	532.31
288.138	528.31
288.369	532.31
288.6	529.31
288.831	522.31
289.062	519.31
289.293	533.31
289.524	503.31
289.755	532.31
289.986	535.31
290.217	515.31
290.448	522.31
290.679	525.31
290.91	532.31
291.141	549.31
291.371	524.31
291.602	532.31
291.833	499.31
292.064	519.31
292.295	546.31
292.526	534.31
292.757	534.31
292.987	531.31
293.218	556.31
293.449	543.31
293.68	540.31
293.91	534.31
294.141	526.31
294.372	538.31
294.603	541.31
294.833	541.31
295.064	578.31
295.295	560.31
295.525	536.31
295.756	574.31
295.987	555.31
296.217	566.31
296.448	575.31
296.679	573.31
296.909	580.31
297.14	580.31
297.37	588.31
297.601	588.31
297.831	582.31
298.062	584.31
298.292	602.31
298.523	623.31
298.753	629.31
298.984	601.31
299.214	578.31
299.445	570.31
299.675	567.31
299.905	549.31
300.136	575.31
300.366	587.31
300.597	593.31
300.827	608.31
301.057	632.31
301.288	633.31
301.518	603.31
301.748	614.31
301.979	612.31
302.209	637.31
302.439	625.31
302.669	643.31
302.9	629.31
303.13	586.31
303.36	603.31
303.59	600.31
303.82	613.31
304.051	596.31
304.281	619.31
304.511	589.31
304.741	600.31
304.971	617.31
305.201	598.31
305.431	596.31
305.661	613.31
305.891	613.31
306.121	589.31
306.352	613.31
306.582	601.31
306.812	598.31
307.042	589.31
307.272	588.31
307.502	596.31
307.731	602.31
307.961	574.31
308.191	580.31
308.421	620.31
308.651	577.31
308.881	576.31
309.111	590.31
309.341	600.31
309.571	574.31
309.8	598.31
310.03	593.31
310.26	583.31
310.49	577.31
310.72	593.31
310.949	594.31
311.179	618.31
311.409	603.31
311.639	604.31
311.868	614.31
312.098	613.31
312.328	601.31
312.557	612.31
312.787	636.31
313.017	606.31
313.246	620.31
313.476	634.31
313.706	645.31
313.935	636.31
314.165	622.31
314.394	615.31
314.624	654.31
314.853	625.31
315.083	628.31
315.312	618.31
315.542	651.31
315.771	636.31
316.001	639.31
316.23	632.31
316.46	640.31
316.689	616.31
316.919	612.31
317.148	628.31
317.377	617.31
317.607	615.31
317.836	590.31
318.065	611.31
318.295	614.31
318.524	608.31
318.753	622.31
318.983	612.31
319.212	589.31
319.441	619.31
319.67	631.31
319.9	619.31
320.129	628.31
320.358	612.31
320.587	613.31
320.816	627.31
321.046	629.31
321.275	628.31
321.504	598.31
321.733	617.31
321.962	621.31
322.191	619.31
322.42	637.31
322.649	636.31
322.878	619.31
323.108	613.31
323.337	605.31
323.566	630.31
323.795	618.31
324.024	653.31
324.253	648.31
324.482	629.31
324.71	635.31
324.939	639.31
325.168	616.31
325.397	655.31
325.626	674.31
325.855	651.31
326.084	664.31
326.313	695.31
326.542	676.31
326.77	688.31
326.999	694.31
327.228	670.31
327.457	667.31
327.686	667.31
327.914	677.31
328.143	681.31
328.372	685.31
328.6	689.31
328.829	683.31
329.058	692.31
329.287	669.31
329.515	675.31
329.744	683.31
329.972	683.31
330.201	695.31
330.43	700.31
330.658	704.31
330.887	710.31
331.115	697.31
331.344	680.31
331.572	715.31
331.801	758.31
332.03	756.31
332.258	784.31
332.486	788.31
332.715	846.31
332.943	858.31
333.172	893.31
333.4	961.31
333.629	942.31
333.857	941.31
334.085	926.31
334.314	898.31
334.542	900.31
334.771	893.31
334.999	859.31
335.227	861.31
335.455	874.31
335.684	843.31
335.912	823.31
336.14	826.31
336.369	822.31
336.597	853.31
336.825	841.31
337.053	820.31
337.281	800.31
337.51	808.31
337.738	769.31
337.966	799.31
338.194	786.31
338.422	738.31
338.65	740.31
338.878	732.31
339.106	763.31
339.334	734.31
339.562	740.31
339.79	708.31
340.018	734.31
340.246	706.31
340.474	713.31
340.702	707.31
340.93	713.31
341.158	730.31
341.386	700.31
341.614	721.31
341.842	700.31
342.07	696.31
342.298	720.31
342.526	722.31
342.754	689.31
342.981	707.31
343.209	734.31
343.437	772.31
343.665	838.31
343.893	881.31
344.12	903.31
344.348	850.31
344.576	794.31
344.804	794.31
345.031	761.31
345.259	733.31
345.487	723.31
345.714	721.31
345.942	728.31
346.17	693.31
346.397	706.31
346.625	704.31
346.853	701.31
347.08	694.31
347.308	681.31
347.535	686.31
347.763	721.31
347.99	730.31
348.218	725.31
348.445	702.31
348.673	705.31
348.9	690.31
349.128	696.31
349.355	684.31
349.583	660.31
349.81	671.31
350.037	670.31
350.265	658.31
350.492	684.31
350.72	679.31
350.947	668.31
351.174	684.31
351.402	673.31
351.629	655.31
351.856	643.31
352.083	681.31
352.311	655.31
352.538	647.31
352.765	663.31
352.992	648.31
353.22	658.31
353.447	662.31
353.674	651.31
353.901	662.31
354.128	646.31
354.355	662.31
354.583	654.31
354.81	658.31
355.037	672.31
355.264	658.31
355.491	658.31
355.718	655.31
355.945	647.31
356.172	666.31
356.399	691.31
356.626	640.31
356.853	668.31
357.08	678.31
357.307	658.31
357.534	654.31
357.761	656.31
357.988	666.31
358.215	659.31
358.441	648.31
358.668	656.31
358.895	664.31
359.122	668.31
359.349	659.31
359.576	668.31
359.802	650.31
360.029	654.31
360.256	680.31
360.483	674.31
360.709	641.31
360.936	671.31
361.163	673.31
361.39	669.31
361.616	685.31
361.843	669.31
362.07	669.31
362.296	692.31
362.523	656.31
362.749	679.31
362.976	640.31
363.203	654.31
363.429	637.31
363.656	652.31
363.882	666.31
364.109	656.31
364.335	676.31
364.562	654.31
364.788	651.31
365.015	653.31
365.241	675.31
365.468	660.31
365.694	626.31
365.92	664.31
366.147	660.31
366.373	669.31
366.599	640.31
366.826	664.31
367.052	648.31
367.278	668.31
367.505	666.31
367.731	654.31
367.957	667.31
368.184	675.31
368.41	652.31
368.636	658.31
368.862	672.31
369.089	657.31
369.315	660.31
369.541	686.31
369.767	700.31
369.993	708.31
370.219	694.31
370.445	677.31
370.672	690.31
370.898	710.31
371.124	700.31
371.35	725.31
371.576	722.31
371.802	712.31
372.028	731.31
372.254	704.31
372.48	716.31
372.706	758.31
372.932	774.31
373.158	761.31
373.384	723.31
373.61	714.31
373.835	734.31
374.061	724.31
374.287	756.31
374.513	759.31
374.739	773.31
374.965	779.31
375.191	796.31
375.416	801.31
375.642	788.31
375.868	764.31
376.094	778.31
376.319	767.31
376.545	739.31
376.771	742.31
376.997	745.31
377.222	750.31
377.448	734.31
377.674	756.31
377.899	732.31
378.125	715.31
378.35	723.31
378.576	719.31
378.802	685.31
379.027	718.31
379.253	708.31
379.478	702.31
379.704	694.31
379.929	700.31
380.155	689.31
380.38	713.31
380.606	729.31
380.831	703.31
381.057	715.31
381.282	712.31
381.507	720.31
381.733	731.31
381.958	741.31
382.184	730.31
382.409	766.31
382.634	792.31
382.86	747.31
383.085	769.31
383.31	766.31
383.535	800.31
383.761	808.31
383.986	833.31
384.211	865.31
384.436	877.31
384.662	852.31
384.887	889.31
385.112	869.31
385.337	904.31
385.562	880.31
385.787	890.31
386.013	887.31
386.238	881.31
386.463	898.31
386.688	874.31
386.913	898.31
387.138	874.31
387.363	851.31
387.588	865.31
387.813	870.31
388.038	846.31
388.263	884.31
388.488	861.31
388.713	857.31
388.938	850.31
389.163	855.31
389.387	858.31
389.612	865.31
389.837	883.31
390.062	852.31
390.287	845.31
390.512	847.31
390.736	854.31
390.961	880.31
391.186	902.31
391.411	921.31
391.636	935.31
391.86	970.31
392.085	1018.31
392.31	1009.31
392.534	964.31
392.759	948.31
392.984	935.31
393.208	931.31
393.433	948.31
393.658	912.31
393.882	924.31
394.107	960.31
394.331	973.31
394.556	978.31
394.78	955.31
395.005	934.31
395.229	950.31
395.454	985.31
395.678	981.31
395.903	993.31
396.127	973.31
396.352	949.31
396.576	923.31
396.801	911.31
397.025	952.31
397.249	946.31
397.474	966.31
397.698	971.31
397.922	987.31
398.147	970.31
398.371	1001.31
398.595	1011.31
398.82	1057.31
399.044	1152.31
399.268	1268.31
399.492	1479.31
399.717	1764.31
399.941	1755.31
400.165	1481.31
400.389	1336.31
400.613	1218.31
400.837	1131.31
401.062	1115.31
401.286	1105.31
401.51	1094.31
401.734	1092.31
401.958	1117.31
402.182	1114.31
402.406	1146.31
402.63	1152.31
402.854	1186.31
403.078	1218.31
403.302	1254.31
403.526	1285.31
403.75	1276.31
403.974	1317.31
404.198	1334.31
404.422	1335.31
404.645	1287.31
404.869	1280.31
405.093	1263.31
405.317	1243.31
405.541	1221.31
405.765	1228.31
405.988	1225.31
406.212	1214.31
406.436	1227.31
406.66	1235.31
406.883	1236.31
407.107	1354.31
407.331	1434.31
407.555	1468.31
407.778	1465.31
408.002	1413.31
408.226	1364.31
408.449	1320.31
408.673	1298.31
408.896	1283.31
409.12	1281.31
409.344	1286.31
409.567	1282.31
409.791	1281.31
410.014	1286.31
410.238	1276.31
410.461	1251.31
410.685	1263.31
410.908	1209.31
411.132	1179.31
411.355	1201.31
411.578	1168.31
411.802	1130.31
412.025	1143.31
412.249	1183.31
412.472	1164.31
412.695	1129.31
412.919	1092.31
413.142	1105.31
413.365	1102.31
413.589	1136.31
413.812	1075.31
414.035	1100.31
414.258	1072.31
414.482	1121.31
414.705	1138.31
414.928	1122.31
415.151	1143.31
415.374	1122.31
415.597	1121.31
415.821	1109.31
416.044	1062.31
416.267	1073.31
416.49	1062.31
416.713	1058.31
416.936	1114.31
417.159	1064.31
417.382	1072.31
417.605	1075.31
417.828	1095.31
418.051	1091.31
418.274	1092.31
418.497	1098.31
418.72	1129.31
418.943	1121.31
419.166	1226.31
419.389	1272.31
419.611	1244.31
419.834	1191.31
420.057	1142.31
420.28	1118.31
420.503	1102.31
420.726	1077.31
420.948	1087.31
421.171	1091.31
421.394	1076.31
421.617	1077.31
421.839	1068.31
422.062	1141.31
422.285	1081.31
422.507	1130.31
422.73	1138.31
422.953	1146.31
423.175	1180.31
423.398	1181.31
423.621	1160.31
423.843	1200.31
424.066	1174.31
424.288	1192.31
424.511	1142.31
424.733	1154.31
424.956	1150.31
425.178	1129.31
425.401	1138.31
425.623	1101.31
425.846	1028.31
426.068	1055.31
426.291	1036.31
426.513	1022.31
426.735	1030.31
426.958	1049.31
427.18	1006.31
427.402	984.31
427.625	1009.31
427.847	986.31
428.069	999.31
428.292	983.31
428.514	964.31
428.736	961.31
428.958	968.31
429.181	950.31
429.403	930.31
429.625	930.31
429.847	941.31
430.069	956.31
430.292	952.31
430.514	924.31
430.736	934.31
430.958	943.31
431.18	948.31
431.402	930.31
431.624	944.31
431.846	960.31
432.068	1002.31
432.29	1021.31
432.512	948.31
432.734	974.31
432.956	978.31
433.178	980.31
433.4	976.31
433.622	966.31
433.844	974.31
434.066	997.31
434.287	996.31
434.509	995.31
434.731	1064.31
434.953	1085.31
435.175	1121.31
435.397	1137.31
435.618	1038.31
435.84	1004.31
436.062	1005.31
436.284	988.31
436.505	955.31
436.727	982.31
436.949	980.31
437.17	983.31
437.392	982.31
437.614	970.31
437.835	928.31
438.057	920.31
438.278	907.31
438.5	916.31
438.721	956.31
438.943	945.31
439.165	934.31
439.386	962.31
439.608	955.31
439.829	972.31
440.05	955.31
440.272	956.31
440.493	974.31
440.715	973.31
440.936	1027.31
441.158	1014.31
441.379	1052.31
441.6	1068.31
441.822	1115.31
442.043	1109.31
442.264	1094.31
442.486	1047.31
442.707	1091.31
442.928	1074.31
443.149	1122.31
443.371	1114.31
443.592	1077.31
443.813	1113.31
444.034	1118.31
444.255	1160.31
444.476	1229.31
444.698	1292.31
444.919	1352.31
445.14	1412.31
445.361	1246.31
445.582	1138.31
445.803	1070.31
446.024	1044.31
446.245	1011.31
446.466	1018.31
446.687	985.31
446.908	991.31
447.129	979.31
447.35	934.31
447.571	916.31
447.792	899.31
448.013	928.31
448.234	892.31
448.455	902.31
448.675	898.31
448.896	897.31
449.117	864.31
449.338	880.31
449.559	896.31
449.779	869.31
450	875.31
450.221	902.31
450.442	908.31
450.662	905.31
450.883	933.31
451.104	939.31
451.324	922.31
451.545	909.31
451.766	930.31
451.986	908.31
452.207	896.31
452.428	905.31
452.648	916.31
452.869	889.31
453.089	864.31
453.31	925.31
453.53	896.31
453.751	902.31
453.971	892.31
454.192	871.31
454.412	848.31
454.633	843.31
454.853	874.31
455.073	840.31
455.294	856.31
455.514	842.31
455.734	827.31
455.955	835.31
456.175	842.31
456.395	848.31
456.616	830.31
456.836	856.31
457.056	828.31
457.276	815.31
457.497	845.31
457.717	847.31
457.937	836.31
458.157	845.31
458.377	861.31
458.598	886.31
458.818	921.31
459.038	950.31
459.258	963.31
459.478	992.31
459.698	1025.31
459.918	1026.31
460.138	1098.31
460.358	1173.31
460.578	1204.31
460.798	1166.31
461.018	1189.31
461.238	1141.31
461.458	1134.31
461.678	1157.31
461.898	1172.31
462.118	1208.31
462.338	1253.31
462.558	1272.31
462.777	1308.31
462.997	1434.31
463.217	1611.31
463.437	1627.31
463.657	1500.31
463.876	1376.31
464.096	1369.31
464.316	1399.31
464.536	1400.31
464.755	1369.31
464.975	1266.31
465.195	1212.31
465.414	1130.31
465.634	1097.31
465.854	1010.31
466.073	982.31
466.293	985.31
466.512	993.31
466.732	945.31
466.951	949.31
467.171	936.31
467.391	962.31
467.61	940.31
467.829	932.31
468.049	951.31
468.268	936.31
468.488	891.31
468.707	884.31
468.927	894.31
469.146	903.31
469.365	940.31
469.585	896.31
469.804	919.31
470.023	953.31
470.243	946.31
470.462	969.31
470.681	995.31
470.901	969.31
471.12	972.31
471.339	926.31
471.558	906.31
471.777	903.31
471.997	910.31
472.216	884.31
472.435	890.31
472.654	916.31
472.873	861.31
473.092	844.31
473.311	853.31
473.53	852.31
473.749	875.31
473.968	859.31
474.187	896.31
474.406	868.31
474.625	880.31
474.844	868.31
475.063	873.31
475.282	882.31
475.501	886.31
475.72	890.31
475.939	916.31
476.158	892.31
476.377	900.31
476.596	904.31
476.814	910.31
477.033	917.31
477.252	934.31
477.471	988.31
477.69	1006.31
477.908	985.31
478.127	1042.31
478.346	1060.31
478.564	1074.31
478.783	1082.31
479.002	1098.31
479.22	1101.31
479.439	1101.31
479.658	1062.31
479.876	1094.31
480.095	1089.31
480.313	1134.31
480.532	1248.31
480.751	1208.31
480.969	1135.31
481.188	1083.31
481.406	1063.31
481.624	1062.31
481.843	1019.31
482.061	997.31
482.28	1004.31
482.498	1009.31
482.717	979.31
482.935	986.31
483.153	984.31
483.372	990.31
483.59	998.31
483.808	1018.31
484.027	1003.31
484.245	1003.31
484.463	1008.31
484.681	1037.31
484.9	1014.31
485.118	1006.31
485.336	1043.31
485.554	1072.31
485.772	1056.31
485.99	1069.31
486.209	1042.31
486.427	1103.31
486.645	1065.31
486.863	1065.31
487.081	1051.31
487.299	1037.31
487.517	1066.31
487.735	1027.31
487.953	1052.31
488.171	1034.31
488.389	1030.31
488.607	1017.31
488.825	997.31
489.043	1026.31
489.261	1026.31
489.479	1029.31
489.696	1039.31
489.914	1053.31
490.132	1040.31
490.35	1048.31
490.568	1029.31
490.786	1056.31
491.003	1022.31
491.221	1040.31
491.439	1028.31
491.657	1076.31
491.874	1034.31
492.092	1054.31
492.31	1078.31
492.527	1053.31
492.745	1089.31
492.963	1068.31
493.18	1077.31
493.398	1072.31
493.615	1089.31
493.833	1104.31
494.05	1109.31
494.268	1109.31
494.485	1145.31
494.703	1094.31
494.92	1144.31
495.138	1103.31
495.355	1106.31
495.573	1105.31
495.79	1090.31
496.008	1109.31
496.225	1140.31
496.442	1109.31
496.66	1142.31
496.877	1151.31
497.094	1157.31
497.312	1215.31
497.529	1232.31
497.746	1249.31
497.963	1280.31
498.181	1325.31
498.398	1429.31
498.615	1479.31
498.832	1607.31
499.049	1712.31
499.267	1853.31
499.484	2010.31
499.701	2296.31
499.918	2485.31
500.135	2938.31
500.352	3419.31
500.569	3627.31
500.786	3595.31
501.003	3355.31
501.22	2924.31
501.437	2558.31
501.654	2254.31
501.871	1977.31
502.088	1778.31
502.305	1691.31
502.522	1629.31
502.739	1556.31
502.956	1438.31
503.172	1395.31
503.389	1307.31
503.606	1278.31
503.823	1272.31
504.04	1254.31
504.256	1292.31
504.473	1302.31
504.69	1345.31
504.907	1355.31
505.123	1254.31
505.34	1160.31
505.557	1111.31
505.773	1093.31
505.99	1040.31
506.207	1048.31
506.423	1030.31
506.64	990.31
506.856	1000.31
507.073	962.31
507.289	994.31
507.506	969.31
507.722	984.31
507.939	957.31
508.155	942.31
508.372	952.31
508.588	946.31
508.805	939.31
509.021	938.31
509.238	946.31
509.454	919.31
509.67	906.31
509.887	903.31
510.103	927.31
510.319	934.31
510.536	906.31
510.752	864.31
510.968	906.31
511.184	909.31
511.401	892.31
511.617	888.31
511.833	893.31
512.049	897.31
512.265	887.31
512.481	916.31
512.698	917.31
512.914	885.31
513.13	880.31
513.346	898.31
513.562	896.31
513.778	905.31
513.994	880.31
514.21	892.31
514.426	911.31
514.642	919.31
514.858	923.31
515.074	949.31
515.29	955.31
515.506	939.31
515.721	934.31
515.937	972.31
516.153	980.31
516.369	1012.31
516.585	1050.31
516.801	1090.31
517.016	1101.31
517.232	1175.31
517.448	1251.31
517.664	1294.31
517.879	1300.31
518.095	1304.31
518.311	1268.31
518.527	1201.31
518.742	1137.31
518.958	1096.31
519.173	1052.31
519.389	1048.31
519.605	1012.31
519.82	984.31
520.036	961.31
520.251	907.31
520.467	916.31
520.682	900.31
520.898	905.31
521.113	917.31
521.329	896.31
521.544	906.31
521.76	896.31
521.975	865.31
522.19	841.31
522.406	856.31
522.621	858.31
522.836	836.31
523.052	859.31
523.267	817.31
523.482	820.31
523.698	822.31
523.913	852.31
524.128	857.31
524.343	842.31
524.559	797.31
524.774	810.31
524.989	821.31
525.204	828.31
525.419	848.31
525.634	820.31
525.849	810.31
526.064	839.31
526.28	831.31
526.495	810.31
526.71	819.31
526.925	813.31
527.14	806.31
527.355	841.31
527.57	802.31
527.785	820.31
527.999	806.31
528.214	805.31
528.429	829.31
528.644	838.31
528.859	851.31
529.074	824.31
529.289	840.31
529.503	842.31
529.718	803.31
529.933	830.31
530.148	809.31
530.363	818.31
530.577	809.31
530.792	802.31
531.007	809.31
531.221	795.31
531.436	829.31
531.651	818.31
531.865	827.31
532.08	796.31
532.295	812.31
532.509	808.31
532.724	805.31
532.938	836.31
533.153	820.31
533.367	834.31
533.582	820.31
533.796	804.31
534.011	821.31
534.225	828.31
534.44	786.31
534.654	808.31
534.868	795.31
535.083	797.31
535.297	809.31
535.511	788.31
535.726	777.31
535.94	788.31
536.154	775.31
536.369	794.31
536.583	773.31
536.797	753.31
537.011	752.31
537.225	737.31
537.44	764.31
537.654	771.31
537.868	727.31
538.082	734.31
538.296	738.31
538.51	757.31
538.724	756.31
538.938	740.31
539.153	732.31
539.367	747.31
539.581	733.31
539.795	713.31
540.009	724.31
540.222	716.31
540.436	723.31
540.65	729.31
540.864	710.31
541.078	706.31
541.292	730.31
541.506	743.31
541.72	719.31
541.934	701.31
542.147	704.31
542.361	731.31
542.575	702.31
542.789	710.31
543.002	708.31
543.216	698.31
543.43	718.31
543.644	697.31
543.857	741.31
544.071	716.31
544.285	713.31
544.498	725.31
544.712	728.31
544.925	735.31
545.139	717.31
545.352	744.31
545.566	722.31
545.779	744.31
545.993	753.31
546.206	763.31
546.42	715.31
546.633	777.31
546.847	724.31
547.06	736.31
547.274	701.31
547.487	741.31
547.7	723.31
547.914	741.31
548.127	747.31
548.34	735.31
548.554	757.31
548.767	733.31
548.98	762.31
549.193	745.31
549.407	738.31
549.62	756.31
549.833	758.31
550.046	756.31
550.259	746.31
550.473	743.31
550.686	753.31
550.899	731.31
551.112	703.31
551.325	694.31
551.538	718.31
551.751	723.31
551.964	714.31
552.177	746.31
552.39	763.31
552.603	776.31
552.816	773.31
553.029	826.31
553.242	798.31
553.455	842.31
553.667	846.31
553.88	825.31
554.093	782.31
554.306	762.31
554.519	770.31
554.732	758.31
554.944	738.31
555.157	732.31
555.37	694.31
555.583	702.31
555.795	707.31
556.008	680.31
556.221	674.31
556.433	651.31
556.646	642.31
556.859	664.31
557.071	644.31
557.284	653.31
557.496	637.31
557.709	661.31
557.921	628.31
558.134	640.31
558.346	636.31
558.559	598.31
558.771	613.31
558.984	613.31
559.196	625.31
559.409	634.31
559.621	608.31
559.833	611.31
560.046	606.31
560.258	627.31
560.47	634.31
560.683	604.31
560.895	612.31
561.107	633.31
561.32	605.31
561.532	612.31
561.744	616.31
561.956	602.31
562.168	613.31
562.381	636.31
562.593	634.31
562.805	637.31
563.017	603.31
563.229	624.31
563.441	606.31
563.653	629.31
563.865	619.31
564.077	651.31
564.289	649.31
564.501	632.31
564.713	677.31
564.925	693.31
565.137	680.31
565.349	678.31
565.561	711.31
565.773	741.31
565.985	760.31
566.197	799.31
566.408	877.31
566.62	936.31
566.832	1044.31
567.044	1043.31
567.255	1037.31
567.467	1070.31
567.679	1150.31
567.891	1253.31
568.102	1309.31
568.314	1213.31
568.526	1068.31
568.737	962.31
568.949	890.31
569.161	802.31
569.372	738.31
569.584	716.31
569.795	672.31
570.007	670.31
570.218	643.31
570.43	635.31
570.641	633.31
570.853	668.31
571.064	632.31
571.276	647.31
571.487	651.31
571.698	618.31
571.91	594.31
572.121	587.31
572.333	552.31
572.544	546.31
572.755	536.31
572.966	539.31
573.178	545.31
573.389	515.31
573.6	504.31
573.811	497.31
574.023	522.31
574.234	514.31
574.445	489.31
574.656	522.31
574.867	494.31
575.078	520.31
575.289	501.31
575.501	496.31
575.712	482.31
575.923	490.31
576.134	491.31
576.345	496.31
576.556	496.31
576.767	490.31
576.978	487.31
577.188	496.31
577.399	479.31
577.61	496.31
577.821	474.31
578.032	460.31
578.243	458.31
578.454	465.31
578.665	493.31
578.875	462.31
579.086	459.31
579.297	459.31
579.508	453.31
579.718	446.31
579.929	457.31
580.14	446.31
580.35	452.31
580.561	444.31
580.772	432.31
580.982	440.31
581.193	423.31
581.403	443.31
581.614	436.31
581.825	452.31
582.035	443.31
582.246	430.31
582.456	433.31
582.667	436.31
582.877	432.31
583.087	420.31
583.298	408.31
583.508	437.31
583.719	432.31
583.929	429.31
584.139	414.31
584.35	412.31
584.56	447.31
584.77	424.31
584.981	412.31
585.191	422.31
585.401	426.31
585.611	426.31
585.821	413.31
586.032	425.31
586.242	413.31
586.452	427.31
586.662	403.31
586.872	401.31
587.082	419.31
587.292	423.31
587.502	413.31
587.713	403.31
587.923	432.31
588.133	421.31
588.343	423.31
588.553	420.31
588.762	413.31
588.972	416.31
589.182	418.31
589.392	405.31
589.602	402.31
589.812	405.31
590.022	395.31
590.232	409.31
590.441	394.31
590.651	409.31
590.861	413.31
591.071	421.31
591.281	433.31
591.49	458.31
591.7	445.31
591.91	430.31
592.119	462.31
592.329	452.31
592.539	451.31
592.748	474.31
592.958	520.31
593.167	529.31
593.377	533.31
593.587	548.31
593.796	545.31
594.006	532.31
594.215	558.31
594.424	570.31
594.634	533.31
594.843	498.31
595.053	486.31
595.262	475.31
595.472	452.31
595.681	436.31
595.89	438.31
596.1	432.31
596.309	416.31
596.518	396.31
596.727	389.31
596.937	368.31
597.146	377.31
597.355	397.31
597.564	383.31
597.774	373.31
597.983	378.31
598.192	375.31
598.401	362.31
598.61	359.31
598.819	363.31
599.028	355.31
599.237	359.31
599.446	352.31
599.655	350.31
599.864	340.31
600.073	339.31
600.282	348.31
600.491	345.31
600.7	372.31
600.909	358.31
601.118	340.31
601.327	333.31
601.536	330.31
601.745	332.31
601.953	352.31
602.162	329.31
602.371	333.31
602.58	338.31
602.789	336.31
602.997	347.31
603.206	349.31
603.415	337.31
603.623	317.31
603.832	321.31
604.041	324.31
604.249	328.31
604.458	350.31
604.666	335.31
604.875	326.31
605.084	348.31
605.292	320.31
605.501	320.31
605.709	328.31
605.918	316.31
606.126	313.31
606.334	330.31
606.543	328.31
606.751	325.31
606.96	317.31
607.168	310.31
607.376	311.31
607.585	314.31
607.793	295.31
608.001	316.31
608.21	300.31
608.418	297.31
608.626	318.31
608.834	328.31
609.043	297.31
609.251	309.31
609.459	293.31
609.667	305.31
609.875	313.31
610.083	308.31
610.291	322.31
610.499	319.31
610.707	306.31
610.916	309.31
611.124	293.31
611.332	279.31
611.54	292.31
611.748	314.31
611.955	288.31
612.163	286.31
612.371	312.31
612.579	308.31
612.787	312.31
612.995	288.31
613.203	309.31
613.411	284.31
613.618	296.31
613.826	292.31
614.034	310.31
614.242	319.31
614.449	302.31
614.657	305.31
614.865	282.31
615.072	320.31
615.28	306.31
615.488	296.31
615.695	306.31
615.903	309.31
616.111	293.31
616.318	302.31
616.526	304.31
616.733	298.31
616.941	295.31
617.148	307.31
617.356	286.31
617.563	296.31
617.771	287.31
617.978	306.31
618.185	287.31
618.393	321.31
618.6	292.31
618.807	292.31
619.015	302.31
619.222	294.31
619.429	309.31
619.637	291.31
619.844	285.31
620.051	291.31
620.258	294.31
620.466	301.31
620.673	270.31
620.88	295.31
621.087	298.31
621.294	282.31
621.501	287.31
621.708	266.31
621.915	274.31
622.122	277.31
622.329	273.31
622.536	276.31
622.743	269.31
622.95	273.31
623.157	270.31
623.364	263.31
623.571	276.31
623.778	258.31
623.985	269.31
624.192	261.31
624.399	261.31
624.606	274.31
624.812	255.31
625.019	261.31
625.226	287.31
625.433	242.31
625.639	250.31
625.846	264.31
626.053	267.31
626.259	270.31
626.466	268.31
626.673	250.31
626.879	241.31
627.086	252.31
627.293	252.31
627.499	218.31
627.706	262.31
627.912	254.31
628.119	246.31
628.325	242.31
628.532	246.31
628.738	250.31
628.945	236.31
629.151	241.31
629.357	240.31
629.564	241.31
629.77	235.31
629.976	242.31
630.183	229.31
630.389	249.31
630.595	240.31
630.802	229.31
631.008	223.31
631.214	227.31
631.42	220.31
631.627	224.31
631.833	237.31
632.039	228.31
632.245	209.31
632.451	217.31
632.657	248.31
632.863	220.31
633.069	228.31
633.275	228.31
633.481	225.31
633.688	228.31
633.893	228.31
634.099	227.31
634.305	215.31
634.511	216.31
634.717	215.31
634.923	220.31
635.129	192.31
635.335	199.31
635.541	219.31
635.747	212.31
635.952	216.31
636.158	213.31
636.364	220.31
636.57	213.31
636.775	200.31
636.981	207.31
637.187	215.31
637.392	209.31
637.598	205.31
637.804	217.31
638.009	228.31
638.215	207.31
638.421	221.31
638.626	198.31
638.832	202.31
639.037	199.31
639.243	203.31
639.448	216.31
639.654	212.31
639.859	217.31
640.065	210.31
640.27	210.31
640.475	207.31
640.681	205.31
640.886	212.31
641.091	214.31
641.297	190.31
641.502	197.31
641.707	192.31
641.913	204.31
642.118	192.31
642.323	195.31
642.528	214.31
642.733	212.31
642.939	188.31
643.144	199.31
643.349	188.31
643.554	205.31
643.759	186.31
643.964	177.31
644.169	177.31
644.374	197.31
644.579	197.31
644.784	201.31
644.989	184.31
645.194	190.31
645.399	177.31
645.604	203.31
645.809	206.31
646.014	194.31
646.219	186.31
646.423	209.31
646.628	199.31
646.833	200.31
647.038	182.31
647.243	199.31
647.447	192.31
647.652	208.31
647.857	205.31
648.062	206.31
648.266	202.31
648.471	214.31
648.676	201.31
648.88	210.31
649.085	190.31
649.289	194.31
649.494	200.31
649.698	186.31
649.903	170.31
650.107	190.31
650.312	181.31
650.516	188.31
650.721	184.31
650.925	196.31
651.13	169.31
651.334	182.31
651.539	182.31
651.743	187.31
651.947	173.31
652.152	174.31
652.356	168.31
652.56	169.31
652.764	156.31
652.969	150.31
653.173	135.31
653.377	154.31
653.581	150.31
653.785	141.31
653.99	150.31
654.194	136.31
654.398	139.31
654.602	149.31
654.806	136.31
655.01	140.31
655.214	143.31
655.418	133.31
655.622	137.31
655.826	139.31
656.03	150.31
656.234	140.31
656.438	123.31
656.642	145.31
656.846	125.31
657.049	125.31
657.253	117.31
657.457	122.31
657.661	126.31
657.865	133.31
658.068	117.31
658.272	124.31
658.476	102.31
658.68	117.31
658.883	102.31
659.087	108.31
659.291	95.31
659.494	114.31
659.698	108.31
659.901	108.31
660.105	89.31
660.309	86.31
660.512	108.31
660.716	89.31
660.919	89.31
661.123	93.31
661.326	94.31
661.53	88.31
661.733	94.31
661.936	85.31
662.14	84.31
662.343	85.31
662.546	77.31
662.75	88.31
662.953	87.31
663.156	78.31
663.36	81.31
663.563	92.31
663.766	83.31
663.969	77.31
664.173	85.31
664.376	85.31
664.579	93.31
664.782	89.31
664.985	86.31
665.188	91.31
665.391	94.31
665.594	85.31
665.797	89.31
666	81.31
666.203	100.31
666.406	74.31
666.609	82.31
666.812	89.31
667.015	83.31
667.218	74.31
667.421	73.31
667.624	85.31
667.827	89.31
668.03	77.31
668.232	68.31
668.435	75.31
668.638	88.31
668.841	79.31
669.043	88.31
669.246	97.31
669.449	92.31
669.651	85.31
669.854	78.31
670.057	88.31
670.259	81.31
670.462	92.31
670.665	74.31
670.867	68.31
671.07	89.31
671.272	74.31
671.475	83.31
671.677	72.31
671.88	81.31
672.082	78.31
672.284	79.31
672.487	77.31
672.689	76.31
672.892	76.31
