Data from Ni(NO3)2@0.25M.TitratingCurve.Agarose3%dH2O.NegLispCup.LampEnergy10.LIBS07252019_HRD10591_18-03-55-566.txt Node
Date: Thu Jul 25 18:03:55 EDT 2019
User: cochatt
Spectrometer: HR+D1059
Trigger mode: 1
Integration Time (sec): 1.000000E-1
Scans to average: 1
Electric dark correction enabled: true
Nonlinearity correction enabled: false
Boxcar width: 0
XAxis mode: Wavelengths
Number of Pixels in Spectrum: 2048
>>>>>Begin Spectral Data<<<<<
223.165	-10.75
223.4	-10.75
223.635	-10.75
223.869	-4.75
224.104	-21.75
224.338	-15.75
224.573	-27.75
224.808	-16.75
225.042	-15.75
225.277	-7.75
225.511	-2.75
225.746	2.25
225.98	8.25
226.215	3.25
226.449	18.25
226.683	17.25
226.918	34.25
227.152	40.25
227.387	26.25
227.621	32.25
227.856	49.25
228.09	52.25
228.324	42.25
228.559	53.25
228.793	61.25
229.027	92.25
229.262	120.25
229.496	108.25
229.73	120.25
229.964	122.25
230.199	125.25
230.433	132.25
230.667	130.25
230.901	124.25
231.136	122.25
231.37	130.25
231.604	123.25
231.838	136.25
232.072	125.25
232.306	149.25
232.541	121.25
232.775	133.25
233.009	141.25
233.243	136.25
233.477	142.25
233.711	143.25
233.945	139.25
234.179	122.25
234.413	136.25
234.647	127.25
234.881	132.25
235.115	131.25
235.349	132.25
235.583	140.25
235.817	142.25
236.051	130.25
236.285	135.25
236.519	146.25
236.753	137.25
236.987	136.25
237.221	146.25
237.455	131.25
237.689	132.25
237.922	134.25
238.156	154.25
238.39	146.25
238.624	142.25
238.858	144.25
239.091	154.25
239.325	142.25
239.559	142.25
239.793	154.25
240.027	155.25
240.26	148.25
240.494	136.25
240.728	140.25
240.961	157.25
241.195	161.25
241.429	160.25
241.662	157.25
241.896	160.25
242.13	166.25
242.363	165.25
242.597	141.25
242.83	154.25
243.064	164.25
243.298	166.25
243.531	166.25
243.765	162.25
243.998	165.25
244.232	181.25
244.465	161.25
244.699	175.25
244.932	182.25
245.166	193.25
245.399	195.25
245.633	191.25
245.866	196.25
246.099	200.25
246.333	189.25
246.566	202.25
246.8	200.25
247.033	204.25
247.266	177.25
247.5	188.25
247.733	200.25
247.966	194.25
248.2	191.25
248.433	195.25
248.666	209.25
248.899	208.25
249.133	193.25
249.366	194.25
249.599	215.25
249.832	220.25
250.066	216.25
250.299	224.25
250.532	223.25
250.765	206.25
250.998	236.25
251.231	235.25
251.465	241.25
251.698	248.25
251.931	232.25
252.164	240.25
252.397	240.25
252.63	240.25
252.863	248.25
253.096	250.25
253.329	239.25
253.562	246.25
253.795	245.25
254.028	248.25
254.261	248.25
254.494	248.25
254.727	260.25
254.96	260.25
255.193	253.25
255.426	247.25
255.659	269.25
255.892	274.25
256.124	281.25
256.357	273.25
256.59	276.25
256.823	282.25
257.056	270.25
257.289	268.25
257.521	289.25
257.754	297.25
257.987	291.25
258.22	288.25
258.452	289.25
258.685	298.25
258.918	306.25
259.151	290.25
259.383	286.25
259.616	286.25
259.849	304.25
260.081	301.25
260.314	300.25
260.547	311.25
260.779	299.25
261.012	306.25
261.244	297.25
261.477	320.25
261.71	307.25
261.942	312.25
262.175	310.25
262.407	316.25
262.64	297.25
262.872	312.25
263.105	336.25
263.337	330.25
263.57	314.25
263.802	340.25
264.035	333.25
264.267	321.25
264.499	333.25
264.732	348.25
264.964	334.25
265.197	357.25
265.429	341.25
265.661	336.25
265.894	331.25
266.126	362.25
266.358	349.25
266.591	361.25
266.823	365.25
267.055	364.25
267.287	345.25
267.52	340.25
267.752	344.25
267.984	335.25
268.216	346.25
268.448	363.25
268.681	344.25
268.913	348.25
269.145	356.25
269.377	356.25
269.609	363.25
269.841	361.25
270.073	357.25
270.306	380.25
270.538	364.25
270.77	372.25
271.002	363.25
271.234	361.25
271.466	381.25
271.698	377.25
271.93	356.25
272.162	368.25
272.394	371.25
272.626	373.25
272.858	384.25
273.09	369.25
273.322	376.25
273.553	362.25
273.785	381.25
274.017	384.25
274.249	386.25
274.481	396.25
274.713	395.25
274.945	397.25
275.176	384.25
275.408	386.25
275.64	410.25
275.872	379.25
276.104	397.25
276.335	408.25
276.567	396.25
276.799	380.25
277.031	399.25
277.262	413.25
277.494	400.25
277.726	390.25
277.957	394.25
278.189	398.25
278.421	414.25
278.652	397.25
278.884	416.25
279.115	406.25
279.347	409.25
279.579	428.25
279.81	406.25
280.042	420.25
280.273	410.25
280.505	411.25
280.736	411.25
280.968	421.25
281.199	410.25
281.431	423.25
281.662	424.25
281.894	424.25
282.125	427.25
282.356	424.25
282.588	398.25
282.819	434.25
283.051	425.25
283.282	426.25
283.513	434.25
283.745	409.25
283.976	440.25
284.207	435.25
284.439	449.25
284.67	450.25
284.901	442.25
285.132	435.25
285.364	437.25
285.595	426.25
285.826	442.25
286.057	446.25
286.288	450.25
286.52	455.25
286.751	456.25
286.982	443.25
287.213	441.25
287.444	445.25
287.675	463.25
287.906	436.25
288.138	447.25
288.369	446.25
288.6	458.25
288.831	445.25
289.062	454.25
289.293	474.25
289.524	458.25
289.755	447.25
289.986	465.25
290.217	454.25
290.448	441.25
290.679	459.25
290.91	475.25
291.141	456.25
291.371	471.25
291.602	467.25
291.833	470.25
292.064	446.25
292.295	443.25
292.526	464.25
292.757	462.25
292.987	452.25
293.218	443.25
293.449	446.25
293.68	469.25
293.91	450.25
294.141	468.25
294.372	448.25
294.603	470.25
294.833	473.25
295.064	466.25
295.295	481.25
295.525	466.25
295.756	476.25
295.987	468.25
296.217	483.25
296.448	461.25
296.679	480.25
296.909	483.25
297.14	497.25
297.37	487.25
297.601	489.25
297.831	502.25
298.062	480.25
298.292	484.25
298.523	512.25
298.753	498.25
298.984	484.25
299.214	510.25
299.445	524.25
299.675	517.25
299.905	497.25
300.136	512.25
300.366	531.25
300.597	522.25
300.827	534.25
301.057	512.25
301.288	538.25
301.518	532.25
301.748	538.25
301.979	553.25
302.209	537.25
302.439	530.25
302.669	518.25
302.9	556.25
303.13	552.25
303.36	531.25
303.59	543.25
303.82	540.25
304.051	540.25
304.281	516.25
304.511	532.25
304.741	514.25
304.971	532.25
305.201	552.25
305.431	560.25
305.661	556.25
305.891	537.25
306.121	522.25
306.352	524.25
306.582	547.25
306.812	517.25
307.042	518.25
307.272	528.25
307.502	513.25
307.731	521.25
307.961	542.25
308.191	536.25
308.421	537.25
308.651	539.25
308.881	528.25
309.111	534.25
309.341	555.25
309.571	525.25
309.8	565.25
310.03	547.25
310.26	546.25
310.49	576.25
310.72	565.25
310.949	557.25
311.179	565.25
311.409	539.25
311.639	552.25
311.868	581.25
312.098	573.25
312.328	565.25
312.557	576.25
312.787	575.25
313.017	582.25
313.246	587.25
313.476	608.25
313.706	588.25
313.935	602.25
314.165	595.25
314.394	602.25
314.624	596.25
314.853	587.25
315.083	630.25
315.312	585.25
315.542	605.25
315.771	585.25
316.001	591.25
316.23	617.25
316.46	591.25
316.689	603.25
316.919	594.25
317.148	594.25
317.377	602.25
317.607	604.25
317.836	599.25
318.065	617.25
318.295	613.25
318.524	629.25
318.753	603.25
318.983	618.25
319.212	596.25
319.441	616.25
319.67	610.25
319.9	603.25
320.129	606.25
320.358	641.25
320.587	635.25
320.816	652.25
321.046	639.25
321.275	635.25
321.504	662.25
321.733	643.25
321.962	663.25
322.191	664.25
322.42	685.25
322.649	660.25
322.878	662.25
323.108	653.25
323.337	647.25
323.566	669.25
323.795	686.25
324.024	681.25
324.253	676.25
324.482	699.25
324.71	669.25
324.939	694.25
325.168	707.25
325.397	696.25
325.626	725.25
325.855	706.25
326.084	714.25
326.313	715.25
326.542	708.25
326.77	731.25
326.999	719.25
327.228	705.25
327.457	712.25
327.686	729.25
327.914	745.25
328.143	740.25
328.372	722.25
328.6	745.25
328.829	736.25
329.058	740.25
329.287	730.25
329.515	744.25
329.744	740.25
329.972	748.25
330.201	772.25
330.43	766.25
330.658	790.25
330.887	781.25
331.115	767.25
331.344	773.25
331.572	801.25
331.801	831.25
332.03	859.25
332.258	846.25
332.486	844.25
332.715	862.25
332.943	883.25
333.172	886.25
333.4	932.25
333.629	931.25
333.857	970.25
334.085	936.25
334.314	953.25
334.542	944.25
334.771	950.25
334.999	945.25
335.227	924.25
335.455	961.25
335.684	920.25
335.912	927.25
336.14	940.25
336.369	929.25
336.597	940.25
336.825	916.25
337.053	953.25
337.281	914.25
337.51	919.25
337.738	902.25
337.966	880.25
338.194	927.25
338.422	892.25
338.65	863.25
338.878	854.25
339.106	869.25
339.334	885.25
339.562	875.25
339.79	829.25
340.018	824.25
340.246	854.25
340.474	843.25
340.702	827.25
340.93	824.25
341.158	858.25
341.386	869.25
341.614	901.25
341.842	882.25
342.07	833.25
342.298	837.25
342.526	829.25
342.754	833.25
342.981	826.25
343.209	849.25
343.437	879.25
343.665	910.25
343.893	962.25
344.12	957.25
344.348	964.25
344.576	922.25
344.804	918.25
345.031	871.25
345.259	852.25
345.487	861.25
345.714	876.25
345.942	847.25
346.17	881.25
346.397	865.25
346.625	819.25
346.853	788.25
347.08	772.25
347.308	803.25
347.535	811.25
347.763	804.25
347.99	789.25
348.218	804.25
348.445	793.25
348.673	794.25
348.9	818.25
349.128	782.25
349.355	807.25
349.583	791.25
349.81	791.25
350.037	772.25
350.265	788.25
350.492	780.25
350.72	774.25
350.947	792.25
351.174	802.25
351.402	820.25
351.629	833.25
351.856	796.25
352.083	798.25
352.311	792.25
352.538	836.25
352.765	829.25
352.992	794.25
353.22	753.25
353.447	756.25
353.674	770.25
353.901	744.25
354.128	761.25
354.355	768.25
354.583	746.25
354.81	745.25
355.037	774.25
355.264	782.25
355.491	787.25
355.718	792.25
355.945	764.25
356.172	767.25
356.399	793.25
356.626	797.25
356.853	822.25
357.08	775.25
357.307	782.25
357.534	789.25
357.761	769.25
357.988	753.25
358.215	765.25
358.441	774.25
358.668	744.25
358.895	788.25
359.122	764.25
359.349	777.25
359.576	787.25
359.802	758.25
360.029	793.25
360.256	780.25
360.483	777.25
360.709	804.25
360.936	793.25
361.163	797.25
361.39	781.25
361.616	782.25
361.843	786.25
362.07	846.25
362.296	808.25
362.523	758.25
362.749	755.25
362.976	771.25
363.203	749.25
363.429	745.25
363.656	737.25
363.882	755.25
364.109	756.25
364.335	771.25
364.562	778.25
364.788	786.25
365.015	775.25
365.241	754.25
365.468	754.25
365.694	765.25
365.92	741.25
366.147	763.25
366.373	776.25
366.599	770.25
366.826	763.25
367.052	741.25
367.278	774.25
367.505	780.25
367.731	777.25
367.957	772.25
368.184	748.25
368.41	770.25
368.636	762.25
368.862	770.25
369.089	802.25
369.315	792.25
369.541	769.25
369.767	770.25
369.993	753.25
370.219	776.25
370.445	773.25
370.672	803.25
370.898	786.25
371.124	776.25
371.35	819.25
371.576	820.25
371.802	821.25
372.028	800.25
372.254	806.25
372.48	832.25
372.706	850.25
372.932	839.25
373.158	819.25
373.384	805.25
373.61	800.25
373.835	826.25
374.061	804.25
374.287	830.25
374.513	839.25
374.739	838.25
374.965	847.25
375.191	861.25
375.416	871.25
375.642	828.25
375.868	841.25
376.094	821.25
376.319	819.25
376.545	791.25
376.771	825.25
376.997	781.25
377.222	782.25
377.448	807.25
377.674	790.25
377.899	793.25
378.125	794.25
378.35	788.25
378.576	789.25
378.802	791.25
379.027	770.25
379.253	777.25
379.478	791.25
379.704	779.25
379.929	794.25
380.155	778.25
380.38	772.25
380.606	790.25
380.831	808.25
381.057	792.25
381.282	777.25
381.507	800.25
381.733	794.25
381.958	781.25
382.184	797.25
382.409	800.25
382.634	806.25
382.86	781.25
383.085	824.25
383.31	826.25
383.535	832.25
383.761	845.25
383.986	857.25
384.211	872.25
384.436	853.25
384.662	870.25
384.887	907.25
385.112	886.25
385.337	867.25
385.562	909.25
385.787	921.25
386.013	929.25
386.238	942.25
386.463	909.25
386.688	900.25
386.913	905.25
387.138	892.25
387.363	910.25
387.588	917.25
387.813	912.25
388.038	926.25
388.263	919.25
388.488	910.25
388.713	914.25
388.938	919.25
389.163	921.25
389.387	899.25
389.612	908.25
389.837	918.25
390.062	901.25
390.287	908.25
390.512	928.25
390.736	886.25
390.961	957.25
391.186	937.25
391.411	946.25
391.636	967.25
391.86	952.25
392.085	995.25
392.31	970.25
392.534	971.25
392.759	984.25
392.984	956.25
393.208	969.25
393.433	972.25
393.658	980.25
393.882	953.25
394.107	938.25
394.331	948.25
394.556	976.25
394.78	976.25
395.005	975.25
395.229	961.25
395.454	991.25
395.678	973.25
395.903	992.25
396.127	1036.25
396.352	984.25
396.576	979.25
396.801	965.25
397.025	971.25
397.249	1009.25
397.474	1048.25
397.698	1035.25
397.922	1025.25
398.147	1040.25
398.371	1077.25
398.595	1142.25
398.82	1132.25
399.044	1159.25
399.268	1274.25
399.492	1382.25
399.717	1487.25
399.941	1514.25
400.165	1455.25
400.389	1373.25
400.613	1286.25
400.837	1208.25
401.062	1189.25
401.286	1177.25
401.51	1138.25
401.734	1131.25
401.958	1150.25
402.182	1184.25
402.406	1142.25
402.63	1150.25
402.854	1175.25
403.078	1186.25
403.302	1225.25
403.526	1172.25
403.75	1204.25
403.974	1240.25
404.198	1230.25
404.422	1255.25
404.645	1197.25
404.869	1226.25
405.093	1213.25
405.317	1244.25
405.541	1216.25
405.765	1238.25
405.988	1231.25
406.212	1240.25
406.436	1254.25
406.66	1290.25
406.883	1267.25
407.107	1312.25
407.331	1396.25
407.555	1414.25
407.778	1404.25
408.002	1377.25
408.226	1348.25
408.449	1358.25
408.673	1290.25
408.896	1288.25
409.12	1282.25
409.344	1303.25
409.567	1238.25
409.791	1289.25
410.014	1248.25
410.238	1262.25
410.461	1250.25
410.685	1249.25
410.908	1196.25
411.132	1225.25
411.355	1179.25
411.578	1200.25
411.802	1190.25
412.025	1225.25
412.249	1219.25
412.472	1239.25
412.695	1213.25
412.919	1169.25
413.142	1170.25
413.365	1180.25
413.589	1181.25
413.812	1161.25
414.035	1194.25
414.258	1169.25
414.482	1181.25
414.705	1185.25
414.928	1174.25
415.151	1166.25
415.374	1182.25
415.597	1161.25
415.821	1136.25
416.044	1157.25
416.267	1146.25
416.49	1142.25
416.713	1141.25
416.936	1170.25
417.159	1133.25
417.382	1143.25
417.605	1174.25
417.828	1182.25
418.051	1193.25
418.274	1140.25
418.497	1145.25
418.72	1175.25
418.943	1166.25
419.166	1223.25
419.389	1316.25
419.611	1290.25
419.834	1254.25
420.057	1226.25
420.28	1193.25
420.503	1163.25
420.726	1152.25
420.948	1170.25
421.171	1170.25
421.394	1168.25
421.617	1162.25
421.839	1170.25
422.062	1194.25
422.285	1141.25
422.507	1187.25
422.73	1157.25
422.953	1207.25
423.175	1166.25
423.398	1190.25
423.621	1161.25
423.843	1164.25
424.066	1202.25
424.288	1202.25
424.511	1194.25
424.733	1195.25
424.956	1179.25
425.178	1167.25
425.401	1174.25
425.623	1179.25
425.846	1156.25
426.068	1140.25
426.291	1164.25
426.513	1122.25
426.735	1139.25
426.958	1161.25
427.18	1094.25
427.402	1121.25
427.625	1120.25
427.847	1086.25
428.069	1085.25
428.292	1123.25
428.514	1081.25
428.736	1093.25
428.958	1110.25
429.181	1051.25
429.403	1062.25
429.625	1086.25
429.847	1086.25
430.069	1096.25
430.292	1094.25
430.514	1051.25
430.736	1037.25
430.958	1065.25
431.18	1058.25
431.402	1085.25
431.624	1090.25
431.846	1059.25
432.068	1102.25
432.29	1106.25
432.512	1090.25
432.734	1109.25
432.956	1086.25
433.178	1094.25
433.4	1129.25
433.622	1111.25
433.844	1126.25
434.066	1091.25
434.287	1116.25
434.509	1120.25
434.731	1152.25
434.953	1156.25
435.175	1196.25
435.397	1170.25
435.618	1117.25
435.84	1126.25
436.062	1085.25
436.284	1088.25
436.505	1116.25
436.727	1100.25
436.949	1110.25
437.17	1106.25
437.392	1052.25
437.614	1087.25
437.835	1040.25
438.057	1083.25
438.278	1017.25
438.5	1086.25
438.721	1066.25
438.943	1065.25
439.165	1042.25
439.386	1088.25
439.608	1107.25
439.829	1095.25
440.05	1106.25
440.272	1106.25
440.493	1118.25
440.715	1145.25
440.936	1182.25
441.158	1148.25
441.379	1166.25
441.6	1230.25
441.822	1194.25
442.043	1220.25
442.264	1209.25
442.486	1190.25
442.707	1200.25
442.928	1197.25
443.149	1180.25
443.371	1169.25
443.592	1180.25
443.813	1208.25
444.034	1207.25
444.255	1244.25
444.476	1292.25
444.698	1316.25
444.919	1362.25
445.14	1412.25
445.361	1329.25
445.582	1238.25
445.803	1208.25
446.024	1190.25
446.245	1165.25
446.466	1157.25
446.687	1137.25
446.908	1123.25
447.129	1103.25
447.35	1101.25
447.571	1099.25
447.792	1039.25
448.013	1045.25
448.234	1036.25
448.455	1041.25
448.675	1013.25
448.896	1036.25
449.117	979.25
449.338	1010.25
449.559	996.25
449.779	1000.25
450	1026.25
450.221	1012.25
450.442	1032.25
450.662	1025.25
450.883	1026.25
451.104	1044.25
451.324	1041.25
451.545	998.25
451.766	1014.25
451.986	1010.25
452.207	1000.25
452.428	999.25
452.648	992.25
452.869	1005.25
453.089	987.25
453.31	994.25
453.53	950.25
453.751	968.25
453.971	964.25
454.192	952.25
454.412	965.25
454.633	967.25
454.853	957.25
455.073	967.25
455.294	939.25
455.514	970.25
455.734	956.25
455.955	936.25
456.175	925.25
456.395	948.25
456.616	952.25
456.836	945.25
457.056	955.25
457.276	947.25
457.497	949.25
457.717	974.25
457.937	967.25
458.157	962.25
458.377	967.25
458.598	986.25
458.818	1016.25
459.038	1022.25
459.258	1050.25
459.478	1095.25
459.698	1167.25
459.918	1198.25
460.138	1188.25
460.358	1242.25
460.578	1227.25
460.798	1252.25
461.018	1270.25
461.238	1261.25
461.458	1232.25
461.678	1264.25
461.898	1281.25
462.118	1266.25
462.338	1342.25
462.558	1404.25
462.777	1410.25
462.997	1506.25
463.217	1518.25
463.437	1517.25
463.657	1496.25
463.876	1466.25
464.096	1433.25
464.316	1415.25
464.536	1396.25
464.755	1380.25
464.975	1377.25
465.195	1266.25
465.414	1243.25
465.634	1135.25
465.854	1138.25
466.073	1101.25
466.293	1109.25
466.512	1108.25
466.732	1077.25
466.951	1088.25
467.171	1067.25
467.391	1082.25
467.61	1025.25
467.829	1062.25
468.049	1070.25
468.268	1039.25
468.488	1018.25
468.707	1037.25
468.927	1042.25
469.146	1024.25
469.365	1070.25
469.585	1031.25
469.804	1091.25
470.023	1093.25
470.243	1094.25
470.462	1099.25
470.681	1085.25
470.901	1086.25
471.12	1099.25
471.339	1056.25
471.558	1064.25
471.777	1097.25
471.997	1058.25
472.216	1056.25
472.435	1042.25
472.654	1012.25
472.873	990.25
473.092	1003.25
473.311	1038.25
473.53	1039.25
473.749	1010.25
473.968	1004.25
474.187	1005.25
474.406	993.25
474.625	1010.25
474.844	1038.25
475.063	1050.25
475.282	1031.25
475.501	1063.25
475.72	1038.25
475.939	1041.25
476.158	1050.25
476.377	1078.25
476.596	1050.25
476.814	1048.25
477.033	1067.25
477.252	1062.25
477.471	1092.25
477.69	1148.25
477.908	1155.25
478.127	1179.25
478.346	1178.25
478.564	1213.25
478.783	1186.25
479.002	1238.25
479.22	1284.25
479.439	1259.25
479.658	1232.25
479.876	1243.25
480.095	1236.25
480.313	1255.25
480.532	1297.25
480.751	1292.25
480.969	1259.25
481.188	1243.25
481.406	1203.25
481.624	1209.25
481.843	1155.25
482.061	1179.25
482.28	1165.25
482.498	1158.25
482.717	1128.25
482.935	1168.25
483.153	1194.25
483.372	1202.25
483.59	1180.25
483.808	1190.25
484.027	1177.25
484.245	1165.25
484.463	1187.25
484.681	1201.25
484.9	1187.25
485.118	1211.25
485.336	1204.25
485.554	1203.25
485.772	1194.25
485.99	1188.25
486.209	1172.25
486.427	1206.25
486.645	1216.25
486.863	1209.25
487.081	1205.25
487.299	1212.25
487.517	1212.25
487.735	1212.25
487.953	1225.25
488.171	1234.25
488.389	1205.25
488.607	1234.25
488.825	1196.25
489.043	1209.25
489.261	1169.25
489.479	1204.25
489.696	1206.25
489.914	1207.25
490.132	1211.25
490.35	1268.25
490.568	1225.25
490.786	1271.25
491.003	1244.25
491.221	1240.25
491.439	1269.25
491.657	1257.25
491.874	1304.25
492.092	1280.25
492.31	1300.25
492.527	1275.25
492.745	1291.25
492.963	1295.25
493.18	1286.25
493.398	1299.25
493.615	1297.25
493.833	1304.25
494.05	1347.25
494.268	1332.25
494.485	1297.25
494.703	1331.25
494.92	1332.25
495.138	1338.25
495.355	1345.25
495.573	1376.25
495.79	1339.25
496.008	1354.25
496.225	1345.25
496.442	1370.25
496.66	1384.25
496.877	1408.25
497.094	1424.25
497.312	1472.25
497.529	1506.25
497.746	1522.25
497.963	1587.25
498.181	1609.25
498.398	1717.25
498.615	1740.25
498.832	1870.25
499.049	1958.25
499.267	2062.25
499.484	2224.25
499.701	2419.25
499.918	2569.25
500.135	2753.25
500.352	2994.25
500.569	3075.25
500.786	2954.25
501.003	2925.25
501.22	2744.25
501.437	2468.25
501.654	2301.25
501.871	2192.25
502.088	2068.25
502.305	1952.25
502.522	1831.25
502.739	1797.25
502.956	1653.25
503.172	1628.25
503.389	1622.25
503.606	1553.25
503.823	1553.25
504.04	1536.25
504.256	1517.25
504.473	1509.25
504.69	1464.25
504.907	1454.25
505.123	1381.25
505.34	1357.25
505.557	1307.25
505.773	1293.25
505.99	1257.25
506.207	1261.25
506.423	1234.25
506.64	1224.25
506.856	1193.25
507.073	1202.25
507.289	1182.25
507.506	1154.25
507.722	1156.25
507.939	1190.25
508.155	1146.25
508.372	1127.25
508.588	1132.25
508.805	1126.25
509.021	1116.25
509.238	1109.25
509.454	1081.25
509.67	1101.25
509.887	1090.25
510.103	1093.25
510.319	1069.25
510.536	1078.25
510.752	1068.25
510.968	1051.25
511.184	1033.25
511.401	1072.25
511.617	1044.25
511.833	1090.25
512.049	1060.25
512.265	1066.25
512.481	1055.25
512.698	1064.25
512.914	1057.25
513.13	1057.25
513.346	1076.25
513.562	1032.25
513.778	1046.25
513.994	1089.25
514.21	1065.25
514.426	1076.25
514.642	1099.25
514.858	1084.25
515.074	1079.25
515.29	1128.25
515.506	1109.25
515.721	1123.25
515.937	1133.25
516.153	1126.25
516.369	1164.25
516.585	1186.25
516.801	1234.25
517.016	1257.25
517.232	1246.25
517.448	1299.25
517.664	1352.25
517.879	1362.25
518.095	1349.25
518.311	1366.25
518.527	1260.25
518.742	1242.25
518.958	1213.25
519.173	1182.25
519.389	1160.25
519.605	1145.25
519.82	1118.25
520.036	1125.25
520.251	1093.25
520.467	1087.25
520.682	1089.25
520.898	1065.25
521.113	1062.25
521.329	1032.25
521.544	1038.25
521.76	1028.25
521.975	1007.25
522.19	1025.25
522.406	1010.25
522.621	1001.25
522.836	1034.25
523.052	1002.25
523.267	995.25
523.482	980.25
523.698	965.25
523.913	957.25
524.128	974.25
524.343	1002.25
524.559	972.25
524.774	973.25
524.989	976.25
525.204	982.25
525.419	966.25
525.634	918.25
525.849	961.25
526.064	956.25
526.28	923.25
526.495	927.25
526.71	935.25
526.925	945.25
527.14	945.25
527.355	918.25
527.57	925.25
527.785	928.25
527.999	936.25
528.214	952.25
528.429	956.25
528.644	930.25
528.859	951.25
529.074	933.25
529.289	946.25
529.503	979.25
529.718	969.25
529.933	946.25
530.148	909.25
530.363	937.25
530.577	960.25
530.792	909.25
531.007	948.25
531.221	928.25
531.436	911.25
531.651	914.25
531.865	968.25
532.08	946.25
532.295	959.25
532.509	927.25
532.724	913.25
532.938	917.25
533.153	907.25
533.367	935.25
533.582	941.25
533.796	935.25
534.011	901.25
534.225	922.25
534.44	924.25
534.654	910.25
534.868	898.25
535.083	911.25
535.297	896.25
535.511	893.25
535.726	883.25
535.94	886.25
536.154	877.25
536.369	889.25
536.583	858.25
536.797	889.25
537.011	870.25
537.225	869.25
537.44	881.25
537.654	900.25
537.868	864.25
538.082	844.25
538.296	866.25
538.51	857.25
538.724	871.25
538.938	866.25
539.153	858.25
539.367	875.25
539.581	852.25
539.795	857.25
540.009	814.25
540.222	856.25
540.436	814.25
540.65	835.25
540.864	832.25
541.078	833.25
541.292	869.25
541.506	870.25
541.72	861.25
541.934	880.25
542.147	881.25
542.361	862.25
542.575	870.25
542.789	862.25
543.002	846.25
543.216	835.25
543.43	819.25
543.644	840.25
543.857	876.25
544.071	856.25
544.285	868.25
544.498	871.25
544.712	848.25
544.925	874.25
545.139	873.25
545.352	871.25
545.566	876.25
545.779	867.25
545.993	885.25
546.206	904.25
546.42	900.25
546.633	859.25
546.847	870.25
547.06	887.25
547.274	900.25
547.487	877.25
547.7	880.25
547.914	890.25
548.127	853.25
548.34	869.25
548.554	887.25
548.767	872.25
548.98	874.25
549.193	888.25
549.407	873.25
549.62	844.25
549.833	881.25
550.046	887.25
550.259	878.25
550.473	866.25
550.686	892.25
550.899	873.25
551.112	850.25
551.325	863.25
551.538	855.25
551.751	862.25
551.964	881.25
552.177	853.25
552.39	882.25
552.603	888.25
552.816	890.25
553.029	896.25
553.242	894.25
553.455	921.25
553.667	933.25
553.88	902.25
554.093	881.25
554.306	872.25
554.519	852.25
554.732	860.25
554.944	809.25
555.157	829.25
555.37	816.25
555.583	806.25
555.795	791.25
556.008	800.25
556.221	781.25
556.433	780.25
556.646	767.25
556.859	762.25
557.071	766.25
557.284	754.25
557.496	766.25
557.709	747.25
557.921	740.25
558.134	755.25
558.346	736.25
558.559	752.25
558.771	738.25
558.984	721.25
559.196	730.25
559.409	739.25
559.621	718.25
559.833	709.25
560.046	697.25
560.258	704.25
560.47	706.25
560.683	708.25
560.895	721.25
561.107	710.25
561.32	709.25
561.532	718.25
561.744	709.25
561.956	715.25
562.168	727.25
562.381	716.25
562.593	704.25
562.805	722.25
563.017	731.25
563.229	707.25
563.441	709.25
563.653	714.25
563.865	719.25
564.077	750.25
564.289	739.25
564.501	756.25
564.713	763.25
564.925	769.25
565.137	778.25
565.349	816.25
565.561	809.25
565.773	826.25
565.985	861.25
566.197	897.25
566.408	942.25
566.62	998.25
566.832	1033.25
567.044	1058.25
567.255	1024.25
567.467	1072.25
567.679	1089.25
567.891	1111.25
568.102	1137.25
568.314	1070.25
568.526	994.25
568.737	942.25
568.949	906.25
569.161	838.25
569.372	784.25
569.584	770.25
569.795	740.25
570.007	749.25
570.218	733.25
570.43	709.25
570.641	718.25
570.853	708.25
571.064	699.25
571.276	721.25
571.487	726.25
571.698	666.25
571.91	648.25
572.121	650.25
572.333	644.25
572.544	633.25
572.755	599.25
572.966	596.25
573.178	587.25
573.389	612.25
573.6	604.25
573.811	589.25
574.023	578.25
574.234	573.25
574.445	572.25
574.656	580.25
574.867	582.25
575.078	594.25
575.289	580.25
575.501	597.25
575.712	541.25
575.923	565.25
576.134	552.25
576.345	548.25
576.556	554.25
576.767	543.25
576.978	545.25
577.188	529.25
577.399	509.25
577.61	501.25
577.821	540.25
578.032	538.25
578.243	539.25
578.454	524.25
578.665	530.25
578.875	504.25
579.086	505.25
579.297	517.25
579.508	515.25
579.718	504.25
579.929	523.25
580.14	496.25
580.35	509.25
580.561	517.25
580.772	480.25
580.982	486.25
581.193	512.25
581.403	490.25
581.614	480.25
581.825	500.25
582.035	508.25
582.246	470.25
582.456	485.25
582.667	483.25
582.877	480.25
583.087	484.25
583.298	485.25
583.508	462.25
583.719	459.25
583.929	479.25
584.139	470.25
584.35	462.25
584.56	481.25
584.77	483.25
584.981	476.25
585.191	465.25
585.401	466.25
585.611	479.25
585.821	458.25
586.032	488.25
586.242	454.25
586.452	468.25
586.662	456.25
586.872	457.25
587.082	476.25
587.292	461.25
587.502	469.25
587.713	460.25
587.923	468.25
588.133	465.25
588.343	467.25
588.553	466.25
588.762	458.25
588.972	474.25
589.182	489.25
589.392	481.25
589.602	446.25
589.812	486.25
590.022	461.25
590.232	467.25
590.441	460.25
590.651	462.25
590.861	470.25
591.071	484.25
591.281	483.25
591.49	491.25
591.7	507.25
591.91	490.25
592.119	488.25
592.329	489.25
592.539	505.25
592.748	534.25
592.958	522.25
593.167	542.25
593.377	532.25
593.587	539.25
593.796	537.25
594.006	552.25
594.215	541.25
594.424	532.25
594.634	517.25
594.843	525.25
595.053	502.25
595.262	508.25
595.472	458.25
595.681	481.25
595.89	475.25
596.1	442.25
596.309	464.25
596.518	433.25
596.727	417.25
596.937	417.25
597.146	412.25
597.355	400.25
597.564	427.25
597.774	416.25
597.983	429.25
598.192	387.25
598.401	406.25
598.61	382.25
598.819	396.25
599.028	407.25
599.237	390.25
599.446	422.25
599.655	373.25
599.864	397.25
600.073	377.25
600.282	383.25
600.491	370.25
600.7	363.25
600.909	402.25
601.118	396.25
601.327	376.25
601.536	378.25
601.745	378.25
601.953	362.25
602.162	372.25
602.371	373.25
602.58	384.25
602.789	368.25
602.997	374.25
603.206	381.25
603.415	375.25
603.623	364.25
603.832	354.25
604.041	356.25
604.249	353.25
604.458	373.25
604.666	360.25
604.875	372.25
605.084	358.25
605.292	362.25
605.501	362.25
605.709	354.25
605.918	346.25
606.126	352.25
606.334	356.25
606.543	359.25
606.751	363.25
606.96	353.25
607.168	352.25
607.376	337.25
607.585	365.25
607.793	359.25
608.001	353.25
608.21	357.25
608.418	349.25
608.626	328.25
608.834	345.25
609.043	350.25
609.251	349.25
609.459	337.25
609.667	349.25
609.875	330.25
610.083	368.25
610.291	344.25
610.499	331.25
610.707	334.25
610.916	334.25
611.124	348.25
611.332	337.25
611.54	342.25
611.748	324.25
611.955	320.25
612.163	333.25
612.371	333.25
612.579	332.25
612.787	353.25
612.995	310.25
613.203	314.25
613.411	321.25
613.618	323.25
613.826	331.25
614.034	335.25
614.242	324.25
614.449	328.25
614.657	316.25
614.865	329.25
615.072	327.25
615.28	322.25
615.488	312.25
615.695	332.25
615.903	325.25
616.111	333.25
616.318	334.25
616.526	318.25
616.733	325.25
616.941	322.25
617.148	305.25
617.356	309.25
617.563	325.25
617.771	322.25
617.978	321.25
618.185	329.25
618.393	312.25
618.6	331.25
618.807	320.25
619.015	308.25
619.222	337.25
619.429	338.25
619.637	325.25
619.844	312.25
620.051	323.25
620.258	313.25
620.466	304.25
620.673	277.25
620.88	296.25
621.087	304.25
621.294	288.25
621.501	290.25
621.708	299.25
621.915	302.25
622.122	292.25
622.329	282.25
622.536	313.25
622.743	288.25
622.95	283.25
623.157	291.25
623.364	301.25
623.571	298.25
623.778	301.25
623.985	305.25
624.192	297.25
624.399	291.25
624.606	281.25
624.812	271.25
625.019	297.25
625.226	278.25
625.433	284.25
625.639	277.25
625.846	259.25
626.053	291.25
626.259	289.25
626.466	287.25
626.673	254.25
626.879	295.25
627.086	274.25
627.293	270.25
627.499	278.25
627.706	261.25
627.912	281.25
628.119	281.25
628.325	257.25
628.532	276.25
628.738	267.25
628.945	279.25
629.151	276.25
629.357	265.25
629.564	256.25
629.77	270.25
629.976	252.25
630.183	256.25
630.389	259.25
630.595	254.25
630.802	259.25
631.008	257.25
631.214	260.25
631.42	254.25
631.627	260.25
631.833	235.25
632.039	237.25
632.245	252.25
632.451	236.25
632.657	248.25
632.863	234.25
633.069	243.25
633.275	257.25
633.481	240.25
633.688	246.25
633.893	243.25
634.099	249.25
634.305	237.25
634.511	242.25
634.717	253.25
634.923	258.25
635.129	241.25
635.335	236.25
635.541	247.25
635.747	211.25
635.952	252.25
636.158	238.25
636.364	225.25
636.57	252.25
636.775	242.25
636.981	235.25
637.187	231.25
637.392	240.25
637.598	232.25
637.804	234.25
638.009	233.25
638.215	241.25
638.421	235.25
638.626	227.25
638.832	231.25
639.037	212.25
639.243	223.25
639.448	223.25
639.654	229.25
639.859	216.25
640.065	214.25
640.27	237.25
640.475	213.25
640.681	214.25
640.886	222.25
641.091	233.25
641.297	211.25
641.502	220.25
641.707	233.25
641.913	206.25
642.118	220.25
642.323	229.25
642.528	216.25
642.733	219.25
642.939	237.25
643.144	224.25
643.349	200.25
643.554	210.25
643.759	228.25
643.964	202.25
644.169	210.25
644.374	208.25
644.579	197.25
644.784	223.25
644.989	221.25
645.194	211.25
645.399	198.25
645.604	205.25
645.809	207.25
646.014	227.25
646.219	224.25
646.423	228.25
646.628	231.25
646.833	220.25
647.038	237.25
647.243	211.25
647.447	217.25
647.652	221.25
647.857	219.25
648.062	233.25
648.266	211.25
648.471	225.25
648.676	212.25
648.88	213.25
649.085	205.25
649.289	213.25
649.494	194.25
649.698	204.25
649.903	193.25
650.107	192.25
650.312	212.25
650.516	192.25
650.721	191.25
650.925	194.25
651.13	205.25
651.334	186.25
651.539	196.25
651.743	183.25
651.947	189.25
652.152	193.25
652.356	180.25
652.56	179.25
652.764	194.25
652.969	179.25
653.173	179.25
653.377	166.25
653.581	168.25
653.785	160.25
653.99	173.25
654.194	168.25
654.398	157.25
654.602	180.25
654.806	172.25
655.01	153.25
655.214	168.25
655.418	167.25
655.622	154.25
655.826	156.25
656.03	165.25
656.234	158.25
656.438	154.25
656.642	148.25
656.846	144.25
657.049	146.25
657.253	132.25
657.457	146.25
657.661	154.25
657.865	135.25
658.068	134.25
658.272	123.25
658.476	131.25
658.68	131.25
658.883	133.25
659.087	121.25
659.291	121.25
659.494	125.25
659.698	117.25
659.901	100.25
660.105	106.25
660.309	111.25
660.512	97.25
660.716	108.25
660.919	105.25
661.123	89.25
661.326	96.25
661.53	103.25
661.733	94.25
661.936	104.25
662.14	82.25
662.343	88.25
662.546	90.25
662.75	98.25
662.953	90.25
663.156	75.25
663.36	73.25
663.563	87.25
663.766	84.25
663.969	78.25
664.173	75.25
664.376	79.25
664.579	86.25
664.782	72.25
664.985	76.25
665.188	85.25
665.391	67.25
665.594	85.25
665.797	89.25
666	76.25
666.203	87.25
666.406	80.25
666.609	87.25
666.812	88.25
667.015	68.25
667.218	87.25
667.421	93.25
667.624	63.25
667.827	74.25
668.03	82.25
668.232	86.25
668.435	72.25
668.638	82.25
668.841	91.25
669.043	84.25
669.246	72.25
669.449	82.25
669.651	85.25
669.854	78.25
670.057	84.25
670.259	90.25
670.462	77.25
670.665	91.25
670.867	88.25
671.07	82.25
671.272	76.25
671.475	75.25
671.677	66.25
671.88	86.25
672.082	91.25
672.284	84.25
672.487	94.25
672.689	84.25
672.892	74.25
