Data from Ni(NO3)2Standard.Agarose3%.GreenCap.LampEnergy5.5.E.O_HRD10591_14-40-38-189.txt Node
Date: Mon Jul 22 14:40:38 EDT 2019
User: cochatt
Spectrometer: HR+D1059
Trigger mode: 1
Integration Time (sec): 1.000000E-1
Scans to average: 1
Electric dark correction enabled: true
Nonlinearity correction enabled: false
Boxcar width: 0
XAxis mode: Wavelengths
Number of Pixels in Spectrum: 2048
>>>>>Begin Spectral Data<<<<<
223.165	-12.94
223.4	-12.94
223.635	-12.94
223.869	-16.94
224.104	-29.94
224.338	-18.94
224.573	-0.94
224.808	-8.94
225.042	-13.94
225.277	-16.94
225.511	-12.94
225.746	-1.94
225.98	10.06
226.215	16.06
226.449	8.06
226.683	34.06
226.918	26.06
227.152	40.06
227.387	45.06
227.621	42.06
227.856	55.06
228.09	56.06
228.324	55.06
228.559	61.06
228.793	74.06
229.027	68.06
229.262	71.06
229.496	78.06
229.73	83.06
229.964	72.06
230.199	87.06
230.433	74.06
230.667	86.06
230.901	75.06
231.136	75.06
231.37	85.06
231.604	78.06
231.838	90.06
232.072	84.06
232.306	86.06
232.541	86.06
232.775	76.06
233.009	80.06
233.243	89.06
233.477	82.06
233.711	92.06
233.945	88.06
234.179	84.06
234.413	84.06
234.647	86.06
234.881	77.06
235.115	81.06
235.349	90.06
235.583	77.06
235.817	79.06
236.051	80.06
236.285	81.06
236.519	72.06
236.753	95.06
236.987	89.06
237.221	79.06
237.455	89.06
237.689	86.06
237.922	79.06
238.156	89.06
238.39	63.06
238.624	89.06
238.858	87.06
239.091	85.06
239.325	79.06
239.559	86.06
239.793	65.06
240.027	63.06
240.26	81.06
240.494	78.06
240.728	89.06
240.961	78.06
241.195	73.06
241.429	80.06
241.662	69.06
241.896	72.06
242.13	85.06
242.363	68.06
242.597	86.06
242.83	86.06
243.064	64.06
243.298	94.06
243.531	75.06
243.765	79.06
243.998	76.06
244.232	79.06
244.465	71.06
244.699	80.06
244.932	69.06
245.166	81.06
245.399	72.06
245.633	86.06
245.866	85.06
246.099	78.06
246.333	71.06
246.566	71.06
246.8	82.06
247.033	86.06
247.266	87.06
247.5	76.06
247.733	93.06
247.966	81.06
248.2	85.06
248.433	86.06
248.666	77.06
248.899	78.06
249.133	72.06
249.366	87.06
249.599	80.06
249.832	85.06
250.066	71.06
250.299	80.06
250.532	86.06
250.765	85.06
250.998	90.06
251.231	73.06
251.465	91.06
251.698	79.06
251.931	85.06
252.164	69.06
252.397	69.06
252.63	87.06
252.863	74.06
253.096	86.06
253.329	88.06
253.562	82.06
253.795	84.06
254.028	78.06
254.261	69.06
254.494	84.06
254.727	86.06
254.96	82.06
255.193	84.06
255.426	89.06
255.659	78.06
255.892	91.06
256.124	93.06
256.357	102.06
256.59	86.06
256.823	87.06
257.056	88.06
257.289	94.06
257.521	98.06
257.754	84.06
257.987	79.06
258.22	75.06
258.452	80.06
258.685	85.06
258.918	71.06
259.151	91.06
259.383	85.06
259.616	83.06
259.849	93.06
260.081	91.06
260.314	89.06
260.547	90.06
260.779	96.06
261.012	98.06
261.244	86.06
261.477	91.06
261.71	90.06
261.942	87.06
262.175	74.06
262.407	83.06
262.64	86.06
262.872	77.06
263.105	76.06
263.337	95.06
263.57	88.06
263.802	89.06
264.035	88.06
264.267	81.06
264.499	78.06
264.732	78.06
264.964	87.06
265.197	78.06
265.429	102.06
265.661	89.06
265.894	87.06
266.126	97.06
266.358	91.06
266.591	66.06
266.823	91.06
267.055	72.06
267.287	87.06
267.52	85.06
267.752	86.06
267.984	75.06
268.216	92.06
268.448	90.06
268.681	87.06
268.913	70.06
269.145	81.06
269.377	74.06
269.609	98.06
269.841	78.06
270.073	88.06
270.306	70.06
270.538	77.06
270.77	90.06
271.002	92.06
271.234	84.06
271.466	81.06
271.698	87.06
271.93	73.06
272.162	89.06
272.394	103.06
272.626	92.06
272.858	84.06
273.09	93.06
273.322	84.06
273.553	81.06
273.785	95.06
274.017	75.06
274.249	103.06
274.481	89.06
274.713	91.06
274.945	68.06
275.176	79.06
275.408	82.06
275.64	80.06
275.872	87.06
276.104	95.06
276.335	77.06
276.567	89.06
276.799	85.06
277.031	77.06
277.262	94.06
277.494	80.06
277.726	87.06
277.957	81.06
278.189	91.06
278.421	88.06
278.652	79.06
278.884	89.06
279.115	81.06
279.347	89.06
279.579	83.06
279.81	80.06
280.042	95.06
280.273	99.06
280.505	77.06
280.736	80.06
280.968	80.06
281.199	69.06
281.431	90.06
281.662	72.06
281.894	91.06
282.125	72.06
282.356	85.06
282.588	85.06
282.819	83.06
283.051	83.06
283.282	71.06
283.513	96.06
283.745	73.06
283.976	86.06
284.207	78.06
284.439	90.06
284.67	86.06
284.901	77.06
285.132	79.06
285.364	91.06
285.595	79.06
285.826	93.06
286.057	83.06
286.288	81.06
286.52	80.06
286.751	94.06
286.982	86.06
287.213	79.06
287.444	90.06
287.675	91.06
287.906	95.06
288.138	85.06
288.369	100.06
288.6	87.06
288.831	86.06
289.062	92.06
289.293	85.06
289.524	85.06
289.755	83.06
289.986	91.06
290.217	88.06
290.448	88.06
290.679	88.06
290.91	87.06
291.141	90.06
291.371	96.06
291.602	83.06
291.833	83.06
292.064	79.06
292.295	110.06
292.526	94.06
292.757	99.06
292.987	92.06
293.218	101.06
293.449	92.06
293.68	87.06
293.91	90.06
294.141	79.06
294.372	85.06
294.603	90.06
294.833	95.06
295.064	85.06
295.295	90.06
295.525	86.06
295.756	72.06
295.987	88.06
296.217	93.06
296.448	88.06
296.679	84.06
296.909	84.06
297.14	94.06
297.37	86.06
297.601	89.06
297.831	75.06
298.062	95.06
298.292	82.06
298.523	90.06
298.753	79.06
298.984	78.06
299.214	90.06
299.445	95.06
299.675	93.06
299.905	81.06
300.136	91.06
300.366	91.06
300.597	80.06
300.827	91.06
301.057	90.06
301.288	98.06
301.518	83.06
301.748	84.06
301.979	91.06
302.209	97.06
302.439	97.06
302.669	87.06
302.9	107.06
303.13	98.06
303.36	79.06
303.59	84.06
303.82	87.06
304.051	91.06
304.281	90.06
304.511	100.06
304.741	98.06
304.971	91.06
305.201	90.06
305.431	89.06
305.661	68.06
305.891	84.06
306.121	89.06
306.352	96.06
306.582	86.06
306.812	84.06
307.042	90.06
307.272	84.06
307.502	86.06
307.731	88.06
307.961	81.06
308.191	89.06
308.421	107.06
308.651	83.06
308.881	97.06
309.111	80.06
309.341	94.06
309.571	95.06
309.8	93.06
310.03	108.06
310.26	73.06
310.49	94.06
310.72	81.06
310.949	88.06
311.179	93.06
311.409	74.06
311.639	86.06
311.868	94.06
312.098	79.06
312.328	87.06
312.557	91.06
312.787	88.06
313.017	94.06
313.246	84.06
313.476	86.06
313.706	89.06
313.935	96.06
314.165	84.06
314.394	94.06
314.624	89.06
314.853	91.06
315.083	89.06
315.312	100.06
315.542	83.06
315.771	91.06
316.001	87.06
316.23	79.06
316.46	70.06
316.689	104.06
316.919	96.06
317.148	78.06
317.377	86.06
317.607	86.06
317.836	87.06
318.065	78.06
318.295	88.06
318.524	88.06
318.753	100.06
318.983	88.06
319.212	95.06
319.441	83.06
319.67	81.06
319.9	90.06
320.129	96.06
320.358	89.06
320.587	84.06
320.816	94.06
321.046	75.06
321.275	94.06
321.504	94.06
321.733	101.06
321.962	88.06
322.191	84.06
322.42	87.06
322.649	85.06
322.878	79.06
323.108	91.06
323.337	98.06
323.566	100.06
323.795	81.06
324.024	67.06
324.253	77.06
324.482	72.06
324.71	93.06
324.939	92.06
325.168	89.06
325.397	91.06
325.626	80.06
325.855	88.06
326.084	92.06
326.313	85.06
326.542	88.06
326.77	99.06
326.999	79.06
327.228	88.06
327.457	83.06
327.686	95.06
327.914	72.06
328.143	105.06
328.372	100.06
328.6	96.06
328.829	92.06
329.058	87.06
329.287	94.06
329.515	101.06
329.744	83.06
329.972	76.06
330.201	76.06
330.43	99.06
330.658	88.06
330.887	86.06
331.115	99.06
331.344	98.06
331.572	101.06
331.801	88.06
332.03	98.06
332.258	90.06
332.486	90.06
332.715	91.06
332.943	91.06
333.172	84.06
333.4	90.06
333.629	86.06
333.857	95.06
334.085	93.06
334.314	98.06
334.542	88.06
334.771	89.06
334.999	103.06
335.227	95.06
335.455	105.06
335.684	82.06
335.912	103.06
336.14	89.06
336.369	94.06
336.597	89.06
336.825	80.06
337.053	90.06
337.281	84.06
337.51	80.06
337.738	92.06
337.966	86.06
338.194	89.06
338.422	90.06
338.65	96.06
338.878	98.06
339.106	83.06
339.334	89.06
339.562	79.06
339.79	95.06
340.018	84.06
340.246	77.06
340.474	86.06
340.702	82.06
340.93	91.06
341.158	77.06
341.386	78.06
341.614	77.06
341.842	86.06
342.07	94.06
342.298	85.06
342.526	94.06
342.754	94.06
342.981	95.06
343.209	92.06
343.437	98.06
343.665	81.06
343.893	91.06
344.12	95.06
344.348	90.06
344.576	79.06
344.804	79.06
345.031	87.06
345.259	94.06
345.487	92.06
345.714	88.06
345.942	72.06
346.17	91.06
346.397	91.06
346.625	87.06
346.853	87.06
347.08	79.06
347.308	94.06
347.535	94.06
347.763	79.06
347.99	96.06
348.218	94.06
348.445	77.06
348.673	99.06
348.9	91.06
349.128	86.06
349.355	95.06
349.583	87.06
349.81	84.06
350.037	87.06
350.265	94.06
350.492	79.06
350.72	73.06
350.947	95.06
351.174	91.06
351.402	98.06
351.629	87.06
351.856	90.06
352.083	83.06
352.311	79.06
352.538	82.06
352.765	95.06
352.992	92.06
353.22	95.06
353.447	94.06
353.674	102.06
353.901	89.06
354.128	90.06
354.355	85.06
354.583	99.06
354.81	81.06
355.037	79.06
355.264	90.06
355.491	93.06
355.718	96.06
355.945	95.06
356.172	102.06
356.399	91.06
356.626	87.06
356.853	93.06
357.08	96.06
357.307	95.06
357.534	98.06
357.761	80.06
357.988	83.06
358.215	91.06
358.441	87.06
358.668	94.06
358.895	101.06
359.122	93.06
359.349	79.06
359.576	85.06
359.802	103.06
360.029	88.06
360.256	80.06
360.483	80.06
360.709	93.06
360.936	95.06
361.163	85.06
361.39	93.06
361.616	93.06
361.843	95.06
362.07	77.06
362.296	87.06
362.523	74.06
362.749	92.06
362.976	91.06
363.203	95.06
363.429	89.06
363.656	88.06
363.882	92.06
364.109	100.06
364.335	92.06
364.562	86.06
364.788	92.06
365.015	91.06
365.241	82.06
365.468	85.06
365.694	79.06
365.92	85.06
366.147	82.06
366.373	80.06
366.599	98.06
366.826	75.06
367.052	81.06
367.278	93.06
367.505	77.06
367.731	83.06
367.957	84.06
368.184	105.06
368.41	86.06
368.636	84.06
368.862	79.06
369.089	77.06
369.315	88.06
369.541	81.06
369.767	92.06
369.993	100.06
370.219	87.06
370.445	86.06
370.672	76.06
370.898	80.06
371.124	94.06
371.35	83.06
371.576	83.06
371.802	83.06
372.028	87.06
372.254	85.06
372.48	80.06
372.706	100.06
372.932	97.06
373.158	82.06
373.384	106.06
373.61	101.06
373.835	78.06
374.061	84.06
374.287	79.06
374.513	82.06
374.739	82.06
374.965	81.06
375.191	99.06
375.416	96.06
375.642	93.06
375.868	91.06
376.094	77.06
376.319	89.06
376.545	84.06
376.771	88.06
376.997	94.06
377.222	86.06
377.448	87.06
377.674	100.06
377.899	88.06
378.125	81.06
378.35	92.06
378.576	80.06
378.802	78.06
379.027	85.06
379.253	96.06
379.478	73.06
379.704	89.06
379.929	83.06
380.155	74.06
380.38	91.06
380.606	88.06
380.831	102.06
381.057	85.06
381.282	78.06
381.507	84.06
381.733	87.06
381.958	87.06
382.184	83.06
382.409	94.06
382.634	86.06
382.86	78.06
383.085	90.06
383.31	91.06
383.535	86.06
383.761	91.06
383.986	94.06
384.211	93.06
384.436	74.06
384.662	87.06
384.887	98.06
385.112	94.06
385.337	100.06
385.562	100.06
385.787	94.06
386.013	90.06
386.238	92.06
386.463	84.06
386.688	82.06
386.913	82.06
387.138	93.06
387.363	101.06
387.588	92.06
387.813	94.06
388.038	85.06
388.263	82.06
388.488	91.06
388.713	86.06
388.938	89.06
389.163	90.06
389.387	78.06
389.612	87.06
389.837	73.06
390.062	80.06
390.287	90.06
390.512	91.06
390.736	76.06
390.961	91.06
391.186	80.06
391.411	95.06
391.636	96.06
391.86	92.06
392.085	86.06
392.31	97.06
392.534	88.06
392.759	91.06
392.984	84.06
393.208	93.06
393.433	76.06
393.658	85.06
393.882	84.06
394.107	88.06
394.331	88.06
394.556	90.06
394.78	79.06
395.005	74.06
395.229	75.06
395.454	94.06
395.678	92.06
395.903	100.06
396.127	78.06
396.352	95.06
396.576	94.06
396.801	84.06
397.025	101.06
397.249	85.06
397.474	88.06
397.698	71.06
397.922	91.06
398.147	87.06
398.371	93.06
398.595	88.06
398.82	92.06
399.044	90.06
399.268	91.06
399.492	95.06
399.717	92.06
399.941	89.06
400.165	99.06
400.389	103.06
400.613	91.06
400.837	86.06
401.062	85.06
401.286	83.06
401.51	100.06
401.734	84.06
401.958	83.06
402.182	86.06
402.406	75.06
402.63	77.06
402.854	95.06
403.078	78.06
403.302	100.06
403.526	99.06
403.75	89.06
403.974	93.06
404.198	94.06
404.422	86.06
404.645	87.06
404.869	79.06
405.093	90.06
405.317	74.06
405.541	90.06
405.765	92.06
405.988	97.06
406.212	80.06
406.436	74.06
406.66	98.06
406.883	87.06
407.107	75.06
407.331	87.06
407.555	95.06
407.778	84.06
408.002	90.06
408.226	76.06
408.449	90.06
408.673	78.06
408.896	83.06
409.12	93.06
409.344	94.06
409.567	96.06
409.791	91.06
410.014	84.06
410.238	80.06
410.461	101.06
410.685	101.06
410.908	93.06
411.132	92.06
411.355	100.06
411.578	95.06
411.802	87.06
412.025	94.06
412.249	93.06
412.472	82.06
412.695	93.06
412.919	92.06
413.142	74.06
413.365	81.06
413.589	103.06
413.812	89.06
414.035	78.06
414.258	88.06
414.482	97.06
414.705	99.06
414.928	80.06
415.151	88.06
415.374	99.06
415.597	98.06
415.821	87.06
416.044	99.06
416.267	87.06
416.49	94.06
416.713	90.06
416.936	72.06
417.159	84.06
417.382	98.06
417.605	90.06
417.828	96.06
418.051	89.06
418.274	103.06
418.497	82.06
418.72	88.06
418.943	86.06
419.166	100.06
419.389	90.06
419.611	94.06
419.834	87.06
420.057	85.06
420.28	108.06
420.503	94.06
420.726	79.06
420.948	74.06
421.171	85.06
421.394	85.06
421.617	87.06
421.839	93.06
422.062	76.06
422.285	72.06
422.507	90.06
422.73	93.06
422.953	87.06
423.175	96.06
423.398	90.06
423.621	91.06
423.843	82.06
424.066	89.06
424.288	86.06
424.511	85.06
424.733	101.06
424.956	88.06
425.178	86.06
425.401	88.06
425.623	85.06
425.846	97.06
426.068	96.06
426.291	90.06
426.513	75.06
426.735	80.06
426.958	90.06
427.18	91.06
427.402	97.06
427.625	84.06
427.847	91.06
428.069	77.06
428.292	85.06
428.514	93.06
428.736	85.06
428.958	80.06
429.181	83.06
429.403	84.06
429.625	103.06
429.847	102.06
430.069	89.06
430.292	84.06
430.514	93.06
430.736	92.06
430.958	90.06
431.18	65.06
431.402	77.06
431.624	95.06
431.846	75.06
432.068	85.06
432.29	93.06
432.512	86.06
432.734	81.06
432.956	84.06
433.178	102.06
433.4	96.06
433.622	91.06
433.844	100.06
434.066	93.06
434.287	90.06
434.509	76.06
434.731	80.06
434.953	102.06
435.175	103.06
435.397	81.06
435.618	84.06
435.84	87.06
436.062	92.06
436.284	93.06
436.505	89.06
436.727	95.06
436.949	95.06
437.17	92.06
437.392	103.06
437.614	77.06
437.835	90.06
438.057	94.06
438.278	93.06
438.5	82.06
438.721	97.06
438.943	85.06
439.165	104.06
439.386	87.06
439.608	93.06
439.829	83.06
440.05	84.06
440.272	87.06
440.493	95.06
440.715	77.06
440.936	92.06
441.158	96.06
441.379	78.06
441.6	96.06
441.822	103.06
442.043	80.06
442.264	90.06
442.486	86.06
442.707	85.06
442.928	86.06
443.149	92.06
443.371	84.06
443.592	97.06
443.813	78.06
444.034	101.06
444.255	91.06
444.476	91.06
444.698	95.06
444.919	91.06
445.14	200.06
445.361	142.06
445.582	96.06
445.803	89.06
446.024	86.06
446.245	97.06
446.466	83.06
446.687	86.06
446.908	92.06
447.129	93.06
447.35	95.06
447.571	86.06
447.792	88.06
448.013	85.06
448.234	81.06
448.455	85.06
448.675	90.06
448.896	80.06
449.117	82.06
449.338	95.06
449.559	83.06
449.779	85.06
450	86.06
450.221	83.06
450.442	79.06
450.662	99.06
450.883	94.06
451.104	99.06
451.324	76.06
451.545	91.06
451.766	101.06
451.986	83.06
452.207	93.06
452.428	80.06
452.648	91.06
452.869	80.06
453.089	89.06
453.31	98.06
453.53	78.06
453.751	96.06
453.971	77.06
454.192	79.06
454.412	93.06
454.633	88.06
454.853	87.06
455.073	100.06
455.294	80.06
455.514	98.06
455.734	81.06
455.955	82.06
456.175	92.06
456.395	90.06
456.616	88.06
456.836	68.06
457.056	97.06
457.276	85.06
457.497	92.06
457.717	87.06
457.937	94.06
458.157	85.06
458.377	93.06
458.598	81.06
458.818	83.06
459.038	88.06
459.258	81.06
459.478	90.06
459.698	94.06
459.918	92.06
460.138	82.06
460.358	101.06
460.578	94.06
460.798	87.06
461.018	91.06
461.238	86.06
461.458	90.06
461.678	83.06
461.898	99.06
462.118	92.06
462.338	96.06
462.558	107.06
462.777	89.06
462.997	93.06
463.217	99.06
463.437	107.06
463.657	92.06
463.876	102.06
464.096	79.06
464.316	94.06
464.536	78.06
464.755	87.06
464.975	96.06
465.195	94.06
465.414	88.06
465.634	84.06
465.854	95.06
466.073	94.06
466.293	116.06
466.512	90.06
466.732	88.06
466.951	105.06
467.171	85.06
467.391	97.06
467.61	80.06
467.829	98.06
468.049	95.06
468.268	89.06
468.488	102.06
468.707	86.06
468.927	98.06
469.146	95.06
469.365	93.06
469.585	90.06
469.804	82.06
470.023	95.06
470.243	98.06
470.462	94.06
470.681	85.06
470.901	106.06
471.12	98.06
471.339	89.06
471.558	85.06
471.777	98.06
471.997	83.06
472.216	100.06
472.435	95.06
472.654	78.06
472.873	103.06
473.092	93.06
473.311	104.06
473.53	100.06
473.749	87.06
473.968	99.06
474.187	96.06
474.406	107.06
474.625	94.06
474.844	92.06
475.063	82.06
475.282	80.06
475.501	95.06
475.72	90.06
475.939	85.06
476.158	78.06
476.377	103.06
476.596	90.06
476.814	87.06
477.033	84.06
477.252	93.06
477.471	99.06
477.69	94.06
477.908	86.06
478.127	110.06
478.346	89.06
478.564	105.06
478.783	95.06
479.002	95.06
479.22	76.06
479.439	86.06
479.658	80.06
479.876	102.06
480.095	89.06
480.313	90.06
480.532	103.06
480.751	93.06
480.969	79.06
481.188	85.06
481.406	86.06
481.624	91.06
481.843	102.06
482.061	97.06
482.28	88.06
482.498	95.06
482.717	93.06
482.935	84.06
483.153	94.06
483.372	86.06
483.59	99.06
483.808	104.06
484.027	88.06
484.245	93.06
484.463	83.06
484.681	84.06
484.9	93.06
485.118	97.06
485.336	107.06
485.554	88.06
485.772	106.06
485.99	83.06
486.209	98.06
486.427	100.06
486.645	86.06
486.863	104.06
487.081	89.06
487.299	86.06
487.517	97.06
487.735	93.06
487.953	109.06
488.171	96.06
488.389	88.06
488.607	103.06
488.825	104.06
489.043	95.06
489.261	83.06
489.479	91.06
489.696	96.06
489.914	83.06
490.132	103.06
490.35	97.06
490.568	93.06
490.786	110.06
491.003	102.06
491.221	90.06
491.439	101.06
491.657	92.06
491.874	99.06
492.092	101.06
492.31	106.06
492.527	111.06
492.745	108.06
492.963	106.06
493.18	98.06
493.398	107.06
493.615	101.06
493.833	110.06
494.05	92.06
494.268	107.06
494.485	88.06
494.703	92.06
494.92	115.06
495.138	92.06
495.355	100.06
495.573	107.06
495.79	100.06
496.008	109.06
496.225	107.06
496.442	110.06
496.66	93.06
496.877	112.06
497.094	103.06
497.312	99.06
497.529	105.06
497.746	94.06
497.963	100.06
498.181	104.06
498.398	114.06
498.615	106.06
498.832	102.06
499.049	111.06
499.267	107.06
499.484	100.06
499.701	100.06
499.918	108.06
500.135	111.06
500.352	89.06
500.569	108.06
500.786	119.06
501.003	112.06
501.22	111.06
501.437	123.06
501.654	93.06
501.871	112.06
502.088	94.06
502.305	95.06
502.522	109.06
502.739	81.06
502.956	99.06
503.172	103.06
503.389	103.06
503.606	106.06
503.823	104.06
504.04	103.06
504.256	97.06
504.473	104.06
504.69	115.06
504.907	99.06
505.123	91.06
505.34	86.06
505.557	92.06
505.773	105.06
505.99	94.06
506.207	83.06
506.423	96.06
506.64	108.06
506.856	87.06
507.073	102.06
507.289	102.06
507.506	95.06
507.722	92.06
507.939	106.06
508.155	80.06
508.372	90.06
508.588	89.06
508.805	96.06
509.021	95.06
509.238	91.06
509.454	83.06
509.67	94.06
509.887	91.06
510.103	100.06
510.319	113.06
510.536	107.06
510.752	98.06
510.968	100.06
511.184	97.06
511.401	106.06
511.617	84.06
511.833	93.06
512.049	91.06
512.265	85.06
512.481	84.06
512.698	96.06
512.914	89.06
513.13	93.06
513.346	88.06
513.562	99.06
513.778	101.06
513.994	98.06
514.21	91.06
514.426	99.06
514.642	100.06
514.858	95.06
515.074	95.06
515.29	98.06
515.506	102.06
515.721	90.06
515.937	98.06
516.153	98.06
516.369	92.06
516.585	103.06
516.801	73.06
517.016	105.06
517.232	88.06
517.448	102.06
517.664	95.06
517.879	97.06
518.095	122.06
518.311	91.06
518.527	84.06
518.742	108.06
518.958	95.06
519.173	95.06
519.389	92.06
519.605	109.06
519.82	106.06
520.036	98.06
520.251	90.06
520.467	107.06
520.682	95.06
520.898	99.06
521.113	104.06
521.329	93.06
521.544	92.06
521.76	83.06
521.975	103.06
522.19	103.06
522.406	87.06
522.621	93.06
522.836	104.06
523.052	97.06
523.267	79.06
523.482	98.06
523.698	98.06
523.913	94.06
524.128	98.06
524.343	89.06
524.559	88.06
524.774	88.06
524.989	91.06
525.204	91.06
525.419	97.06
525.634	91.06
525.849	89.06
526.064	109.06
526.28	100.06
526.495	91.06
526.71	100.06
526.925	102.06
527.14	100.06
527.355	103.06
527.57	99.06
527.785	97.06
527.999	88.06
528.214	105.06
528.429	101.06
528.644	107.06
528.859	90.06
529.074	82.06
529.289	108.06
529.503	100.06
529.718	91.06
529.933	111.06
530.148	103.06
530.363	91.06
530.577	94.06
530.792	91.06
531.007	99.06
531.221	105.06
531.436	96.06
531.651	98.06
531.865	89.06
532.08	99.06
532.295	112.06
532.509	110.06
532.724	107.06
532.938	91.06
533.153	102.06
533.367	80.06
533.582	106.06
533.796	104.06
534.011	98.06
534.225	86.06
534.44	105.06
534.654	88.06
534.868	98.06
535.083	88.06
535.297	85.06
535.511	104.06
535.726	97.06
535.94	100.06
536.154	90.06
536.369	84.06
536.583	86.06
536.797	90.06
537.011	97.06
537.225	95.06
537.44	83.06
537.654	94.06
537.868	96.06
538.082	92.06
538.296	93.06
538.51	84.06
538.724	93.06
538.938	109.06
539.153	101.06
539.367	98.06
539.581	112.06
539.795	102.06
540.009	80.06
540.222	98.06
540.436	84.06
540.65	91.06
540.864	80.06
541.078	94.06
541.292	97.06
541.506	93.06
541.72	93.06
541.934	93.06
542.147	91.06
542.361	83.06
542.575	86.06
542.789	103.06
543.002	99.06
543.216	95.06
543.43	93.06
543.644	106.06
543.857	102.06
544.071	84.06
544.285	100.06
544.498	86.06
544.712	98.06
544.925	76.06
545.139	92.06
545.352	100.06
545.566	99.06
545.779	88.06
545.993	99.06
546.206	92.06
546.42	101.06
546.633	90.06
546.847	96.06
547.06	77.06
547.274	86.06
547.487	111.06
547.7	86.06
547.914	89.06
548.127	98.06
548.34	85.06
548.554	102.06
548.767	86.06
548.98	85.06
549.193	93.06
549.407	106.06
549.62	84.06
549.833	96.06
550.046	96.06
550.259	88.06
550.473	93.06
550.686	102.06
550.899	101.06
551.112	86.06
551.325	104.06
551.538	87.06
551.751	84.06
551.964	94.06
552.177	92.06
552.39	82.06
552.603	71.06
552.816	100.06
553.029	104.06
553.242	100.06
553.455	85.06
553.667	93.06
553.88	98.06
554.093	81.06
554.306	100.06
554.519	94.06
554.732	90.06
554.944	98.06
555.157	96.06
555.37	97.06
555.583	97.06
555.795	81.06
556.008	85.06
556.221	90.06
556.433	88.06
556.646	100.06
556.859	91.06
557.071	74.06
557.284	84.06
557.496	94.06
557.709	100.06
557.921	84.06
558.134	93.06
558.346	99.06
558.559	108.06
558.771	86.06
558.984	80.06
559.196	99.06
559.409	75.06
559.621	78.06
559.833	90.06
560.046	103.06
560.258	91.06
560.47	89.06
560.683	102.06
560.895	86.06
561.107	83.06
561.32	79.06
561.532	86.06
561.744	91.06
561.956	78.06
562.168	85.06
562.381	82.06
562.593	78.06
562.805	92.06
563.017	95.06
563.229	92.06
563.441	100.06
563.653	84.06
563.865	91.06
564.077	101.06
564.289	86.06
564.501	90.06
564.713	98.06
564.925	88.06
565.137	71.06
565.349	95.06
565.561	79.06
565.773	97.06
565.985	90.06
566.197	87.06
566.408	68.06
566.62	82.06
566.832	89.06
567.044	85.06
567.255	95.06
567.467	93.06
567.679	114.06
567.891	94.06
568.102	87.06
568.314	89.06
568.526	102.06
568.737	84.06
568.949	82.06
569.161	87.06
569.372	82.06
569.584	97.06
569.795	90.06
570.007	88.06
570.218	97.06
570.43	88.06
570.641	83.06
570.853	91.06
571.064	99.06
571.276	108.06
571.487	83.06
571.698	87.06
571.91	85.06
572.121	91.06
572.333	83.06
572.544	79.06
572.755	72.06
572.966	83.06
573.178	92.06
573.389	79.06
573.6	87.06
573.811	85.06
574.023	79.06
574.234	96.06
574.445	100.06
574.656	96.06
574.867	87.06
575.078	80.06
575.289	89.06
575.501	91.06
575.712	94.06
575.923	95.06
576.134	100.06
576.345	80.06
576.556	74.06
576.767	90.06
576.978	84.06
577.188	88.06
577.399	98.06
577.61	101.06
577.821	87.06
578.032	85.06
578.243	96.06
578.454	100.06
578.665	95.06
578.875	80.06
579.086	92.06
579.297	100.06
579.508	98.06
579.718	76.06
579.929	98.06
580.14	97.06
580.35	84.06
580.561	86.06
580.772	87.06
580.982	88.06
581.193	71.06
581.403	86.06
581.614	86.06
581.825	90.06
582.035	84.06
582.246	72.06
582.456	99.06
582.667	89.06
582.877	84.06
583.087	82.06
583.298	100.06
583.508	89.06
583.719	90.06
583.929	101.06
584.139	98.06
584.35	98.06
584.56	87.06
584.77	94.06
584.981	92.06
585.191	102.06
585.401	77.06
585.611	93.06
585.821	87.06
586.032	92.06
586.242	75.06
586.452	84.06
586.662	98.06
586.872	86.06
587.082	99.06
587.292	95.06
587.502	94.06
587.713	90.06
587.923	92.06
588.133	95.06
588.343	83.06
588.553	92.06
588.762	97.06
588.972	93.06
589.182	79.06
589.392	82.06
589.602	92.06
589.812	88.06
590.022	84.06
590.232	79.06
590.441	90.06
590.651	79.06
590.861	90.06
591.071	90.06
591.281	79.06
591.49	85.06
591.7	102.06
591.91	69.06
592.119	91.06
592.329	83.06
592.539	94.06
592.748	95.06
592.958	95.06
593.167	86.06
593.377	99.06
593.587	85.06
593.796	92.06
594.006	99.06
594.215	95.06
594.424	95.06
594.634	99.06
594.843	84.06
595.053	82.06
595.262	99.06
595.472	90.06
595.681	93.06
595.89	81.06
596.1	88.06
596.309	76.06
596.518	90.06
596.727	90.06
596.937	82.06
597.146	85.06
597.355	85.06
597.564	103.06
597.774	85.06
597.983	93.06
598.192	87.06
598.401	80.06
598.61	78.06
598.819	80.06
599.028	93.06
599.237	80.06
599.446	98.06
599.655	98.06
599.864	95.06
600.073	96.06
600.282	89.06
600.491	82.06
600.7	75.06
600.909	84.06
601.118	97.06
601.327	96.06
601.536	90.06
601.745	83.06
601.953	82.06
602.162	93.06
602.371	93.06
602.58	80.06
602.789	90.06
602.997	83.06
603.206	98.06
603.415	90.06
603.623	97.06
603.832	83.06
604.041	83.06
604.249	83.06
604.458	92.06
604.666	83.06
604.875	78.06
605.084	89.06
605.292	93.06
605.501	91.06
605.709	90.06
605.918	78.06
606.126	82.06
606.334	83.06
606.543	81.06
606.751	88.06
606.96	91.06
607.168	89.06
607.376	84.06
607.585	94.06
607.793	96.06
608.001	85.06
608.21	87.06
608.418	81.06
608.626	86.06
608.834	81.06
609.043	91.06
609.251	73.06
609.459	83.06
609.667	89.06
609.875	86.06
610.083	94.06
610.291	75.06
610.499	94.06
610.707	95.06
610.916	88.06
611.124	89.06
611.332	86.06
611.54	90.06
611.748	81.06
611.955	79.06
612.163	91.06
612.371	86.06
612.579	87.06
612.787	80.06
612.995	88.06
613.203	89.06
613.411	72.06
613.618	108.06
613.826	78.06
614.034	87.06
614.242	83.06
614.449	91.06
614.657	80.06
614.865	93.06
615.072	79.06
615.28	77.06
615.488	79.06
615.695	79.06
615.903	77.06
616.111	83.06
616.318	94.06
616.526	78.06
616.733	84.06
616.941	76.06
617.148	66.06
617.356	94.06
617.563	74.06
617.771	86.06
617.978	91.06
618.185	94.06
618.393	98.06
618.6	91.06
618.807	85.06
619.015	91.06
619.222	91.06
619.429	81.06
619.637	91.06
619.844	79.06
620.051	89.06
620.258	79.06
620.466	92.06
620.673	82.06
620.88	78.06
621.087	86.06
621.294	89.06
621.501	91.06
621.708	86.06
621.915	83.06
622.122	82.06
622.329	85.06
622.536	87.06
622.743	90.06
622.95	77.06
623.157	86.06
623.364	68.06
623.571	85.06
623.778	77.06
623.985	81.06
624.192	83.06
624.399	87.06
624.606	88.06
624.812	92.06
625.019	71.06
625.226	82.06
625.433	102.06
625.639	79.06
625.846	72.06
626.053	86.06
626.259	103.06
626.466	91.06
626.673	92.06
626.879	97.06
627.086	88.06
627.293	101.06
627.499	86.06
627.706	90.06
627.912	91.06
628.119	84.06
628.325	91.06
628.532	104.06
628.738	75.06
628.945	84.06
629.151	76.06
629.357	79.06
629.564	95.06
629.77	90.06
629.976	88.06
630.183	63.06
630.389	93.06
630.595	81.06
630.802	94.06
631.008	77.06
631.214	89.06
631.42	88.06
631.627	80.06
631.833	84.06
632.039	82.06
632.245	80.06
632.451	90.06
632.657	73.06
632.863	76.06
633.069	75.06
633.275	96.06
633.481	77.06
633.688	84.06
633.893	96.06
634.099	90.06
634.305	83.06
634.511	88.06
634.717	88.06
634.923	85.06
635.129	88.06
635.335	89.06
635.541	85.06
635.747	91.06
635.952	74.06
636.158	87.06
636.364	93.06
636.57	83.06
636.775	86.06
636.981	77.06
637.187	84.06
637.392	88.06
637.598	93.06
637.804	101.06
638.009	75.06
638.215	76.06
638.421	91.06
638.626	80.06
638.832	98.06
639.037	95.06
639.243	88.06
639.448	95.06
639.654	83.06
639.859	88.06
640.065	79.06
640.27	93.06
640.475	76.06
640.681	88.06
640.886	68.06
641.091	63.06
641.297	84.06
641.502	79.06
641.707	103.06
641.913	89.06
642.118	78.06
642.323	83.06
642.528	91.06
642.733	92.06
642.939	94.06
643.144	69.06
643.349	80.06
643.554	84.06
643.759	93.06
643.964	90.06
644.169	92.06
644.374	91.06
644.579	81.06
644.784	75.06
644.989	59.06
645.194	80.06
645.399	101.06
645.604	76.06
645.809	72.06
646.014	86.06
646.219	81.06
646.423	99.06
646.628	84.06
646.833	87.06
647.038	85.06
647.243	93.06
647.447	91.06
647.652	84.06
647.857	94.06
648.062	96.06
648.266	74.06
648.471	84.06
648.676	83.06
648.88	85.06
649.085	86.06
649.289	87.06
649.494	83.06
649.698	81.06
649.903	73.06
650.107	82.06
650.312	83.06
650.516	83.06
650.721	86.06
650.925	81.06
651.13	69.06
651.334	91.06
651.539	81.06
651.743	87.06
651.947	70.06
652.152	86.06
652.356	92.06
652.56	92.06
652.764	91.06
652.969	79.06
653.173	80.06
653.377	72.06
653.581	78.06
653.785	84.06
653.99	92.06
654.194	79.06
654.398	92.06
654.602	82.06
654.806	74.06
655.01	79.06
655.214	93.06
655.418	79.06
655.622	82.06
655.826	77.06
656.03	88.06
656.234	81.06
656.438	93.06
656.642	83.06
656.846	80.06
657.049	79.06
657.253	96.06
657.457	80.06
657.661	87.06
657.865	91.06
658.068	80.06
658.272	80.06
658.476	76.06
658.68	98.06
658.883	66.06
659.087	87.06
659.291	69.06
659.494	74.06
659.698	99.06
659.901	82.06
660.105	89.06
660.309	92.06
660.512	80.06
660.716	88.06
660.919	83.06
661.123	77.06
661.326	77.06
661.53	84.06
661.733	77.06
661.936	99.06
662.14	92.06
662.343	102.06
662.546	98.06
662.75	84.06
662.953	87.06
663.156	76.06
663.36	77.06
663.563	70.06
663.766	82.06
663.969	92.06
664.173	87.06
664.376	88.06
664.579	71.06
664.782	75.06
664.985	92.06
665.188	90.06
665.391	79.06
665.594	78.06
665.797	76.06
666	85.06
666.203	86.06
666.406	86.06
666.609	83.06
666.812	79.06
667.015	86.06
667.218	83.06
667.421	78.06
667.624	86.06
667.827	77.06
668.03	75.06
668.232	74.06
668.435	94.06
668.638	86.06
668.841	87.06
669.043	79.06
669.246	109.06
669.449	99.06
669.651	77.06
669.854	90.06
670.057	80.06
670.259	73.06
670.462	83.06
670.665	83.06
670.867	89.06
671.07	76.06
671.272	84.06
671.475	92.06
671.677	77.06
671.88	95.06
672.082	69.06
672.284	80.06
672.487	73.06
672.689	71.06
672.892	88.06
