Data from Ni(NO3)2@0.0625M.TitratingCurve.Agarose3%dH2O.NegLispCup.LampEnergy10.LIBS07252019_HRD10591_18-15-22-569.txt Node
Date: Thu Jul 25 18:15:22 EDT 2019
User: cochatt
Spectrometer: HR+D1059
Trigger mode: 1
Integration Time (sec): 1.000000E-1
Scans to average: 1
Electric dark correction enabled: true
Nonlinearity correction enabled: false
Boxcar width: 0
XAxis mode: Wavelengths
Number of Pixels in Spectrum: 2048
>>>>>Begin Spectral Data<<<<<
223.165	-25.44
223.4	-25.44
223.635	-25.44
223.869	-9.44
224.104	-21.44
224.338	-16.44
224.573	-7.44
224.808	-15.44
225.042	0.56
225.277	-10.44
225.511	-14.44
225.746	1.56
225.98	12.56
226.215	18.56
226.449	12.56
226.683	16.56
226.918	32.56
227.152	25.56
227.387	48.56
227.621	36.56
227.856	56.56
228.09	64.56
228.324	41.56
228.559	56.56
228.793	75.56
229.027	103.56
229.262	114.56
229.496	116.56
229.73	112.56
229.964	135.56
230.199	131.56
230.433	125.56
230.667	107.56
230.901	133.56
231.136	126.56
231.37	134.56
231.604	132.56
231.838	135.56
232.072	129.56
232.306	149.56
232.541	139.56
232.775	148.56
233.009	151.56
233.243	152.56
233.477	142.56
233.711	159.56
233.945	142.56
234.179	143.56
234.413	145.56
234.647	148.56
234.881	137.56
235.115	148.56
235.349	156.56
235.583	155.56
235.817	161.56
236.051	151.56
236.285	151.56
236.519	176.56
236.753	162.56
236.987	167.56
237.221	176.56
237.455	158.56
237.689	167.56
237.922	180.56
238.156	158.56
238.39	157.56
238.624	168.56
238.858	166.56
239.091	178.56
239.325	167.56
239.559	168.56
239.793	175.56
240.027	173.56
240.26	166.56
240.494	180.56
240.728	183.56
240.961	197.56
241.195	188.56
241.429	188.56
241.662	174.56
241.896	184.56
242.13	181.56
242.363	187.56
242.597	195.56
242.83	201.56
243.064	197.56
243.298	216.56
243.531	197.56
243.765	198.56
243.998	206.56
244.232	200.56
244.465	209.56
244.699	219.56
244.932	208.56
245.166	235.56
245.399	198.56
245.633	219.56
245.866	229.56
246.099	212.56
246.333	222.56
246.566	236.56
246.8	227.56
247.033	226.56
247.266	236.56
247.5	218.56
247.733	222.56
247.966	233.56
248.2	233.56
248.433	235.56
248.666	222.56
248.899	253.56
249.133	245.56
249.366	232.56
249.599	234.56
249.832	245.56
250.066	243.56
250.299	261.56
250.532	248.56
250.765	258.56
250.998	264.56
251.231	241.56
251.465	242.56
251.698	262.56
251.931	266.56
252.164	265.56
252.397	248.56
252.63	263.56
252.863	274.56
253.096	264.56
253.329	268.56
253.562	263.56
253.795	268.56
254.028	263.56
254.261	264.56
254.494	272.56
254.727	274.56
254.96	282.56
255.193	286.56
255.426	288.56
255.659	284.56
255.892	278.56
256.124	269.56
256.357	294.56
256.59	288.56
256.823	293.56
257.056	308.56
257.289	285.56
257.521	286.56
257.754	289.56
257.987	307.56
258.22	293.56
258.452	294.56
258.685	312.56
258.918	300.56
259.151	297.56
259.383	305.56
259.616	299.56
259.849	318.56
260.081	316.56
260.314	300.56
260.547	301.56
260.779	313.56
261.012	309.56
261.244	323.56
261.477	322.56
261.71	318.56
261.942	325.56
262.175	318.56
262.407	320.56
262.64	321.56
262.872	321.56
263.105	325.56
263.337	332.56
263.57	341.56
263.802	335.56
264.035	348.56
264.267	347.56
264.499	321.56
264.732	358.56
264.964	345.56
265.197	338.56
265.429	356.56
265.661	349.56
265.894	345.56
266.126	355.56
266.358	357.56
266.591	362.56
266.823	385.56
267.055	348.56
267.287	368.56
267.52	352.56
267.752	349.56
267.984	368.56
268.216	364.56
268.448	370.56
268.681	363.56
268.913	366.56
269.145	362.56
269.377	372.56
269.609	376.56
269.841	379.56
270.073	372.56
270.306	382.56
270.538	368.56
270.77	362.56
271.002	380.56
271.234	371.56
271.466	382.56
271.698	352.56
271.93	378.56
272.162	373.56
272.394	378.56
272.626	388.56
272.858	394.56
273.09	387.56
273.322	406.56
273.553	394.56
273.785	394.56
274.017	384.56
274.249	376.56
274.481	369.56
274.713	393.56
274.945	411.56
275.176	380.56
275.408	404.56
275.64	391.56
275.872	419.56
276.104	434.56
276.335	406.56
276.567	420.56
276.799	398.56
277.031	409.56
277.262	404.56
277.494	428.56
277.726	409.56
277.957	423.56
278.189	434.56
278.421	423.56
278.652	417.56
278.884	462.56
279.115	429.56
279.347	440.56
279.579	444.56
279.81	439.56
280.042	445.56
280.273	446.56
280.505	417.56
280.736	449.56
280.968	452.56
281.199	462.56
281.431	453.56
281.662	452.56
281.894	444.56
282.125	459.56
282.356	459.56
282.588	461.56
282.819	454.56
283.051	464.56
283.282	476.56
283.513	453.56
283.745	487.56
283.976	468.56
284.207	463.56
284.439	470.56
284.67	474.56
284.901	476.56
285.132	486.56
285.364	489.56
285.595	490.56
285.826	467.56
286.057	482.56
286.288	480.56
286.52	479.56
286.751	468.56
286.982	488.56
287.213	490.56
287.444	468.56
287.675	509.56
287.906	507.56
288.138	497.56
288.369	504.56
288.6	524.56
288.831	480.56
289.062	526.56
289.293	540.56
289.524	525.56
289.755	509.56
289.986	521.56
290.217	503.56
290.448	520.56
290.679	497.56
290.91	507.56
291.141	514.56
291.371	536.56
291.602	537.56
291.833	516.56
292.064	528.56
292.295	527.56
292.526	488.56
292.757	526.56
292.987	525.56
293.218	527.56
293.449	532.56
293.68	510.56
293.91	513.56
294.141	553.56
294.372	526.56
294.603	516.56
294.833	535.56
295.064	530.56
295.295	528.56
295.525	523.56
295.756	542.56
295.987	524.56
296.217	541.56
296.448	538.56
296.679	544.56
296.909	568.56
297.14	549.56
297.37	572.56
297.601	574.56
297.831	587.56
298.062	574.56
298.292	565.56
298.523	598.56
298.753	598.56
298.984	570.56
299.214	560.56
299.445	557.56
299.675	581.56
299.905	584.56
300.136	572.56
300.366	556.56
300.597	587.56
300.827	592.56
301.057	580.56
301.288	589.56
301.518	597.56
301.748	613.56
301.979	617.56
302.209	596.56
302.439	605.56
302.669	593.56
302.9	593.56
303.13	598.56
303.36	598.56
303.59	595.56
303.82	592.56
304.051	583.56
304.281	575.56
304.511	582.56
304.741	562.56
304.971	584.56
305.201	587.56
305.431	574.56
305.661	574.56
305.891	566.56
306.121	570.56
306.352	601.56
306.582	571.56
306.812	556.56
307.042	579.56
307.272	568.56
307.502	564.56
307.731	562.56
307.961	579.56
308.191	572.56
308.421	580.56
308.651	557.56
308.881	544.56
309.111	568.56
309.341	549.56
309.571	541.56
309.8	553.56
310.03	564.56
310.26	578.56
310.49	561.56
310.72	560.56
310.949	588.56
311.179	570.56
311.409	567.56
311.639	592.56
311.868	589.56
312.098	576.56
312.328	609.56
312.557	593.56
312.787	600.56
313.017	596.56
313.246	606.56
313.476	607.56
313.706	614.56
313.935	618.56
314.165	630.56
314.394	632.56
314.624	612.56
314.853	611.56
315.083	591.56
315.312	589.56
315.542	599.56
315.771	616.56
316.001	617.56
316.23	584.56
316.46	597.56
316.689	623.56
316.919	582.56
317.148	600.56
317.377	607.56
317.607	606.56
317.836	603.56
318.065	577.56
318.295	588.56
318.524	585.56
318.753	582.56
318.983	591.56
319.212	573.56
319.441	592.56
319.67	590.56
319.9	593.56
320.129	581.56
320.358	604.56
320.587	590.56
320.816	593.56
321.046	591.56
321.275	587.56
321.504	588.56
321.733	608.56
321.962	613.56
322.191	601.56
322.42	613.56
322.649	588.56
322.878	606.56
323.108	625.56
323.337	608.56
323.566	602.56
323.795	606.56
324.024	613.56
324.253	612.56
324.482	612.56
324.71	600.56
324.939	602.56
325.168	632.56
325.397	636.56
325.626	633.56
325.855	624.56
326.084	666.56
326.313	646.56
326.542	650.56
326.77	684.56
326.999	674.56
327.228	626.56
327.457	637.56
327.686	638.56
327.914	656.56
328.143	671.56
328.372	650.56
328.6	645.56
328.829	647.56
329.058	678.56
329.287	638.56
329.515	654.56
329.744	644.56
329.972	662.56
330.201	668.56
330.43	681.56
330.658	645.56
330.887	690.56
331.115	670.56
331.344	701.56
331.572	711.56
331.801	687.56
332.03	739.56
332.258	742.56
332.486	769.56
332.715	795.56
332.943	823.56
333.172	862.56
333.4	890.56
333.629	923.56
333.857	929.56
334.085	910.56
334.314	864.56
334.542	873.56
334.771	853.56
334.999	805.56
335.227	827.56
335.455	811.56
335.684	806.56
335.912	785.56
336.14	788.56
336.369	812.56
336.597	802.56
336.825	798.56
337.053	798.56
337.281	793.56
337.51	747.56
337.738	735.56
337.966	724.56
338.194	738.56
338.422	720.56
338.65	712.56
338.878	705.56
339.106	704.56
339.334	712.56
339.562	695.56
339.79	704.56
340.018	655.56
340.246	692.56
340.474	680.56
340.702	692.56
340.93	693.56
341.158	696.56
341.386	682.56
341.614	670.56
341.842	684.56
342.07	666.56
342.298	663.56
342.526	665.56
342.754	664.56
342.981	696.56
343.209	683.56
343.437	744.56
343.665	774.56
343.893	868.56
344.12	883.56
344.348	831.56
344.576	776.56
344.804	731.56
345.031	714.56
345.259	703.56
345.487	730.56
345.714	686.56
345.942	674.56
346.17	683.56
346.397	681.56
346.625	645.56
346.853	688.56
347.08	660.56
347.308	670.56
347.535	678.56
347.763	686.56
347.99	683.56
348.218	681.56
348.445	654.56
348.673	664.56
348.9	683.56
349.128	684.56
349.355	644.56
349.583	658.56
349.81	654.56
350.037	662.56
350.265	640.56
350.492	638.56
350.72	642.56
350.947	651.56
351.174	623.56
351.402	645.56
351.629	647.56
351.856	626.56
352.083	640.56
352.311	642.56
352.538	637.56
352.765	636.56
352.992	636.56
353.22	628.56
353.447	622.56
353.674	644.56
353.901	629.56
354.128	639.56
354.355	628.56
354.583	637.56
354.81	639.56
355.037	671.56
355.264	628.56
355.491	624.56
355.718	653.56
355.945	648.56
356.172	658.56
356.399	658.56
356.626	654.56
356.853	656.56
357.08	654.56
357.307	645.56
357.534	636.56
357.761	624.56
357.988	634.56
358.215	628.56
358.441	648.56
358.668	638.56
358.895	639.56
359.122	642.56
359.349	634.56
359.576	635.56
359.802	634.56
360.029	642.56
360.256	640.56
360.483	650.56
360.709	650.56
360.936	644.56
361.163	649.56
361.39	617.56
361.616	636.56
361.843	634.56
362.07	653.56
362.296	637.56
362.523	624.56
362.749	645.56
362.976	630.56
363.203	662.56
363.429	638.56
363.656	628.56
363.882	619.56
364.109	639.56
364.335	648.56
364.562	653.56
364.788	619.56
365.015	635.56
365.241	652.56
365.468	609.56
365.694	635.56
365.92	634.56
366.147	645.56
366.373	629.56
366.599	649.56
366.826	653.56
367.052	619.56
367.278	656.56
367.505	645.56
367.731	634.56
367.957	650.56
368.184	646.56
368.41	652.56
368.636	652.56
368.862	665.56
369.089	671.56
369.315	670.56
369.541	643.56
369.767	674.56
369.993	642.56
370.219	654.56
370.445	679.56
370.672	682.56
370.898	702.56
371.124	717.56
371.35	721.56
371.576	716.56
371.802	718.56
372.028	699.56
372.254	693.56
372.48	722.56
372.706	710.56
372.932	727.56
373.158	732.56
373.384	709.56
373.61	702.56
373.835	703.56
374.061	692.56
374.287	693.56
374.513	716.56
374.739	742.56
374.965	753.56
375.191	784.56
375.416	772.56
375.642	793.56
375.868	780.56
376.094	741.56
376.319	717.56
376.545	720.56
376.771	724.56
376.997	715.56
377.222	692.56
377.448	698.56
377.674	694.56
377.899	705.56
378.125	691.56
378.35	677.56
378.576	680.56
378.802	692.56
379.027	702.56
379.253	693.56
379.478	689.56
379.704	698.56
379.929	696.56
380.155	693.56
380.38	676.56
380.606	680.56
380.831	713.56
381.057	682.56
381.282	693.56
381.507	694.56
381.733	706.56
381.958	700.56
382.184	714.56
382.409	711.56
382.634	739.56
382.86	746.56
383.085	756.56
383.31	773.56
383.535	779.56
383.761	783.56
383.986	801.56
384.211	828.56
384.436	866.56
384.662	847.56
384.887	890.56
385.112	824.56
385.337	864.56
385.562	843.56
385.787	842.56
386.013	882.56
386.238	873.56
386.463	872.56
386.688	867.56
386.913	825.56
387.138	814.56
387.363	852.56
387.588	805.56
387.813	821.56
388.038	804.56
388.263	845.56
388.488	842.56
388.713	825.56
388.938	832.56
389.163	806.56
389.387	828.56
389.612	825.56
389.837	833.56
390.062	817.56
390.287	838.56
390.512	838.56
390.736	851.56
390.961	859.56
391.186	865.56
391.411	892.56
391.636	905.56
391.86	936.56
392.085	972.56
392.31	978.56
392.534	930.56
392.759	907.56
392.984	896.56
393.208	924.56
393.433	916.56
393.658	895.56
393.882	901.56
394.107	907.56
394.331	912.56
394.556	906.56
394.78	899.56
395.005	957.56
395.229	903.56
395.454	955.56
395.678	930.56
395.903	937.56
396.127	931.56
396.352	896.56
396.576	881.56
396.801	865.56
397.025	903.56
397.249	908.56
397.474	956.56
397.698	952.56
397.922	941.56
398.147	933.56
398.371	946.56
398.595	960.56
398.82	1045.56
399.044	1112.56
399.268	1236.56
399.492	1489.56
399.717	1702.56
399.941	1703.56
400.165	1443.56
400.389	1281.56
400.613	1185.56
400.837	1114.56
401.062	1068.56
401.286	1031.56
401.51	1050.56
401.734	1084.56
401.958	1063.56
402.182	1062.56
402.406	1088.56
402.63	1127.56
402.854	1141.56
403.078	1163.56
403.302	1209.56
403.526	1222.56
403.75	1232.56
403.974	1257.56
404.198	1285.56
404.422	1270.56
404.645	1257.56
404.869	1242.56
405.093	1268.56
405.317	1189.56
405.541	1210.56
405.765	1196.56
405.988	1183.56
406.212	1170.56
406.436	1177.56
406.66	1216.56
406.883	1236.56
407.107	1330.56
407.331	1375.56
407.555	1406.56
407.778	1368.56
408.002	1375.56
408.226	1284.56
408.449	1278.56
408.673	1237.56
408.896	1236.56
409.12	1201.56
409.344	1228.56
409.567	1228.56
409.791	1249.56
410.014	1243.56
410.238	1221.56
410.461	1227.56
410.685	1207.56
410.908	1170.56
411.132	1154.56
411.355	1125.56
411.578	1123.56
411.802	1107.56
412.025	1128.56
412.249	1133.56
412.472	1121.56
412.695	1105.56
412.919	1062.56
413.142	1038.56
413.365	1054.56
413.589	1078.56
413.812	1052.56
414.035	1038.56
414.258	1046.56
414.482	1062.56
414.705	1104.56
414.928	1093.56
415.151	1084.56
415.374	1092.56
415.597	1073.56
415.821	1030.56
416.044	1027.56
416.267	1010.56
416.49	1013.56
416.713	1034.56
416.936	1056.56
417.159	1033.56
417.382	1062.56
417.605	1022.56
417.828	1058.56
418.051	1079.56
418.274	1079.56
418.497	1072.56
418.72	1100.56
418.943	1089.56
419.166	1167.56
419.389	1226.56
419.611	1230.56
419.834	1123.56
420.057	1124.56
420.28	1097.56
420.503	1036.56
420.726	1020.56
420.948	1044.56
421.171	1067.56
421.394	1048.56
421.617	1065.56
421.839	1087.56
422.062	1074.56
422.285	1057.56
422.507	1082.56
422.73	1089.56
422.953	1110.56
423.175	1129.56
423.398	1127.56
423.621	1146.56
423.843	1131.56
424.066	1142.56
424.288	1158.56
424.511	1162.56
424.733	1142.56
424.956	1104.56
425.178	1102.56
425.401	1077.56
425.623	1055.56
425.846	1004.56
426.068	994.56
426.291	978.56
426.513	981.56
426.735	971.56
426.958	994.56
427.18	930.56
427.402	953.56
427.625	956.56
427.847	932.56
428.069	957.56
428.292	936.56
428.514	956.56
428.736	906.56
428.958	927.56
429.181	921.56
429.403	916.56
429.625	901.56
429.847	895.56
430.069	884.56
430.292	911.56
430.514	909.56
430.736	914.56
430.958	934.56
431.18	919.56
431.402	929.56
431.624	933.56
431.846	950.56
432.068	966.56
432.29	974.56
432.512	915.56
432.734	943.56
432.956	943.56
433.178	920.56
433.4	914.56
433.622	963.56
433.844	933.56
434.066	964.56
434.287	955.56
434.509	991.56
434.731	1033.56
434.953	1092.56
435.175	1085.56
435.397	1066.56
435.618	1026.56
435.84	985.56
436.062	952.56
436.284	940.56
436.505	965.56
436.727	981.56
436.949	954.56
437.17	932.56
437.392	911.56
437.614	921.56
437.835	923.56
438.057	946.56
438.278	888.56
438.5	886.56
438.721	932.56
438.943	911.56
439.165	913.56
439.386	938.56
439.608	948.56
439.829	930.56
440.05	957.56
440.272	923.56
440.493	946.56
440.715	989.56
440.936	986.56
441.158	956.56
441.379	990.56
441.6	1092.56
441.822	1099.56
442.043	1102.56
442.264	1069.56
442.486	1029.56
442.707	1032.56
442.928	1067.56
443.149	1040.56
443.371	1074.56
443.592	1086.56
443.813	1064.56
444.034	1080.56
444.255	1105.56
444.476	1132.56
444.698	1289.56
444.919	1311.56
445.14	1379.56
445.361	1210.56
445.582	1113.56
445.803	1056.56
446.024	1012.56
446.245	974.56
446.466	978.56
446.687	944.56
446.908	952.56
447.129	918.56
447.35	918.56
447.571	921.56
447.792	892.56
448.013	898.56
448.234	887.56
448.455	869.56
448.675	875.56
448.896	887.56
449.117	880.56
449.338	862.56
449.559	825.56
449.779	853.56
450	869.56
450.221	847.56
450.442	871.56
450.662	858.56
450.883	889.56
451.104	912.56
451.324	892.56
451.545	921.56
451.766	892.56
451.986	887.56
452.207	886.56
452.428	899.56
452.648	869.56
452.869	858.56
453.089	840.56
453.31	843.56
453.53	871.56
453.751	858.56
453.971	859.56
454.192	861.56
454.412	831.56
454.633	812.56
454.853	828.56
455.073	856.56
455.294	838.56
455.514	806.56
455.734	825.56
455.955	805.56
456.175	826.56
456.395	811.56
456.616	790.56
456.836	815.56
457.056	824.56
457.276	782.56
457.497	824.56
457.717	793.56
457.937	797.56
458.157	829.56
458.377	848.56
458.598	842.56
458.818	868.56
459.038	894.56
459.258	938.56
459.478	940.56
459.698	996.56
459.918	996.56
460.138	1046.56
460.358	1127.56
460.578	1134.56
460.798	1137.56
461.018	1144.56
461.238	1132.56
461.458	1158.56
461.678	1112.56
461.898	1140.56
462.118	1107.56
462.338	1196.56
462.558	1244.56
462.777	1283.56
462.997	1362.56
463.217	1596.56
463.437	1608.56
463.657	1447.56
463.876	1390.56
464.096	1355.56
464.316	1369.56
464.536	1342.56
464.755	1300.56
464.975	1243.56
465.195	1164.56
465.414	1137.56
465.634	1040.56
465.854	1041.56
466.073	998.56
466.293	971.56
466.512	932.56
466.732	919.56
466.951	922.56
467.171	915.56
467.391	908.56
467.61	942.56
467.829	922.56
468.049	929.56
468.268	870.56
468.488	873.56
468.707	848.56
468.927	862.56
469.146	846.56
469.365	872.56
469.585	883.56
469.804	934.56
470.023	927.56
470.243	952.56
470.462	956.56
470.681	944.56
470.901	957.56
471.12	933.56
471.339	928.56
471.558	888.56
471.777	896.56
471.997	890.56
472.216	864.56
472.435	867.56
472.654	861.56
472.873	834.56
473.092	858.56
473.311	841.56
473.53	845.56
473.749	862.56
473.968	833.56
474.187	820.56
474.406	814.56
474.625	852.56
474.844	834.56
475.063	864.56
475.282	842.56
475.501	823.56
475.72	842.56
475.939	882.56
476.158	865.56
476.377	893.56
476.596	876.56
476.814	873.56
477.033	890.56
477.252	917.56
477.471	945.56
477.69	971.56
477.908	972.56
478.127	1000.56
478.346	997.56
478.564	1038.56
478.783	1066.56
479.002	1086.56
479.22	1060.56
479.439	1052.56
479.658	1060.56
479.876	1068.56
480.095	1107.56
480.313	1143.56
480.532	1167.56
480.751	1173.56
480.969	1092.56
481.188	1051.56
481.406	1013.56
481.624	980.56
481.843	985.56
482.061	964.56
482.28	999.56
482.498	960.56
482.717	944.56
482.935	968.56
483.153	964.56
483.372	966.56
483.59	973.56
483.808	984.56
484.027	994.56
484.245	981.56
484.463	982.56
484.681	1015.56
484.9	1018.56
485.118	1026.56
485.336	1009.56
485.554	1029.56
485.772	1058.56
485.99	1040.56
486.209	1027.56
486.427	1038.56
486.645	1015.56
486.863	1041.56
487.081	1065.56
487.299	1054.56
487.517	1042.56
487.735	1017.56
487.953	1057.56
488.171	1011.56
488.389	1025.56
488.607	1009.56
488.825	971.56
489.043	1010.56
489.261	1018.56
489.479	1008.56
489.696	995.56
489.914	1025.56
490.132	1015.56
490.35	1033.56
490.568	1030.56
490.786	1008.56
491.003	997.56
491.221	1017.56
491.439	1049.56
491.657	1038.56
491.874	1016.56
492.092	996.56
492.31	1060.56
492.527	1028.56
492.745	1038.56
492.963	1052.56
493.18	1037.56
493.398	1048.56
493.615	1100.56
493.833	1038.56
494.05	1072.56
494.268	1093.56
494.485	1065.56
494.703	1083.56
494.92	1080.56
495.138	1083.56
495.355	1097.56
495.573	1084.56
495.79	1079.56
496.008	1089.56
496.225	1112.56
496.442	1125.56
496.66	1095.56
496.877	1138.56
497.094	1134.56
497.312	1165.56
497.529	1166.56
497.746	1214.56
497.963	1265.56
498.181	1334.56
498.398	1332.56
498.615	1430.56
498.832	1544.56
499.049	1660.56
499.267	1776.56
499.484	2016.56
499.701	2173.56
499.918	2439.56
500.135	2834.56
500.352	3395.56
500.569	3584.56
500.786	3510.56
501.003	3268.56
501.22	2872.56
501.437	2474.56
501.654	2182.56
501.871	1933.56
502.088	1742.56
502.305	1646.56
502.522	1543.56
502.739	1481.56
502.956	1414.56
503.172	1349.56
503.389	1285.56
503.606	1216.56
503.823	1203.56
504.04	1252.56
504.256	1275.56
504.473	1303.56
504.69	1345.56
504.907	1312.56
505.123	1189.56
505.34	1127.56
505.557	1078.56
505.773	1084.56
505.99	1002.56
506.207	1003.56
506.423	1004.56
506.64	973.56
506.856	995.56
507.073	961.56
507.289	953.56
507.506	935.56
507.722	964.56
507.939	947.56
508.155	918.56
508.372	933.56
508.588	951.56
508.805	920.56
509.021	893.56
509.238	903.56
509.454	924.56
509.67	923.56
509.887	904.56
510.103	900.56
510.319	895.56
510.536	891.56
510.752	886.56
510.968	890.56
511.184	899.56
511.401	869.56
511.617	889.56
511.833	884.56
512.049	886.56
512.265	866.56
512.481	895.56
512.698	870.56
512.914	900.56
513.13	882.56
513.346	875.56
513.562	894.56
513.778	869.56
513.994	889.56
514.21	901.56
514.426	891.56
514.642	902.56
514.858	880.56
515.074	876.56
515.29	904.56
515.506	912.56
515.721	930.56
515.937	928.56
516.153	930.56
516.369	954.56
516.585	997.56
516.801	1047.56
517.016	1084.56
517.232	1137.56
517.448	1192.56
517.664	1244.56
517.879	1292.56
518.095	1258.56
518.311	1284.56
518.527	1207.56
518.742	1093.56
518.958	1072.56
519.173	1008.56
519.389	1012.56
519.605	988.56
519.82	951.56
520.036	924.56
520.251	907.56
520.467	904.56
520.682	909.56
520.898	879.56
521.113	882.56
521.329	867.56
521.544	853.56
521.76	845.56
521.975	862.56
522.19	849.56
522.406	837.56
522.621	826.56
522.836	851.56
523.052	838.56
523.267	800.56
523.482	810.56
523.698	817.56
523.913	809.56
524.128	820.56
524.343	792.56
524.559	792.56
524.774	818.56
524.989	811.56
525.204	834.56
525.419	788.56
525.634	794.56
525.849	813.56
526.064	800.56
526.28	800.56
526.495	787.56
526.71	801.56
526.925	817.56
527.14	780.56
527.355	784.56
527.57	802.56
527.785	799.56
527.999	789.56
528.214	813.56
528.429	807.56
528.644	813.56
528.859	799.56
529.074	806.56
529.289	827.56
529.503	786.56
529.718	816.56
529.933	800.56
530.148	800.56
530.363	810.56
530.577	802.56
530.792	810.56
531.007	791.56
531.221	811.56
531.436	797.56
531.651	824.56
531.865	794.56
532.08	805.56
532.295	834.56
532.509	808.56
532.724	809.56
532.938	810.56
533.153	827.56
533.367	791.56
533.582	819.56
533.796	816.56
534.011	812.56
534.225	798.56
534.44	790.56
534.654	804.56
534.868	820.56
535.083	778.56
535.297	796.56
535.511	776.56
535.726	786.56
535.94	762.56
536.154	763.56
536.369	760.56
536.583	787.56
536.797	743.56
537.011	754.56
537.225	730.56
537.44	727.56
537.654	754.56
537.868	744.56
538.082	735.56
538.296	714.56
538.51	730.56
538.724	737.56
538.938	731.56
539.153	708.56
539.367	736.56
539.581	733.56
539.795	734.56
540.009	731.56
540.222	722.56
540.436	729.56
540.65	713.56
540.864	715.56
541.078	714.56
541.292	721.56
541.506	725.56
541.72	716.56
541.934	709.56
542.147	730.56
542.361	741.56
542.575	689.56
542.789	713.56
543.002	696.56
543.216	721.56
543.43	721.56
543.644	729.56
543.857	697.56
544.071	707.56
544.285	690.56
544.498	692.56
544.712	700.56
544.925	715.56
545.139	748.56
545.352	730.56
545.566	733.56
545.779	719.56
545.993	730.56
546.206	725.56
546.42	705.56
546.633	729.56
546.847	744.56
547.06	703.56
547.274	706.56
547.487	734.56
547.7	739.56
547.914	755.56
548.127	752.56
548.34	749.56
548.554	747.56
548.767	739.56
548.98	729.56
549.193	704.56
549.407	748.56
549.62	742.56
549.833	769.56
550.046	743.56
550.259	719.56
550.473	722.56
550.686	730.56
550.899	713.56
551.112	707.56
551.325	701.56
551.538	729.56
551.751	739.56
551.964	718.56
552.177	742.56
552.39	717.56
552.603	736.56
552.816	752.56
553.029	772.56
553.242	798.56
553.455	805.56
553.667	862.56
553.88	812.56
554.093	781.56
554.306	778.56
554.519	724.56
554.732	747.56
554.944	736.56
555.157	705.56
555.37	720.56
555.583	699.56
555.795	698.56
556.008	655.56
556.221	658.56
556.433	664.56
556.646	647.56
556.859	625.56
557.071	632.56
557.284	647.56
557.496	626.56
557.709	637.56
557.921	635.56
558.134	619.56
558.346	604.56
558.559	608.56
558.771	608.56
558.984	608.56
559.196	583.56
559.409	588.56
559.621	612.56
559.833	624.56
560.046	605.56
560.258	583.56
560.47	596.56
560.683	602.56
560.895	603.56
561.107	585.56
561.32	592.56
561.532	610.56
561.744	613.56
561.956	604.56
562.168	604.56
562.381	603.56
562.593	612.56
562.805	600.56
563.017	626.56
563.229	603.56
563.441	613.56
563.653	629.56
563.865	628.56
564.077	635.56
564.289	613.56
564.501	632.56
564.713	628.56
564.925	646.56
565.137	654.56
565.349	682.56
565.561	696.56
565.773	707.56
565.985	741.56
566.197	772.56
566.408	830.56
566.62	919.56
566.832	1024.56
567.044	1012.56
567.255	1030.56
567.467	1057.56
567.679	1108.56
567.891	1241.56
568.102	1288.56
568.314	1244.56
568.526	1039.56
568.737	948.56
568.949	900.56
569.161	805.56
569.372	734.56
569.584	692.56
569.795	656.56
570.007	640.56
570.218	638.56
570.43	638.56
570.641	634.56
570.853	628.56
571.064	644.56
571.276	649.56
571.487	624.56
571.698	619.56
571.91	584.56
572.121	583.56
572.333	539.56
572.544	545.56
572.755	543.56
572.966	551.56
573.178	525.56
573.389	531.56
573.6	524.56
573.811	529.56
574.023	528.56
574.234	521.56
574.445	513.56
574.656	513.56
574.867	502.56
575.078	526.56
575.289	509.56
575.501	516.56
575.712	487.56
575.923	486.56
576.134	498.56
576.345	512.56
576.556	503.56
576.767	500.56
576.978	472.56
577.188	491.56
577.399	501.56
577.61	460.56
577.821	450.56
578.032	446.56
578.243	451.56
578.454	470.56
578.665	481.56
578.875	459.56
579.086	464.56
579.297	453.56
579.508	456.56
579.718	451.56
579.929	444.56
580.14	459.56
580.35	462.56
580.561	455.56
580.772	445.56
580.982	434.56
581.193	432.56
581.403	441.56
581.614	424.56
581.825	461.56
582.035	432.56
582.246	419.56
582.456	435.56
582.667	428.56
582.877	423.56
583.087	418.56
583.298	431.56
583.508	443.56
583.719	449.56
583.929	429.56
584.139	437.56
584.35	425.56
584.56	428.56
584.77	410.56
584.981	412.56
585.191	435.56
585.401	400.56
585.611	412.56
585.821	399.56
586.032	425.56
586.242	422.56
586.452	400.56
586.662	392.56
586.872	413.56
587.082	404.56
587.292	414.56
587.502	401.56
587.713	408.56
587.923	414.56
588.133	405.56
588.343	410.56
588.553	382.56
588.762	393.56
588.972	400.56
589.182	412.56
589.392	410.56
589.602	407.56
589.812	407.56
590.022	398.56
590.232	400.56
590.441	426.56
590.651	419.56
590.861	409.56
591.071	432.56
591.281	411.56
591.49	437.56
591.7	427.56
591.91	427.56
592.119	432.56
592.329	449.56
592.539	465.56
592.748	468.56
592.958	502.56
593.167	525.56
593.377	526.56
593.587	557.56
593.796	543.56
594.006	539.56
594.215	532.56
594.424	548.56
594.634	547.56
594.843	516.56
595.053	497.56
595.262	464.56
595.472	455.56
595.681	425.56
595.89	426.56
596.1	412.56
596.309	417.56
596.518	409.56
596.727	397.56
596.937	390.56
597.146	381.56
597.355	373.56
597.564	377.56
597.774	351.56
597.983	374.56
598.192	368.56
598.401	382.56
598.61	366.56
598.819	365.56
599.028	353.56
599.237	348.56
599.446	349.56
599.655	369.56
599.864	347.56
600.073	340.56
600.282	344.56
600.491	332.56
600.7	338.56
600.909	357.56
601.118	342.56
601.327	322.56
601.536	321.56
601.745	330.56
601.953	334.56
602.162	345.56
602.371	341.56
602.58	333.56
602.789	346.56
602.997	323.56
603.206	332.56
603.415	312.56
603.623	338.56
603.832	317.56
604.041	327.56
604.249	344.56
604.458	316.56
604.666	317.56
604.875	326.56
605.084	323.56
605.292	334.56
605.501	319.56
605.709	314.56
605.918	318.56
606.126	316.56
606.334	344.56
606.543	329.56
606.751	303.56
606.96	312.56
607.168	290.56
607.376	311.56
607.585	316.56
607.793	298.56
608.001	311.56
608.21	314.56
608.418	298.56
608.626	313.56
608.834	310.56
609.043	327.56
609.251	318.56
609.459	300.56
609.667	310.56
609.875	299.56
610.083	312.56
610.291	297.56
610.499	298.56
610.707	330.56
610.916	301.56
611.124	300.56
611.332	304.56
611.54	310.56
611.748	324.56
611.955	284.56
612.163	307.56
612.371	308.56
612.579	311.56
612.787	306.56
612.995	277.56
613.203	303.56
613.411	288.56
613.618	278.56
613.826	290.56
614.034	291.56
614.242	296.56
614.449	310.56
614.657	314.56
614.865	291.56
615.072	304.56
615.28	311.56
615.488	285.56
615.695	292.56
615.903	301.56
616.111	313.56
616.318	302.56
616.526	295.56
616.733	318.56
616.941	317.56
617.148	314.56
617.356	317.56
617.563	308.56
617.771	310.56
617.978	316.56
618.185	313.56
618.393	304.56
618.6	325.56
618.807	305.56
619.015	311.56
619.222	292.56
619.429	281.56
619.637	299.56
619.844	296.56
620.051	302.56
620.258	262.56
620.466	280.56
620.673	280.56
620.88	259.56
621.087	275.56
621.294	273.56
621.501	280.56
621.708	290.56
621.915	284.56
622.122	289.56
622.329	281.56
622.536	274.56
622.743	278.56
622.95	278.56
623.157	266.56
623.364	268.56
623.571	267.56
623.778	257.56
623.985	264.56
624.192	285.56
624.399	264.56
624.606	269.56
624.812	260.56
625.019	276.56
625.226	262.56
625.433	261.56
625.639	256.56
625.846	243.56
626.053	250.56
626.259	262.56
626.466	259.56
626.673	262.56
626.879	252.56
627.086	253.56
627.293	258.56
627.499	252.56
627.706	249.56
627.912	255.56
628.119	237.56
628.325	244.56
628.532	244.56
628.738	247.56
628.945	240.56
629.151	247.56
629.357	241.56
629.564	248.56
629.77	236.56
629.976	225.56
630.183	221.56
630.389	225.56
630.595	236.56
630.802	226.56
631.008	232.56
631.214	225.56
631.42	233.56
631.627	242.56
631.833	213.56
632.039	213.56
632.245	220.56
632.451	225.56
632.657	234.56
632.863	235.56
633.069	226.56
633.275	225.56
633.481	222.56
633.688	230.56
633.893	234.56
634.099	221.56
634.305	236.56
634.511	218.56
634.717	213.56
634.923	211.56
635.129	218.56
635.335	219.56
635.541	213.56
635.747	226.56
635.952	205.56
636.158	214.56
636.364	205.56
636.57	216.56
636.775	211.56
636.981	211.56
637.187	202.56
637.392	203.56
637.598	212.56
637.804	219.56
638.009	225.56
638.215	231.56
638.421	203.56
638.626	206.56
638.832	220.56
639.037	218.56
639.243	213.56
639.448	199.56
639.654	207.56
639.859	218.56
640.065	202.56
640.27	208.56
640.475	192.56
640.681	204.56
640.886	193.56
641.091	211.56
641.297	194.56
641.502	195.56
641.707	196.56
641.913	212.56
642.118	197.56
642.323	208.56
642.528	195.56
642.733	212.56
642.939	200.56
643.144	188.56
643.349	210.56
643.554	180.56
643.759	193.56
643.964	181.56
644.169	202.56
644.374	194.56
644.579	202.56
644.784	205.56
644.989	188.56
645.194	178.56
645.399	204.56
645.604	186.56
645.809	198.56
646.014	194.56
646.219	185.56
646.423	198.56
646.628	193.56
646.833	194.56
647.038	203.56
647.243	200.56
647.447	202.56
647.652	189.56
647.857	203.56
648.062	215.56
648.266	211.56
648.471	217.56
648.676	224.56
648.88	215.56
649.085	215.56
649.289	196.56
649.494	197.56
649.698	198.56
649.903	192.56
650.107	173.56
650.312	203.56
650.516	188.56
650.721	192.56
650.925	174.56
651.13	167.56
651.334	154.56
651.539	179.56
651.743	166.56
651.947	169.56
652.152	160.56
652.356	164.56
652.56	168.56
652.764	150.56
652.969	167.56
653.173	153.56
653.377	162.56
653.581	136.56
653.785	160.56
653.99	149.56
654.194	148.56
654.398	160.56
654.602	155.56
654.806	149.56
655.01	146.56
655.214	155.56
655.418	130.56
655.622	140.56
655.826	146.56
656.03	162.56
656.234	133.56
656.438	141.56
656.642	131.56
656.846	132.56
657.049	129.56
657.253	132.56
657.457	131.56
657.661	124.56
657.865	122.56
658.068	124.56
658.272	118.56
658.476	110.56
658.68	107.56
658.883	118.56
659.087	93.56
659.291	112.56
659.494	102.56
659.698	98.56
659.901	99.56
660.105	97.56
660.309	91.56
660.512	103.56
660.716	92.56
660.919	77.56
661.123	96.56
661.326	100.56
661.53	91.56
661.733	86.56
661.936	87.56
662.14	87.56
662.343	84.56
662.546	76.56
662.75	97.56
662.953	84.56
663.156	90.56
663.36	89.56
663.563	81.56
663.766	72.56
663.969	82.56
664.173	89.56
664.376	85.56
664.579	81.56
664.782	91.56
664.985	80.56
665.188	79.56
665.391	77.56
665.594	68.56
665.797	82.56
666	76.56
666.203	74.56
666.406	71.56
666.609	89.56
666.812	77.56
667.015	84.56
667.218	80.56
667.421	93.56
667.624	76.56
667.827	78.56
668.03	90.56
668.232	82.56
668.435	95.56
668.638	81.56
668.841	88.56
669.043	76.56
669.246	92.56
669.449	82.56
669.651	87.56
669.854	75.56
670.057	101.56
670.259	82.56
670.462	85.56
670.665	83.56
670.867	81.56
671.07	77.56
671.272	86.56
671.475	81.56
671.677	96.56
671.88	77.56
672.082	78.56
672.284	102.56
672.487	87.56
672.689	87.56
672.892	80.56
