Data from Ni(NO3)2@0.25M.TitratingCurve.Agarose3%dH2O.NegLispCup.LampEnergy10.LIBS07252019_HRD10591_18-05-48-566.txt Node
Date: Thu Jul 25 18:05:48 EDT 2019
User: cochatt
Spectrometer: HR+D1059
Trigger mode: 1
Integration Time (sec): 1.000000E-1
Scans to average: 1
Electric dark correction enabled: true
Nonlinearity correction enabled: false
Boxcar width: 0
XAxis mode: Wavelengths
Number of Pixels in Spectrum: 2048
>>>>>Begin Spectral Data<<<<<
223.165	-18.56
223.4	-18.56
223.635	-18.56
223.869	-22.56
224.104	-12.56
224.338	-17.56
224.573	-20.56
224.808	-3.56
225.042	-6.56
225.277	-7.56
225.511	0.44
225.746	6.44
225.98	15.44
226.215	13.44
226.449	0.44
226.683	13.44
226.918	23.44
227.152	36.44
227.387	29.44
227.621	37.44
227.856	31.44
228.09	36.44
228.324	47.44
228.559	52.44
228.793	61.44
229.027	87.44
229.262	106.44
229.496	97.44
229.73	111.44
229.964	98.44
230.199	99.44
230.433	114.44
230.667	128.44
230.901	116.44
231.136	118.44
231.37	120.44
231.604	112.44
231.838	141.44
232.072	123.44
232.306	138.44
232.541	132.44
232.775	136.44
233.009	140.44
233.243	120.44
233.477	135.44
233.711	133.44
233.945	130.44
234.179	134.44
234.413	124.44
234.647	140.44
234.881	129.44
235.115	132.44
235.349	133.44
235.583	146.44
235.817	138.44
236.051	129.44
236.285	146.44
236.519	141.44
236.753	133.44
236.987	139.44
237.221	132.44
237.455	129.44
237.689	148.44
237.922	155.44
238.156	139.44
238.39	134.44
238.624	143.44
238.858	144.44
239.091	154.44
239.325	154.44
239.559	158.44
239.793	145.44
240.027	152.44
240.26	153.44
240.494	169.44
240.728	148.44
240.961	160.44
241.195	151.44
241.429	159.44
241.662	179.44
241.896	166.44
242.13	167.44
242.363	170.44
242.597	182.44
242.83	180.44
243.064	158.44
243.298	164.44
243.531	170.44
243.765	190.44
243.998	179.44
244.232	177.44
244.465	198.44
244.699	186.44
244.932	183.44
245.166	181.44
245.399	188.44
245.633	169.44
245.866	174.44
246.099	205.44
246.333	217.44
246.566	194.44
246.8	201.44
247.033	188.44
247.266	209.44
247.5	188.44
247.733	201.44
247.966	205.44
248.2	233.44
248.433	192.44
248.666	206.44
248.899	207.44
249.133	219.44
249.366	218.44
249.599	227.44
249.832	196.44
250.066	204.44
250.299	222.44
250.532	238.44
250.765	238.44
250.998	227.44
251.231	224.44
251.465	228.44
251.698	242.44
251.931	235.44
252.164	242.44
252.397	256.44
252.63	252.44
252.863	257.44
253.096	252.44
253.329	255.44
253.562	257.44
253.795	267.44
254.028	257.44
254.261	230.44
254.494	260.44
254.727	264.44
254.96	266.44
255.193	267.44
255.426	264.44
255.659	271.44
255.892	277.44
256.124	268.44
256.357	270.44
256.59	269.44
256.823	263.44
257.056	294.44
257.289	292.44
257.521	281.44
257.754	289.44
257.987	265.44
258.22	291.44
258.452	300.44
258.685	295.44
258.918	291.44
259.151	288.44
259.383	292.44
259.616	293.44
259.849	311.44
260.081	312.44
260.314	304.44
260.547	293.44
260.779	308.44
261.012	294.44
261.244	308.44
261.477	318.44
261.71	313.44
261.942	313.44
262.175	312.44
262.407	312.44
262.64	315.44
262.872	330.44
263.105	328.44
263.337	313.44
263.57	326.44
263.802	309.44
264.035	322.44
264.267	343.44
264.499	319.44
264.732	326.44
264.964	306.44
265.197	323.44
265.429	334.44
265.661	332.44
265.894	335.44
266.126	329.44
266.358	346.44
266.591	331.44
266.823	339.44
267.055	330.44
267.287	360.44
267.52	343.44
267.752	347.44
267.984	352.44
268.216	360.44
268.448	372.44
268.681	356.44
268.913	368.44
269.145	358.44
269.377	366.44
269.609	351.44
269.841	362.44
270.073	362.44
270.306	360.44
270.538	353.44
270.77	351.44
271.002	372.44
271.234	354.44
271.466	390.44
271.698	369.44
271.93	382.44
272.162	374.44
272.394	374.44
272.626	385.44
272.858	370.44
273.09	386.44
273.322	376.44
273.553	386.44
273.785	386.44
274.017	403.44
274.249	377.44
274.481	368.44
274.713	396.44
274.945	407.44
275.176	400.44
275.408	412.44
275.64	403.44
275.872	388.44
276.104	407.44
276.335	388.44
276.567	405.44
276.799	390.44
277.031	406.44
277.262	421.44
277.494	396.44
277.726	411.44
277.957	398.44
278.189	414.44
278.421	418.44
278.652	414.44
278.884	408.44
279.115	433.44
279.347	416.44
279.579	409.44
279.81	428.44
280.042	420.44
280.273	430.44
280.505	429.44
280.736	424.44
280.968	423.44
281.199	416.44
281.431	432.44
281.662	438.44
281.894	438.44
282.125	433.44
282.356	441.44
282.588	431.44
282.819	440.44
283.051	456.44
283.282	450.44
283.513	458.44
283.745	458.44
283.976	425.44
284.207	456.44
284.439	445.44
284.67	455.44
284.901	463.44
285.132	466.44
285.364	464.44
285.595	445.44
285.826	436.44
286.057	451.44
286.288	464.44
286.52	468.44
286.751	448.44
286.982	478.44
287.213	462.44
287.444	463.44
287.675	457.44
287.906	470.44
288.138	450.44
288.369	456.44
288.6	480.44
288.831	476.44
289.062	461.44
289.293	471.44
289.524	467.44
289.755	466.44
289.986	466.44
290.217	481.44
290.448	476.44
290.679	491.44
290.91	481.44
291.141	508.44
291.371	480.44
291.602	514.44
291.833	474.44
292.064	469.44
292.295	484.44
292.526	482.44
292.757	496.44
292.987	494.44
293.218	456.44
293.449	471.44
293.68	480.44
293.91	482.44
294.141	480.44
294.372	483.44
294.603	471.44
294.833	479.44
295.064	503.44
295.295	483.44
295.525	496.44
295.756	482.44
295.987	516.44
296.217	492.44
296.448	495.44
296.679	506.44
296.909	488.44
297.14	508.44
297.37	503.44
297.601	507.44
297.831	502.44
298.062	516.44
298.292	513.44
298.523	550.44
298.753	510.44
298.984	523.44
299.214	508.44
299.445	510.44
299.675	520.44
299.905	523.44
300.136	528.44
300.366	532.44
300.597	529.44
300.827	548.44
301.057	516.44
301.288	538.44
301.518	524.44
301.748	541.44
301.979	554.44
302.209	544.44
302.439	550.44
302.669	552.44
302.9	539.44
303.13	525.44
303.36	532.44
303.59	548.44
303.82	584.44
304.051	563.44
304.281	527.44
304.511	529.44
304.741	540.44
304.971	571.44
305.201	535.44
305.431	551.44
305.661	567.44
305.891	539.44
306.121	552.44
306.352	552.44
306.582	523.44
306.812	525.44
307.042	522.44
307.272	540.44
307.502	543.44
307.731	551.44
307.961	518.44
308.191	555.44
308.421	532.44
308.651	550.44
308.881	537.44
309.111	528.44
309.341	547.44
309.571	524.44
309.8	552.44
310.03	560.44
310.26	555.44
310.49	551.44
310.72	561.44
310.949	550.44
311.179	546.44
311.409	556.44
311.639	551.44
311.868	562.44
312.098	569.44
312.328	583.44
312.557	559.44
312.787	581.44
313.017	548.44
313.246	581.44
313.476	601.44
313.706	600.44
313.935	603.44
314.165	582.44
314.394	594.44
314.624	611.44
314.853	595.44
315.083	592.44
315.312	614.44
315.542	575.44
315.771	574.44
316.001	604.44
316.23	576.44
316.46	587.44
316.689	597.44
316.919	593.44
317.148	577.44
317.377	598.44
317.607	582.44
317.836	599.44
318.065	583.44
318.295	603.44
318.524	600.44
318.753	598.44
318.983	595.44
319.212	585.44
319.441	606.44
319.67	582.44
319.9	607.44
320.129	607.44
320.358	597.44
320.587	612.44
320.816	606.44
321.046	614.44
321.275	622.44
321.504	615.44
321.733	610.44
321.962	628.44
322.191	637.44
322.42	624.44
322.649	615.44
322.878	626.44
323.108	640.44
323.337	632.44
323.566	646.44
323.795	643.44
324.024	638.44
324.253	650.44
324.482	639.44
324.71	628.44
324.939	689.44
325.168	664.44
325.397	675.44
325.626	650.44
325.855	668.44
326.084	667.44
326.313	691.44
326.542	678.44
326.77	710.44
326.999	668.44
327.228	694.44
327.457	690.44
327.686	671.44
327.914	697.44
328.143	707.44
328.372	677.44
328.6	692.44
328.829	713.44
329.058	676.44
329.287	721.44
329.515	706.44
329.744	715.44
329.972	698.44
330.201	695.44
330.43	748.44
330.658	740.44
330.887	731.44
331.115	706.44
331.344	732.44
331.572	742.44
331.801	730.44
332.03	745.44
332.258	783.44
332.486	802.44
332.715	829.44
332.943	842.44
333.172	864.44
333.4	886.44
333.629	906.44
333.857	917.44
334.085	919.44
334.314	916.44
334.542	922.44
334.771	881.44
334.999	881.44
335.227	897.44
335.455	903.44
335.684	889.44
335.912	891.44
336.14	849.44
336.369	876.44
336.597	885.44
336.825	880.44
337.053	901.44
337.281	865.44
337.51	812.44
337.738	836.44
337.966	804.44
338.194	827.44
338.422	838.44
338.65	780.44
338.878	796.44
339.106	800.44
339.334	808.44
339.562	791.44
339.79	744.44
340.018	743.44
340.246	736.44
340.474	755.44
340.702	745.44
340.93	770.44
341.158	736.44
341.386	754.44
341.614	798.44
341.842	758.44
342.07	745.44
342.298	746.44
342.526	784.44
342.754	758.44
342.981	775.44
343.209	793.44
343.437	804.44
343.665	845.44
343.893	891.44
344.12	916.44
344.348	894.44
344.576	844.44
344.804	840.44
345.031	817.44
345.259	790.44
345.487	779.44
345.714	752.44
345.942	746.44
346.17	746.44
346.397	753.44
346.625	727.44
346.853	730.44
347.08	724.44
347.308	721.44
347.535	747.44
347.763	719.44
347.99	715.44
348.218	719.44
348.445	713.44
348.673	730.44
348.9	734.44
349.128	718.44
349.355	724.44
349.583	731.44
349.81	715.44
350.037	694.44
350.265	718.44
350.492	698.44
350.72	703.44
350.947	703.44
351.174	725.44
351.402	712.44
351.629	697.44
351.856	720.44
352.083	694.44
352.311	684.44
352.538	690.44
352.765	712.44
352.992	713.44
353.22	694.44
353.447	687.44
353.674	690.44
353.901	659.44
354.128	696.44
354.355	694.44
354.583	690.44
354.81	702.44
355.037	700.44
355.264	706.44
355.491	680.44
355.718	722.44
355.945	718.44
356.172	673.44
356.399	705.44
356.626	710.44
356.853	716.44
357.08	718.44
357.307	727.44
357.534	698.44
357.761	712.44
357.988	695.44
358.215	707.44
358.441	714.44
358.668	709.44
358.895	679.44
359.122	698.44
359.349	702.44
359.576	707.44
359.802	696.44
360.029	696.44
360.256	722.44
360.483	705.44
360.709	711.44
360.936	692.44
361.163	697.44
361.39	698.44
361.616	700.44
361.843	674.44
362.07	728.44
362.296	699.44
362.523	706.44
362.749	708.44
362.976	690.44
363.203	705.44
363.429	690.44
363.656	693.44
363.882	712.44
364.109	674.44
364.335	678.44
364.562	702.44
364.788	690.44
365.015	678.44
365.241	691.44
365.468	695.44
365.694	686.44
365.92	690.44
366.147	686.44
366.373	679.44
366.599	711.44
366.826	678.44
367.052	686.44
367.278	684.44
367.505	694.44
367.731	702.44
367.957	670.44
368.184	713.44
368.41	719.44
368.636	702.44
368.862	675.44
369.089	735.44
369.315	734.44
369.541	708.44
369.767	680.44
369.993	704.44
370.219	705.44
370.445	705.44
370.672	732.44
370.898	732.44
371.124	726.44
371.35	738.44
371.576	735.44
371.802	771.44
372.028	750.44
372.254	755.44
372.48	762.44
372.706	750.44
372.932	771.44
373.158	782.44
373.384	753.44
373.61	742.44
373.835	742.44
374.061	767.44
374.287	758.44
374.513	750.44
374.739	783.44
374.965	797.44
375.191	816.44
375.416	840.44
375.642	790.44
375.868	783.44
376.094	771.44
376.319	752.44
376.545	734.44
376.771	751.44
376.997	752.44
377.222	742.44
377.448	740.44
377.674	758.44
377.899	752.44
378.125	742.44
378.35	712.44
378.576	728.44
378.802	736.44
379.027	741.44
379.253	724.44
379.478	754.44
379.704	729.44
379.929	726.44
380.155	738.44
380.38	727.44
380.606	720.44
380.831	722.44
381.057	750.44
381.282	731.44
381.507	731.44
381.733	729.44
381.958	734.44
382.184	736.44
382.409	772.44
382.634	773.44
382.86	751.44
383.085	773.44
383.31	771.44
383.535	792.44
383.761	773.44
383.986	802.44
384.211	834.44
384.436	822.44
384.662	825.44
384.887	854.44
385.112	859.44
385.337	911.44
385.562	857.44
385.787	874.44
386.013	867.44
386.238	880.44
386.463	859.44
386.688	882.44
386.913	873.44
387.138	885.44
387.363	883.44
387.588	861.44
387.813	862.44
388.038	866.44
388.263	864.44
388.488	888.44
388.713	871.44
388.938	860.44
389.163	885.44
389.387	842.44
389.612	842.44
389.837	847.44
390.062	864.44
390.287	876.44
390.512	852.44
390.736	882.44
390.961	871.44
391.186	912.44
391.411	934.44
391.636	950.44
391.86	983.44
392.085	972.44
392.31	981.44
392.534	936.44
392.759	934.44
392.984	918.44
393.208	931.44
393.433	939.44
393.658	932.44
393.882	925.44
394.107	896.44
394.331	921.44
394.556	918.44
394.78	920.44
395.005	943.44
395.229	928.44
395.454	964.44
395.678	986.44
395.903	962.44
396.127	969.44
396.352	975.44
396.576	958.44
396.801	970.44
397.025	933.44
397.249	983.44
397.474	994.44
397.698	986.44
397.922	1018.44
398.147	1022.44
398.371	974.44
398.595	1062.44
398.82	1118.44
399.044	1165.44
399.268	1258.44
399.492	1409.44
399.717	1530.44
399.941	1569.44
400.165	1472.44
400.389	1352.44
400.613	1290.44
400.837	1202.44
401.062	1164.44
401.286	1176.44
401.51	1158.44
401.734	1113.44
401.958	1166.44
402.182	1126.44
402.406	1144.44
402.63	1130.44
402.854	1154.44
403.078	1171.44
403.302	1197.44
403.526	1236.44
403.75	1220.44
403.974	1226.44
404.198	1230.44
404.422	1231.44
404.645	1243.44
404.869	1208.44
405.093	1210.44
405.317	1180.44
405.541	1228.44
405.765	1206.44
405.988	1187.44
406.212	1235.44
406.436	1207.44
406.66	1273.44
406.883	1256.44
407.107	1334.44
407.331	1406.44
407.555	1402.44
407.778	1389.44
408.002	1354.44
408.226	1344.44
408.449	1362.44
408.673	1293.44
408.896	1267.44
409.12	1277.44
409.344	1276.44
409.567	1251.44
409.791	1241.44
410.014	1251.44
410.238	1232.44
410.461	1255.44
410.685	1203.44
410.908	1180.44
411.132	1177.44
411.355	1166.44
411.578	1182.44
411.802	1199.44
412.025	1170.44
412.249	1178.44
412.472	1146.44
412.695	1145.44
412.919	1136.44
413.142	1141.44
413.365	1118.44
413.589	1152.44
413.812	1121.44
414.035	1125.44
414.258	1165.44
414.482	1113.44
414.705	1123.44
414.928	1143.44
415.151	1128.44
415.374	1160.44
415.597	1115.44
415.821	1091.44
416.044	1099.44
416.267	1092.44
416.49	1100.44
416.713	1088.44
416.936	1107.44
417.159	1099.44
417.382	1099.44
417.605	1103.44
417.828	1100.44
418.051	1138.44
418.274	1145.44
418.497	1083.44
418.72	1150.44
418.943	1132.44
419.166	1202.44
419.389	1282.44
419.611	1278.44
419.834	1215.44
420.057	1203.44
420.28	1137.44
420.503	1104.44
420.726	1075.44
420.948	1121.44
421.171	1112.44
421.394	1113.44
421.617	1096.44
421.839	1134.44
422.062	1130.44
422.285	1130.44
422.507	1139.44
422.73	1118.44
422.953	1184.44
423.175	1154.44
423.398	1155.44
423.621	1143.44
423.843	1143.44
424.066	1151.44
424.288	1152.44
424.511	1170.44
424.733	1164.44
424.956	1142.44
425.178	1119.44
425.401	1112.44
425.623	1123.44
425.846	1097.44
426.068	1085.44
426.291	1079.44
426.513	1088.44
426.735	1077.44
426.958	1055.44
427.18	1048.44
427.402	1045.44
427.625	1022.44
427.847	1040.44
428.069	1035.44
428.292	1053.44
428.514	1014.44
428.736	1024.44
428.958	1061.44
429.181	1012.44
429.403	1013.44
429.625	986.44
429.847	991.44
430.069	987.44
430.292	993.44
430.514	981.44
430.736	1015.44
430.958	1024.44
431.18	1006.44
431.402	1003.44
431.624	1006.44
431.846	1025.44
432.068	1003.44
432.29	1015.44
432.512	1022.44
432.734	1035.44
432.956	1023.44
433.178	1045.44
433.4	1028.44
433.622	1048.44
433.844	1058.44
434.066	1044.44
434.287	1025.44
434.509	1078.44
434.731	1117.44
434.953	1111.44
435.175	1140.44
435.397	1095.44
435.618	1087.44
435.84	1068.44
436.062	1036.44
436.284	1002.44
436.505	1026.44
436.727	1031.44
436.949	1024.44
437.17	1019.44
437.392	1034.44
437.614	964.44
437.835	981.44
438.057	987.44
438.278	973.44
438.5	992.44
438.721	972.44
438.943	974.44
439.165	981.44
439.386	984.44
439.608	1036.44
439.829	1022.44
440.05	1017.44
440.272	1046.44
440.493	1018.44
440.715	1046.44
440.936	1092.44
441.158	1093.44
441.379	1111.44
441.6	1127.44
441.822	1147.44
442.043	1135.44
442.264	1137.44
442.486	1114.44
442.707	1131.44
442.928	1129.44
443.149	1120.44
443.371	1146.44
443.592	1144.44
443.813	1147.44
444.034	1119.44
444.255	1198.44
444.476	1225.44
444.698	1253.44
444.919	1287.44
445.14	1402.44
445.361	1269.44
445.582	1167.44
445.803	1168.44
446.024	1103.44
446.245	1102.44
446.466	1113.44
446.687	1058.44
446.908	1065.44
447.129	1033.44
447.35	1010.44
447.571	1024.44
447.792	1001.44
448.013	987.44
448.234	949.44
448.455	927.44
448.675	959.44
448.896	945.44
449.117	967.44
449.338	945.44
449.559	931.44
449.779	961.44
450	918.44
450.221	936.44
450.442	971.44
450.662	956.44
450.883	969.44
451.104	975.44
451.324	947.44
451.545	951.44
451.766	986.44
451.986	946.44
452.207	948.44
452.428	935.44
452.648	949.44
452.869	897.44
453.089	922.44
453.31	934.44
453.53	913.44
453.751	916.44
453.971	906.44
454.192	909.44
454.412	873.44
454.633	912.44
454.853	906.44
455.073	895.44
455.294	891.44
455.514	882.44
455.734	872.44
455.955	865.44
456.175	877.44
456.395	875.44
456.616	884.44
456.836	876.44
457.056	900.44
457.276	882.44
457.497	906.44
457.717	889.44
457.937	907.44
458.157	915.44
458.377	878.44
458.598	928.44
458.818	959.44
459.038	968.44
459.258	986.44
459.478	1040.44
459.698	1048.44
459.918	1058.44
460.138	1118.44
460.358	1145.44
460.578	1188.44
460.798	1191.44
461.018	1237.44
461.238	1212.44
461.458	1214.44
461.678	1180.44
461.898	1206.44
462.118	1250.44
462.338	1291.44
462.558	1328.44
462.777	1353.44
462.997	1451.44
463.217	1466.44
463.437	1499.44
463.657	1469.44
463.876	1434.44
464.096	1393.44
464.316	1377.44
464.536	1349.44
464.755	1359.44
464.975	1307.44
465.195	1247.44
465.414	1184.44
465.634	1085.44
465.854	1104.44
466.073	1043.44
466.293	1059.44
466.512	1006.44
466.732	993.44
466.951	998.44
467.171	990.44
467.391	975.44
467.61	965.44
467.829	975.44
468.049	961.44
468.268	967.44
468.488	956.44
468.707	930.44
468.927	955.44
469.146	966.44
469.365	953.44
469.585	970.44
469.804	1023.44
470.023	1016.44
470.243	1008.44
470.462	999.44
470.681	1014.44
470.901	1019.44
471.12	1027.44
471.339	1001.44
471.558	978.44
471.777	978.44
471.997	1001.44
472.216	987.44
472.435	963.44
472.654	936.44
472.873	945.44
473.092	941.44
473.311	943.44
473.53	926.44
473.749	902.44
473.968	908.44
474.187	931.44
474.406	923.44
474.625	942.44
474.844	936.44
475.063	945.44
475.282	922.44
475.501	948.44
475.72	948.44
475.939	958.44
476.158	969.44
476.377	972.44
476.596	930.44
476.814	979.44
477.033	963.44
477.252	1015.44
477.471	1046.44
477.69	1025.44
477.908	1020.44
478.127	1096.44
478.346	1081.44
478.564	1112.44
478.783	1100.44
479.002	1150.44
479.22	1152.44
479.439	1131.44
479.658	1150.44
479.876	1143.44
480.095	1156.44
480.313	1207.44
480.532	1211.44
480.751	1198.44
480.969	1175.44
481.188	1129.44
481.406	1136.44
481.624	1098.44
481.843	1059.44
482.061	1055.44
482.28	1050.44
482.498	1062.44
482.717	1051.44
482.935	1059.44
483.153	1082.44
483.372	1061.44
483.59	1046.44
483.808	1066.44
484.027	1061.44
484.245	1080.44
484.463	1046.44
484.681	1096.44
484.9	1094.44
485.118	1107.44
485.336	1063.44
485.554	1077.44
485.772	1083.44
485.99	1093.44
486.209	1118.44
486.427	1099.44
486.645	1087.44
486.863	1104.44
487.081	1115.44
487.299	1123.44
487.517	1087.44
487.735	1097.44
487.953	1128.44
488.171	1107.44
488.389	1118.44
488.607	1098.44
488.825	1092.44
489.043	1096.44
489.261	1086.44
489.479	1086.44
489.696	1113.44
489.914	1108.44
490.132	1096.44
490.35	1111.44
490.568	1144.44
490.786	1150.44
491.003	1104.44
491.221	1124.44
491.439	1143.44
491.657	1115.44
491.874	1138.44
492.092	1178.44
492.31	1170.44
492.527	1119.44
492.745	1157.44
492.963	1162.44
493.18	1169.44
493.398	1170.44
493.615	1147.44
493.833	1187.44
494.05	1182.44
494.268	1164.44
494.485	1221.44
494.703	1221.44
494.92	1205.44
495.138	1211.44
495.355	1225.44
495.573	1210.44
495.79	1225.44
496.008	1231.44
496.225	1223.44
496.442	1229.44
496.66	1246.44
496.877	1275.44
497.094	1318.44
497.312	1336.44
497.529	1354.44
497.746	1415.44
497.963	1446.44
498.181	1478.44
498.398	1551.44
498.615	1600.44
498.832	1717.44
499.049	1852.44
499.267	2007.44
499.484	2164.44
499.701	2361.44
499.918	2562.44
500.135	2802.44
500.352	3085.44
500.569	3210.44
500.786	3189.44
501.003	3046.44
501.22	2775.44
501.437	2558.44
501.654	2281.44
501.871	2121.44
502.088	1984.44
502.305	1849.44
502.522	1742.44
502.739	1699.44
502.956	1608.44
503.172	1525.44
503.389	1480.44
503.606	1462.44
503.823	1406.44
504.04	1424.44
504.256	1352.44
504.473	1364.44
504.69	1431.44
504.907	1355.44
505.123	1329.44
505.34	1267.44
505.557	1190.44
505.773	1190.44
505.99	1138.44
506.207	1126.44
506.423	1120.44
506.64	1088.44
506.856	1087.44
507.073	1087.44
507.289	1087.44
507.506	1053.44
507.722	1094.44
507.939	1055.44
508.155	1036.44
508.372	1053.44
508.588	1002.44
508.805	1019.44
509.021	1015.44
509.238	984.44
509.454	963.44
509.67	977.44
509.887	987.44
510.103	948.44
510.319	963.44
510.536	957.44
510.752	982.44
510.968	930.44
511.184	942.44
511.401	944.44
511.617	944.44
511.833	964.44
512.049	952.44
512.265	954.44
512.481	961.44
512.698	944.44
512.914	975.44
513.13	957.44
513.346	959.44
513.562	944.44
513.778	952.44
513.994	981.44
514.21	960.44
514.426	984.44
514.642	969.44
514.858	995.44
515.074	998.44
515.29	1012.44
515.506	998.44
515.721	1018.44
515.937	1051.44
516.153	1047.44
516.369	1103.44
516.585	1097.44
516.801	1150.44
517.016	1182.44
517.232	1217.44
517.448	1235.44
517.664	1263.44
517.879	1298.44
518.095	1302.44
518.311	1280.44
518.527	1219.44
518.742	1182.44
518.958	1153.44
519.173	1132.44
519.389	1088.44
519.605	1042.44
519.82	1052.44
520.036	1022.44
520.251	978.44
520.467	994.44
520.682	962.44
520.898	954.44
521.113	949.44
521.329	946.44
521.544	934.44
521.76	954.44
521.975	899.44
522.19	942.44
522.406	902.44
522.621	891.44
522.836	889.44
523.052	904.44
523.267	907.44
523.482	890.44
523.698	894.44
523.913	869.44
524.128	910.44
524.343	896.44
524.559	878.44
524.774	867.44
524.989	865.44
525.204	889.44
525.419	848.44
525.634	862.44
525.849	850.44
526.064	844.44
526.28	890.44
526.495	868.44
526.71	892.44
526.925	880.44
527.14	853.44
527.355	861.44
527.57	840.44
527.785	847.44
527.999	853.44
528.214	862.44
528.429	871.44
528.644	862.44
528.859	850.44
529.074	838.44
529.289	870.44
529.503	836.44
529.718	869.44
529.933	852.44
530.148	850.44
530.363	868.44
530.577	847.44
530.792	859.44
531.007	850.44
531.221	861.44
531.436	868.44
531.651	849.44
531.865	847.44
532.08	836.44
532.295	871.44
532.509	848.44
532.724	857.44
532.938	855.44
533.153	882.44
533.367	858.44
533.582	846.44
533.796	844.44
534.011	826.44
534.225	841.44
534.44	845.44
534.654	831.44
534.868	828.44
535.083	875.44
535.297	827.44
535.511	823.44
535.726	846.44
535.94	816.44
536.154	775.44
536.369	817.44
536.583	816.44
536.797	801.44
537.011	810.44
537.225	810.44
537.44	785.44
537.654	798.44
537.868	786.44
538.082	776.44
538.296	781.44
538.51	779.44
538.724	792.44
538.938	775.44
539.153	772.44
539.367	782.44
539.581	773.44
539.795	740.44
540.009	744.44
540.222	774.44
540.436	768.44
540.65	755.44
540.864	796.44
541.078	758.44
541.292	795.44
541.506	788.44
541.72	789.44
541.934	798.44
542.147	779.44
542.361	762.44
542.575	773.44
542.789	784.44
543.002	763.44
543.216	745.44
543.43	740.44
543.644	776.44
543.857	774.44
544.071	777.44
544.285	783.44
544.498	784.44
544.712	775.44
544.925	792.44
545.139	814.44
545.352	768.44
545.566	830.44
545.779	779.44
545.993	802.44
546.206	803.44
546.42	793.44
546.633	799.44
546.847	810.44
547.06	788.44
547.274	821.44
547.487	804.44
547.7	799.44
547.914	834.44
548.127	789.44
548.34	819.44
548.554	804.44
548.767	804.44
548.98	782.44
549.193	831.44
549.407	797.44
549.62	793.44
549.833	800.44
550.046	818.44
550.259	798.44
550.473	782.44
550.686	796.44
550.899	783.44
551.112	787.44
551.325	775.44
551.538	786.44
551.751	783.44
551.964	792.44
552.177	812.44
552.39	824.44
552.603	808.44
552.816	828.44
553.029	828.44
553.242	833.44
553.455	844.44
553.667	849.44
553.88	839.44
554.093	814.44
554.306	806.44
554.519	806.44
554.732	792.44
554.944	766.44
555.157	779.44
555.37	790.44
555.583	770.44
555.795	724.44
556.008	723.44
556.221	711.44
556.433	698.44
556.646	715.44
556.859	705.44
557.071	709.44
557.284	680.44
557.496	666.44
557.709	690.44
557.921	686.44
558.134	664.44
558.346	669.44
558.559	667.44
558.771	664.44
558.984	668.44
559.196	648.44
559.409	688.44
559.621	651.44
559.833	673.44
560.046	641.44
560.258	636.44
560.47	686.44
560.683	666.44
560.895	637.44
561.107	641.44
561.32	643.44
561.532	651.44
561.744	646.44
561.956	648.44
562.168	658.44
562.381	658.44
562.593	630.44
562.805	638.44
563.017	693.44
563.229	648.44
563.441	654.44
563.653	693.44
563.865	686.44
564.077	700.44
564.289	689.44
564.501	682.44
564.713	712.44
564.925	724.44
565.137	705.44
565.349	721.44
565.561	784.44
565.773	807.44
565.985	834.44
566.197	849.44
566.408	894.44
566.62	945.44
566.832	1026.44
567.044	1014.44
567.255	1042.44
567.467	1051.44
567.679	1090.44
567.891	1123.44
568.102	1127.44
568.314	1083.44
568.526	1018.44
568.737	908.44
568.949	868.44
569.161	831.44
569.372	769.44
569.584	736.44
569.795	720.44
570.007	704.44
570.218	680.44
570.43	670.44
570.641	675.44
570.853	657.44
571.064	696.44
571.276	661.44
571.487	660.44
571.698	638.44
571.91	627.44
572.121	610.44
572.333	619.44
572.544	602.44
572.755	562.44
572.966	561.44
573.178	564.44
573.389	567.44
573.6	565.44
573.811	538.44
574.023	540.44
574.234	568.44
574.445	537.44
574.656	535.44
574.867	532.44
575.078	552.44
575.289	546.44
575.501	504.44
575.712	511.44
575.923	502.44
576.134	501.44
576.345	500.44
576.556	522.44
576.767	511.44
576.978	498.44
577.188	504.44
577.399	496.44
577.61	494.44
577.821	502.44
578.032	497.44
578.243	468.44
578.454	480.44
578.665	487.44
578.875	466.44
579.086	481.44
579.297	465.44
579.508	471.44
579.718	492.44
579.929	478.44
580.14	463.44
580.35	461.44
580.561	471.44
580.772	458.44
580.982	455.44
581.193	486.44
581.403	469.44
581.614	467.44
581.825	460.44
582.035	465.44
582.246	470.44
582.456	436.44
582.667	449.44
582.877	454.44
583.087	449.44
583.298	424.44
583.508	444.44
583.719	435.44
583.929	439.44
584.139	462.44
584.35	438.44
584.56	448.44
584.77	452.44
584.981	424.44
585.191	458.44
585.401	443.44
585.611	425.44
585.821	431.44
586.032	422.44
586.242	423.44
586.452	440.44
586.662	410.44
586.872	418.44
587.082	408.44
587.292	434.44
587.502	433.44
587.713	436.44
587.923	400.44
588.133	417.44
588.343	430.44
588.553	438.44
588.762	441.44
588.972	422.44
589.182	427.44
589.392	444.44
589.602	437.44
589.812	449.44
590.022	456.44
590.232	430.44
590.441	415.44
590.651	440.44
590.861	439.44
591.071	440.44
591.281	446.44
591.49	430.44
591.7	464.44
591.91	471.44
592.119	454.44
592.329	468.44
592.539	484.44
592.748	491.44
592.958	486.44
593.167	503.44
593.377	522.44
593.587	528.44
593.796	523.44
594.006	519.44
594.215	522.44
594.424	519.44
594.634	493.44
594.843	505.44
595.053	485.44
595.262	451.44
595.472	462.44
595.681	466.44
595.89	438.44
596.1	430.44
596.309	433.44
596.518	434.44
596.727	402.44
596.937	405.44
597.146	399.44
597.355	392.44
597.564	402.44
597.774	380.44
597.983	363.44
598.192	380.44
598.401	380.44
598.61	363.44
598.819	376.44
599.028	388.44
599.237	358.44
599.446	360.44
599.655	356.44
599.864	346.44
600.073	346.44
600.282	353.44
600.491	370.44
600.7	371.44
600.909	371.44
601.118	364.44
601.327	329.44
601.536	341.44
601.745	355.44
601.953	362.44
602.162	346.44
602.371	331.44
602.58	347.44
602.789	350.44
602.997	355.44
603.206	345.44
603.415	348.44
603.623	333.44
603.832	338.44
604.041	331.44
604.249	332.44
604.458	326.44
604.666	337.44
604.875	322.44
605.084	322.44
605.292	342.44
605.501	341.44
605.709	316.44
605.918	325.44
606.126	349.44
606.334	328.44
606.543	350.44
606.751	334.44
606.96	345.44
607.168	330.44
607.376	316.44
607.585	325.44
607.793	342.44
608.001	327.44
608.21	307.44
608.418	320.44
608.626	326.44
608.834	324.44
609.043	332.44
609.251	322.44
609.459	302.44
609.667	322.44
609.875	307.44
610.083	317.44
610.291	310.44
610.499	320.44
610.707	331.44
610.916	313.44
611.124	313.44
611.332	312.44
611.54	310.44
611.748	296.44
611.955	299.44
612.163	298.44
612.371	317.44
612.579	306.44
612.787	302.44
612.995	313.44
613.203	303.44
613.411	295.44
613.618	303.44
613.826	317.44
614.034	320.44
614.242	299.44
614.449	284.44
614.657	299.44
614.865	293.44
615.072	305.44
615.28	294.44
615.488	307.44
615.695	316.44
615.903	312.44
616.111	289.44
616.318	290.44
616.526	321.44
616.733	314.44
616.941	308.44
617.148	300.44
617.356	299.44
617.563	285.44
617.771	305.44
617.978	290.44
618.185	304.44
618.393	291.44
618.6	290.44
618.807	289.44
619.015	299.44
619.222	284.44
619.429	268.44
619.637	302.44
619.844	293.44
620.051	292.44
620.258	296.44
620.466	297.44
620.673	276.44
620.88	294.44
621.087	279.44
621.294	283.44
621.501	281.44
621.708	278.44
621.915	266.44
622.122	281.44
622.329	292.44
622.536	296.44
622.743	279.44
622.95	265.44
623.157	269.44
623.364	268.44
623.571	297.44
623.778	287.44
623.985	276.44
624.192	268.44
624.399	280.44
624.606	291.44
624.812	268.44
625.019	274.44
625.226	271.44
625.433	276.44
625.639	262.44
625.846	249.44
626.053	264.44
626.259	274.44
626.466	265.44
626.673	250.44
626.879	262.44
627.086	253.44
627.293	255.44
627.499	274.44
627.706	261.44
627.912	257.44
628.119	252.44
628.325	255.44
628.532	260.44
628.738	244.44
628.945	242.44
629.151	258.44
629.357	228.44
629.564	239.44
629.77	241.44
629.976	235.44
630.183	250.44
630.389	247.44
630.595	236.44
630.802	246.44
631.008	238.44
631.214	239.44
631.42	253.44
631.627	238.44
631.833	262.44
632.039	224.44
632.245	242.44
632.451	232.44
632.657	229.44
632.863	231.44
633.069	250.44
633.275	233.44
633.481	230.44
633.688	221.44
633.893	224.44
634.099	225.44
634.305	234.44
634.511	224.44
634.717	235.44
634.923	220.44
635.129	225.44
635.335	231.44
635.541	219.44
635.747	219.44
635.952	214.44
636.158	220.44
636.364	227.44
636.57	229.44
636.775	230.44
636.981	217.44
637.187	216.44
637.392	215.44
637.598	202.44
637.804	212.44
638.009	225.44
638.215	213.44
638.421	222.44
638.626	200.44
638.832	219.44
639.037	219.44
639.243	215.44
639.448	216.44
639.654	216.44
639.859	203.44
640.065	190.44
640.27	224.44
640.475	214.44
640.681	202.44
640.886	203.44
641.091	202.44
641.297	198.44
641.502	200.44
641.707	203.44
641.913	199.44
642.118	201.44
642.323	193.44
642.528	199.44
642.733	206.44
642.939	198.44
643.144	194.44
643.349	207.44
643.554	209.44
643.759	196.44
643.964	192.44
644.169	194.44
644.374	177.44
644.579	206.44
644.784	197.44
644.989	194.44
645.194	190.44
645.399	199.44
645.604	193.44
645.809	200.44
646.014	204.44
646.219	197.44
646.423	179.44
646.628	200.44
646.833	189.44
647.038	180.44
647.243	191.44
647.447	203.44
647.652	198.44
647.857	190.44
648.062	207.44
648.266	206.44
648.471	196.44
648.676	204.44
648.88	209.44
649.085	203.44
649.289	200.44
649.494	184.44
649.698	190.44
649.903	184.44
650.107	197.44
650.312	191.44
650.516	185.44
650.721	183.44
650.925	172.44
651.13	189.44
651.334	171.44
651.539	171.44
651.743	176.44
651.947	171.44
652.152	165.44
652.356	142.44
652.56	159.44
652.764	174.44
652.969	171.44
653.173	142.44
653.377	164.44
653.581	149.44
653.785	157.44
653.99	162.44
654.194	153.44
654.398	143.44
654.602	161.44
654.806	142.44
655.01	151.44
655.214	159.44
655.418	130.44
655.622	129.44
655.826	131.44
656.03	127.44
656.234	138.44
656.438	131.44
656.642	128.44
656.846	127.44
657.049	135.44
657.253	113.44
657.457	130.44
657.661	125.44
657.865	128.44
658.068	124.44
658.272	119.44
658.476	102.44
658.68	108.44
658.883	106.44
659.087	102.44
659.291	118.44
659.494	111.44
659.698	105.44
659.901	100.44
660.105	106.44
660.309	91.44
660.512	89.44
660.716	95.44
660.919	83.44
661.123	96.44
661.326	88.44
661.53	96.44
661.733	89.44
661.936	86.44
662.14	85.44
662.343	97.44
662.546	94.44
662.75	83.44
662.953	83.44
663.156	86.44
663.36	78.44
663.563	87.44
663.766	84.44
663.969	76.44
664.173	88.44
664.376	82.44
664.579	75.44
664.782	77.44
664.985	93.44
665.188	84.44
665.391	83.44
665.594	71.44
665.797	85.44
666	83.44
666.203	73.44
666.406	86.44
666.609	72.44
666.812	81.44
667.015	80.44
667.218	68.44
667.421	89.44
667.624	79.44
667.827	79.44
668.03	71.44
668.232	68.44
668.435	74.44
668.638	71.44
668.841	73.44
669.043	71.44
669.246	67.44
669.449	75.44
669.651	81.44
669.854	86.44
670.057	87.44
670.259	79.44
670.462	72.44
670.665	88.44
670.867	90.44
671.07	96.44
671.272	101.44
671.475	84.44
671.677	78.44
671.88	78.44
672.082	74.44
672.284	76.44
672.487	73.44
672.689	88.44
672.892	78.44
