Data from Ni(NO3)2@0.25M.TitratingCurve.Agarose3%dH2O.NegLispCup.LampEnergy10.LIBS07252019_HRD10591_18-04-13-565.txt Node
Date: Thu Jul 25 18:04:13 EDT 2019
User: cochatt
Spectrometer: HR+D1059
Trigger mode: 1
Integration Time (sec): 1.000000E-1
Scans to average: 1
Electric dark correction enabled: true
Nonlinearity correction enabled: false
Boxcar width: 0
XAxis mode: Wavelengths
Number of Pixels in Spectrum: 2048
>>>>>Begin Spectral Data<<<<<
223.165	3.69
223.4	3.69
223.635	3.69
223.869	-24.31
224.104	-10.31
224.338	-5.31
224.573	1.69
224.808	-11.31
225.042	-10.31
225.277	-12.31
225.511	-8.31
225.746	-3.31
225.98	-12.31
226.215	2.69
226.449	8.69
226.683	19.69
226.918	30.69
227.152	30.69
227.387	34.69
227.621	31.69
227.856	38.69
228.09	50.69
228.324	64.69
228.559	58.69
228.793	62.69
229.027	87.69
229.262	117.69
229.496	126.69
229.73	111.69
229.964	125.69
230.199	119.69
230.433	135.69
230.667	124.69
230.901	135.69
231.136	115.69
231.37	139.69
231.604	150.69
231.838	151.69
232.072	136.69
232.306	149.69
232.541	153.69
232.775	155.69
233.009	131.69
233.243	155.69
233.477	135.69
233.711	137.69
233.945	150.69
234.179	146.69
234.413	141.69
234.647	154.69
234.881	141.69
235.115	131.69
235.349	149.69
235.583	151.69
235.817	147.69
236.051	138.69
236.285	152.69
236.519	148.69
236.753	141.69
236.987	143.69
237.221	141.69
237.455	153.69
237.689	140.69
237.922	139.69
238.156	170.69
238.39	159.69
238.624	160.69
238.858	171.69
239.091	146.69
239.325	167.69
239.559	155.69
239.793	179.69
240.027	178.69
240.26	162.69
240.494	176.69
240.728	180.69
240.961	164.69
241.195	158.69
241.429	170.69
241.662	171.69
241.896	173.69
242.13	184.69
242.363	183.69
242.597	183.69
242.83	175.69
243.064	191.69
243.298	186.69
243.531	183.69
243.765	202.69
243.998	200.69
244.232	199.69
244.465	185.69
244.699	200.69
244.932	189.69
245.166	200.69
245.399	215.69
245.633	190.69
245.866	195.69
246.099	198.69
246.333	206.69
246.566	214.69
246.8	216.69
247.033	203.69
247.266	214.69
247.5	219.69
247.733	229.69
247.966	217.69
248.2	234.69
248.433	218.69
248.666	227.69
248.899	215.69
249.133	231.69
249.366	235.69
249.599	240.69
249.832	240.69
250.066	244.69
250.299	234.69
250.532	267.69
250.765	262.69
250.998	256.69
251.231	258.69
251.465	240.69
251.698	267.69
251.931	261.69
252.164	266.69
252.397	269.69
252.63	259.69
252.863	266.69
253.096	276.69
253.329	278.69
253.562	265.69
253.795	283.69
254.028	278.69
254.261	278.69
254.494	304.69
254.727	291.69
254.96	300.69
255.193	297.69
255.426	291.69
255.659	286.69
255.892	293.69
256.124	289.69
256.357	299.69
256.59	287.69
256.823	313.69
257.056	309.69
257.289	304.69
257.521	313.69
257.754	300.69
257.987	309.69
258.22	312.69
258.452	314.69
258.685	316.69
258.918	325.69
259.151	341.69
259.383	330.69
259.616	325.69
259.849	328.69
260.081	327.69
260.314	311.69
260.547	358.69
260.779	321.69
261.012	330.69
261.244	357.69
261.477	347.69
261.71	322.69
261.942	349.69
262.175	324.69
262.407	343.69
262.64	348.69
262.872	347.69
263.105	352.69
263.337	355.69
263.57	343.69
263.802	346.69
264.035	360.69
264.267	355.69
264.499	375.69
264.732	372.69
264.964	380.69
265.197	379.69
265.429	369.69
265.661	368.69
265.894	383.69
266.126	386.69
266.358	379.69
266.591	370.69
266.823	377.69
267.055	378.69
267.287	383.69
267.52	380.69
267.752	389.69
267.984	400.69
268.216	384.69
268.448	382.69
268.681	391.69
268.913	390.69
269.145	387.69
269.377	395.69
269.609	393.69
269.841	408.69
270.073	407.69
270.306	400.69
270.538	417.69
270.77	386.69
271.002	391.69
271.234	403.69
271.466	419.69
271.698	392.69
271.93	405.69
272.162	418.69
272.394	421.69
272.626	395.69
272.858	410.69
273.09	418.69
273.322	423.69
273.553	428.69
273.785	426.69
274.017	440.69
274.249	447.69
274.481	433.69
274.713	420.69
274.945	452.69
275.176	425.69
275.408	447.69
275.64	420.69
275.872	434.69
276.104	425.69
276.335	429.69
276.567	456.69
276.799	443.69
277.031	445.69
277.262	436.69
277.494	429.69
277.726	455.69
277.957	445.69
278.189	439.69
278.421	456.69
278.652	417.69
278.884	454.69
279.115	475.69
279.347	489.69
279.579	475.69
279.81	460.69
280.042	466.69
280.273	446.69
280.505	456.69
280.736	475.69
280.968	490.69
281.199	464.69
281.431	471.69
281.662	487.69
281.894	452.69
282.125	476.69
282.356	486.69
282.588	470.69
282.819	496.69
283.051	489.69
283.282	494.69
283.513	505.69
283.745	500.69
283.976	481.69
284.207	473.69
284.439	496.69
284.67	486.69
284.901	488.69
285.132	480.69
285.364	495.69
285.595	492.69
285.826	483.69
286.057	498.69
286.288	490.69
286.52	506.69
286.751	516.69
286.982	488.69
287.213	521.69
287.444	508.69
287.675	515.69
287.906	495.69
288.138	517.69
288.369	521.69
288.6	540.69
288.831	501.69
289.062	513.69
289.293	511.69
289.524	522.69
289.755	516.69
289.986	531.69
290.217	529.69
290.448	522.69
290.679	506.69
290.91	527.69
291.141	508.69
291.371	540.69
291.602	545.69
291.833	529.69
292.064	518.69
292.295	510.69
292.526	517.69
292.757	531.69
292.987	520.69
293.218	521.69
293.449	521.69
293.68	520.69
293.91	540.69
294.141	535.69
294.372	514.69
294.603	532.69
294.833	520.69
295.064	559.69
295.295	531.69
295.525	550.69
295.756	547.69
295.987	565.69
296.217	552.69
296.448	540.69
296.679	530.69
296.909	538.69
297.14	545.69
297.37	553.69
297.601	554.69
297.831	575.69
298.062	559.69
298.292	562.69
298.523	588.69
298.753	589.69
298.984	581.69
299.214	546.69
299.445	570.69
299.675	575.69
299.905	587.69
300.136	549.69
300.366	587.69
300.597	586.69
300.827	608.69
301.057	609.69
301.288	588.69
301.518	612.69
301.748	600.69
301.979	599.69
302.209	601.69
302.439	581.69
302.669	593.69
302.9	612.69
303.13	577.69
303.36	625.69
303.59	593.69
303.82	636.69
304.051	607.69
304.281	607.69
304.511	615.69
304.741	614.69
304.971	617.69
305.201	625.69
305.431	639.69
305.661	616.69
305.891	616.69
306.121	570.69
306.352	590.69
306.582	584.69
306.812	597.69
307.042	597.69
307.272	566.69
307.502	615.69
307.731	599.69
307.961	599.69
308.191	611.69
308.421	609.69
308.651	571.69
308.881	581.69
309.111	591.69
309.341	611.69
309.571	602.69
309.8	618.69
310.03	621.69
310.26	643.69
310.49	618.69
310.72	635.69
310.949	593.69
311.179	617.69
311.409	603.69
311.639	625.69
311.868	631.69
312.098	650.69
312.328	644.69
312.557	612.69
312.787	621.69
313.017	662.69
313.246	637.69
313.476	659.69
313.706	645.69
313.935	651.69
314.165	648.69
314.394	658.69
314.624	677.69
314.853	660.69
315.083	674.69
315.312	679.69
315.542	678.69
315.771	659.69
316.001	664.69
316.23	684.69
316.46	693.69
316.689	661.69
316.919	641.69
317.148	683.69
317.377	664.69
317.607	649.69
317.836	694.69
318.065	693.69
318.295	664.69
318.524	671.69
318.753	675.69
318.983	651.69
319.212	659.69
319.441	683.69
319.67	672.69
319.9	684.69
320.129	683.69
320.358	687.69
320.587	661.69
320.816	705.69
321.046	709.69
321.275	672.69
321.504	697.69
321.733	717.69
321.962	715.69
322.191	724.69
322.42	706.69
322.649	710.69
322.878	700.69
323.108	692.69
323.337	721.69
323.566	713.69
323.795	712.69
324.024	732.69
324.253	725.69
324.482	757.69
324.71	718.69
324.939	727.69
325.168	773.69
325.397	767.69
325.626	765.69
325.855	767.69
326.084	785.69
326.313	775.69
326.542	782.69
326.77	783.69
326.999	791.69
327.228	778.69
327.457	800.69
327.686	788.69
327.914	821.69
328.143	786.69
328.372	791.69
328.6	808.69
328.829	808.69
329.058	795.69
329.287	807.69
329.515	811.69
329.744	835.69
329.972	832.69
330.201	795.69
330.43	847.69
330.658	851.69
330.887	824.69
331.115	829.69
331.344	843.69
331.572	872.69
331.801	884.69
332.03	924.69
332.258	888.69
332.486	920.69
332.715	932.69
332.943	964.69
333.172	999.69
333.4	997.69
333.629	1012.69
333.857	1049.69
334.085	1055.69
334.314	1035.69
334.542	1050.69
334.771	1040.69
334.999	1040.69
335.227	1048.69
335.455	1059.69
335.684	1059.69
335.912	1035.69
336.14	1000.69
336.369	1025.69
336.597	1013.69
336.825	1028.69
337.053	1025.69
337.281	1005.69
337.51	997.69
337.738	996.69
337.966	963.69
338.194	956.69
338.422	952.69
338.65	940.69
338.878	941.69
339.106	935.69
339.334	957.69
339.562	920.69
339.79	886.69
340.018	910.69
340.246	916.69
340.474	902.69
340.702	900.69
340.93	884.69
341.158	910.69
341.386	917.69
341.614	913.69
341.842	922.69
342.07	899.69
342.298	915.69
342.526	915.69
342.754	905.69
342.981	903.69
343.209	918.69
343.437	951.69
343.665	977.69
343.893	998.69
344.12	1047.69
344.348	1055.69
344.576	1001.69
344.804	995.69
345.031	948.69
345.259	930.69
345.487	926.69
345.714	923.69
345.942	934.69
346.17	936.69
346.397	902.69
346.625	882.69
346.853	881.69
347.08	885.69
347.308	880.69
347.535	870.69
347.763	861.69
347.99	864.69
348.218	889.69
348.445	884.69
348.673	899.69
348.9	851.69
349.128	883.69
349.355	879.69
349.583	845.69
349.81	851.69
350.037	821.69
350.265	847.69
350.492	859.69
350.72	857.69
350.947	838.69
351.174	844.69
351.402	867.69
351.629	866.69
351.856	841.69
352.083	830.69
352.311	851.69
352.538	872.69
352.765	881.69
352.992	825.69
353.22	838.69
353.447	821.69
353.674	832.69
353.901	834.69
354.128	847.69
354.355	823.69
354.583	830.69
354.81	824.69
355.037	817.69
355.264	835.69
355.491	835.69
355.718	840.69
355.945	837.69
356.172	828.69
356.399	834.69
356.626	841.69
356.853	874.69
357.08	834.69
357.307	822.69
357.534	871.69
357.761	864.69
357.988	839.69
358.215	833.69
358.441	808.69
358.668	826.69
358.895	839.69
359.122	801.69
359.349	819.69
359.576	825.69
359.802	867.69
360.029	839.69
360.256	813.69
360.483	837.69
360.709	835.69
360.936	856.69
361.163	841.69
361.39	837.69
361.616	824.69
361.843	829.69
362.07	887.69
362.296	870.69
362.523	840.69
362.749	816.69
362.976	842.69
363.203	835.69
363.429	805.69
363.656	828.69
363.882	831.69
364.109	835.69
364.335	824.69
364.562	834.69
364.788	818.69
365.015	821.69
365.241	828.69
365.468	821.69
365.694	825.69
365.92	823.69
366.147	826.69
366.373	805.69
366.599	829.69
366.826	828.69
367.052	816.69
367.278	836.69
367.505	844.69
367.731	841.69
367.957	833.69
368.184	833.69
368.41	819.69
368.636	815.69
368.862	827.69
369.089	835.69
369.315	846.69
369.541	850.69
369.767	850.69
369.993	854.69
370.219	849.69
370.445	856.69
370.672	845.69
370.898	870.69
371.124	868.69
371.35	879.69
371.576	874.69
371.802	911.69
372.028	872.69
372.254	873.69
372.48	896.69
372.706	898.69
372.932	909.69
373.158	914.69
373.384	902.69
373.61	851.69
373.835	899.69
374.061	875.69
374.287	884.69
374.513	895.69
374.739	913.69
374.965	934.69
375.191	919.69
375.416	933.69
375.642	910.69
375.868	919.69
376.094	898.69
376.319	868.69
376.545	896.69
376.771	893.69
376.997	874.69
377.222	886.69
377.448	865.69
377.674	893.69
377.899	861.69
378.125	864.69
378.35	898.69
378.576	889.69
378.802	823.69
379.027	861.69
379.253	849.69
379.478	863.69
379.704	827.69
379.929	857.69
380.155	856.69
380.38	858.69
380.606	837.69
380.831	843.69
381.057	893.69
381.282	845.69
381.507	869.69
381.733	872.69
381.958	869.69
382.184	876.69
382.409	893.69
382.634	897.69
382.86	874.69
383.085	909.69
383.31	915.69
383.535	910.69
383.761	907.69
383.986	945.69
384.211	948.69
384.436	954.69
384.662	960.69
384.887	992.69
385.112	981.69
385.337	967.69
385.562	1003.69
385.787	1014.69
386.013	1007.69
386.238	1019.69
386.463	1014.69
386.688	1028.69
386.913	1004.69
387.138	996.69
387.363	1017.69
387.588	1029.69
387.813	1019.69
388.038	1030.69
388.263	1047.69
388.488	1029.69
388.713	1003.69
388.938	1021.69
389.163	988.69
389.387	1018.69
389.612	991.69
389.837	997.69
390.062	1036.69
390.287	1007.69
390.512	1001.69
390.736	1031.69
390.961	1044.69
391.186	1071.69
391.411	1060.69
391.636	1049.69
391.86	1090.69
392.085	1115.69
392.31	1125.69
392.534	1094.69
392.759	1086.69
392.984	1104.69
393.208	1049.69
393.433	1073.69
393.658	1079.69
393.882	1080.69
394.107	1086.69
394.331	1109.69
394.556	1055.69
394.78	1086.69
395.005	1082.69
395.229	1104.69
395.454	1128.69
395.678	1119.69
395.903	1106.69
396.127	1148.69
396.352	1129.69
396.576	1127.69
396.801	1125.69
397.025	1107.69
397.249	1147.69
397.474	1146.69
397.698	1176.69
397.922	1176.69
398.147	1196.69
398.371	1219.69
398.595	1243.69
398.82	1294.69
399.044	1335.69
399.268	1462.69
399.492	1563.69
399.717	1661.69
399.941	1686.69
400.165	1628.69
400.389	1549.69
400.613	1441.69
400.837	1366.69
401.062	1312.69
401.286	1325.69
401.51	1319.69
401.734	1275.69
401.958	1333.69
402.182	1273.69
402.406	1309.69
402.63	1289.69
402.854	1318.69
403.078	1334.69
403.302	1353.69
403.526	1351.69
403.75	1369.69
403.974	1332.69
404.198	1350.69
404.422	1363.69
404.645	1364.69
404.869	1359.69
405.093	1364.69
405.317	1347.69
405.541	1392.69
405.765	1384.69
405.988	1355.69
406.212	1393.69
406.436	1433.69
406.66	1422.69
406.883	1461.69
407.107	1534.69
407.331	1557.69
407.555	1567.69
407.778	1570.69
408.002	1552.69
408.226	1544.69
408.449	1537.69
408.673	1464.69
408.896	1482.69
409.12	1436.69
409.344	1491.69
409.567	1444.69
409.791	1411.69
410.014	1398.69
410.238	1383.69
410.461	1410.69
410.685	1421.69
410.908	1367.69
411.132	1372.69
411.355	1341.69
411.578	1372.69
411.802	1360.69
412.025	1344.69
412.249	1357.69
412.472	1375.69
412.695	1356.69
412.919	1320.69
413.142	1326.69
413.365	1330.69
413.589	1339.69
413.812	1299.69
414.035	1282.69
414.258	1315.69
414.482	1310.69
414.705	1328.69
414.928	1334.69
415.151	1315.69
415.374	1298.69
415.597	1325.69
415.821	1280.69
416.044	1271.69
416.267	1247.69
416.49	1262.69
416.713	1267.69
416.936	1259.69
417.159	1283.69
417.382	1230.69
417.605	1261.69
417.828	1279.69
418.051	1297.69
418.274	1283.69
418.497	1279.69
418.72	1331.69
418.943	1287.69
419.166	1377.69
419.389	1444.69
419.611	1466.69
419.834	1373.69
420.057	1336.69
420.28	1307.69
420.503	1293.69
420.726	1300.69
420.948	1293.69
421.171	1308.69
421.394	1285.69
421.617	1258.69
421.839	1292.69
422.062	1275.69
422.285	1290.69
422.507	1298.69
422.73	1301.69
422.953	1277.69
423.175	1301.69
423.398	1318.69
423.621	1345.69
423.843	1329.69
424.066	1322.69
424.288	1318.69
424.511	1294.69
424.733	1294.69
424.956	1300.69
425.178	1298.69
425.401	1286.69
425.623	1291.69
425.846	1264.69
426.068	1292.69
426.291	1252.69
426.513	1254.69
426.735	1253.69
426.958	1255.69
427.18	1231.69
427.402	1236.69
427.625	1240.69
427.847	1209.69
428.069	1226.69
428.292	1177.69
428.514	1191.69
428.736	1184.69
428.958	1210.69
429.181	1177.69
429.403	1209.69
429.625	1178.69
429.847	1212.69
430.069	1195.69
430.292	1196.69
430.514	1175.69
430.736	1172.69
430.958	1168.69
431.18	1175.69
431.402	1196.69
431.624	1201.69
431.846	1236.69
432.068	1188.69
432.29	1203.69
432.512	1179.69
432.734	1197.69
432.956	1213.69
433.178	1249.69
433.4	1206.69
433.622	1237.69
433.844	1223.69
434.066	1241.69
434.287	1283.69
434.509	1272.69
434.731	1299.69
434.953	1313.69
435.175	1313.69
435.397	1336.69
435.618	1263.69
435.84	1243.69
436.062	1216.69
436.284	1224.69
436.505	1192.69
436.727	1212.69
436.949	1209.69
437.17	1190.69
437.392	1184.69
437.614	1191.69
437.835	1157.69
438.057	1192.69
438.278	1147.69
438.5	1159.69
438.721	1159.69
438.943	1160.69
439.165	1174.69
439.386	1172.69
439.608	1188.69
439.829	1204.69
440.05	1196.69
440.272	1209.69
440.493	1235.69
440.715	1231.69
440.936	1229.69
441.158	1281.69
441.379	1285.69
441.6	1325.69
441.822	1320.69
442.043	1324.69
442.264	1290.69
442.486	1283.69
442.707	1267.69
442.928	1286.69
443.149	1301.69
443.371	1327.69
443.592	1322.69
443.813	1347.69
444.034	1374.69
444.255	1350.69
444.476	1402.69
444.698	1428.69
444.919	1456.69
445.14	1521.69
445.361	1479.69
445.582	1397.69
445.803	1356.69
446.024	1323.69
446.245	1272.69
446.466	1290.69
446.687	1225.69
446.908	1241.69
447.129	1211.69
447.35	1224.69
447.571	1168.69
447.792	1154.69
448.013	1153.69
448.234	1108.69
448.455	1134.69
448.675	1140.69
448.896	1125.69
449.117	1100.69
449.338	1118.69
449.559	1114.69
449.779	1064.69
450	1136.69
450.221	1091.69
450.442	1120.69
450.662	1161.69
450.883	1128.69
451.104	1102.69
451.324	1111.69
451.545	1104.69
451.766	1123.69
451.986	1079.69
452.207	1107.69
452.428	1085.69
452.648	1077.69
452.869	1066.69
453.089	1062.69
453.31	1095.69
453.53	1069.69
453.751	1055.69
453.971	1032.69
454.192	1081.69
454.412	1046.69
454.633	1058.69
454.853	1084.69
455.073	1044.69
455.294	1074.69
455.514	1031.69
455.734	1077.69
455.955	1038.69
456.175	1055.69
456.395	1043.69
456.616	1030.69
456.836	1055.69
457.056	1052.69
457.276	1044.69
457.497	1064.69
457.717	1066.69
457.937	1085.69
458.157	1081.69
458.377	1100.69
458.598	1151.69
458.818	1155.69
459.038	1170.69
459.258	1176.69
459.478	1201.69
459.698	1257.69
459.918	1279.69
460.138	1317.69
460.358	1363.69
460.578	1349.69
460.798	1394.69
461.018	1394.69
461.238	1383.69
461.458	1367.69
461.678	1412.69
461.898	1367.69
462.118	1423.69
462.338	1489.69
462.558	1535.69
462.777	1557.69
462.997	1628.69
463.217	1674.69
463.437	1683.69
463.657	1636.69
463.876	1605.69
464.096	1613.69
464.316	1588.69
464.536	1603.69
464.755	1526.69
464.975	1500.69
465.195	1426.69
465.414	1385.69
465.634	1322.69
465.854	1261.69
466.073	1261.69
466.293	1234.69
466.512	1179.69
466.732	1165.69
466.951	1192.69
467.171	1186.69
467.391	1188.69
467.61	1159.69
467.829	1153.69
468.049	1143.69
468.268	1151.69
468.488	1139.69
468.707	1146.69
468.927	1133.69
469.146	1141.69
469.365	1173.69
469.585	1181.69
469.804	1175.69
470.023	1180.69
470.243	1186.69
470.462	1201.69
470.681	1209.69
470.901	1202.69
471.12	1201.69
471.339	1161.69
471.558	1187.69
471.777	1157.69
471.997	1151.69
472.216	1129.69
472.435	1125.69
472.654	1107.69
472.873	1117.69
473.092	1099.69
473.311	1094.69
473.53	1136.69
473.749	1116.69
473.968	1130.69
474.187	1116.69
474.406	1096.69
474.625	1135.69
474.844	1151.69
475.063	1148.69
475.282	1141.69
475.501	1142.69
475.72	1145.69
475.939	1138.69
476.158	1175.69
476.377	1145.69
476.596	1188.69
476.814	1186.69
477.033	1202.69
477.252	1221.69
477.471	1204.69
477.69	1271.69
477.908	1299.69
478.127	1282.69
478.346	1281.69
478.564	1330.69
478.783	1310.69
479.002	1370.69
479.22	1365.69
479.439	1369.69
479.658	1368.69
479.876	1368.69
480.095	1367.69
480.313	1416.69
480.532	1409.69
480.751	1377.69
480.969	1349.69
481.188	1351.69
481.406	1353.69
481.624	1303.69
481.843	1279.69
482.061	1266.69
482.28	1287.69
482.498	1279.69
482.717	1298.69
482.935	1300.69
483.153	1299.69
483.372	1280.69
483.59	1288.69
483.808	1277.69
484.027	1303.69
484.245	1281.69
484.463	1283.69
484.681	1325.69
484.9	1280.69
485.118	1311.69
485.336	1296.69
485.554	1315.69
485.772	1316.69
485.99	1335.69
486.209	1345.69
486.427	1329.69
486.645	1300.69
486.863	1330.69
487.081	1323.69
487.299	1328.69
487.517	1329.69
487.735	1349.69
487.953	1335.69
488.171	1345.69
488.389	1304.69
488.607	1353.69
488.825	1359.69
489.043	1305.69
489.261	1272.69
489.479	1293.69
489.696	1333.69
489.914	1357.69
490.132	1368.69
490.35	1363.69
490.568	1343.69
490.786	1350.69
491.003	1371.69
491.221	1372.69
491.439	1404.69
491.657	1367.69
491.874	1393.69
492.092	1384.69
492.31	1384.69
492.527	1426.69
492.745	1416.69
492.963	1410.69
493.18	1409.69
493.398	1437.69
493.615	1416.69
493.833	1449.69
494.05	1456.69
494.268	1468.69
494.485	1434.69
494.703	1443.69
494.92	1466.69
495.138	1424.69
495.355	1482.69
495.573	1499.69
495.79	1464.69
496.008	1519.69
496.225	1533.69
496.442	1548.69
496.66	1536.69
496.877	1580.69
497.094	1607.69
497.312	1642.69
497.529	1654.69
497.746	1708.69
497.963	1743.69
498.181	1787.69
498.398	1863.69
498.615	1944.69
498.832	2071.69
499.049	2174.69
499.267	2298.69
499.484	2479.69
499.701	2659.69
499.918	2856.69
500.135	3055.69
500.352	3279.69
500.569	3357.69
500.786	3327.69
501.003	3181.69
501.22	3062.69
501.437	2818.69
501.654	2617.69
501.871	2412.69
502.088	2293.69
502.305	2194.69
502.522	2116.69
502.739	2008.69
502.956	1915.69
503.172	1869.69
503.389	1783.69
503.606	1748.69
503.823	1711.69
504.04	1661.69
504.256	1667.69
504.473	1695.69
504.69	1656.69
504.907	1631.69
505.123	1553.69
505.34	1529.69
505.557	1508.69
505.773	1393.69
505.99	1402.69
506.207	1381.69
506.423	1326.69
506.64	1307.69
506.856	1320.69
507.073	1303.69
507.289	1296.69
507.506	1288.69
507.722	1255.69
507.939	1249.69
508.155	1261.69
508.372	1282.69
508.588	1233.69
508.805	1213.69
509.021	1216.69
509.238	1228.69
509.454	1216.69
509.67	1205.69
509.887	1169.69
510.103	1193.69
510.319	1159.69
510.536	1173.69
510.752	1151.69
510.968	1142.69
511.184	1184.69
511.401	1177.69
511.617	1163.69
511.833	1153.69
512.049	1134.69
512.265	1121.69
512.481	1166.69
512.698	1166.69
512.914	1139.69
513.13	1163.69
513.346	1163.69
513.562	1173.69
513.778	1183.69
513.994	1186.69
514.21	1159.69
514.426	1179.69
514.642	1171.69
514.858	1145.69
515.074	1205.69
515.29	1220.69
515.506	1243.69
515.721	1228.69
515.937	1247.69
516.153	1282.69
516.369	1310.69
516.585	1293.69
516.801	1352.69
517.016	1367.69
517.232	1407.69
517.448	1459.69
517.664	1436.69
517.879	1463.69
518.095	1464.69
518.311	1473.69
518.527	1405.69
518.742	1368.69
518.958	1348.69
519.173	1337.69
519.389	1303.69
519.605	1285.69
519.82	1222.69
520.036	1245.69
520.251	1179.69
520.467	1181.69
520.682	1180.69
520.898	1143.69
521.113	1156.69
521.329	1140.69
521.544	1140.69
521.76	1127.69
521.975	1102.69
522.19	1143.69
522.406	1105.69
522.621	1081.69
522.836	1116.69
523.052	1083.69
523.267	1064.69
523.482	1065.69
523.698	1065.69
523.913	1085.69
524.128	1074.69
524.343	1089.69
524.559	1044.69
524.774	1071.69
524.989	1076.69
525.204	1066.69
525.419	1061.69
525.634	1027.69
525.849	1040.69
526.064	1052.69
526.28	1034.69
526.495	1000.69
526.71	1032.69
526.925	1024.69
527.14	1019.69
527.355	1007.69
527.57	1059.69
527.785	1048.69
527.999	1019.69
528.214	1036.69
528.429	1012.69
528.644	1032.69
528.859	1014.69
529.074	1051.69
529.289	1064.69
529.503	1050.69
529.718	1047.69
529.933	1033.69
530.148	995.69
530.363	1011.69
530.577	1026.69
530.792	1028.69
531.007	1003.69
531.221	986.69
531.436	997.69
531.651	1036.69
531.865	994.69
532.08	1060.69
532.295	1007.69
532.509	996.69
532.724	1015.69
532.938	1017.69
533.153	1001.69
533.367	1005.69
533.582	1005.69
533.796	995.69
534.011	1007.69
534.225	1010.69
534.44	998.69
534.654	1015.69
534.868	990.69
535.083	1018.69
535.297	1002.69
535.511	993.69
535.726	993.69
535.94	967.69
536.154	951.69
536.369	961.69
536.583	982.69
536.797	948.69
537.011	934.69
537.225	955.69
537.44	908.69
537.654	940.69
537.868	923.69
538.082	904.69
538.296	938.69
538.51	944.69
538.724	977.69
538.938	914.69
539.153	920.69
539.367	957.69
539.581	929.69
539.795	949.69
540.009	939.69
540.222	928.69
540.436	900.69
540.65	914.69
540.864	936.69
541.078	944.69
541.292	921.69
541.506	928.69
541.72	942.69
541.934	945.69
542.147	967.69
542.361	913.69
542.575	929.69
542.789	929.69
543.002	920.69
543.216	921.69
543.43	922.69
543.644	925.69
543.857	919.69
544.071	966.69
544.285	968.69
544.498	950.69
544.712	947.69
544.925	965.69
545.139	925.69
545.352	985.69
545.566	967.69
545.779	946.69
545.993	951.69
546.206	941.69
546.42	955.69
546.633	939.69
546.847	936.69
547.06	951.69
547.274	967.69
547.487	972.69
547.7	990.69
547.914	993.69
548.127	967.69
548.34	923.69
548.554	951.69
548.767	963.69
548.98	961.69
549.193	963.69
549.407	935.69
549.62	979.69
549.833	956.69
550.046	966.69
550.259	936.69
550.473	940.69
550.686	958.69
550.899	945.69
551.112	935.69
551.325	932.69
551.538	930.69
551.751	937.69
551.964	905.69
552.177	963.69
552.39	959.69
552.603	947.69
552.816	994.69
553.029	987.69
553.242	987.69
553.455	1015.69
553.667	1012.69
553.88	996.69
554.093	980.69
554.306	946.69
554.519	947.69
554.732	918.69
554.944	939.69
555.157	892.69
555.37	888.69
555.583	842.69
555.795	887.69
556.008	847.69
556.221	842.69
556.433	817.69
556.646	842.69
556.859	844.69
557.071	841.69
557.284	840.69
557.496	826.69
557.709	849.69
557.921	819.69
558.134	841.69
558.346	811.69
558.559	806.69
558.771	794.69
558.984	795.69
559.196	818.69
559.409	773.69
559.621	782.69
559.833	769.69
560.046	787.69
560.258	792.69
560.47	764.69
560.683	800.69
560.895	781.69
561.107	778.69
561.32	765.69
561.532	783.69
561.744	787.69
561.956	819.69
562.168	790.69
562.381	792.69
562.593	799.69
562.805	803.69
563.017	804.69
563.229	818.69
563.441	799.69
563.653	820.69
563.865	809.69
564.077	829.69
564.289	817.69
564.501	829.69
564.713	889.69
564.925	883.69
565.137	870.69
565.349	893.69
565.561	917.69
565.773	938.69
565.985	942.69
566.197	987.69
566.408	1063.69
566.62	1084.69
566.832	1107.69
567.044	1147.69
567.255	1169.69
567.467	1195.69
567.679	1202.69
567.891	1269.69
568.102	1185.69
568.314	1179.69
568.526	1141.69
568.737	1056.69
568.949	998.69
569.161	965.69
569.372	904.69
569.584	915.69
569.795	863.69
570.007	868.69
570.218	817.69
570.43	800.69
570.641	780.69
570.853	769.69
571.064	776.69
571.276	780.69
571.487	765.69
571.698	730.69
571.91	736.69
572.121	718.69
572.333	708.69
572.544	706.69
572.755	658.69
572.966	680.69
573.178	652.69
573.389	658.69
573.6	648.69
573.811	665.69
574.023	640.69
574.234	611.69
574.445	630.69
574.656	643.69
574.867	609.69
575.078	631.69
575.289	643.69
575.501	634.69
575.712	623.69
575.923	607.69
576.134	617.69
576.345	595.69
576.556	597.69
576.767	600.69
576.978	597.69
577.188	593.69
577.399	575.69
577.61	596.69
577.821	589.69
578.032	604.69
578.243	570.69
578.454	576.69
578.665	581.69
578.875	575.69
579.086	584.69
579.297	573.69
579.508	574.69
579.718	561.69
579.929	551.69
580.14	539.69
580.35	547.69
580.561	517.69
580.772	535.69
580.982	554.69
581.193	538.69
581.403	541.69
581.614	538.69
581.825	520.69
582.035	525.69
582.246	536.69
582.456	537.69
582.667	515.69
582.877	516.69
583.087	538.69
583.298	529.69
583.508	511.69
583.719	540.69
583.929	510.69
584.139	516.69
584.35	520.69
584.56	528.69
584.77	532.69
584.981	504.69
585.191	519.69
585.401	501.69
585.611	528.69
585.821	519.69
586.032	495.69
586.242	497.69
586.452	525.69
586.662	505.69
586.872	506.69
587.082	503.69
587.292	490.69
587.502	511.69
587.713	509.69
587.923	512.69
588.133	504.69
588.343	481.69
588.553	506.69
588.762	499.69
588.972	515.69
589.182	523.69
589.392	522.69
589.602	512.69
589.812	511.69
590.022	511.69
590.232	509.69
590.441	517.69
590.651	537.69
590.861	506.69
591.071	518.69
591.281	525.69
591.49	556.69
591.7	500.69
591.91	538.69
592.119	532.69
592.329	552.69
592.539	554.69
592.748	567.69
592.958	563.69
593.167	578.69
593.377	561.69
593.587	586.69
593.796	608.69
594.006	583.69
594.215	586.69
594.424	569.69
594.634	561.69
594.843	556.69
595.053	539.69
595.262	535.69
595.472	519.69
595.681	524.69
595.89	511.69
596.1	510.69
596.309	493.69
596.518	493.69
596.727	464.69
596.937	463.69
597.146	460.69
597.355	461.69
597.564	484.69
597.774	469.69
597.983	455.69
598.192	431.69
598.401	441.69
598.61	441.69
598.819	444.69
599.028	428.69
599.237	413.69
599.446	432.69
599.655	433.69
599.864	434.69
600.073	418.69
600.282	427.69
600.491	434.69
600.7	417.69
600.909	410.69
601.118	420.69
601.327	411.69
601.536	416.69
601.745	411.69
601.953	393.69
602.162	409.69
602.371	411.69
602.58	406.69
602.789	398.69
602.997	405.69
603.206	389.69
603.415	409.69
603.623	385.69
603.832	404.69
604.041	407.69
604.249	392.69
604.458	383.69
604.666	373.69
604.875	400.69
605.084	393.69
605.292	397.69
605.501	405.69
605.709	391.69
605.918	387.69
606.126	399.69
606.334	389.69
606.543	404.69
606.751	391.69
606.96	372.69
607.168	385.69
607.376	381.69
607.585	374.69
607.793	370.69
608.001	389.69
608.21	373.69
608.418	385.69
608.626	384.69
608.834	382.69
609.043	377.69
609.251	369.69
609.459	356.69
609.667	370.69
609.875	348.69
610.083	367.69
610.291	371.69
610.499	360.69
610.707	391.69
610.916	372.69
611.124	340.69
611.332	362.69
611.54	346.69
611.748	375.69
611.955	370.69
612.163	344.69
612.371	383.69
612.579	370.69
612.787	357.69
612.995	375.69
613.203	351.69
613.411	351.69
613.618	359.69
613.826	354.69
614.034	353.69
614.242	358.69
614.449	339.69
614.657	333.69
614.865	354.69
615.072	347.69
615.28	367.69
615.488	353.69
615.695	348.69
615.903	342.69
616.111	357.69
616.318	367.69
616.526	349.69
616.733	353.69
616.941	349.69
617.148	343.69
617.356	325.69
617.563	337.69
617.771	352.69
617.978	346.69
618.185	356.69
618.393	328.69
618.6	337.69
618.807	342.69
619.015	337.69
619.222	345.69
619.429	339.69
619.637	346.69
619.844	320.69
620.051	337.69
620.258	305.69
620.466	330.69
620.673	336.69
620.88	313.69
621.087	320.69
621.294	347.69
621.501	327.69
621.708	319.69
621.915	307.69
622.122	318.69
622.329	320.69
622.536	310.69
622.743	337.69
622.95	321.69
623.157	320.69
623.364	301.69
623.571	306.69
623.778	300.69
623.985	323.69
624.192	311.69
624.399	308.69
624.606	339.69
624.812	297.69
625.019	293.69
625.226	304.69
625.433	321.69
625.639	308.69
625.846	292.69
626.053	278.69
626.259	298.69
626.466	287.69
626.673	291.69
626.879	279.69
627.086	282.69
627.293	298.69
627.499	297.69
627.706	292.69
627.912	292.69
628.119	291.69
628.325	274.69
628.532	284.69
628.738	277.69
628.945	291.69
629.151	293.69
629.357	295.69
629.564	280.69
629.77	280.69
629.976	290.69
630.183	283.69
630.389	279.69
630.595	284.69
630.802	293.69
631.008	263.69
631.214	264.69
631.42	278.69
631.627	290.69
631.833	280.69
632.039	277.69
632.245	264.69
632.451	261.69
632.657	265.69
632.863	281.69
633.069	282.69
633.275	274.69
633.481	255.69
633.688	279.69
633.893	267.69
634.099	268.69
634.305	251.69
634.511	251.69
634.717	257.69
634.923	256.69
635.129	256.69
635.335	248.69
635.541	240.69
635.747	231.69
635.952	232.69
636.158	254.69
636.364	251.69
636.57	236.69
636.775	279.69
636.981	246.69
637.187	249.69
637.392	239.69
637.598	236.69
637.804	246.69
638.009	233.69
638.215	241.69
638.421	247.69
638.626	228.69
638.832	235.69
639.037	236.69
639.243	244.69
639.448	240.69
639.654	237.69
639.859	241.69
640.065	243.69
640.27	247.69
640.475	255.69
640.681	233.69
640.886	234.69
641.091	239.69
641.297	260.69
641.502	237.69
641.707	251.69
641.913	223.69
642.118	212.69
642.323	237.69
642.528	237.69
642.733	246.69
642.939	223.69
643.144	233.69
643.349	211.69
643.554	231.69
643.759	226.69
643.964	214.69
644.169	217.69
644.374	200.69
644.579	220.69
644.784	232.69
644.989	223.69
645.194	235.69
645.399	227.69
645.604	243.69
645.809	224.69
646.014	226.69
646.219	217.69
646.423	230.69
646.628	218.69
646.833	221.69
647.038	219.69
647.243	234.69
647.447	236.69
647.652	221.69
647.857	219.69
648.062	247.69
648.266	222.69
648.471	230.69
648.676	226.69
648.88	225.69
649.085	223.69
649.289	209.69
649.494	217.69
649.698	218.69
649.903	223.69
650.107	211.69
650.312	224.69
650.516	193.69
650.721	201.69
650.925	204.69
651.13	199.69
651.334	192.69
651.539	197.69
651.743	200.69
651.947	191.69
652.152	194.69
652.356	191.69
652.56	196.69
652.764	176.69
652.969	173.69
653.173	187.69
653.377	157.69
653.581	165.69
653.785	166.69
653.99	172.69
654.194	190.69
654.398	186.69
654.602	164.69
654.806	165.69
655.01	165.69
655.214	162.69
655.418	169.69
655.622	158.69
655.826	154.69
656.03	151.69
656.234	170.69
656.438	151.69
656.642	155.69
656.846	162.69
657.049	147.69
657.253	134.69
657.457	151.69
657.661	128.69
657.865	150.69
658.068	136.69
658.272	131.69
658.476	127.69
658.68	125.69
658.883	125.69
659.087	112.69
659.291	101.69
659.494	96.69
659.698	111.69
659.901	117.69
660.105	107.69
660.309	103.69
660.512	105.69
660.716	107.69
660.919	109.69
661.123	90.69
661.326	93.69
661.53	95.69
661.733	97.69
661.936	83.69
662.14	84.69
662.343	86.69
662.546	106.69
662.75	89.69
662.953	83.69
663.156	76.69
663.36	84.69
663.563	88.69
663.766	73.69
663.969	92.69
664.173	82.69
664.376	86.69
664.579	81.69
664.782	87.69
664.985	81.69
665.188	95.69
665.391	64.69
665.594	66.69
665.797	74.69
666	71.69
666.203	83.69
666.406	90.69
666.609	67.69
666.812	76.69
667.015	69.69
667.218	76.69
667.421	71.69
667.624	84.69
667.827	88.69
668.03	82.69
668.232	84.69
668.435	83.69
668.638	75.69
668.841	66.69
669.043	89.69
669.246	87.69
669.449	82.69
669.651	62.69
669.854	88.69
670.057	67.69
670.259	66.69
670.462	85.69
670.665	83.69
670.867	65.69
671.07	81.69
671.272	76.69
671.475	85.69
671.677	77.69
671.88	84.69
672.082	78.69
672.284	89.69
672.487	67.69
672.689	71.69
672.892	72.69
