Data from Ni(NO3)2@0.0625M.TitratingCurve.Agarose3%dH2O.NegLispCup.LampEnergy10.LIBS07252019_HRD10591_18-14-03-571.txt Node
Date: Thu Jul 25 18:14:03 EDT 2019
User: cochatt
Spectrometer: HR+D1059
Trigger mode: 1
Integration Time (sec): 1.000000E-1
Scans to average: 1
Electric dark correction enabled: true
Nonlinearity correction enabled: false
Boxcar width: 0
XAxis mode: Wavelengths
Number of Pixels in Spectrum: 2048
>>>>>Begin Spectral Data<<<<<
223.165	-16.38
223.4	-16.38
223.635	-16.38
223.869	-13.38
224.104	-12.38
224.338	-13.38
224.573	-13.38
224.808	-19.38
225.042	-22.38
225.277	-10.38
225.511	-3.38
225.746	-0.38
225.98	4.62
226.215	20.62
226.449	16.62
226.683	30.62
226.918	24.62
227.152	27.62
227.387	37.62
227.621	36.62
227.856	38.62
228.09	45.62
228.324	53.62
228.559	51.62
228.793	74.62
229.027	102.62
229.262	92.62
229.496	106.62
229.73	109.62
229.964	111.62
230.199	127.62
230.433	106.62
230.667	115.62
230.901	121.62
231.136	134.62
231.37	137.62
231.604	135.62
231.838	130.62
232.072	133.62
232.306	135.62
232.541	148.62
232.775	137.62
233.009	145.62
233.243	134.62
233.477	132.62
233.711	133.62
233.945	135.62
234.179	141.62
234.413	140.62
234.647	152.62
234.881	140.62
235.115	128.62
235.349	131.62
235.583	142.62
235.817	133.62
236.051	134.62
236.285	123.62
236.519	143.62
236.753	153.62
236.987	147.62
237.221	150.62
237.455	147.62
237.689	140.62
237.922	153.62
238.156	156.62
238.39	148.62
238.624	161.62
238.858	157.62
239.091	148.62
239.325	156.62
239.559	159.62
239.793	149.62
240.027	180.62
240.26	154.62
240.494	166.62
240.728	166.62
240.961	184.62
241.195	158.62
241.429	168.62
241.662	159.62
241.896	171.62
242.13	180.62
242.363	173.62
242.597	166.62
242.83	175.62
243.064	191.62
243.298	173.62
243.531	200.62
243.765	190.62
243.998	188.62
244.232	174.62
244.465	175.62
244.699	189.62
244.932	198.62
245.166	186.62
245.399	187.62
245.633	184.62
245.866	196.62
246.099	170.62
246.333	187.62
246.566	191.62
246.8	205.62
247.033	198.62
247.266	191.62
247.5	212.62
247.733	213.62
247.966	189.62
248.2	197.62
248.433	211.62
248.666	215.62
248.899	211.62
249.133	217.62
249.366	217.62
249.599	220.62
249.832	202.62
250.066	213.62
250.299	206.62
250.532	222.62
250.765	220.62
250.998	230.62
251.231	217.62
251.465	225.62
251.698	228.62
251.931	220.62
252.164	214.62
252.397	230.62
252.63	245.62
252.863	238.62
253.096	233.62
253.329	247.62
253.562	249.62
253.795	232.62
254.028	245.62
254.261	230.62
254.494	229.62
254.727	231.62
254.96	237.62
255.193	235.62
255.426	250.62
255.659	241.62
255.892	252.62
256.124	243.62
256.357	264.62
256.59	264.62
256.823	247.62
257.056	259.62
257.289	238.62
257.521	267.62
257.754	253.62
257.987	268.62
258.22	272.62
258.452	274.62
258.685	249.62
258.918	254.62
259.151	287.62
259.383	266.62
259.616	277.62
259.849	287.62
260.081	267.62
260.314	284.62
260.547	277.62
260.779	281.62
261.012	268.62
261.244	289.62
261.477	267.62
261.71	268.62
261.942	294.62
262.175	295.62
262.407	286.62
262.64	284.62
262.872	291.62
263.105	285.62
263.337	281.62
263.57	284.62
263.802	286.62
264.035	299.62
264.267	290.62
264.499	296.62
264.732	309.62
264.964	296.62
265.197	307.62
265.429	289.62
265.661	301.62
265.894	303.62
266.126	310.62
266.358	314.62
266.591	311.62
266.823	318.62
267.055	318.62
267.287	298.62
267.52	303.62
267.752	314.62
267.984	305.62
268.216	328.62
268.448	320.62
268.681	320.62
268.913	330.62
269.145	325.62
269.377	340.62
269.609	318.62
269.841	319.62
270.073	315.62
270.306	319.62
270.538	333.62
270.77	325.62
271.002	329.62
271.234	329.62
271.466	315.62
271.698	327.62
271.93	342.62
272.162	341.62
272.394	345.62
272.626	341.62
272.858	327.62
273.09	342.62
273.322	338.62
273.553	346.62
273.785	338.62
274.017	341.62
274.249	334.62
274.481	355.62
274.713	367.62
274.945	359.62
275.176	363.62
275.408	369.62
275.64	351.62
275.872	362.62
276.104	372.62
276.335	375.62
276.567	366.62
276.799	339.62
277.031	362.62
277.262	365.62
277.494	379.62
277.726	381.62
277.957	393.62
278.189	381.62
278.421	386.62
278.652	383.62
278.884	372.62
279.115	372.62
279.347	375.62
279.579	377.62
279.81	392.62
280.042	389.62
280.273	388.62
280.505	387.62
280.736	395.62
280.968	396.62
281.199	400.62
281.431	395.62
281.662	378.62
281.894	389.62
282.125	395.62
282.356	428.62
282.588	415.62
282.819	395.62
283.051	411.62
283.282	403.62
283.513	393.62
283.745	418.62
283.976	404.62
284.207	410.62
284.439	422.62
284.67	420.62
284.901	419.62
285.132	417.62
285.364	409.62
285.595	425.62
285.826	425.62
286.057	420.62
286.288	433.62
286.52	429.62
286.751	405.62
286.982	435.62
287.213	429.62
287.444	430.62
287.675	428.62
287.906	447.62
288.138	416.62
288.369	443.62
288.6	454.62
288.831	432.62
289.062	426.62
289.293	430.62
289.524	407.62
289.755	435.62
289.986	439.62
290.217	439.62
290.448	455.62
290.679	486.62
290.91	466.62
291.141	469.62
291.371	460.62
291.602	457.62
291.833	441.62
292.064	475.62
292.295	474.62
292.526	461.62
292.757	454.62
292.987	430.62
293.218	459.62
293.449	477.62
293.68	453.62
293.91	453.62
294.141	457.62
294.372	452.62
294.603	450.62
294.833	441.62
295.064	444.62
295.295	463.62
295.525	472.62
295.756	450.62
295.987	454.62
296.217	483.62
296.448	442.62
296.679	479.62
296.909	478.62
297.14	486.62
297.37	473.62
297.601	482.62
297.831	472.62
298.062	497.62
298.292	500.62
298.523	505.62
298.753	506.62
298.984	501.62
299.214	487.62
299.445	486.62
299.675	509.62
299.905	515.62
300.136	475.62
300.366	505.62
300.597	507.62
300.827	499.62
301.057	526.62
301.288	505.62
301.518	513.62
301.748	506.62
301.979	514.62
302.209	539.62
302.439	522.62
302.669	542.62
302.9	520.62
303.13	502.62
303.36	517.62
303.59	496.62
303.82	520.62
304.051	521.62
304.281	531.62
304.511	497.62
304.741	516.62
304.971	507.62
305.201	514.62
305.431	514.62
305.661	505.62
305.891	517.62
306.121	522.62
306.352	526.62
306.582	472.62
306.812	498.62
307.042	509.62
307.272	509.62
307.502	516.62
307.731	490.62
307.961	538.62
308.191	527.62
308.421	487.62
308.651	487.62
308.881	521.62
309.111	517.62
309.341	504.62
309.571	511.62
309.8	494.62
310.03	498.62
310.26	519.62
310.49	527.62
310.72	513.62
310.949	499.62
311.179	533.62
311.409	521.62
311.639	531.62
311.868	524.62
312.098	503.62
312.328	533.62
312.557	548.62
312.787	522.62
313.017	525.62
313.246	528.62
313.476	530.62
313.706	557.62
313.935	557.62
314.165	550.62
314.394	549.62
314.624	562.62
314.853	551.62
315.083	560.62
315.312	536.62
315.542	538.62
315.771	549.62
316.001	546.62
316.23	534.62
316.46	523.62
316.689	533.62
316.919	530.62
317.148	531.62
317.377	574.62
317.607	525.62
317.836	526.62
318.065	545.62
318.295	540.62
318.524	552.62
318.753	553.62
318.983	548.62
319.212	546.62
319.441	549.62
319.67	543.62
319.9	507.62
320.129	539.62
320.358	549.62
320.587	538.62
320.816	550.62
321.046	554.62
321.275	550.62
321.504	524.62
321.733	534.62
321.962	542.62
322.191	540.62
322.42	548.62
322.649	561.62
322.878	546.62
323.108	543.62
323.337	573.62
323.566	570.62
323.795	566.62
324.024	565.62
324.253	540.62
324.482	554.62
324.71	558.62
324.939	568.62
325.168	577.62
325.397	570.62
325.626	584.62
325.855	565.62
326.084	577.62
326.313	591.62
326.542	594.62
326.77	601.62
326.999	603.62
327.228	590.62
327.457	605.62
327.686	614.62
327.914	611.62
328.143	617.62
328.372	570.62
328.6	593.62
328.829	589.62
329.058	579.62
329.287	602.62
329.515	595.62
329.744	625.62
329.972	606.62
330.201	615.62
330.43	625.62
330.658	601.62
330.887	607.62
331.115	633.62
331.344	636.62
331.572	651.62
331.801	673.62
332.03	666.62
332.258	689.62
332.486	684.62
332.715	717.62
332.943	747.62
333.172	776.62
333.4	807.62
333.629	830.62
333.857	828.62
334.085	794.62
334.314	799.62
334.542	778.62
334.771	755.62
334.999	730.62
335.227	727.62
335.455	744.62
335.684	764.62
335.912	736.62
336.14	708.62
336.369	695.62
336.597	738.62
336.825	719.62
337.053	728.62
337.281	700.62
337.51	689.62
337.738	710.62
337.966	675.62
338.194	670.62
338.422	643.62
338.65	638.62
338.878	655.62
339.106	630.62
339.334	646.62
339.562	651.62
339.79	635.62
340.018	621.62
340.246	641.62
340.474	652.62
340.702	610.62
340.93	617.62
341.158	642.62
341.386	638.62
341.614	627.62
341.842	650.62
342.07	613.62
342.298	622.62
342.526	606.62
342.754	622.62
342.981	634.62
343.209	639.62
343.437	682.62
343.665	720.62
343.893	756.62
344.12	791.62
344.348	739.62
344.576	697.62
344.804	674.62
345.031	649.62
345.259	634.62
345.487	661.62
345.714	619.62
345.942	631.62
346.17	593.62
346.397	629.62
346.625	614.62
346.853	605.62
347.08	634.62
347.308	635.62
347.535	635.62
347.763	610.62
347.99	606.62
348.218	613.62
348.445	592.62
348.673	615.62
348.9	603.62
349.128	600.62
349.355	597.62
349.583	592.62
349.81	577.62
350.037	600.62
350.265	601.62
350.492	590.62
350.72	589.62
350.947	575.62
351.174	572.62
351.402	588.62
351.629	599.62
351.856	591.62
352.083	596.62
352.311	587.62
352.538	586.62
352.765	592.62
352.992	586.62
353.22	577.62
353.447	574.62
353.674	568.62
353.901	563.62
354.128	581.62
354.355	569.62
354.583	596.62
354.81	591.62
355.037	597.62
355.264	619.62
355.491	599.62
355.718	580.62
355.945	591.62
356.172	584.62
356.399	599.62
356.626	598.62
356.853	586.62
357.08	571.62
357.307	607.62
357.534	581.62
357.761	601.62
357.988	594.62
358.215	594.62
358.441	597.62
358.668	609.62
358.895	604.62
359.122	589.62
359.349	609.62
359.576	592.62
359.802	586.62
360.029	591.62
360.256	591.62
360.483	591.62
360.709	620.62
360.936	607.62
361.163	589.62
361.39	609.62
361.616	599.62
361.843	598.62
362.07	589.62
362.296	612.62
362.523	590.62
362.749	594.62
362.976	583.62
363.203	594.62
363.429	574.62
363.656	599.62
363.882	595.62
364.109	605.62
364.335	591.62
364.562	567.62
364.788	578.62
365.015	597.62
365.241	601.62
365.468	567.62
365.694	592.62
365.92	571.62
366.147	583.62
366.373	593.62
366.599	584.62
366.826	581.62
367.052	586.62
367.278	611.62
367.505	598.62
367.731	576.62
367.957	582.62
368.184	594.62
368.41	600.62
368.636	604.62
368.862	613.62
369.089	588.62
369.315	601.62
369.541	611.62
369.767	616.62
369.993	611.62
370.219	611.62
370.445	629.62
370.672	626.62
370.898	616.62
371.124	631.62
371.35	649.62
371.576	661.62
371.802	647.62
372.028	652.62
372.254	662.62
372.48	667.62
372.706	654.62
372.932	671.62
373.158	667.62
373.384	679.62
373.61	642.62
373.835	642.62
374.061	644.62
374.287	675.62
374.513	669.62
374.739	679.62
374.965	705.62
375.191	733.62
375.416	711.62
375.642	681.62
375.868	667.62
376.094	680.62
376.319	653.62
376.545	666.62
376.771	635.62
376.997	633.62
377.222	671.62
377.448	639.62
377.674	651.62
377.899	640.62
378.125	637.62
378.35	642.62
378.576	658.62
378.802	639.62
379.027	643.62
379.253	653.62
379.478	636.62
379.704	621.62
379.929	635.62
380.155	649.62
380.38	643.62
380.606	614.62
380.831	639.62
381.057	617.62
381.282	631.62
381.507	615.62
381.733	622.62
381.958	672.62
382.184	681.62
382.409	682.62
382.634	665.62
382.86	684.62
383.085	689.62
383.31	694.62
383.535	695.62
383.761	750.62
383.986	740.62
384.211	748.62
384.436	774.62
384.662	765.62
384.887	783.62
385.112	759.62
385.337	803.62
385.562	804.62
385.787	816.62
386.013	780.62
386.238	801.62
386.463	761.62
386.688	796.62
386.913	796.62
387.138	751.62
387.363	770.62
387.588	773.62
387.813	777.62
388.038	766.62
388.263	775.62
388.488	798.62
388.713	777.62
388.938	766.62
389.163	760.62
389.387	758.62
389.612	718.62
389.837	783.62
390.062	759.62
390.287	777.62
390.512	746.62
390.736	769.62
390.961	772.62
391.186	796.62
391.411	813.62
391.636	865.62
391.86	868.62
392.085	895.62
392.31	887.62
392.534	870.62
392.759	835.62
392.984	809.62
393.208	819.62
393.433	817.62
393.658	829.62
393.882	874.62
394.107	816.62
394.331	843.62
394.556	845.62
394.78	841.62
395.005	865.62
395.229	849.62
395.454	890.62
395.678	889.62
395.903	889.62
396.127	874.62
396.352	833.62
396.576	817.62
396.801	828.62
397.025	829.62
397.249	813.62
397.474	889.62
397.698	858.62
397.922	834.62
398.147	875.62
398.371	900.62
398.595	919.62
398.82	954.62
399.044	1004.62
399.268	1146.62
399.492	1351.62
399.717	1529.62
399.941	1479.62
400.165	1305.62
400.389	1142.62
400.613	1065.62
400.837	1006.62
401.062	984.62
401.286	965.62
401.51	991.62
401.734	951.62
401.958	983.62
402.182	1009.62
402.406	982.62
402.63	1030.62
402.854	1040.62
403.078	1073.62
403.302	1092.62
403.526	1115.62
403.75	1146.62
403.974	1165.62
404.198	1162.62
404.422	1148.62
404.645	1154.62
404.869	1107.62
405.093	1141.62
405.317	1102.62
405.541	1049.62
405.765	1083.62
405.988	1054.62
406.212	1082.62
406.436	1078.62
406.66	1104.62
406.883	1133.62
407.107	1201.62
407.331	1218.62
407.555	1247.62
407.778	1271.62
408.002	1209.62
408.226	1198.62
408.449	1189.62
408.673	1137.62
408.896	1093.62
409.12	1070.62
409.344	1085.62
409.567	1124.62
409.791	1122.62
410.014	1098.62
410.238	1109.62
410.461	1100.62
410.685	1100.62
410.908	1059.62
411.132	1030.62
411.355	1038.62
411.578	1019.62
411.802	1033.62
412.025	1003.62
412.249	1019.62
412.472	1005.62
412.695	996.62
412.919	974.62
413.142	987.62
413.365	970.62
413.589	991.62
413.812	970.62
414.035	963.62
414.258	956.62
414.482	966.62
414.705	1011.62
414.928	1015.62
415.151	974.62
415.374	991.62
415.597	988.62
415.821	954.62
416.044	939.62
416.267	932.62
416.49	937.62
416.713	945.62
416.936	933.62
417.159	953.62
417.382	950.62
417.605	956.62
417.828	959.62
418.051	983.62
418.274	999.62
418.497	953.62
418.72	993.62
418.943	995.62
419.166	1030.62
419.389	1102.62
419.611	1061.62
419.834	1053.62
420.057	1022.62
420.28	995.62
420.503	951.62
420.726	964.62
420.948	971.62
421.171	946.62
421.394	943.62
421.617	921.62
421.839	963.62
422.062	945.62
422.285	974.62
422.507	972.62
422.73	1004.62
422.953	1016.62
423.175	988.62
423.398	1039.62
423.621	998.62
423.843	1036.62
424.066	1040.62
424.288	1052.62
424.511	1004.62
424.733	986.62
424.956	1022.62
425.178	987.62
425.401	954.62
425.623	956.62
425.846	926.62
426.068	935.62
426.291	903.62
426.513	906.62
426.735	896.62
426.958	884.62
427.18	888.62
427.402	880.62
427.625	833.62
427.847	834.62
428.069	857.62
428.292	859.62
428.514	844.62
428.736	825.62
428.958	861.62
429.181	828.62
429.403	840.62
429.625	828.62
429.847	844.62
430.069	834.62
430.292	815.62
430.514	808.62
430.736	832.62
430.958	836.62
431.18	822.62
431.402	842.62
431.624	843.62
431.846	833.62
432.068	871.62
432.29	870.62
432.512	847.62
432.734	858.62
432.956	847.62
433.178	859.62
433.4	847.62
433.622	823.62
433.844	853.62
434.066	869.62
434.287	900.62
434.509	905.62
434.731	901.62
434.953	972.62
435.175	952.62
435.397	959.62
435.618	897.62
435.84	883.62
436.062	887.62
436.284	822.62
436.505	852.62
436.727	855.62
436.949	867.62
437.17	854.62
437.392	855.62
437.614	836.62
437.835	811.62
438.057	825.62
438.278	803.62
438.5	802.62
438.721	790.62
438.943	825.62
439.165	849.62
439.386	820.62
439.608	843.62
439.829	861.62
440.05	846.62
440.272	850.62
440.493	843.62
440.715	875.62
440.936	880.62
441.158	908.62
441.379	911.62
441.6	986.62
441.822	951.62
442.043	938.62
442.264	938.62
442.486	920.62
442.707	950.62
442.928	948.62
443.149	968.62
443.371	929.62
443.592	930.62
443.813	961.62
444.034	973.62
444.255	1006.62
444.476	1044.62
444.698	1103.62
444.919	1155.62
445.14	1207.62
445.361	1073.62
445.582	984.62
445.803	974.62
446.024	897.62
446.245	881.62
446.466	872.62
446.687	858.62
446.908	847.62
447.129	842.62
447.35	824.62
447.571	822.62
447.792	789.62
448.013	817.62
448.234	793.62
448.455	784.62
448.675	782.62
448.896	802.62
449.117	764.62
449.338	787.62
449.559	785.62
449.779	794.62
450	791.62
450.221	792.62
450.442	781.62
450.662	769.62
450.883	811.62
451.104	814.62
451.324	819.62
451.545	804.62
451.766	777.62
451.986	765.62
452.207	783.62
452.428	775.62
452.648	779.62
452.869	767.62
453.089	773.62
453.31	769.62
453.53	756.62
453.751	759.62
453.971	756.62
454.192	768.62
454.412	738.62
454.633	764.62
454.853	748.62
455.073	758.62
455.294	752.62
455.514	737.62
455.734	733.62
455.955	701.62
456.175	718.62
456.395	730.62
456.616	696.62
456.836	721.62
457.056	745.62
457.276	693.62
457.497	746.62
457.717	718.62
457.937	712.62
458.157	739.62
458.377	752.62
458.598	767.62
458.818	787.62
459.038	800.62
459.258	819.62
459.478	867.62
459.698	889.62
459.918	901.62
460.138	929.62
460.358	991.62
460.578	1011.62
460.798	1027.62
461.018	1033.62
461.238	1020.62
461.458	989.62
461.678	1010.62
461.898	1003.62
462.118	1024.62
462.338	1102.62
462.558	1112.62
462.777	1173.62
462.997	1231.62
463.217	1371.62
463.437	1432.62
463.657	1237.62
463.876	1181.62
464.096	1181.62
464.316	1153.62
464.536	1140.62
464.755	1158.62
464.975	1099.62
465.195	1024.62
465.414	976.62
465.634	900.62
465.854	882.62
466.073	881.62
466.293	850.62
466.512	839.62
466.732	835.62
466.951	831.62
467.171	814.62
467.391	823.62
467.61	808.62
467.829	797.62
468.049	782.62
468.268	806.62
468.488	788.62
468.707	778.62
468.927	803.62
469.146	794.62
469.365	792.62
469.585	772.62
469.804	815.62
470.023	830.62
470.243	821.62
470.462	821.62
470.681	847.62
470.901	836.62
471.12	833.62
471.339	823.62
471.558	818.62
471.777	775.62
471.997	796.62
472.216	785.62
472.435	776.62
472.654	770.62
472.873	773.62
473.092	764.62
473.311	766.62
473.53	737.62
473.749	750.62
473.968	754.62
474.187	750.62
474.406	755.62
474.625	766.62
474.844	761.62
475.063	775.62
475.282	771.62
475.501	766.62
475.72	787.62
475.939	763.62
476.158	784.62
476.377	802.62
476.596	784.62
476.814	798.62
477.033	790.62
477.252	814.62
477.471	814.62
477.69	850.62
477.908	908.62
478.127	885.62
478.346	899.62
478.564	920.62
478.783	976.62
479.002	938.62
479.22	957.62
479.439	947.62
479.658	921.62
479.876	948.62
480.095	981.62
480.313	991.62
480.532	1026.62
480.751	1045.62
480.969	971.62
481.188	945.62
481.406	927.62
481.624	896.62
481.843	878.62
482.061	866.62
482.28	842.62
482.498	849.62
482.717	852.62
482.935	825.62
483.153	858.62
483.372	844.62
483.59	834.62
483.808	853.62
484.027	848.62
484.245	870.62
484.463	841.62
484.681	883.62
484.9	917.62
485.118	904.62
485.336	908.62
485.554	892.62
485.772	897.62
485.99	941.62
486.209	915.62
486.427	919.62
486.645	926.62
486.863	901.62
487.081	899.62
487.299	906.62
487.517	909.62
487.735	901.62
487.953	912.62
488.171	894.62
488.389	902.62
488.607	896.62
488.825	903.62
489.043	920.62
489.261	892.62
489.479	907.62
489.696	920.62
489.914	895.62
490.132	898.62
490.35	905.62
490.568	898.62
490.786	891.62
491.003	921.62
491.221	912.62
491.439	894.62
491.657	928.62
491.874	933.62
492.092	914.62
492.31	931.62
492.527	946.62
492.745	904.62
492.963	925.62
493.18	958.62
493.398	914.62
493.615	936.62
493.833	974.62
494.05	950.62
494.268	945.62
494.485	929.62
494.703	970.62
494.92	973.62
495.138	947.62
495.355	936.62
495.573	958.62
495.79	969.62
496.008	966.62
496.225	967.62
496.442	995.62
496.66	1027.62
496.877	1000.62
497.094	999.62
497.312	1037.62
497.529	1060.62
497.746	1090.62
497.963	1086.62
498.181	1161.62
498.398	1225.62
498.615	1306.62
498.832	1402.62
499.049	1499.62
499.267	1618.62
499.484	1766.62
499.701	1954.62
499.918	2146.62
500.135	2498.62
500.352	2925.62
500.569	3038.62
500.786	3014.62
501.003	2734.62
501.22	2443.62
501.437	2170.62
501.654	1874.62
501.871	1721.62
502.088	1585.62
502.305	1465.62
502.522	1403.62
502.739	1301.62
502.956	1251.62
503.172	1195.62
503.389	1160.62
503.606	1095.62
503.823	1112.62
504.04	1098.62
504.256	1122.62
504.473	1138.62
504.69	1150.62
504.907	1126.62
505.123	1065.62
505.34	1009.62
505.557	966.62
505.773	942.62
505.99	909.62
506.207	890.62
506.423	858.62
506.64	861.62
506.856	827.62
507.073	867.62
507.289	845.62
507.506	844.62
507.722	835.62
507.939	835.62
508.155	837.62
508.372	806.62
508.588	792.62
508.805	830.62
509.021	802.62
509.238	824.62
509.454	806.62
509.67	805.62
509.887	801.62
510.103	775.62
510.319	769.62
510.536	778.62
510.752	802.62
510.968	776.62
511.184	794.62
511.401	785.62
511.617	774.62
511.833	777.62
512.049	768.62
512.265	773.62
512.481	772.62
512.698	788.62
512.914	784.62
513.13	771.62
513.346	775.62
513.562	763.62
513.778	766.62
513.994	791.62
514.21	756.62
514.426	769.62
514.642	803.62
514.858	792.62
515.074	792.62
515.29	819.62
515.506	818.62
515.721	831.62
515.937	813.62
516.153	843.62
516.369	859.62
516.585	910.62
516.801	931.62
517.016	957.62
517.232	1014.62
517.448	1077.62
517.664	1085.62
517.879	1117.62
518.095	1127.62
518.311	1070.62
518.527	1035.62
518.742	967.62
518.958	927.62
519.173	894.62
519.389	909.62
519.605	857.62
519.82	838.62
520.036	839.62
520.251	820.62
520.467	819.62
520.682	804.62
520.898	801.62
521.113	795.62
521.329	780.62
521.544	726.62
521.76	750.62
521.975	747.62
522.19	738.62
522.406	754.62
522.621	729.62
522.836	752.62
523.052	709.62
523.267	732.62
523.482	713.62
523.698	714.62
523.913	715.62
524.128	710.62
524.343	716.62
524.559	711.62
524.774	722.62
524.989	702.62
525.204	718.62
525.419	693.62
525.634	693.62
525.849	703.62
526.064	689.62
526.28	713.62
526.495	713.62
526.71	699.62
526.925	708.62
527.14	687.62
527.355	697.62
527.57	689.62
527.785	702.62
527.999	703.62
528.214	715.62
528.429	709.62
528.644	705.62
528.859	707.62
529.074	715.62
529.289	694.62
529.503	690.62
529.718	710.62
529.933	685.62
530.148	682.62
530.363	708.62
530.577	718.62
530.792	710.62
531.007	690.62
531.221	709.62
531.436	693.62
531.651	707.62
531.865	721.62
532.08	719.62
532.295	724.62
532.509	689.62
532.724	686.62
532.938	702.62
533.153	683.62
533.367	685.62
533.582	696.62
533.796	673.62
534.011	700.62
534.225	675.62
534.44	673.62
534.654	674.62
534.868	691.62
535.083	717.62
535.297	691.62
535.511	693.62
535.726	686.62
535.94	662.62
536.154	666.62
536.369	642.62
536.583	657.62
536.797	657.62
537.011	668.62
537.225	649.62
537.44	636.62
537.654	645.62
537.868	641.62
538.082	636.62
538.296	655.62
538.51	613.62
538.724	631.62
538.938	618.62
539.153	629.62
539.367	629.62
539.581	619.62
539.795	618.62
540.009	626.62
540.222	632.62
540.436	642.62
540.65	638.62
540.864	622.62
541.078	602.62
541.292	614.62
541.506	636.62
541.72	629.62
541.934	635.62
542.147	617.62
542.361	615.62
542.575	613.62
542.789	598.62
543.002	627.62
543.216	631.62
543.43	640.62
543.644	602.62
543.857	611.62
544.071	632.62
544.285	635.62
544.498	625.62
544.712	617.62
544.925	625.62
545.139	641.62
545.352	659.62
545.566	652.62
545.779	653.62
545.993	632.62
546.206	653.62
546.42	632.62
546.633	648.62
546.847	641.62
547.06	643.62
547.274	639.62
547.487	644.62
547.7	647.62
547.914	627.62
548.127	655.62
548.34	654.62
548.554	650.62
548.767	641.62
548.98	667.62
549.193	652.62
549.407	667.62
549.62	669.62
549.833	674.62
550.046	677.62
550.259	653.62
550.473	632.62
550.686	627.62
550.899	609.62
551.112	623.62
551.325	633.62
551.538	628.62
551.751	614.62
551.964	639.62
552.177	637.62
552.39	658.62
552.603	671.62
552.816	682.62
553.029	692.62
553.242	711.62
553.455	709.62
553.667	731.62
553.88	694.62
554.093	691.62
554.306	662.62
554.519	651.62
554.732	641.62
554.944	625.62
555.157	623.62
555.37	628.62
555.583	625.62
555.795	570.62
556.008	589.62
556.221	594.62
556.433	573.62
556.646	537.62
556.859	555.62
557.071	567.62
557.284	573.62
557.496	553.62
557.709	556.62
557.921	572.62
558.134	542.62
558.346	548.62
558.559	544.62
558.771	549.62
558.984	536.62
559.196	535.62
559.409	538.62
559.621	557.62
559.833	524.62
560.046	544.62
560.258	520.62
560.47	525.62
560.683	513.62
560.895	522.62
561.107	517.62
561.32	539.62
561.532	547.62
561.744	540.62
561.956	520.62
562.168	554.62
562.381	547.62
562.593	542.62
562.805	539.62
563.017	530.62
563.229	537.62
563.441	546.62
563.653	543.62
563.865	536.62
564.077	542.62
564.289	541.62
564.501	584.62
564.713	557.62
564.925	587.62
565.137	604.62
565.349	588.62
565.561	610.62
565.773	651.62
565.985	655.62
566.197	697.62
566.408	722.62
566.62	817.62
566.832	893.62
567.044	891.62
567.255	911.62
567.467	899.62
567.679	973.62
567.891	1055.62
568.102	1102.62
568.314	1057.62
568.526	934.62
568.737	819.62
568.949	742.62
569.161	682.62
569.372	619.62
569.584	614.62
569.795	603.62
570.007	594.62
570.218	549.62
570.43	532.62
570.641	553.62
570.853	553.62
571.064	583.62
571.276	572.62
571.487	540.62
571.698	515.62
571.91	511.62
572.121	495.62
572.333	455.62
572.544	469.62
572.755	458.62
572.966	485.62
573.178	460.62
573.389	431.62
573.6	459.62
573.811	447.62
574.023	434.62
574.234	442.62
574.445	441.62
574.656	454.62
574.867	444.62
575.078	442.62
575.289	423.62
575.501	421.62
575.712	420.62
575.923	425.62
576.134	430.62
576.345	442.62
576.556	417.62
576.767	399.62
576.978	398.62
577.188	407.62
577.399	421.62
577.61	410.62
577.821	410.62
578.032	395.62
578.243	395.62
578.454	414.62
578.665	402.62
578.875	393.62
579.086	361.62
579.297	394.62
579.508	405.62
579.718	397.62
579.929	391.62
580.14	395.62
580.35	377.62
580.561	381.62
580.772	371.62
580.982	386.62
581.193	387.62
581.403	368.62
581.614	373.62
581.825	363.62
582.035	375.62
582.246	381.62
582.456	391.62
582.667	398.62
582.877	381.62
583.087	399.62
583.298	369.62
583.508	355.62
583.719	377.62
583.929	376.62
584.139	371.62
584.35	361.62
584.56	349.62
584.77	354.62
584.981	357.62
585.191	373.62
585.401	347.62
585.611	371.62
585.821	348.62
586.032	364.62
586.242	365.62
586.452	349.62
586.662	341.62
586.872	344.62
587.082	343.62
587.292	362.62
587.502	360.62
587.713	342.62
587.923	343.62
588.133	354.62
588.343	343.62
588.553	353.62
588.762	351.62
588.972	358.62
589.182	361.62
589.392	367.62
589.602	362.62
589.812	360.62
590.022	354.62
590.232	358.62
590.441	333.62
590.651	347.62
590.861	361.62
591.071	388.62
591.281	374.62
591.49	355.62
591.7	364.62
591.91	384.62
592.119	405.62
592.329	389.62
592.539	429.62
592.748	426.62
592.958	420.62
593.167	445.62
593.377	453.62
593.587	457.62
593.796	456.62
594.006	459.62
594.215	471.62
594.424	487.62
594.634	448.62
594.843	427.62
595.053	413.62
595.262	388.62
595.472	392.62
595.681	365.62
595.89	362.62
596.1	359.62
596.309	352.62
596.518	349.62
596.727	335.62
596.937	354.62
597.146	343.62
597.355	321.62
597.564	316.62
597.774	331.62
597.983	327.62
598.192	329.62
598.401	329.62
598.61	317.62
598.819	320.62
599.028	332.62
599.237	320.62
599.446	294.62
599.655	298.62
599.864	297.62
600.073	309.62
600.282	287.62
600.491	287.62
600.7	310.62
600.909	301.62
601.118	307.62
601.327	305.62
601.536	298.62
601.745	298.62
601.953	290.62
602.162	285.62
602.371	298.62
602.58	305.62
602.789	300.62
602.997	279.62
603.206	294.62
603.415	296.62
603.623	300.62
603.832	296.62
604.041	294.62
604.249	286.62
604.458	306.62
604.666	282.62
604.875	276.62
605.084	307.62
605.292	271.62
605.501	289.62
605.709	260.62
605.918	282.62
606.126	280.62
606.334	271.62
606.543	271.62
606.751	279.62
606.96	260.62
607.168	268.62
607.376	274.62
607.585	279.62
607.793	254.62
608.001	271.62
608.21	266.62
608.418	266.62
608.626	244.62
608.834	280.62
609.043	258.62
609.251	273.62
609.459	247.62
609.667	269.62
609.875	257.62
610.083	280.62
610.291	270.62
610.499	269.62
610.707	272.62
610.916	262.62
611.124	277.62
611.332	274.62
611.54	271.62
611.748	263.62
611.955	242.62
612.163	273.62
612.371	264.62
612.579	253.62
612.787	269.62
612.995	251.62
613.203	271.62
613.411	278.62
613.618	268.62
613.826	262.62
614.034	257.62
614.242	265.62
614.449	259.62
614.657	252.62
614.865	254.62
615.072	259.62
615.28	282.62
615.488	270.62
615.695	275.62
615.903	273.62
616.111	271.62
616.318	281.62
616.526	267.62
616.733	267.62
616.941	277.62
617.148	280.62
617.356	270.62
617.563	291.62
617.771	275.62
617.978	260.62
618.185	257.62
618.393	269.62
618.6	266.62
618.807	255.62
619.015	277.62
619.222	262.62
619.429	255.62
619.637	264.62
619.844	263.62
620.051	260.62
620.258	259.62
620.466	262.62
620.673	238.62
620.88	235.62
621.087	249.62
621.294	252.62
621.501	257.62
621.708	247.62
621.915	248.62
622.122	252.62
622.329	249.62
622.536	252.62
622.743	246.62
622.95	234.62
623.157	252.62
623.364	251.62
623.571	234.62
623.778	241.62
623.985	247.62
624.192	225.62
624.399	227.62
624.606	238.62
624.812	224.62
625.019	207.62
625.226	241.62
625.433	249.62
625.639	235.62
625.846	233.62
626.053	229.62
626.259	229.62
626.466	224.62
626.673	210.62
626.879	229.62
627.086	225.62
627.293	229.62
627.499	220.62
627.706	229.62
627.912	233.62
628.119	226.62
628.325	222.62
628.532	218.62
628.738	227.62
628.945	204.62
629.151	228.62
629.357	228.62
629.564	216.62
629.77	214.62
629.976	200.62
630.183	202.62
630.389	181.62
630.595	217.62
630.802	219.62
631.008	202.62
631.214	199.62
631.42	206.62
631.627	217.62
631.833	215.62
632.039	198.62
632.245	196.62
632.451	207.62
632.657	198.62
632.863	199.62
633.069	193.62
633.275	202.62
633.481	202.62
633.688	191.62
633.893	202.62
634.099	214.62
634.305	190.62
634.511	190.62
634.717	234.62
634.923	189.62
635.129	189.62
635.335	184.62
635.541	198.62
635.747	195.62
635.952	191.62
636.158	184.62
636.364	198.62
636.57	193.62
636.775	186.62
636.981	197.62
637.187	202.62
637.392	188.62
637.598	199.62
637.804	190.62
638.009	198.62
638.215	204.62
638.421	180.62
638.626	201.62
638.832	190.62
639.037	182.62
639.243	197.62
639.448	182.62
639.654	183.62
639.859	193.62
640.065	181.62
640.27	185.62
640.475	175.62
640.681	188.62
640.886	173.62
641.091	168.62
641.297	183.62
641.502	192.62
641.707	179.62
641.913	170.62
642.118	178.62
642.323	187.62
642.528	177.62
642.733	166.62
642.939	172.62
643.144	183.62
643.349	195.62
643.554	185.62
643.759	181.62
643.964	179.62
644.169	186.62
644.374	186.62
644.579	185.62
644.784	174.62
644.989	179.62
645.194	190.62
645.399	187.62
645.604	173.62
645.809	176.62
646.014	177.62
646.219	178.62
646.423	177.62
646.628	173.62
646.833	181.62
647.038	174.62
647.243	175.62
647.447	172.62
647.652	175.62
647.857	189.62
648.062	177.62
648.266	181.62
648.471	172.62
648.676	186.62
648.88	189.62
649.085	184.62
649.289	185.62
649.494	184.62
649.698	167.62
649.903	170.62
650.107	170.62
650.312	169.62
650.516	195.62
650.721	177.62
650.925	177.62
651.13	153.62
651.334	165.62
651.539	158.62
651.743	154.62
651.947	158.62
652.152	171.62
652.356	161.62
652.56	165.62
652.764	161.62
652.969	153.62
653.173	137.62
653.377	160.62
653.581	136.62
653.785	136.62
653.99	151.62
654.194	136.62
654.398	134.62
654.602	138.62
654.806	134.62
655.01	131.62
655.214	130.62
655.418	151.62
655.622	137.62
655.826	133.62
656.03	144.62
656.234	127.62
656.438	145.62
656.642	129.62
656.846	125.62
657.049	126.62
657.253	119.62
657.457	132.62
657.661	129.62
657.865	115.62
658.068	109.62
658.272	106.62
658.476	106.62
658.68	107.62
658.883	95.62
659.087	104.62
659.291	118.62
659.494	108.62
659.698	113.62
659.901	101.62
660.105	93.62
660.309	100.62
660.512	103.62
660.716	89.62
660.919	108.62
661.123	107.62
661.326	100.62
661.53	90.62
661.733	98.62
661.936	89.62
662.14	98.62
662.343	91.62
662.546	89.62
662.75	82.62
662.953	100.62
663.156	78.62
663.36	88.62
663.563	95.62
663.766	74.62
663.969	82.62
664.173	81.62
664.376	82.62
664.579	84.62
664.782	79.62
664.985	73.62
665.188	90.62
665.391	83.62
665.594	78.62
665.797	73.62
666	87.62
666.203	86.62
666.406	92.62
666.609	91.62
666.812	88.62
667.015	82.62
667.218	91.62
667.421	81.62
667.624	83.62
667.827	87.62
668.03	89.62
668.232	82.62
668.435	87.62
668.638	83.62
668.841	79.62
669.043	80.62
669.246	97.62
669.449	92.62
669.651	86.62
669.854	86.62
670.057	72.62
670.259	79.62
670.462	80.62
670.665	82.62
670.867	74.62
671.07	77.62
671.272	83.62
671.475	108.62
671.677	92.62
671.88	73.62
672.082	73.62
672.284	83.62
672.487	75.62
672.689	79.62
672.892	64.62
