Data from Ni(NO3)2@0.0625M.TitratingCurve.Agarose3%dH2O.NegLispCup.LampEnergy10.LIBS07252019_HRD10591_18-14-21-569.txt Node
Date: Thu Jul 25 18:14:21 EDT 2019
User: cochatt
Spectrometer: HR+D1059
Trigger mode: 1
Integration Time (sec): 1.000000E-1
Scans to average: 1
Electric dark correction enabled: true
Nonlinearity correction enabled: false
Boxcar width: 0
XAxis mode: Wavelengths
Number of Pixels in Spectrum: 2048
>>>>>Begin Spectral Data<<<<<
223.165	-8.19
223.4	-8.19
223.635	-8.19
223.869	-32.19
224.104	-14.19
224.338	-32.19
224.573	3.81
224.808	-17.19
225.042	2.81
225.277	5.81
225.511	2.81
225.746	-3.19
225.98	11.81
226.215	7.81
226.449	1.81
226.683	18.81
226.918	26.81
227.152	24.81
227.387	33.81
227.621	37.81
227.856	38.81
228.09	45.81
228.324	51.81
228.559	49.81
228.793	81.81
229.027	113.81
229.262	102.81
229.496	97.81
229.73	115.81
229.964	112.81
230.199	121.81
230.433	116.81
230.667	118.81
230.901	114.81
231.136	131.81
231.37	120.81
231.604	131.81
231.838	136.81
232.072	113.81
232.306	127.81
232.541	137.81
232.775	146.81
233.009	146.81
233.243	143.81
233.477	138.81
233.711	146.81
233.945	153.81
234.179	149.81
234.413	159.81
234.647	148.81
234.881	145.81
235.115	136.81
235.349	139.81
235.583	141.81
235.817	142.81
236.051	147.81
236.285	132.81
236.519	145.81
236.753	145.81
236.987	154.81
237.221	155.81
237.455	153.81
237.689	149.81
237.922	142.81
238.156	147.81
238.39	147.81
238.624	162.81
238.858	151.81
239.091	153.81
239.325	166.81
239.559	157.81
239.793	164.81
240.027	159.81
240.26	165.81
240.494	182.81
240.728	180.81
240.961	175.81
241.195	175.81
241.429	179.81
241.662	169.81
241.896	162.81
242.13	196.81
242.363	184.81
242.597	191.81
242.83	186.81
243.064	199.81
243.298	175.81
243.531	189.81
243.765	192.81
243.998	210.81
244.232	199.81
244.465	200.81
244.699	195.81
244.932	194.81
245.166	196.81
245.399	203.81
245.633	190.81
245.866	220.81
246.099	190.81
246.333	207.81
246.566	211.81
246.8	211.81
247.033	229.81
247.266	192.81
247.5	199.81
247.733	234.81
247.966	207.81
248.2	227.81
248.433	237.81
248.666	227.81
248.899	220.81
249.133	212.81
249.366	247.81
249.599	208.81
249.832	221.81
250.066	239.81
250.299	219.81
250.532	236.81
250.765	237.81
250.998	230.81
251.231	229.81
251.465	240.81
251.698	237.81
251.931	246.81
252.164	237.81
252.397	223.81
252.63	258.81
252.863	265.81
253.096	240.81
253.329	250.81
253.562	264.81
253.795	263.81
254.028	257.81
254.261	238.81
254.494	246.81
254.727	256.81
254.96	261.81
255.193	262.81
255.426	272.81
255.659	268.81
255.892	266.81
256.124	264.81
256.357	259.81
256.59	260.81
256.823	269.81
257.056	280.81
257.289	290.81
257.521	270.81
257.754	282.81
257.987	291.81
258.22	283.81
258.452	278.81
258.685	281.81
258.918	289.81
259.151	276.81
259.383	279.81
259.616	285.81
259.849	283.81
260.081	285.81
260.314	291.81
260.547	301.81
260.779	298.81
261.012	308.81
261.244	298.81
261.477	282.81
261.71	299.81
261.942	314.81
262.175	298.81
262.407	286.81
262.64	282.81
262.872	285.81
263.105	300.81
263.337	297.81
263.57	306.81
263.802	321.81
264.035	311.81
264.267	327.81
264.499	315.81
264.732	335.81
264.964	314.81
265.197	327.81
265.429	330.81
265.661	325.81
265.894	322.81
266.126	333.81
266.358	324.81
266.591	327.81
266.823	346.81
267.055	319.81
267.287	331.81
267.52	319.81
267.752	339.81
267.984	331.81
268.216	337.81
268.448	321.81
268.681	334.81
268.913	313.81
269.145	339.81
269.377	336.81
269.609	340.81
269.841	359.81
270.073	338.81
270.306	329.81
270.538	328.81
270.77	342.81
271.002	353.81
271.234	353.81
271.466	361.81
271.698	350.81
271.93	356.81
272.162	363.81
272.394	349.81
272.626	338.81
272.858	355.81
273.09	361.81
273.322	351.81
273.553	347.81
273.785	375.81
274.017	381.81
274.249	358.81
274.481	350.81
274.713	376.81
274.945	358.81
275.176	381.81
275.408	373.81
275.64	387.81
275.872	380.81
276.104	380.81
276.335	387.81
276.567	383.81
276.799	391.81
277.031	374.81
277.262	393.81
277.494	388.81
277.726	395.81
277.957	411.81
278.189	359.81
278.421	390.81
278.652	401.81
278.884	412.81
279.115	387.81
279.347	376.81
279.579	401.81
279.81	392.81
280.042	405.81
280.273	395.81
280.505	417.81
280.736	422.81
280.968	409.81
281.199	394.81
281.431	432.81
281.662	411.81
281.894	409.81
282.125	428.81
282.356	426.81
282.588	426.81
282.819	439.81
283.051	432.81
283.282	465.81
283.513	434.81
283.745	426.81
283.976	443.81
284.207	435.81
284.439	428.81
284.67	430.81
284.901	457.81
285.132	425.81
285.364	433.81
285.595	443.81
285.826	454.81
286.057	464.81
286.288	440.81
286.52	457.81
286.751	437.81
286.982	450.81
287.213	464.81
287.444	457.81
287.675	454.81
287.906	466.81
288.138	456.81
288.369	469.81
288.6	481.81
288.831	456.81
289.062	463.81
289.293	467.81
289.524	462.81
289.755	468.81
289.986	476.81
290.217	470.81
290.448	487.81
290.679	486.81
290.91	475.81
291.141	493.81
291.371	471.81
291.602	490.81
291.833	487.81
292.064	496.81
292.295	485.81
292.526	474.81
292.757	482.81
292.987	484.81
293.218	469.81
293.449	482.81
293.68	485.81
293.91	480.81
294.141	486.81
294.372	474.81
294.603	495.81
294.833	491.81
295.064	502.81
295.295	499.81
295.525	501.81
295.756	509.81
295.987	516.81
296.217	503.81
296.448	518.81
296.679	502.81
296.909	507.81
297.14	484.81
297.37	524.81
297.601	511.81
297.831	517.81
298.062	533.81
298.292	530.81
298.523	535.81
298.753	541.81
298.984	536.81
299.214	528.81
299.445	502.81
299.675	543.81
299.905	552.81
300.136	523.81
300.366	539.81
300.597	559.81
300.827	557.81
301.057	549.81
301.288	525.81
301.518	545.81
301.748	540.81
301.979	551.81
302.209	537.81
302.439	550.81
302.669	549.81
302.9	549.81
303.13	530.81
303.36	553.81
303.59	518.81
303.82	550.81
304.051	529.81
304.281	539.81
304.511	546.81
304.741	553.81
304.971	548.81
305.201	542.81
305.431	531.81
305.661	508.81
305.891	520.81
306.121	546.81
306.352	527.81
306.582	547.81
306.812	515.81
307.042	531.81
307.272	530.81
307.502	503.81
307.731	515.81
307.961	528.81
308.191	518.81
308.421	522.81
308.651	524.81
308.881	519.81
309.111	540.81
309.341	524.81
309.571	541.81
309.8	527.81
310.03	529.81
310.26	526.81
310.49	535.81
310.72	530.81
310.949	532.81
311.179	534.81
311.409	535.81
311.639	528.81
311.868	524.81
312.098	561.81
312.328	541.81
312.557	555.81
312.787	539.81
313.017	559.81
313.246	553.81
313.476	575.81
313.706	552.81
313.935	589.81
314.165	585.81
314.394	572.81
314.624	579.81
314.853	575.81
315.083	560.81
315.312	529.81
315.542	549.81
315.771	566.81
316.001	534.81
316.23	548.81
316.46	542.81
316.689	553.81
316.919	542.81
317.148	542.81
317.377	542.81
317.607	522.81
317.836	539.81
318.065	551.81
318.295	544.81
318.524	561.81
318.753	553.81
318.983	540.81
319.212	560.81
319.441	571.81
319.67	553.81
319.9	546.81
320.129	541.81
320.358	553.81
320.587	553.81
320.816	534.81
321.046	546.81
321.275	549.81
321.504	552.81
321.733	554.81
321.962	546.81
322.191	555.81
322.42	552.81
322.649	569.81
322.878	563.81
323.108	538.81
323.337	551.81
323.566	590.81
323.795	571.81
324.024	590.81
324.253	569.81
324.482	571.81
324.71	574.81
324.939	588.81
325.168	567.81
325.397	578.81
325.626	577.81
325.855	585.81
326.084	583.81
326.313	612.81
326.542	618.81
326.77	618.81
326.999	603.81
327.228	590.81
327.457	595.81
327.686	605.81
327.914	624.81
328.143	617.81
328.372	605.81
328.6	603.81
328.829	607.81
329.058	608.81
329.287	606.81
329.515	601.81
329.744	624.81
329.972	612.81
330.201	615.81
330.43	601.81
330.658	598.81
330.887	600.81
331.115	626.81
331.344	633.81
331.572	629.81
331.801	652.81
332.03	666.81
332.258	685.81
332.486	709.81
332.715	741.81
332.943	794.81
333.172	813.81
333.4	817.81
333.629	825.81
333.857	838.81
334.085	825.81
334.314	823.81
334.542	783.81
334.771	781.81
334.999	764.81
335.227	741.81
335.455	776.81
335.684	765.81
335.912	765.81
336.14	728.81
336.369	731.81
336.597	739.81
336.825	745.81
337.053	715.81
337.281	711.81
337.51	689.81
337.738	703.81
337.966	698.81
338.194	638.81
338.422	657.81
338.65	677.81
338.878	652.81
339.106	672.81
339.334	671.81
339.562	632.81
339.79	629.81
340.018	640.81
340.246	618.81
340.474	655.81
340.702	630.81
340.93	639.81
341.158	626.81
341.386	645.81
341.614	625.81
341.842	629.81
342.07	627.81
342.298	628.81
342.526	624.81
342.754	614.81
342.981	637.81
343.209	650.81
343.437	690.81
343.665	729.81
343.893	762.81
344.12	824.81
344.348	752.81
344.576	730.81
344.804	696.81
345.031	672.81
345.259	632.81
345.487	665.81
345.714	630.81
345.942	637.81
346.17	640.81
346.397	659.81
346.625	620.81
346.853	641.81
347.08	639.81
347.308	610.81
347.535	641.81
347.763	645.81
347.99	633.81
348.218	636.81
348.445	642.81
348.673	634.81
348.9	621.81
349.128	617.81
349.355	631.81
349.583	594.81
349.81	607.81
350.037	601.81
350.265	610.81
350.492	593.81
350.72	603.81
350.947	599.81
351.174	598.81
351.402	614.81
351.629	605.81
351.856	575.81
352.083	583.81
352.311	581.81
352.538	585.81
352.765	591.81
352.992	593.81
353.22	589.81
353.447	577.81
353.674	585.81
353.901	577.81
354.128	585.81
354.355	586.81
354.583	585.81
354.81	595.81
355.037	601.81
355.264	593.81
355.491	608.81
355.718	605.81
355.945	609.81
356.172	598.81
356.399	593.81
356.626	604.81
356.853	621.81
357.08	597.81
357.307	568.81
357.534	599.81
357.761	599.81
357.988	615.81
358.215	596.81
358.441	613.81
358.668	577.81
358.895	599.81
359.122	569.81
359.349	610.81
359.576	592.81
359.802	596.81
360.029	597.81
360.256	603.81
360.483	593.81
360.709	605.81
360.936	615.81
361.163	598.81
361.39	603.81
361.616	602.81
361.843	598.81
362.07	591.81
362.296	609.81
362.523	597.81
362.749	581.81
362.976	596.81
363.203	592.81
363.429	579.81
363.656	600.81
363.882	592.81
364.109	587.81
364.335	578.81
364.562	594.81
364.788	610.81
365.015	601.81
365.241	591.81
365.468	598.81
365.694	591.81
365.92	608.81
366.147	588.81
366.373	589.81
366.599	601.81
366.826	604.81
367.052	602.81
367.278	599.81
367.505	598.81
367.731	587.81
367.957	609.81
368.184	591.81
368.41	570.81
368.636	577.81
368.862	622.81
369.089	593.81
369.315	614.81
369.541	607.81
369.767	632.81
369.993	612.81
370.219	630.81
370.445	615.81
370.672	628.81
370.898	638.81
371.124	635.81
371.35	657.81
371.576	654.81
371.802	638.81
372.028	643.81
372.254	646.81
372.48	648.81
372.706	662.81
372.932	703.81
373.158	683.81
373.384	667.81
373.61	630.81
373.835	671.81
374.061	651.81
374.287	646.81
374.513	673.81
374.739	687.81
374.965	725.81
375.191	745.81
375.416	761.81
375.642	707.81
375.868	690.81
376.094	665.81
376.319	682.81
376.545	675.81
376.771	663.81
376.997	634.81
377.222	664.81
377.448	658.81
377.674	645.81
377.899	647.81
378.125	637.81
378.35	648.81
378.576	646.81
378.802	651.81
379.027	650.81
379.253	633.81
379.478	643.81
379.704	647.81
379.929	645.81
380.155	647.81
380.38	645.81
380.606	644.81
380.831	625.81
381.057	659.81
381.282	648.81
381.507	643.81
381.733	657.81
381.958	650.81
382.184	671.81
382.409	675.81
382.634	696.81
382.86	683.81
383.085	713.81
383.31	690.81
383.535	717.81
383.761	713.81
383.986	744.81
384.211	785.81
384.436	763.81
384.662	775.81
384.887	774.81
385.112	752.81
385.337	744.81
385.562	809.81
385.787	801.81
386.013	817.81
386.238	791.81
386.463	796.81
386.688	797.81
386.913	760.81
387.138	781.81
387.363	768.81
387.588	747.81
387.813	731.81
388.038	746.81
388.263	792.81
388.488	778.81
388.713	762.81
388.938	738.81
389.163	738.81
389.387	766.81
389.612	743.81
389.837	773.81
390.062	733.81
390.287	767.81
390.512	738.81
390.736	742.81
390.961	786.81
391.186	793.81
391.411	806.81
391.636	849.81
391.86	881.81
392.085	895.81
392.31	875.81
392.534	847.81
392.759	831.81
392.984	821.81
393.208	834.81
393.433	834.81
393.658	847.81
393.882	821.81
394.107	839.81
394.331	848.81
394.556	862.81
394.78	826.81
395.005	859.81
395.229	856.81
395.454	873.81
395.678	865.81
395.903	893.81
396.127	853.81
396.352	831.81
396.576	816.81
396.801	801.81
397.025	824.81
397.249	846.81
397.474	851.81
397.698	869.81
397.922	864.81
398.147	854.81
398.371	873.81
398.595	895.81
398.82	949.81
399.044	992.81
399.268	1125.81
399.492	1325.81
399.717	1510.81
399.941	1498.81
400.165	1292.81
400.389	1197.81
400.613	1079.81
400.837	1019.81
401.062	995.81
401.286	958.81
401.51	941.81
401.734	961.81
401.958	950.81
402.182	966.81
402.406	1025.81
402.63	1029.81
402.854	1055.81
403.078	1048.81
403.302	1078.81
403.526	1127.81
403.75	1147.81
403.974	1157.81
404.198	1175.81
404.422	1153.81
404.645	1155.81
404.869	1123.81
405.093	1127.81
405.317	1102.81
405.541	1104.81
405.765	1041.81
405.988	1081.81
406.212	1092.81
406.436	1060.81
406.66	1074.81
406.883	1085.81
407.107	1163.81
407.331	1238.81
407.555	1262.81
407.778	1280.81
408.002	1245.81
408.226	1203.81
408.449	1203.81
408.673	1123.81
408.896	1135.81
409.12	1121.81
409.344	1142.81
409.567	1091.81
409.791	1135.81
410.014	1149.81
410.238	1126.81
410.461	1120.81
410.685	1112.81
410.908	1062.81
411.132	1053.81
411.355	1014.81
411.578	990.81
411.802	983.81
412.025	994.81
412.249	1058.81
412.472	1026.81
412.695	992.81
412.919	967.81
413.142	975.81
413.365	971.81
413.589	955.81
413.812	977.81
414.035	965.81
414.258	968.81
414.482	978.81
414.705	995.81
414.928	988.81
415.151	998.81
415.374	978.81
415.597	973.81
415.821	950.81
416.044	955.81
416.267	958.81
416.49	955.81
416.713	937.81
416.936	973.81
417.159	960.81
417.382	969.81
417.605	966.81
417.828	958.81
418.051	955.81
418.274	974.81
418.497	957.81
418.72	1002.81
418.943	1000.81
419.166	1059.81
419.389	1157.81
419.611	1109.81
419.834	1055.81
420.057	1035.81
420.28	979.81
420.503	964.81
420.726	969.81
420.948	967.81
421.171	944.81
421.394	955.81
421.617	967.81
421.839	934.81
422.062	953.81
422.285	946.81
422.507	1020.81
422.73	1007.81
422.953	984.81
423.175	1039.81
423.398	1085.81
423.621	996.81
423.843	1029.81
424.066	1046.81
424.288	1071.81
424.511	1042.81
424.733	1018.81
424.956	1010.81
425.178	959.81
425.401	987.81
425.623	950.81
425.846	930.81
426.068	902.81
426.291	900.81
426.513	895.81
426.735	910.81
426.958	947.81
427.18	886.81
427.402	890.81
427.625	869.81
427.847	867.81
428.069	875.81
428.292	870.81
428.514	877.81
428.736	846.81
428.958	861.81
429.181	846.81
429.403	820.81
429.625	853.81
429.847	858.81
430.069	831.81
430.292	821.81
430.514	806.81
430.736	855.81
430.958	842.81
431.18	852.81
431.402	844.81
431.624	853.81
431.846	880.81
432.068	877.81
432.29	873.81
432.512	863.81
432.734	892.81
432.956	881.81
433.178	882.81
433.4	858.81
433.622	887.81
433.844	885.81
434.066	867.81
434.287	879.81
434.509	913.81
434.731	954.81
434.953	982.81
435.175	1013.81
435.397	963.81
435.618	960.81
435.84	927.81
436.062	899.81
436.284	857.81
436.505	881.81
436.727	858.81
436.949	903.81
437.17	850.81
437.392	853.81
437.614	836.81
437.835	829.81
438.057	849.81
438.278	839.81
438.5	864.81
438.721	838.81
438.943	825.81
439.165	848.81
439.386	838.81
439.608	851.81
439.829	833.81
440.05	861.81
440.272	869.81
440.493	886.81
440.715	877.81
440.936	912.81
441.158	900.81
441.379	927.81
441.6	1005.81
441.822	979.81
442.043	1003.81
442.264	982.81
442.486	944.81
442.707	977.81
442.928	989.81
443.149	972.81
443.371	965.81
443.592	980.81
443.813	978.81
444.034	1008.81
444.255	1023.81
444.476	1051.81
444.698	1137.81
444.919	1190.81
445.14	1285.81
445.361	1124.81
445.582	1007.81
445.803	948.81
446.024	925.81
446.245	918.81
446.466	927.81
446.687	881.81
446.908	902.81
447.129	863.81
447.35	839.81
447.571	869.81
447.792	834.81
448.013	846.81
448.234	809.81
448.455	802.81
448.675	802.81
448.896	759.81
449.117	792.81
449.338	799.81
449.559	788.81
449.779	774.81
450	770.81
450.221	823.81
450.442	820.81
450.662	819.81
450.883	821.81
451.104	832.81
451.324	836.81
451.545	818.81
451.766	837.81
451.986	805.81
452.207	799.81
452.428	829.81
452.648	808.81
452.869	795.81
453.089	799.81
453.31	797.81
453.53	798.81
453.751	782.81
453.971	810.81
454.192	785.81
454.412	789.81
454.633	777.81
454.853	780.81
455.073	754.81
455.294	756.81
455.514	751.81
455.734	724.81
455.955	721.81
456.175	723.81
456.395	762.81
456.616	739.81
456.836	767.81
457.056	775.81
457.276	738.81
457.497	726.81
457.717	765.81
457.937	752.81
458.157	785.81
458.377	766.81
458.598	792.81
458.818	832.81
459.038	819.81
459.258	853.81
459.478	883.81
459.698	908.81
459.918	935.81
460.138	945.81
460.358	1035.81
460.578	1005.81
460.798	1032.81
461.018	1058.81
461.238	1063.81
461.458	1051.81
461.678	1043.81
461.898	1072.81
462.118	1042.81
462.338	1114.81
462.558	1099.81
462.777	1152.81
462.997	1299.81
463.217	1427.81
463.437	1444.81
463.657	1319.81
463.876	1258.81
464.096	1254.81
464.316	1246.81
464.536	1243.81
464.755	1204.81
464.975	1153.81
465.195	1079.81
465.414	1025.81
465.634	949.81
465.854	929.81
466.073	904.81
466.293	921.81
466.512	877.81
466.732	865.81
466.951	865.81
467.171	830.81
467.391	820.81
467.61	827.81
467.829	830.81
468.049	833.81
468.268	807.81
468.488	811.81
468.707	808.81
468.927	805.81
469.146	800.81
469.365	819.81
469.585	840.81
469.804	824.81
470.023	864.81
470.243	858.81
470.462	876.81
470.681	866.81
470.901	880.81
471.12	867.81
471.339	826.81
471.558	820.81
471.777	837.81
471.997	806.81
472.216	824.81
472.435	799.81
472.654	773.81
472.873	775.81
473.092	750.81
473.311	794.81
473.53	792.81
473.749	779.81
473.968	788.81
474.187	777.81
474.406	780.81
474.625	763.81
474.844	800.81
475.063	759.81
475.282	804.81
475.501	788.81
475.72	788.81
475.939	801.81
476.158	798.81
476.377	802.81
476.596	802.81
476.814	821.81
477.033	776.81
477.252	865.81
477.471	850.81
477.69	874.81
477.908	912.81
478.127	912.81
478.346	922.81
478.564	941.81
478.783	958.81
479.002	997.81
479.22	999.81
479.439	987.81
479.658	951.81
479.876	975.81
480.095	1007.81
480.313	1045.81
480.532	1089.81
480.751	1056.81
480.969	1018.81
481.188	963.81
481.406	957.81
481.624	939.81
481.843	907.81
482.061	921.81
482.28	891.81
482.498	889.81
482.717	862.81
482.935	865.81
483.153	899.81
483.372	900.81
483.59	915.81
483.808	903.81
484.027	923.81
484.245	910.81
484.463	906.81
484.681	911.81
484.9	905.81
485.118	950.81
485.336	925.81
485.554	950.81
485.772	943.81
485.99	953.81
486.209	946.81
486.427	951.81
486.645	974.81
486.863	925.81
487.081	936.81
487.299	934.81
487.517	943.81
487.735	953.81
487.953	939.81
488.171	954.81
488.389	951.81
488.607	940.81
488.825	917.81
489.043	930.81
489.261	918.81
489.479	928.81
489.696	912.81
489.914	915.81
490.132	924.81
490.35	930.81
490.568	945.81
490.786	941.81
491.003	941.81
491.221	935.81
491.439	925.81
491.657	941.81
491.874	949.81
492.092	963.81
492.31	954.81
492.527	947.81
492.745	926.81
492.963	965.81
493.18	963.81
493.398	951.81
493.615	994.81
493.833	1013.81
494.05	949.81
494.268	967.81
494.485	997.81
494.703	998.81
494.92	992.81
495.138	988.81
495.355	984.81
495.573	997.81
495.79	993.81
496.008	1039.81
496.225	980.81
496.442	1013.81
496.66	1005.81
496.877	995.81
497.094	1025.81
497.312	1033.81
497.529	1103.81
497.746	1102.81
497.963	1158.81
498.181	1177.81
498.398	1216.81
498.615	1287.81
498.832	1409.81
499.049	1503.81
499.267	1636.81
499.484	1808.81
499.701	1974.81
499.918	2229.81
500.135	2518.81
500.352	3010.81
500.569	3225.81
500.786	3175.81
501.003	2903.81
501.22	2608.81
501.437	2243.81
501.654	1959.81
501.871	1760.81
502.088	1601.81
502.305	1475.81
502.522	1420.81
502.739	1389.81
502.956	1313.81
503.172	1212.81
503.389	1167.81
503.606	1147.81
503.823	1121.81
504.04	1103.81
504.256	1124.81
504.473	1185.81
504.69	1213.81
504.907	1194.81
505.123	1113.81
505.34	1046.81
505.557	977.81
505.773	957.81
505.99	966.81
506.207	915.81
506.423	899.81
506.64	903.81
506.856	890.81
507.073	890.81
507.289	907.81
507.506	898.81
507.722	886.81
507.939	867.81
508.155	858.81
508.372	859.81
508.588	829.81
508.805	824.81
509.021	873.81
509.238	817.81
509.454	819.81
509.67	820.81
509.887	834.81
510.103	800.81
510.319	811.81
510.536	809.81
510.752	805.81
510.968	809.81
511.184	817.81
511.401	806.81
511.617	840.81
511.833	793.81
512.049	778.81
512.265	805.81
512.481	785.81
512.698	782.81
512.914	793.81
513.13	802.81
513.346	815.81
513.562	810.81
513.778	797.81
513.994	810.81
514.21	823.81
514.426	799.81
514.642	799.81
514.858	838.81
515.074	830.81
515.29	821.81
515.506	831.81
515.721	865.81
515.937	886.81
516.153	878.81
516.369	897.81
516.585	948.81
516.801	916.81
517.016	986.81
517.232	1055.81
517.448	1120.81
517.664	1161.81
517.879	1133.81
518.095	1157.81
518.311	1127.81
518.527	1058.81
518.742	1005.81
518.958	987.81
519.173	968.81
519.389	937.81
519.605	903.81
519.82	843.81
520.036	867.81
520.251	847.81
520.467	834.81
520.682	825.81
520.898	814.81
521.113	814.81
521.329	819.81
521.544	768.81
521.76	785.81
521.975	754.81
522.19	744.81
522.406	743.81
522.621	772.81
522.836	767.81
523.052	750.81
523.267	757.81
523.482	783.81
523.698	743.81
523.913	745.81
524.128	753.81
524.343	740.81
524.559	775.81
524.774	767.81
524.989	779.81
525.204	742.81
525.419	743.81
525.634	736.81
525.849	725.81
526.064	740.81
526.28	728.81
526.495	739.81
526.71	736.81
526.925	732.81
527.14	722.81
527.355	721.81
527.57	722.81
527.785	741.81
527.999	753.81
528.214	752.81
528.429	726.81
528.644	761.81
528.859	740.81
529.074	712.81
529.289	729.81
529.503	723.81
529.718	737.81
529.933	721.81
530.148	728.81
530.363	744.81
530.577	727.81
530.792	717.81
531.007	726.81
531.221	747.81
531.436	783.81
531.651	719.81
531.865	750.81
532.08	695.81
532.295	740.81
532.509	748.81
532.724	728.81
532.938	750.81
533.153	742.81
533.367	749.81
533.582	743.81
533.796	734.81
534.011	737.81
534.225	717.81
534.44	709.81
534.654	722.81
534.868	738.81
535.083	708.81
535.297	737.81
535.511	713.81
535.726	714.81
535.94	720.81
536.154	695.81
536.369	687.81
536.583	678.81
536.797	690.81
537.011	719.81
537.225	709.81
537.44	670.81
537.654	692.81
537.868	694.81
538.082	655.81
538.296	679.81
538.51	682.81
538.724	681.81
538.938	656.81
539.153	677.81
539.367	688.81
539.581	661.81
539.795	651.81
540.009	674.81
540.222	674.81
540.436	660.81
540.65	673.81
540.864	643.81
541.078	644.81
541.292	673.81
541.506	643.81
541.72	644.81
541.934	621.81
542.147	645.81
542.361	667.81
542.575	638.81
542.789	635.81
543.002	652.81
543.216	623.81
543.43	639.81
543.644	651.81
543.857	659.81
544.071	646.81
544.285	643.81
544.498	664.81
544.712	661.81
544.925	669.81
545.139	651.81
545.352	671.81
545.566	663.81
545.779	666.81
545.993	667.81
546.206	683.81
546.42	650.81
546.633	659.81
546.847	669.81
547.06	675.81
547.274	660.81
547.487	685.81
547.7	665.81
547.914	655.81
548.127	651.81
548.34	671.81
548.554	674.81
548.767	661.81
548.98	682.81
549.193	689.81
549.407	687.81
549.62	696.81
549.833	715.81
550.046	676.81
550.259	669.81
550.473	654.81
550.686	638.81
550.899	657.81
551.112	653.81
551.325	665.81
551.538	664.81
551.751	647.81
551.964	652.81
552.177	688.81
552.39	652.81
552.603	698.81
552.816	696.81
553.029	719.81
553.242	715.81
553.455	723.81
553.667	764.81
553.88	740.81
554.093	722.81
554.306	713.81
554.519	677.81
554.732	685.81
554.944	661.81
555.157	655.81
555.37	654.81
555.583	629.81
555.795	627.81
556.008	596.81
556.221	599.81
556.433	592.81
556.646	598.81
556.859	607.81
557.071	593.81
557.284	597.81
557.496	605.81
557.709	576.81
557.921	564.81
558.134	554.81
558.346	577.81
558.559	595.81
558.771	577.81
558.984	567.81
559.196	553.81
559.409	570.81
559.621	574.81
559.833	569.81
560.046	570.81
560.258	562.81
560.47	547.81
560.683	572.81
560.895	547.81
561.107	549.81
561.32	555.81
561.532	561.81
561.744	515.81
561.956	546.81
562.168	553.81
562.381	550.81
562.593	551.81
562.805	565.81
563.017	585.81
563.229	553.81
563.441	571.81
563.653	575.81
563.865	574.81
564.077	588.81
564.289	593.81
564.501	568.81
564.713	608.81
564.925	603.81
565.137	607.81
565.349	606.81
565.561	648.81
565.773	639.81
565.985	676.81
566.197	724.81
566.408	783.81
566.62	839.81
566.832	954.81
567.044	972.81
567.255	907.81
567.467	937.81
567.679	1001.81
567.891	1114.81
568.102	1168.81
568.314	1088.81
568.526	978.81
568.737	862.81
568.949	799.81
569.161	724.81
569.372	665.81
569.584	629.81
569.795	623.81
570.007	597.81
570.218	575.81
570.43	563.81
570.641	573.81
570.853	586.81
571.064	571.81
571.276	600.81
571.487	570.81
571.698	531.81
571.91	510.81
572.121	536.81
572.333	511.81
572.544	499.81
572.755	483.81
572.966	483.81
573.178	486.81
573.389	483.81
573.6	468.81
573.811	468.81
574.023	457.81
574.234	462.81
574.445	463.81
574.656	469.81
574.867	471.81
575.078	466.81
575.289	483.81
575.501	462.81
575.712	449.81
575.923	443.81
576.134	450.81
576.345	438.81
576.556	456.81
576.767	453.81
576.978	423.81
577.188	435.81
577.399	424.81
577.61	411.81
577.821	438.81
578.032	437.81
578.243	416.81
578.454	407.81
578.665	417.81
578.875	401.81
579.086	405.81
579.297	429.81
579.508	400.81
579.718	402.81
579.929	435.81
580.14	406.81
580.35	403.81
580.561	402.81
580.772	395.81
580.982	405.81
581.193	404.81
581.403	393.81
581.614	405.81
581.825	386.81
582.035	368.81
582.246	395.81
582.456	392.81
582.667	385.81
582.877	408.81
583.087	407.81
583.298	381.81
583.508	385.81
583.719	395.81
583.929	414.81
584.139	390.81
584.35	377.81
584.56	394.81
584.77	379.81
584.981	400.81
585.191	383.81
585.401	384.81
585.611	376.81
585.821	377.81
586.032	369.81
586.242	377.81
586.452	402.81
586.662	374.81
586.872	369.81
587.082	399.81
587.292	365.81
587.502	376.81
587.713	374.81
587.923	376.81
588.133	361.81
588.343	385.81
588.553	367.81
588.762	386.81
588.972	362.81
589.182	381.81
589.392	371.81
589.602	373.81
589.812	362.81
590.022	369.81
590.232	363.81
590.441	383.81
590.651	385.81
590.861	368.81
591.071	385.81
591.281	379.81
591.49	403.81
591.7	412.81
591.91	401.81
592.119	393.81
592.329	402.81
592.539	436.81
592.748	444.81
592.958	458.81
593.167	493.81
593.377	463.81
593.587	493.81
593.796	497.81
594.006	480.81
594.215	503.81
594.424	515.81
594.634	492.81
594.843	455.81
595.053	450.81
595.262	418.81
595.472	411.81
595.681	392.81
595.89	370.81
596.1	368.81
596.309	352.81
596.518	355.81
596.727	372.81
596.937	352.81
597.146	342.81
597.355	356.81
597.564	345.81
597.774	338.81
597.983	329.81
598.192	347.81
598.401	342.81
598.61	334.81
598.819	342.81
599.028	330.81
599.237	328.81
599.446	334.81
599.655	334.81
599.864	325.81
600.073	325.81
600.282	318.81
600.491	310.81
600.7	315.81
600.909	335.81
601.118	327.81
601.327	310.81
601.536	338.81
601.745	322.81
601.953	314.81
602.162	334.81
602.371	304.81
602.58	324.81
602.789	307.81
602.997	307.81
603.206	309.81
603.415	331.81
603.623	317.81
603.832	309.81
604.041	299.81
604.249	298.81
604.458	295.81
604.666	299.81
604.875	288.81
605.084	296.81
605.292	315.81
605.501	299.81
605.709	303.81
605.918	296.81
606.126	304.81
606.334	278.81
606.543	281.81
606.751	293.81
606.96	290.81
607.168	307.81
607.376	268.81
607.585	283.81
607.793	291.81
608.001	294.81
608.21	290.81
608.418	310.81
608.626	278.81
608.834	280.81
609.043	272.81
609.251	287.81
609.459	291.81
609.667	290.81
609.875	282.81
610.083	277.81
610.291	288.81
610.499	267.81
610.707	276.81
610.916	295.81
611.124	285.81
611.332	265.81
611.54	289.81
611.748	272.81
611.955	266.81
612.163	287.81
612.371	271.81
612.579	264.81
612.787	257.81
612.995	287.81
613.203	280.81
613.411	279.81
613.618	265.81
613.826	272.81
614.034	265.81
614.242	274.81
614.449	263.81
614.657	261.81
614.865	275.81
615.072	267.81
615.28	273.81
615.488	263.81
615.695	278.81
615.903	273.81
616.111	274.81
616.318	295.81
616.526	279.81
616.733	297.81
616.941	274.81
617.148	283.81
617.356	266.81
617.563	288.81
617.771	278.81
617.978	294.81
618.185	271.81
618.393	266.81
618.6	295.81
618.807	278.81
619.015	299.81
619.222	266.81
619.429	273.81
619.637	275.81
619.844	280.81
620.051	270.81
620.258	283.81
620.466	276.81
620.673	249.81
620.88	257.81
621.087	276.81
621.294	250.81
621.501	255.81
621.708	246.81
621.915	264.81
622.122	262.81
622.329	247.81
622.536	251.81
622.743	279.81
622.95	252.81
623.157	249.81
623.364	240.81
623.571	251.81
623.778	248.81
623.985	255.81
624.192	255.81
624.399	261.81
624.606	237.81
624.812	241.81
625.019	234.81
625.226	245.81
625.433	222.81
625.639	245.81
625.846	251.81
626.053	231.81
626.259	253.81
626.466	234.81
626.673	252.81
626.879	225.81
627.086	241.81
627.293	231.81
627.499	232.81
627.706	255.81
627.912	232.81
628.119	234.81
628.325	226.81
628.532	215.81
628.738	209.81
628.945	219.81
629.151	203.81
629.357	234.81
629.564	238.81
629.77	211.81
629.976	207.81
630.183	202.81
630.389	226.81
630.595	211.81
630.802	216.81
631.008	210.81
631.214	214.81
631.42	220.81
631.627	216.81
631.833	222.81
632.039	206.81
632.245	227.81
632.451	194.81
632.657	210.81
632.863	214.81
633.069	202.81
633.275	207.81
633.481	190.81
633.688	208.81
633.893	218.81
634.099	206.81
634.305	182.81
634.511	198.81
634.717	209.81
634.923	186.81
635.129	196.81
635.335	213.81
635.541	205.81
635.747	201.81
635.952	193.81
636.158	195.81
636.364	202.81
636.57	198.81
636.775	209.81
636.981	207.81
637.187	203.81
637.392	202.81
637.598	194.81
637.804	204.81
638.009	198.81
638.215	220.81
638.421	194.81
638.626	197.81
638.832	178.81
639.037	193.81
639.243	178.81
639.448	189.81
639.654	196.81
639.859	183.81
640.065	193.81
640.27	189.81
640.475	190.81
640.681	174.81
640.886	197.81
641.091	181.81
641.297	179.81
641.502	182.81
641.707	180.81
641.913	174.81
642.118	168.81
642.323	189.81
642.528	175.81
642.733	189.81
642.939	178.81
643.144	195.81
643.349	182.81
643.554	179.81
643.759	175.81
643.964	167.81
644.169	187.81
644.374	181.81
644.579	166.81
644.784	167.81
644.989	159.81
645.194	174.81
645.399	178.81
645.604	183.81
645.809	181.81
646.014	191.81
646.219	189.81
646.423	185.81
646.628	190.81
646.833	187.81
647.038	189.81
647.243	177.81
647.447	183.81
647.652	183.81
647.857	200.81
648.062	187.81
648.266	210.81
648.471	215.81
648.676	209.81
648.88	178.81
649.085	183.81
649.289	189.81
649.494	184.81
649.698	193.81
649.903	186.81
650.107	196.81
650.312	180.81
650.516	184.81
650.721	181.81
650.925	167.81
651.13	166.81
651.334	143.81
651.539	183.81
651.743	173.81
651.947	167.81
652.152	159.81
652.356	157.81
652.56	170.81
652.764	143.81
652.969	156.81
653.173	150.81
653.377	139.81
653.581	142.81
653.785	144.81
653.99	142.81
654.194	137.81
654.398	149.81
654.602	130.81
654.806	133.81
655.01	145.81
655.214	132.81
655.418	134.81
655.622	142.81
655.826	132.81
656.03	121.81
656.234	122.81
656.438	130.81
656.642	139.81
656.846	138.81
657.049	132.81
657.253	118.81
657.457	119.81
657.661	129.81
657.865	125.81
658.068	105.81
658.272	105.81
658.476	120.81
658.68	115.81
658.883	104.81
659.087	109.81
659.291	102.81
659.494	89.81
659.698	87.81
659.901	82.81
660.105	90.81
660.309	93.81
660.512	91.81
660.716	96.81
660.919	86.81
661.123	99.81
661.326	87.81
661.53	82.81
661.733	90.81
661.936	86.81
662.14	96.81
662.343	97.81
662.546	89.81
662.75	73.81
662.953	94.81
663.156	90.81
663.36	79.81
663.563	76.81
663.766	90.81
663.969	74.81
664.173	78.81
664.376	74.81
664.579	79.81
664.782	94.81
664.985	87.81
665.188	77.81
665.391	94.81
665.594	78.81
665.797	76.81
666	72.81
666.203	76.81
666.406	83.81
666.609	70.81
666.812	78.81
667.015	72.81
667.218	84.81
667.421	81.81
667.624	73.81
667.827	75.81
668.03	83.81
668.232	73.81
668.435	73.81
668.638	81.81
668.841	80.81
669.043	89.81
669.246	69.81
669.449	85.81
669.651	90.81
669.854	91.81
670.057	76.81
670.259	77.81
670.462	75.81
670.665	72.81
670.867	73.81
671.07	79.81
671.272	87.81
671.475	80.81
671.677	84.81
671.88	86.81
672.082	72.81
672.284	87.81
672.487	75.81
672.689	74.81
672.892	82.81
