Data from Ni(NO3)2@0.5M.TitratingCurve.Agarose3%dH2O.NegLispCup.LampEnergy10.LIBS07252019_HRD10591_18-00-11-564.txt Node
Date: Thu Jul 25 18:00:11 EDT 2019
User: cochatt
Spectrometer: HR+D1059
Trigger mode: 1
Integration Time (sec): 1.000000E-1
Scans to average: 1
Electric dark correction enabled: true
Nonlinearity correction enabled: false
Boxcar width: 0
XAxis mode: Wavelengths
Number of Pixels in Spectrum: 2048
>>>>>Begin Spectral Data<<<<<
223.165	-2.31
223.4	-2.31
223.635	-2.31
223.869	-17.31
224.104	-14.31
224.338	-20.31
224.573	-7.31
224.808	-10.31
225.042	0.69
225.277	-3.31
225.511	-13.31
225.746	-8.31
225.98	18.69
226.215	17.69
226.449	10.69
226.683	17.69
226.918	14.69
227.152	16.69
227.387	30.69
227.621	21.69
227.856	28.69
228.09	45.69
228.324	50.69
228.559	53.69
228.793	86.69
229.027	151.69
229.262	153.69
229.496	156.69
229.73	173.69
229.964	190.69
230.199	219.69
230.433	230.69
230.667	210.69
230.901	193.69
231.136	182.69
231.37	179.69
231.604	198.69
231.838	232.69
232.072	228.69
232.306	219.69
232.541	195.69
232.775	185.69
233.009	190.69
233.243	183.69
233.477	181.69
233.711	205.69
233.945	207.69
234.179	189.69
234.413	208.69
234.647	211.69
234.881	208.69
235.115	227.69
235.349	208.69
235.583	199.69
235.817	205.69
236.051	213.69
236.285	222.69
236.519	200.69
236.753	190.69
236.987	188.69
237.221	216.69
237.455	222.69
237.689	198.69
237.922	221.69
238.156	225.69
238.39	212.69
238.624	219.69
238.858	229.69
239.091	213.69
239.325	239.69
239.559	239.69
239.793	250.69
240.027	268.69
240.26	241.69
240.494	223.69
240.728	231.69
240.961	238.69
241.195	258.69
241.429	259.69
241.662	259.69
241.896	278.69
242.13	287.69
242.363	285.69
242.597	270.69
242.83	266.69
243.064	297.69
243.298	280.69
243.531	274.69
243.765	299.69
243.998	305.69
244.232	295.69
244.465	287.69
244.699	290.69
244.932	287.69
245.166	293.69
245.399	300.69
245.633	291.69
245.866	297.69
246.099	298.69
246.333	265.69
246.566	309.69
246.8	329.69
247.033	300.69
247.266	299.69
247.5	309.69
247.733	301.69
247.966	334.69
248.2	313.69
248.433	339.69
248.666	319.69
248.899	341.69
249.133	321.69
249.366	326.69
249.599	328.69
249.832	328.69
250.066	347.69
250.299	345.69
250.532	361.69
250.765	359.69
250.998	375.69
251.231	383.69
251.465	395.69
251.698	385.69
251.931	375.69
252.164	370.69
252.397	370.69
252.63	365.69
252.863	385.69
253.096	383.69
253.329	382.69
253.562	378.69
253.795	373.69
254.028	384.69
254.261	396.69
254.494	413.69
254.727	385.69
254.96	401.69
255.193	406.69
255.426	399.69
255.659	395.69
255.892	410.69
256.124	407.69
256.357	417.69
256.59	418.69
256.823	418.69
257.056	432.69
257.289	437.69
257.521	448.69
257.754	428.69
257.987	433.69
258.22	441.69
258.452	434.69
258.685	430.69
258.918	434.69
259.151	442.69
259.383	450.69
259.616	436.69
259.849	453.69
260.081	451.69
260.314	458.69
260.547	473.69
260.779	476.69
261.012	475.69
261.244	493.69
261.477	481.69
261.71	473.69
261.942	474.69
262.175	465.69
262.407	490.69
262.64	493.69
262.872	501.69
263.105	481.69
263.337	497.69
263.57	513.69
263.802	515.69
264.035	494.69
264.267	508.69
264.499	502.69
264.732	486.69
264.964	521.69
265.197	544.69
265.429	502.69
265.661	517.69
265.894	529.69
266.126	519.69
266.358	536.69
266.591	531.69
266.823	545.69
267.055	536.69
267.287	534.69
267.52	549.69
267.752	527.69
267.984	526.69
268.216	541.69
268.448	565.69
268.681	522.69
268.913	554.69
269.145	576.69
269.377	557.69
269.609	561.69
269.841	552.69
270.073	562.69
270.306	573.69
270.538	573.69
270.77	561.69
271.002	569.69
271.234	573.69
271.466	574.69
271.698	586.69
271.93	570.69
272.162	586.69
272.394	593.69
272.626	603.69
272.858	585.69
273.09	606.69
273.322	606.69
273.553	612.69
273.785	579.69
274.017	590.69
274.249	630.69
274.481	638.69
274.713	620.69
274.945	636.69
275.176	615.69
275.408	616.69
275.64	629.69
275.872	635.69
276.104	611.69
276.335	633.69
276.567	630.69
276.799	641.69
277.031	634.69
277.262	638.69
277.494	639.69
277.726	653.69
277.957	644.69
278.189	665.69
278.421	650.69
278.652	670.69
278.884	666.69
279.115	673.69
279.347	683.69
279.579	649.69
279.81	675.69
280.042	681.69
280.273	673.69
280.505	700.69
280.736	691.69
280.968	683.69
281.199	710.69
281.431	685.69
281.662	695.69
281.894	689.69
282.125	713.69
282.356	725.69
282.588	722.69
282.819	723.69
283.051	709.69
283.282	706.69
283.513	732.69
283.745	727.69
283.976	718.69
284.207	717.69
284.439	715.69
284.67	719.69
284.901	713.69
285.132	720.69
285.364	721.69
285.595	732.69
285.826	729.69
286.057	749.69
286.288	741.69
286.52	745.69
286.751	743.69
286.982	750.69
287.213	765.69
287.444	734.69
287.675	775.69
287.906	737.69
288.138	753.69
288.369	772.69
288.6	781.69
288.831	734.69
289.062	784.69
289.293	794.69
289.524	786.69
289.755	759.69
289.986	759.69
290.217	750.69
290.448	783.69
290.679	798.69
290.91	780.69
291.141	782.69
291.371	763.69
291.602	748.69
291.833	777.69
292.064	793.69
292.295	783.69
292.526	771.69
292.757	762.69
292.987	776.69
293.218	783.69
293.449	779.69
293.68	792.69
293.91	790.69
294.141	783.69
294.372	799.69
294.603	791.69
294.833	770.69
295.064	803.69
295.295	784.69
295.525	789.69
295.756	789.69
295.987	815.69
296.217	801.69
296.448	807.69
296.679	812.69
296.909	817.69
297.14	797.69
297.37	836.69
297.601	805.69
297.831	840.69
298.062	830.69
298.292	834.69
298.523	870.69
298.753	871.69
298.984	826.69
299.214	867.69
299.445	857.69
299.675	854.69
299.905	897.69
300.136	891.69
300.366	923.69
300.597	889.69
300.827	905.69
301.057	879.69
301.288	891.69
301.518	883.69
301.748	896.69
301.979	895.69
302.209	910.69
302.439	909.69
302.669	894.69
302.9	892.69
303.13	890.69
303.36	875.69
303.59	881.69
303.82	909.69
304.051	932.69
304.281	918.69
304.511	897.69
304.741	915.69
304.971	929.69
305.201	955.69
305.431	945.69
305.661	968.69
305.891	907.69
306.121	908.69
306.352	925.69
306.582	911.69
306.812	874.69
307.042	892.69
307.272	861.69
307.502	878.69
307.731	885.69
307.961	915.69
308.191	916.69
308.421	912.69
308.651	909.69
308.881	893.69
309.111	902.69
309.341	919.69
309.571	918.69
309.8	934.69
310.03	959.69
310.26	964.69
310.49	970.69
310.72	927.69
310.949	954.69
311.179	945.69
311.409	928.69
311.639	932.69
311.868	941.69
312.098	930.69
312.328	951.69
312.557	951.69
312.787	944.69
313.017	954.69
313.246	975.69
313.476	1005.69
313.706	992.69
313.935	979.69
314.165	968.69
314.394	965.69
314.624	963.69
314.853	995.69
315.083	984.69
315.312	993.69
315.542	987.69
315.771	988.69
316.001	966.69
316.23	961.69
316.46	969.69
316.689	1002.69
316.919	980.69
317.148	990.69
317.377	982.69
317.607	1001.69
317.836	996.69
318.065	991.69
318.295	1013.69
318.524	986.69
318.753	1002.69
318.983	997.69
319.212	989.69
319.441	1013.69
319.67	1011.69
319.9	1023.69
320.129	988.69
320.358	1002.69
320.587	1003.69
320.816	1013.69
321.046	1016.69
321.275	1049.69
321.504	1041.69
321.733	1007.69
321.962	1039.69
322.191	1053.69
322.42	1034.69
322.649	1040.69
322.878	1027.69
323.108	1047.69
323.337	1065.69
323.566	1065.69
323.795	1083.69
324.024	1040.69
324.253	1068.69
324.482	1055.69
324.71	1059.69
324.939	1088.69
325.168	1111.69
325.397	1083.69
325.626	1087.69
325.855	1070.69
326.084	1114.69
326.313	1100.69
326.542	1094.69
326.77	1104.69
326.999	1086.69
327.228	1092.69
327.457	1093.69
327.686	1089.69
327.914	1103.69
328.143	1108.69
328.372	1102.69
328.6	1101.69
328.829	1116.69
329.058	1101.69
329.287	1101.69
329.515	1135.69
329.744	1121.69
329.972	1141.69
330.201	1137.69
330.43	1134.69
330.658	1179.69
330.887	1152.69
331.115	1151.69
331.344	1185.69
331.572	1209.69
331.801	1205.69
332.03	1217.69
332.258	1206.69
332.486	1233.69
332.715	1243.69
332.943	1229.69
333.172	1312.69
333.4	1263.69
333.629	1276.69
333.857	1320.69
334.085	1362.69
334.314	1377.69
334.542	1361.69
334.771	1389.69
334.999	1362.69
335.227	1365.69
335.455	1345.69
335.684	1368.69
335.912	1319.69
336.14	1346.69
336.369	1326.69
336.597	1333.69
336.825	1360.69
337.053	1353.69
337.281	1339.69
337.51	1286.69
337.738	1307.69
337.966	1283.69
338.194	1305.69
338.422	1307.69
338.65	1233.69
338.878	1248.69
339.106	1270.69
339.334	1293.69
339.562	1285.69
339.79	1233.69
340.018	1246.69
340.246	1196.69
340.474	1224.69
340.702	1193.69
340.93	1213.69
341.158	1199.69
341.386	1265.69
341.614	1319.69
341.842	1287.69
342.07	1219.69
342.298	1202.69
342.526	1231.69
342.754	1198.69
342.981	1234.69
343.209	1237.69
343.437	1249.69
343.665	1326.69
343.893	1341.69
344.12	1361.69
344.348	1324.69
344.576	1350.69
344.804	1337.69
345.031	1292.69
345.259	1233.69
345.487	1249.69
345.714	1257.69
345.942	1324.69
346.17	1282.69
346.397	1240.69
346.625	1194.69
346.853	1159.69
347.08	1175.69
347.308	1159.69
347.535	1152.69
347.763	1147.69
347.99	1141.69
348.218	1149.69
348.445	1149.69
348.673	1115.69
348.9	1139.69
349.128	1182.69
349.355	1175.69
349.583	1204.69
349.81	1141.69
350.037	1142.69
350.265	1150.69
350.492	1133.69
350.72	1128.69
350.947	1152.69
351.174	1201.69
351.402	1223.69
351.629	1183.69
351.856	1176.69
352.083	1167.69
352.311	1165.69
352.538	1213.69
352.765	1208.69
352.992	1142.69
353.22	1082.69
353.447	1105.69
353.674	1119.69
353.901	1141.69
354.128	1113.69
354.355	1123.69
354.583	1133.69
354.81	1130.69
355.037	1101.69
355.264	1131.69
355.491	1131.69
355.718	1114.69
355.945	1113.69
356.172	1138.69
356.399	1138.69
356.626	1140.69
356.853	1199.69
357.08	1169.69
357.307	1145.69
357.534	1123.69
357.761	1121.69
357.988	1146.69
358.215	1097.69
358.441	1101.69
358.668	1111.69
358.895	1089.69
359.122	1086.69
359.349	1107.69
359.576	1131.69
359.802	1135.69
360.029	1115.69
360.256	1153.69
360.483	1099.69
360.709	1111.69
360.936	1142.69
361.163	1130.69
361.39	1128.69
361.616	1152.69
361.843	1175.69
362.07	1202.69
362.296	1220.69
362.523	1164.69
362.749	1133.69
362.976	1161.69
363.203	1120.69
363.429	1146.69
363.656	1101.69
363.882	1133.69
364.109	1120.69
364.335	1118.69
364.562	1142.69
364.788	1148.69
365.015	1141.69
365.241	1145.69
365.468	1127.69
365.694	1125.69
365.92	1108.69
366.147	1149.69
366.373	1129.69
366.599	1157.69
366.826	1115.69
367.052	1123.69
367.278	1158.69
367.505	1124.69
367.731	1166.69
367.957	1173.69
368.184	1139.69
368.41	1175.69
368.636	1153.69
368.862	1157.69
369.089	1181.69
369.315	1172.69
369.541	1175.69
369.767	1170.69
369.993	1192.69
370.219	1187.69
370.445	1186.69
370.672	1173.69
370.898	1207.69
371.124	1218.69
371.35	1187.69
371.576	1214.69
371.802	1225.69
372.028	1219.69
372.254	1225.69
372.48	1237.69
372.706	1237.69
372.932	1230.69
373.158	1233.69
373.384	1210.69
373.61	1225.69
373.835	1224.69
374.061	1225.69
374.287	1227.69
374.513	1275.69
374.739	1268.69
374.965	1287.69
375.191	1314.69
375.416	1293.69
375.642	1260.69
375.868	1256.69
376.094	1239.69
376.319	1228.69
376.545	1239.69
376.771	1231.69
376.997	1212.69
377.222	1209.69
377.448	1203.69
377.674	1203.69
377.899	1199.69
378.125	1213.69
378.35	1173.69
378.576	1214.69
378.802	1204.69
379.027	1185.69
379.253	1188.69
379.478	1151.69
379.704	1189.69
379.929	1185.69
380.155	1217.69
380.38	1188.69
380.606	1215.69
380.831	1219.69
381.057	1222.69
381.282	1212.69
381.507	1198.69
381.733	1207.69
381.958	1226.69
382.184	1226.69
382.409	1233.69
382.634	1228.69
382.86	1245.69
383.085	1255.69
383.31	1282.69
383.535	1280.69
383.761	1285.69
383.986	1303.69
384.211	1333.69
384.436	1317.69
384.662	1334.69
384.887	1326.69
385.112	1359.69
385.337	1377.69
385.562	1362.69
385.787	1406.69
386.013	1400.69
386.238	1413.69
386.463	1407.69
386.688	1387.69
386.913	1368.69
387.138	1389.69
387.363	1449.69
387.588	1383.69
387.813	1413.69
388.038	1429.69
388.263	1434.69
388.488	1433.69
388.713	1386.69
388.938	1381.69
389.163	1421.69
389.387	1397.69
389.612	1433.69
389.837	1425.69
390.062	1414.69
390.287	1387.69
390.512	1399.69
390.736	1427.69
390.961	1453.69
391.186	1467.69
391.411	1472.69
391.636	1488.69
391.86	1511.69
392.085	1510.69
392.31	1508.69
392.534	1513.69
392.759	1490.69
392.984	1491.69
393.208	1466.69
393.433	1467.69
393.658	1502.69
393.882	1465.69
394.107	1475.69
394.331	1477.69
394.556	1502.69
394.78	1521.69
395.005	1512.69
395.229	1542.69
395.454	1533.69
395.678	1559.69
395.903	1554.69
396.127	1531.69
396.352	1510.69
396.576	1477.69
396.801	1569.69
397.025	1560.69
397.249	1550.69
397.474	1610.69
397.698	1581.69
397.922	1615.69
398.147	1612.69
398.371	1645.69
398.595	1670.69
398.82	1747.69
399.044	1797.69
399.268	1859.69
399.492	1993.69
399.717	2056.69
399.941	2134.69
400.165	2058.69
400.389	1975.69
400.613	1871.69
400.837	1833.69
401.062	1761.69
401.286	1763.69
401.51	1722.69
401.734	1681.69
401.958	1751.69
402.182	1692.69
402.406	1719.69
402.63	1729.69
402.854	1689.69
403.078	1731.69
403.302	1747.69
403.526	1727.69
403.75	1822.69
403.974	1798.69
404.198	1770.69
404.422	1805.69
404.645	1796.69
404.869	1764.69
405.093	1814.69
405.317	1797.69
405.541	1807.69
405.765	1813.69
405.988	1798.69
406.212	1800.69
406.436	1857.69
406.66	1871.69
406.883	1878.69
407.107	1985.69
407.331	2019.69
407.555	2029.69
407.778	2039.69
408.002	2016.69
408.226	2033.69
408.449	2034.69
408.673	1952.69
408.896	1925.69
409.12	1893.69
409.344	1939.69
409.567	1909.69
409.791	1913.69
410.014	1854.69
410.238	1846.69
410.461	1788.69
410.685	1844.69
410.908	1810.69
411.132	1803.69
411.355	1754.69
411.578	1787.69
411.802	1806.69
412.025	1788.69
412.249	1770.69
412.472	1803.69
412.695	1744.69
412.919	1743.69
413.142	1739.69
413.365	1729.69
413.589	1737.69
413.812	1730.69
414.035	1748.69
414.258	1700.69
414.482	1698.69
414.705	1735.69
414.928	1703.69
415.151	1736.69
415.374	1717.69
415.597	1743.69
415.821	1705.69
416.044	1688.69
416.267	1653.69
416.49	1679.69
416.713	1681.69
416.936	1703.69
417.159	1626.69
417.382	1652.69
417.605	1626.69
417.828	1642.69
418.051	1655.69
418.274	1635.69
418.497	1645.69
418.72	1694.69
418.943	1626.69
419.166	1780.69
419.389	1893.69
419.611	1813.69
419.834	1749.69
420.057	1744.69
420.28	1670.69
420.503	1639.69
420.726	1631.69
420.948	1633.69
421.171	1629.69
421.394	1637.69
421.617	1620.69
421.839	1685.69
422.062	1666.69
422.285	1605.69
422.507	1633.69
422.73	1661.69
422.953	1621.69
423.175	1668.69
423.398	1690.69
423.621	1638.69
423.843	1665.69
424.066	1637.69
424.288	1669.69
424.511	1653.69
424.733	1649.69
424.956	1627.69
425.178	1619.69
425.401	1638.69
425.623	1661.69
425.846	1621.69
426.068	1619.69
426.291	1619.69
426.513	1586.69
426.735	1554.69
426.958	1589.69
427.18	1556.69
427.402	1594.69
427.625	1596.69
427.847	1548.69
428.069	1527.69
428.292	1559.69
428.514	1569.69
428.736	1538.69
428.958	1551.69
429.181	1537.69
429.403	1527.69
429.625	1534.69
429.847	1510.69
430.069	1527.69
430.292	1531.69
430.514	1503.69
430.736	1515.69
430.958	1526.69
431.18	1497.69
431.402	1561.69
431.624	1539.69
431.846	1514.69
432.068	1557.69
432.29	1577.69
432.512	1510.69
432.734	1591.69
432.956	1559.69
433.178	1588.69
433.4	1578.69
433.622	1595.69
433.844	1606.69
434.066	1585.69
434.287	1579.69
434.509	1657.69
434.731	1661.69
434.953	1637.69
435.175	1667.69
435.397	1717.69
435.618	1587.69
435.84	1573.69
436.062	1573.69
436.284	1558.69
436.505	1526.69
436.727	1589.69
436.949	1532.69
437.17	1548.69
437.392	1526.69
437.614	1521.69
437.835	1484.69
438.057	1489.69
438.278	1486.69
438.5	1491.69
438.721	1495.69
438.943	1458.69
439.165	1467.69
439.386	1471.69
439.608	1517.69
439.829	1476.69
440.05	1531.69
440.272	1543.69
440.493	1535.69
440.715	1539.69
440.936	1572.69
441.158	1593.69
441.379	1568.69
441.6	1627.69
441.822	1659.69
442.043	1597.69
442.264	1585.69
442.486	1622.69
442.707	1623.69
442.928	1610.69
443.149	1593.69
443.371	1648.69
443.592	1720.69
443.813	1703.69
444.034	1661.69
444.255	1697.69
444.476	1726.69
444.698	1753.69
444.919	1825.69
445.14	1874.69
445.361	1786.69
445.582	1708.69
445.803	1663.69
446.024	1589.69
446.245	1603.69
446.466	1580.69
446.687	1543.69
446.908	1540.69
447.129	1495.69
447.35	1495.69
447.571	1483.69
447.792	1412.69
448.013	1421.69
448.234	1383.69
448.455	1404.69
448.675	1412.69
448.896	1413.69
449.117	1391.69
449.338	1378.69
449.559	1356.69
449.779	1353.69
450	1411.69
450.221	1365.69
450.442	1395.69
450.662	1406.69
450.883	1381.69
451.104	1407.69
451.324	1389.69
451.545	1391.69
451.766	1377.69
451.986	1372.69
452.207	1383.69
452.428	1335.69
452.648	1320.69
452.869	1299.69
453.089	1349.69
453.31	1361.69
453.53	1365.69
453.751	1324.69
453.971	1291.69
454.192	1340.69
454.412	1339.69
454.633	1329.69
454.853	1308.69
455.073	1326.69
455.294	1334.69
455.514	1355.69
455.734	1341.69
455.955	1393.69
456.175	1368.69
456.395	1302.69
456.616	1314.69
456.836	1335.69
457.056	1323.69
457.276	1298.69
457.497	1314.69
457.717	1388.69
457.937	1365.69
458.157	1369.69
458.377	1384.69
458.598	1420.69
458.818	1450.69
459.038	1466.69
459.258	1432.69
459.478	1581.69
459.698	1649.69
459.918	1653.69
460.138	1646.69
460.358	1715.69
460.578	1717.69
460.798	1753.69
461.018	1707.69
461.238	1676.69
461.458	1673.69
461.678	1702.69
461.898	1749.69
462.118	1707.69
462.338	1811.69
462.558	1852.69
462.777	1879.69
462.997	1949.69
463.217	2019.69
463.437	2077.69
463.657	2005.69
463.876	1934.69
464.096	1897.69
464.316	1847.69
464.536	1900.69
464.755	1841.69
464.975	1796.69
465.195	1740.69
465.414	1683.69
465.634	1606.69
465.854	1599.69
466.073	1512.69
466.293	1523.69
466.512	1476.69
466.732	1457.69
466.951	1494.69
467.171	1477.69
467.391	1473.69
467.61	1470.69
467.829	1440.69
468.049	1435.69
468.268	1405.69
468.488	1403.69
468.707	1446.69
468.927	1437.69
469.146	1411.69
469.365	1482.69
469.585	1417.69
469.804	1443.69
470.023	1445.69
470.243	1453.69
470.462	1486.69
470.681	1461.69
470.901	1473.69
471.12	1436.69
471.339	1490.69
471.558	1459.69
471.777	1458.69
471.997	1428.69
472.216	1458.69
472.435	1415.69
472.654	1417.69
472.873	1404.69
473.092	1417.69
473.311	1433.69
473.53	1427.69
473.749	1459.69
473.968	1409.69
474.187	1410.69
474.406	1460.69
474.625	1407.69
474.844	1464.69
475.063	1437.69
475.282	1429.69
475.501	1491.69
475.72	1459.69
475.939	1467.69
476.158	1481.69
476.377	1476.69
476.596	1476.69
476.814	1488.69
477.033	1505.69
477.252	1555.69
477.471	1580.69
477.69	1606.69
477.908	1633.69
478.127	1626.69
478.346	1622.69
478.564	1673.69
478.783	1711.69
479.002	1735.69
479.22	1817.69
479.439	1733.69
479.658	1729.69
479.876	1730.69
480.095	1735.69
480.313	1803.69
480.532	1787.69
480.751	1781.69
480.969	1737.69
481.188	1744.69
481.406	1715.69
481.624	1738.69
481.843	1675.69
482.061	1687.69
482.28	1718.69
482.498	1692.69
482.717	1669.69
482.935	1697.69
483.153	1705.69
483.372	1741.69
483.59	1769.69
483.808	1712.69
484.027	1681.69
484.245	1709.69
484.463	1679.69
484.681	1749.69
484.9	1731.69
485.118	1748.69
485.336	1703.69
485.554	1771.69
485.772	1738.69
485.99	1800.69
486.209	1757.69
486.427	1710.69
486.645	1752.69
486.863	1762.69
487.081	1747.69
487.299	1740.69
487.517	1742.69
487.735	1752.69
487.953	1758.69
488.171	1746.69
488.389	1729.69
488.607	1742.69
488.825	1747.69
489.043	1780.69
489.261	1750.69
489.479	1711.69
489.696	1716.69
489.914	1761.69
490.132	1744.69
490.35	1737.69
490.568	1747.69
490.786	1731.69
491.003	1761.69
491.221	1738.69
491.439	1755.69
491.657	1753.69
491.874	1765.69
492.092	1804.69
492.31	1807.69
492.527	1771.69
492.745	1764.69
492.963	1771.69
493.18	1777.69
493.398	1783.69
493.615	1814.69
493.833	1790.69
494.05	1791.69
494.268	1835.69
494.485	1806.69
494.703	1813.69
494.92	1870.69
495.138	1829.69
495.355	1851.69
495.573	1881.69
495.79	1831.69
496.008	1880.69
496.225	1882.69
496.442	1895.69
496.66	1880.69
496.877	1934.69
497.094	1957.69
497.312	1973.69
497.529	2062.69
497.746	2077.69
497.963	2117.69
498.181	2172.69
498.398	2227.69
498.615	2334.69
498.832	2465.69
499.049	2559.69
499.267	2667.69
499.484	2863.69
499.701	3022.69
499.918	3164.69
500.135	3384.69
500.352	3595.69
500.569	3621.69
500.786	3619.69
501.003	3518.69
501.22	3369.69
501.437	3157.69
501.654	2960.69
501.871	2764.69
502.088	2699.69
502.305	2569.69
502.522	2495.69
502.739	2367.69
502.956	2246.69
503.172	2194.69
503.389	2143.69
503.606	2089.69
503.823	2048.69
504.04	2017.69
504.256	2022.69
504.473	1974.69
504.69	1971.69
504.907	1935.69
505.123	1896.69
505.34	1839.69
505.557	1768.69
505.773	1767.69
505.99	1725.69
506.207	1694.69
506.423	1654.69
506.64	1657.69
506.856	1632.69
507.073	1611.69
507.289	1611.69
507.506	1594.69
507.722	1537.69
507.939	1572.69
508.155	1566.69
508.372	1569.69
508.588	1537.69
508.805	1502.69
509.021	1495.69
509.238	1483.69
509.454	1464.69
509.67	1464.69
509.887	1487.69
510.103	1452.69
510.319	1456.69
510.536	1459.69
510.752	1436.69
510.968	1448.69
511.184	1450.69
511.401	1403.69
511.617	1436.69
511.833	1454.69
512.049	1441.69
512.265	1446.69
512.481	1405.69
512.698	1406.69
512.914	1437.69
513.13	1445.69
513.346	1379.69
513.562	1433.69
513.778	1421.69
513.994	1450.69
514.21	1423.69
514.426	1428.69
514.642	1451.69
514.858	1468.69
515.074	1471.69
515.29	1469.69
515.506	1443.69
515.721	1487.69
515.937	1544.69
516.153	1549.69
516.369	1529.69
516.585	1586.69
516.801	1597.69
517.016	1634.69
517.232	1612.69
517.448	1679.69
517.664	1696.69
517.879	1724.69
518.095	1730.69
518.311	1748.69
518.527	1669.69
518.742	1607.69
518.958	1588.69
519.173	1570.69
519.389	1522.69
519.605	1515.69
519.82	1525.69
520.036	1491.69
520.251	1473.69
520.467	1431.69
520.682	1431.69
520.898	1400.69
521.113	1426.69
521.329	1386.69
521.544	1403.69
521.76	1340.69
521.975	1372.69
522.19	1342.69
522.406	1338.69
522.621	1329.69
522.836	1299.69
523.052	1344.69
523.267	1316.69
523.482	1283.69
523.698	1270.69
523.913	1274.69
524.128	1315.69
524.343	1306.69
524.559	1289.69
524.774	1287.69
524.989	1248.69
525.204	1279.69
525.419	1271.69
525.634	1253.69
525.849	1252.69
526.064	1305.69
526.28	1235.69
526.495	1248.69
526.71	1251.69
526.925	1253.69
527.14	1230.69
527.355	1226.69
527.57	1216.69
527.785	1231.69
527.999	1211.69
528.214	1207.69
528.429	1234.69
528.644	1223.69
528.859	1246.69
529.074	1251.69
529.289	1210.69
529.503	1224.69
529.718	1239.69
529.933	1218.69
530.148	1243.69
530.363	1239.69
530.577	1229.69
530.792	1209.69
531.007	1230.69
531.221	1237.69
531.436	1272.69
531.651	1235.69
531.865	1203.69
532.08	1212.69
532.295	1222.69
532.509	1210.69
532.724	1185.69
532.938	1207.69
533.153	1211.69
533.367	1255.69
533.582	1218.69
533.796	1207.69
534.011	1231.69
534.225	1227.69
534.44	1207.69
534.654	1196.69
534.868	1207.69
535.083	1207.69
535.297	1183.69
535.511	1164.69
535.726	1193.69
535.94	1190.69
536.154	1185.69
536.369	1149.69
536.583	1147.69
536.797	1137.69
537.011	1155.69
537.225	1143.69
537.44	1155.69
537.654	1157.69
537.868	1113.69
538.082	1147.69
538.296	1124.69
538.51	1107.69
538.724	1121.69
538.938	1119.69
539.153	1125.69
539.367	1119.69
539.581	1110.69
539.795	1102.69
540.009	1111.69
540.222	1094.69
540.436	1095.69
540.65	1119.69
540.864	1111.69
541.078	1133.69
541.292	1107.69
541.506	1095.69
541.72	1064.69
541.934	1097.69
542.147	1111.69
542.361	1062.69
542.575	1099.69
542.789	1117.69
543.002	1107.69
543.216	1090.69
543.43	1106.69
543.644	1090.69
543.857	1088.69
544.071	1065.69
544.285	1095.69
544.498	1114.69
544.712	1087.69
544.925	1096.69
545.139	1099.69
545.352	1116.69
545.566	1121.69
545.779	1057.69
545.993	1113.69
546.206	1141.69
546.42	1108.69
546.633	1121.69
546.847	1112.69
547.06	1121.69
547.274	1089.69
547.487	1090.69
547.7	1094.69
547.914	1117.69
548.127	1116.69
548.34	1130.69
548.554	1097.69
548.767	1087.69
548.98	1119.69
549.193	1105.69
549.407	1098.69
549.62	1109.69
549.833	1103.69
550.046	1093.69
550.259	1077.69
550.473	1077.69
550.686	1116.69
550.899	1096.69
551.112	1081.69
551.325	1073.69
551.538	1076.69
551.751	1075.69
551.964	1127.69
552.177	1092.69
552.39	1133.69
552.603	1106.69
552.816	1109.69
553.029	1122.69
553.242	1126.69
553.455	1150.69
553.667	1141.69
553.88	1123.69
554.093	1104.69
554.306	1098.69
554.519	1050.69
554.732	1045.69
554.944	1053.69
555.157	1030.69
555.37	1038.69
555.583	1043.69
555.795	989.69
556.008	1006.69
556.221	990.69
556.433	986.69
556.646	966.69
556.859	966.69
557.071	939.69
557.284	941.69
557.496	951.69
557.709	969.69
557.921	958.69
558.134	949.69
558.346	920.69
558.559	921.69
558.771	906.69
558.984	914.69
559.196	899.69
559.409	915.69
559.621	920.69
559.833	934.69
560.046	898.69
560.258	886.69
560.47	894.69
560.683	916.69
560.895	899.69
561.107	899.69
561.32	901.69
561.532	906.69
561.744	912.69
561.956	919.69
562.168	887.69
562.381	892.69
562.593	914.69
562.805	935.69
563.017	931.69
563.229	911.69
563.441	908.69
563.653	950.69
563.865	957.69
564.077	951.69
564.289	947.69
564.501	939.69
564.713	951.69
564.925	982.69
565.137	991.69
565.349	1001.69
565.561	1027.69
565.773	1061.69
565.985	1093.69
566.197	1118.69
566.408	1148.69
566.62	1215.69
566.832	1228.69
567.044	1260.69
567.255	1286.69
567.467	1292.69
567.679	1308.69
567.891	1316.69
568.102	1325.69
568.314	1296.69
568.526	1247.69
568.737	1170.69
568.949	1119.69
569.161	1049.69
569.372	1009.69
569.584	986.69
569.795	957.69
570.007	924.69
570.218	940.69
570.43	916.69
570.641	910.69
570.853	903.69
571.064	892.69
571.276	867.69
571.487	871.69
571.698	846.69
571.91	819.69
572.121	821.69
572.333	814.69
572.544	803.69
572.755	783.69
572.966	761.69
573.178	768.69
573.389	782.69
573.6	778.69
573.811	745.69
574.023	740.69
574.234	759.69
574.445	727.69
574.656	740.69
574.867	710.69
575.078	715.69
575.289	721.69
575.501	707.69
575.712	710.69
575.923	705.69
576.134	695.69
576.345	716.69
576.556	709.69
576.767	702.69
576.978	673.69
577.188	695.69
577.399	697.69
577.61	702.69
577.821	665.69
578.032	670.69
578.243	678.69
578.454	687.69
578.665	692.69
578.875	656.69
579.086	651.69
579.297	667.69
579.508	645.69
579.718	645.69
579.929	644.69
580.14	647.69
580.35	663.69
580.561	632.69
580.772	641.69
580.982	647.69
581.193	642.69
581.403	641.69
581.614	634.69
581.825	638.69
582.035	629.69
582.246	610.69
582.456	633.69
582.667	639.69
582.877	605.69
583.087	610.69
583.298	613.69
583.508	617.69
583.719	622.69
583.929	628.69
584.139	611.69
584.35	617.69
584.56	602.69
584.77	604.69
584.981	600.69
585.191	621.69
585.401	606.69
585.611	587.69
585.821	590.69
586.032	609.69
586.242	597.69
586.452	586.69
586.662	602.69
586.872	621.69
587.082	604.69
587.292	583.69
587.502	595.69
587.713	570.69
587.923	595.69
588.133	590.69
588.343	593.69
588.553	587.69
588.762	585.69
588.972	605.69
589.182	654.69
589.392	623.69
589.602	610.69
589.812	615.69
590.022	613.69
590.232	612.69
590.441	587.69
590.651	603.69
590.861	607.69
591.071	592.69
591.281	594.69
591.49	601.69
591.7	619.69
591.91	630.69
592.119	579.69
592.329	634.69
592.539	659.69
592.748	637.69
592.958	657.69
593.167	645.69
593.377	650.69
593.587	669.69
593.796	684.69
594.006	656.69
594.215	642.69
594.424	642.69
594.634	625.69
594.843	645.69
595.053	616.69
595.262	607.69
595.472	577.69
595.681	585.69
595.89	588.69
596.1	570.69
596.309	562.69
596.518	567.69
596.727	564.69
596.937	569.69
597.146	548.69
597.355	551.69
597.564	525.69
597.774	536.69
597.983	524.69
598.192	521.69
598.401	516.69
598.61	487.69
598.819	506.69
599.028	519.69
599.237	499.69
599.446	492.69
599.655	501.69
599.864	497.69
600.073	479.69
600.282	499.69
600.491	483.69
600.7	484.69
600.909	472.69
601.118	481.69
601.327	493.69
601.536	470.69
601.745	468.69
601.953	483.69
602.162	477.69
602.371	455.69
602.58	461.69
602.789	473.69
602.997	475.69
603.206	457.69
603.415	478.69
603.623	472.69
603.832	460.69
604.041	460.69
604.249	468.69
604.458	466.69
604.666	433.69
604.875	435.69
605.084	442.69
605.292	466.69
605.501	472.69
605.709	451.69
605.918	454.69
606.126	453.69
606.334	456.69
606.543	434.69
606.751	439.69
606.96	429.69
607.168	444.69
607.376	447.69
607.585	441.69
607.793	442.69
608.001	436.69
608.21	429.69
608.418	427.69
608.626	444.69
608.834	423.69
609.043	435.69
609.251	414.69
609.459	414.69
609.667	429.69
609.875	431.69
610.083	441.69
610.291	436.69
610.499	418.69
610.707	411.69
610.916	418.69
611.124	429.69
611.332	417.69
611.54	429.69
611.748	423.69
611.955	425.69
612.163	405.69
612.371	428.69
612.579	414.69
612.787	428.69
612.995	398.69
613.203	382.69
613.411	422.69
613.618	411.69
613.826	401.69
614.034	424.69
614.242	388.69
614.449	394.69
614.657	411.69
614.865	427.69
615.072	385.69
615.28	381.69
615.488	416.69
615.695	422.69
615.903	392.69
616.111	393.69
616.318	401.69
616.526	416.69
616.733	393.69
616.941	408.69
617.148	407.69
617.356	412.69
617.563	400.69
617.771	397.69
617.978	391.69
618.185	420.69
618.393	403.69
618.6	394.69
618.807	403.69
619.015	397.69
619.222	405.69
619.429	361.69
619.637	385.69
619.844	387.69
620.051	385.69
620.258	377.69
620.466	383.69
620.673	375.69
620.88	372.69
621.087	367.69
621.294	361.69
621.501	376.69
621.708	366.69
621.915	385.69
622.122	357.69
622.329	372.69
622.536	358.69
622.743	367.69
622.95	380.69
623.157	376.69
623.364	374.69
623.571	364.69
623.778	351.69
623.985	364.69
624.192	366.69
624.399	362.69
624.606	339.69
624.812	367.69
625.019	357.69
625.226	349.69
625.433	348.69
625.639	374.69
625.846	343.69
626.053	362.69
626.259	345.69
626.466	337.69
626.673	343.69
626.879	330.69
627.086	349.69
627.293	341.69
627.499	342.69
627.706	351.69
627.912	349.69
628.119	348.69
628.325	347.69
628.532	346.69
628.738	346.69
628.945	338.69
629.151	338.69
629.357	324.69
629.564	339.69
629.77	331.69
629.976	339.69
630.183	334.69
630.389	327.69
630.595	320.69
630.802	311.69
631.008	320.69
631.214	328.69
631.42	326.69
631.627	323.69
631.833	335.69
632.039	338.69
632.245	313.69
632.451	311.69
632.657	332.69
632.863	314.69
633.069	327.69
633.275	319.69
633.481	319.69
633.688	292.69
633.893	307.69
634.099	316.69
634.305	313.69
634.511	310.69
634.717	302.69
634.923	316.69
635.129	313.69
635.335	294.69
635.541	305.69
635.747	304.69
635.952	318.69
636.158	301.69
636.364	298.69
636.57	311.69
636.775	314.69
636.981	303.69
637.187	289.69
637.392	292.69
637.598	298.69
637.804	284.69
638.009	302.69
638.215	297.69
638.421	286.69
638.626	295.69
638.832	281.69
639.037	287.69
639.243	287.69
639.448	281.69
639.654	292.69
639.859	294.69
640.065	290.69
640.27	298.69
640.475	298.69
640.681	279.69
640.886	288.69
641.091	268.69
641.297	301.69
641.502	295.69
641.707	277.69
641.913	286.69
642.118	294.69
642.323	264.69
642.528	280.69
642.733	281.69
642.939	300.69
643.144	296.69
643.349	297.69
643.554	294.69
643.759	311.69
643.964	277.69
644.169	283.69
644.374	274.69
644.579	295.69
644.784	263.69
644.989	300.69
645.194	277.69
645.399	285.69
645.604	289.69
645.809	296.69
646.014	309.69
646.219	300.69
646.423	292.69
646.628	314.69
646.833	301.69
647.038	294.69
647.243	281.69
647.447	297.69
647.652	291.69
647.857	284.69
648.062	286.69
648.266	303.69
648.471	286.69
648.676	306.69
648.88	286.69
649.085	309.69
649.289	301.69
649.494	316.69
649.698	301.69
649.903	309.69
650.107	279.69
650.312	287.69
650.516	284.69
650.721	291.69
650.925	279.69
651.13	266.69
651.334	280.69
651.539	282.69
651.743	290.69
651.947	329.69
652.152	265.69
652.356	279.69
652.56	283.69
652.764	291.69
652.969	276.69
653.173	275.69
653.377	286.69
653.581	265.69
653.785	254.69
653.99	276.69
654.194	260.69
654.398	257.69
654.602	274.69
654.806	263.69
655.01	282.69
655.214	285.69
655.418	272.69
655.622	282.69
655.826	289.69
656.03	295.69
656.234	298.69
656.438	308.69
656.642	309.69
656.846	311.69
657.049	290.69
657.253	263.69
657.457	237.69
657.661	233.69
657.865	208.69
658.068	212.69
658.272	206.69
658.476	175.69
658.68	181.69
658.883	184.69
659.087	147.69
659.291	173.69
659.494	154.69
659.698	158.69
659.901	124.69
660.105	136.69
660.309	137.69
660.512	125.69
660.716	118.69
660.919	115.69
661.123	124.69
661.326	103.69
661.53	102.69
661.733	107.69
661.936	99.69
662.14	113.69
662.343	103.69
662.546	100.69
662.75	88.69
662.953	88.69
663.156	79.69
663.36	84.69
663.563	92.69
663.766	100.69
663.969	97.69
664.173	90.69
664.376	77.69
664.579	93.69
664.782	86.69
664.985	70.69
665.188	86.69
665.391	88.69
665.594	78.69
665.797	96.69
666	96.69
666.203	74.69
666.406	82.69
666.609	80.69
666.812	71.69
667.015	79.69
667.218	87.69
667.421	98.69
667.624	84.69
667.827	86.69
668.03	88.69
668.232	76.69
668.435	79.69
668.638	88.69
668.841	98.69
669.043	77.69
669.246	75.69
669.449	77.69
669.651	87.69
669.854	76.69
670.057	79.69
670.259	74.69
670.462	78.69
670.665	74.69
670.867	91.69
671.07	93.69
671.272	83.69
671.475	91.69
671.677	76.69
671.88	83.69
672.082	75.69
672.284	85.69
672.487	73.69
672.689	84.69
672.892	82.69
