Data from Ni(NO3)2@0.25M.TitratingCurve.Agarose3%dH2O.NegLispCup.LampEnergy10.LIBS07252019_HRD10591_18-03-27-566.txt Node
Date: Thu Jul 25 18:03:27 EDT 2019
User: cochatt
Spectrometer: HR+D1059
Trigger mode: 1
Integration Time (sec): 1.000000E-1
Scans to average: 1
Electric dark correction enabled: true
Nonlinearity correction enabled: false
Boxcar width: 0
XAxis mode: Wavelengths
Number of Pixels in Spectrum: 2048
>>>>>Begin Spectral Data<<<<<
223.165	-24.12
223.4	-24.12
223.635	-24.12
223.869	-26.12
224.104	-14.12
224.338	-14.12
224.573	-22.12
224.808	-8.12
225.042	-24.12
225.277	9.88
225.511	-7.12
225.746	2.88
225.98	-2.12
226.215	12.88
226.449	29.88
226.683	20.88
226.918	31.88
227.152	33.88
227.387	35.88
227.621	36.88
227.856	37.88
228.09	44.88
228.324	74.88
228.559	55.88
228.793	56.88
229.027	95.88
229.262	93.88
229.496	101.88
229.73	106.88
229.964	121.88
230.199	113.88
230.433	128.88
230.667	134.88
230.901	122.88
231.136	111.88
231.37	137.88
231.604	131.88
231.838	136.88
232.072	138.88
232.306	140.88
232.541	140.88
232.775	141.88
233.009	133.88
233.243	141.88
233.477	130.88
233.711	129.88
233.945	139.88
234.179	134.88
234.413	135.88
234.647	128.88
234.881	135.88
235.115	127.88
235.349	131.88
235.583	125.88
235.817	114.88
236.051	138.88
236.285	138.88
236.519	124.88
236.753	123.88
236.987	133.88
237.221	138.88
237.455	132.88
237.689	138.88
237.922	139.88
238.156	154.88
238.39	131.88
238.624	136.88
238.858	137.88
239.091	145.88
239.325	148.88
239.559	159.88
239.793	155.88
240.027	153.88
240.26	147.88
240.494	147.88
240.728	136.88
240.961	140.88
241.195	152.88
241.429	141.88
241.662	143.88
241.896	164.88
242.13	168.88
242.363	170.88
242.597	154.88
242.83	152.88
243.064	147.88
243.298	155.88
243.531	169.88
243.765	171.88
243.998	163.88
244.232	172.88
244.465	169.88
244.699	162.88
244.932	160.88
245.166	178.88
245.399	183.88
245.633	181.88
245.866	193.88
246.099	197.88
246.333	184.88
246.566	195.88
246.8	190.88
247.033	181.88
247.266	175.88
247.5	181.88
247.733	197.88
247.966	198.88
248.2	195.88
248.433	194.88
248.666	200.88
248.899	219.88
249.133	212.88
249.366	211.88
249.599	225.88
249.832	215.88
250.066	243.88
250.299	237.88
250.532	241.88
250.765	249.88
250.998	236.88
251.231	241.88
251.465	267.88
251.698	267.88
251.931	263.88
252.164	268.88
252.397	260.88
252.63	281.88
252.863	275.88
253.096	266.88
253.329	269.88
253.562	279.88
253.795	297.88
254.028	288.88
254.261	300.88
254.494	308.88
254.727	305.88
254.96	296.88
255.193	290.88
255.426	307.88
255.659	309.88
255.892	321.88
256.124	326.88
256.357	354.88
256.59	324.88
256.823	332.88
257.056	348.88
257.289	339.88
257.521	347.88
257.754	331.88
257.987	325.88
258.22	344.88
258.452	358.88
258.685	357.88
258.918	365.88
259.151	363.88
259.383	376.88
259.616	369.88
259.849	360.88
260.081	371.88
260.314	379.88
260.547	387.88
260.779	375.88
261.012	371.88
261.244	400.88
261.477	383.88
261.71	385.88
261.942	393.88
262.175	396.88
262.407	379.88
262.64	376.88
262.872	398.88
263.105	409.88
263.337	398.88
263.57	394.88
263.802	391.88
264.035	404.88
264.267	422.88
264.499	410.88
264.732	420.88
264.964	426.88
265.197	403.88
265.429	426.88
265.661	410.88
265.894	428.88
266.126	414.88
266.358	436.88
266.591	413.88
266.823	415.88
267.055	434.88
267.287	431.88
267.52	436.88
267.752	421.88
267.984	438.88
268.216	433.88
268.448	448.88
268.681	449.88
268.913	452.88
269.145	460.88
269.377	445.88
269.609	455.88
269.841	456.88
270.073	428.88
270.306	447.88
270.538	431.88
270.77	432.88
271.002	458.88
271.234	447.88
271.466	467.88
271.698	442.88
271.93	446.88
272.162	450.88
272.394	462.88
272.626	468.88
272.858	451.88
273.09	452.88
273.322	445.88
273.553	455.88
273.785	474.88
274.017	469.88
274.249	492.88
274.481	463.88
274.713	471.88
274.945	461.88
275.176	461.88
275.408	484.88
275.64	461.88
275.872	490.88
276.104	486.88
276.335	467.88
276.567	476.88
276.799	473.88
277.031	491.88
277.262	480.88
277.494	480.88
277.726	487.88
277.957	486.88
278.189	465.88
278.421	474.88
278.652	496.88
278.884	498.88
279.115	500.88
279.347	500.88
279.579	491.88
279.81	492.88
280.042	488.88
280.273	499.88
280.505	480.88
280.736	504.88
280.968	492.88
281.199	485.88
281.431	507.88
281.662	498.88
281.894	498.88
282.125	490.88
282.356	504.88
282.588	510.88
282.819	504.88
283.051	509.88
283.282	489.88
283.513	518.88
283.745	500.88
283.976	526.88
284.207	543.88
284.439	510.88
284.67	511.88
284.901	521.88
285.132	529.88
285.364	521.88
285.595	515.88
285.826	486.88
286.057	539.88
286.288	487.88
286.52	505.88
286.751	526.88
286.982	543.88
287.213	518.88
287.444	517.88
287.675	507.88
287.906	525.88
288.138	503.88
288.369	489.88
288.6	509.88
288.831	514.88
289.062	523.88
289.293	519.88
289.524	504.88
289.755	520.88
289.986	502.88
290.217	529.88
290.448	497.88
290.679	513.88
290.91	523.88
291.141	511.88
291.371	515.88
291.602	510.88
291.833	511.88
292.064	509.88
292.295	516.88
292.526	506.88
292.757	509.88
292.987	505.88
293.218	508.88
293.449	523.88
293.68	494.88
293.91	501.88
294.141	514.88
294.372	497.88
294.603	511.88
294.833	521.88
295.064	520.88
295.295	522.88
295.525	499.88
295.756	519.88
295.987	497.88
296.217	539.88
296.448	547.88
296.679	540.88
296.909	515.88
297.14	531.88
297.37	517.88
297.601	532.88
297.831	540.88
298.062	540.88
298.292	537.88
298.523	538.88
298.753	548.88
298.984	545.88
299.214	555.88
299.445	549.88
299.675	529.88
299.905	553.88
300.136	540.88
300.366	538.88
300.597	564.88
300.827	570.88
301.057	553.88
301.288	562.88
301.518	583.88
301.748	548.88
301.979	563.88
302.209	572.88
302.439	587.88
302.669	565.88
302.9	563.88
303.13	567.88
303.36	570.88
303.59	595.88
303.82	593.88
304.051	600.88
304.281	580.88
304.511	581.88
304.741	595.88
304.971	572.88
305.201	609.88
305.431	599.88
305.661	597.88
305.891	595.88
306.121	579.88
306.352	586.88
306.582	604.88
306.812	598.88
307.042	578.88
307.272	589.88
307.502	576.88
307.731	607.88
307.961	613.88
308.191	599.88
308.421	595.88
308.651	578.88
308.881	580.88
309.111	600.88
309.341	576.88
309.571	607.88
309.8	629.88
310.03	627.88
310.26	619.88
310.49	636.88
310.72	644.88
310.949	615.88
311.179	619.88
311.409	638.88
311.639	641.88
311.868	657.88
312.098	651.88
312.328	662.88
312.557	660.88
312.787	661.88
313.017	660.88
313.246	672.88
313.476	690.88
313.706	710.88
313.935	693.88
314.165	675.88
314.394	687.88
314.624	704.88
314.853	697.88
315.083	677.88
315.312	695.88
315.542	715.88
315.771	691.88
316.001	713.88
316.23	720.88
316.46	732.88
316.689	733.88
316.919	732.88
317.148	739.88
317.377	751.88
317.607	751.88
317.836	751.88
318.065	744.88
318.295	741.88
318.524	771.88
318.753	755.88
318.983	791.88
319.212	780.88
319.441	766.88
319.67	791.88
319.9	796.88
320.129	798.88
320.358	830.88
320.587	813.88
320.816	801.88
321.046	795.88
321.275	816.88
321.504	817.88
321.733	844.88
321.962	831.88
322.191	837.88
322.42	848.88
322.649	868.88
322.878	861.88
323.108	870.88
323.337	904.88
323.566	870.88
323.795	892.88
324.024	906.88
324.253	903.88
324.482	916.88
324.71	925.88
324.939	905.88
325.168	917.88
325.397	929.88
325.626	936.88
325.855	928.88
326.084	967.88
326.313	947.88
326.542	971.88
326.77	999.88
326.999	949.88
327.228	961.88
327.457	988.88
327.686	975.88
327.914	999.88
328.143	998.88
328.372	1027.88
328.6	1007.88
328.829	1007.88
329.058	1011.88
329.287	1001.88
329.515	1019.88
329.744	1045.88
329.972	1057.88
330.201	1042.88
330.43	1068.88
330.658	1051.88
330.887	1101.88
331.115	1104.88
331.344	1077.88
331.572	1108.88
331.801	1071.88
332.03	1095.88
332.258	1098.88
332.486	1150.88
332.715	1114.88
332.943	1142.88
333.172	1141.88
333.4	1162.88
333.629	1165.88
333.857	1203.88
334.085	1212.88
334.314	1213.88
334.542	1205.88
334.771	1227.88
334.999	1225.88
335.227	1273.88
335.455	1232.88
335.684	1253.88
335.912	1288.88
336.14	1258.88
336.369	1262.88
336.597	1286.88
336.825	1259.88
337.053	1271.88
337.281	1266.88
337.51	1237.88
337.738	1244.88
337.966	1211.88
338.194	1229.88
338.422	1221.88
338.65	1192.88
338.878	1235.88
339.106	1211.88
339.334	1201.88
339.562	1186.88
339.79	1207.88
340.018	1191.88
340.246	1185.88
340.474	1173.88
340.702	1173.88
340.93	1186.88
341.158	1154.88
341.386	1216.88
341.614	1226.88
341.842	1179.88
342.07	1167.88
342.298	1197.88
342.526	1180.88
342.754	1164.88
342.981	1171.88
343.209	1223.88
343.437	1216.88
343.665	1237.88
343.893	1243.88
344.12	1288.88
344.348	1224.88
344.576	1257.88
344.804	1267.88
345.031	1215.88
345.259	1205.88
345.487	1213.88
345.714	1211.88
345.942	1227.88
346.17	1186.88
346.397	1184.88
346.625	1171.88
346.853	1163.88
347.08	1175.88
347.308	1168.88
347.535	1163.88
347.763	1123.88
347.99	1168.88
348.218	1143.88
348.445	1128.88
348.673	1136.88
348.9	1156.88
349.128	1162.88
349.355	1169.88
349.583	1164.88
349.81	1123.88
350.037	1106.88
350.265	1125.88
350.492	1104.88
350.72	1129.88
350.947	1142.88
351.174	1157.88
351.402	1159.88
351.629	1144.88
351.856	1142.88
352.083	1123.88
352.311	1163.88
352.538	1112.88
352.765	1128.88
352.992	1094.88
353.22	1099.88
353.447	1094.88
353.674	1083.88
353.901	1117.88
354.128	1118.88
354.355	1095.88
354.583	1111.88
354.81	1109.88
355.037	1056.88
355.264	1106.88
355.491	1109.88
355.718	1097.88
355.945	1100.88
356.172	1094.88
356.399	1122.88
356.626	1123.88
356.853	1100.88
357.08	1124.88
357.307	1100.88
357.534	1091.88
357.761	1097.88
357.988	1098.88
358.215	1094.88
358.441	1101.88
358.668	1096.88
358.895	1091.88
359.122	1106.88
359.349	1104.88
359.576	1105.88
359.802	1090.88
360.029	1111.88
360.256	1112.88
360.483	1108.88
360.709	1089.88
360.936	1124.88
361.163	1146.88
361.39	1103.88
361.616	1115.88
361.843	1140.88
362.07	1123.88
362.296	1114.88
362.523	1111.88
362.749	1080.88
362.976	1086.88
363.203	1101.88
363.429	1085.88
363.656	1097.88
363.882	1108.88
364.109	1087.88
364.335	1075.88
364.562	1087.88
364.788	1092.88
365.015	1106.88
365.241	1073.88
365.468	1105.88
365.694	1068.88
365.92	1094.88
366.147	1106.88
366.373	1113.88
366.599	1087.88
366.826	1136.88
367.052	1080.88
367.278	1073.88
367.505	1112.88
367.731	1095.88
367.957	1082.88
368.184	1117.88
368.41	1126.88
368.636	1127.88
368.862	1098.88
369.089	1099.88
369.315	1087.88
369.541	1113.88
369.767	1121.88
369.993	1125.88
370.219	1114.88
370.445	1114.88
370.672	1118.88
370.898	1137.88
371.124	1109.88
371.35	1140.88
371.576	1128.88
371.802	1109.88
372.028	1097.88
372.254	1119.88
372.48	1124.88
372.706	1120.88
372.932	1118.88
373.158	1145.88
373.384	1133.88
373.61	1130.88
373.835	1108.88
374.061	1106.88
374.287	1114.88
374.513	1082.88
374.739	1140.88
374.965	1125.88
375.191	1141.88
375.416	1125.88
375.642	1146.88
375.868	1163.88
376.094	1094.88
376.319	1075.88
376.545	1112.88
376.771	1111.88
376.997	1083.88
377.222	1071.88
377.448	1067.88
377.674	1061.88
377.899	1073.88
378.125	1082.88
378.35	1072.88
378.576	1054.88
378.802	1057.88
379.027	1055.88
379.253	1060.88
379.478	1063.88
379.704	1021.88
379.929	1058.88
380.155	1064.88
380.38	1051.88
380.606	1048.88
380.831	1081.88
381.057	1070.88
381.282	1020.88
381.507	1064.88
381.733	1043.88
381.958	1065.88
382.184	1077.88
382.409	1077.88
382.634	1101.88
382.86	1050.88
383.085	1070.88
383.31	1077.88
383.535	1112.88
383.761	1101.88
383.986	1086.88
384.211	1113.88
384.436	1092.88
384.662	1120.88
384.887	1117.88
385.112	1105.88
385.337	1112.88
385.562	1155.88
385.787	1143.88
386.013	1192.88
386.238	1157.88
386.463	1169.88
386.688	1140.88
386.913	1125.88
387.138	1128.88
387.363	1174.88
387.588	1168.88
387.813	1158.88
388.038	1163.88
388.263	1156.88
388.488	1186.88
388.713	1186.88
388.938	1163.88
389.163	1158.88
389.387	1190.88
389.612	1151.88
389.837	1179.88
390.062	1136.88
390.287	1186.88
390.512	1146.88
390.736	1167.88
390.961	1175.88
391.186	1184.88
391.411	1197.88
391.636	1227.88
391.86	1217.88
392.085	1233.88
392.31	1216.88
392.534	1188.88
392.759	1242.88
392.984	1257.88
393.208	1207.88
393.433	1240.88
393.658	1207.88
393.882	1211.88
394.107	1215.88
394.331	1226.88
394.556	1197.88
394.78	1246.88
395.005	1229.88
395.229	1215.88
395.454	1220.88
395.678	1229.88
395.903	1239.88
396.127	1261.88
396.352	1254.88
396.576	1228.88
396.801	1242.88
397.025	1271.88
397.249	1311.88
397.474	1308.88
397.698	1268.88
397.922	1298.88
398.147	1332.88
398.371	1350.88
398.595	1313.88
398.82	1385.88
399.044	1439.88
399.268	1433.88
399.492	1490.88
399.717	1528.88
399.941	1555.88
400.165	1529.88
400.389	1551.88
400.613	1482.88
400.837	1472.88
401.062	1437.88
401.286	1450.88
401.51	1435.88
401.734	1398.88
401.958	1415.88
402.182	1427.88
402.406	1388.88
402.63	1397.88
402.854	1433.88
403.078	1417.88
403.302	1396.88
403.526	1424.88
403.75	1399.88
403.974	1431.88
404.198	1393.88
404.422	1415.88
404.645	1433.88
404.869	1435.88
405.093	1450.88
405.317	1415.88
405.541	1464.88
405.765	1469.88
405.988	1443.88
406.212	1450.88
406.436	1450.88
406.66	1547.88
406.883	1476.88
407.107	1565.88
407.331	1581.88
407.555	1591.88
407.778	1562.88
408.002	1591.88
408.226	1585.88
408.449	1582.88
408.673	1568.88
408.896	1542.88
409.12	1549.88
409.344	1597.88
409.567	1561.88
409.791	1560.88
410.014	1571.88
410.238	1531.88
410.461	1571.88
410.685	1500.88
410.908	1505.88
411.132	1507.88
411.355	1488.88
411.578	1501.88
411.802	1480.88
412.025	1481.88
412.249	1515.88
412.472	1533.88
412.695	1496.88
412.919	1483.88
413.142	1537.88
413.365	1510.88
413.589	1466.88
413.812	1497.88
414.035	1434.88
414.258	1485.88
414.482	1489.88
414.705	1440.88
414.928	1485.88
415.151	1510.88
415.374	1456.88
415.597	1485.88
415.821	1449.88
416.044	1475.88
416.267	1480.88
416.49	1457.88
416.713	1439.88
416.936	1423.88
417.159	1460.88
417.382	1426.88
417.605	1420.88
417.828	1433.88
418.051	1475.88
418.274	1477.88
418.497	1417.88
418.72	1463.88
418.943	1455.88
419.166	1499.88
419.389	1642.88
419.611	1587.88
419.834	1523.88
420.057	1524.88
420.28	1502.88
420.503	1449.88
420.726	1459.88
420.948	1426.88
421.171	1427.88
421.394	1458.88
421.617	1435.88
421.839	1444.88
422.062	1470.88
422.285	1411.88
422.507	1440.88
422.73	1467.88
422.953	1460.88
423.175	1467.88
423.398	1459.88
423.621	1451.88
423.843	1435.88
424.066	1467.88
424.288	1514.88
424.511	1472.88
424.733	1443.88
424.956	1465.88
425.178	1470.88
425.401	1487.88
425.623	1498.88
425.846	1462.88
426.068	1461.88
426.291	1499.88
426.513	1466.88
426.735	1449.88
426.958	1475.88
427.18	1418.88
427.402	1469.88
427.625	1472.88
427.847	1409.88
428.069	1436.88
428.292	1467.88
428.514	1447.88
428.736	1449.88
428.958	1481.88
429.181	1426.88
429.403	1437.88
429.625	1464.88
429.847	1449.88
430.069	1432.88
430.292	1466.88
430.514	1452.88
430.736	1427.88
430.958	1432.88
431.18	1458.88
431.402	1489.88
431.624	1429.88
431.846	1456.88
432.068	1447.88
432.29	1497.88
432.512	1468.88
432.734	1505.88
432.956	1485.88
433.178	1507.88
433.4	1501.88
433.622	1513.88
433.844	1517.88
434.066	1481.88
434.287	1475.88
434.509	1501.88
434.731	1504.88
434.953	1513.88
435.175	1510.88
435.397	1543.88
435.618	1489.88
435.84	1504.88
436.062	1501.88
436.284	1449.88
436.505	1512.88
436.727	1458.88
436.949	1462.88
437.17	1444.88
437.392	1435.88
437.614	1484.88
437.835	1436.88
438.057	1435.88
438.278	1431.88
438.5	1432.88
438.721	1447.88
438.943	1483.88
439.165	1409.88
439.386	1425.88
439.608	1468.88
439.829	1460.88
440.05	1463.88
440.272	1484.88
440.493	1487.88
440.715	1508.88
440.936	1479.88
441.158	1505.88
441.379	1488.88
441.6	1542.88
441.822	1545.88
442.043	1539.88
442.264	1517.88
442.486	1498.88
442.707	1496.88
442.928	1518.88
443.149	1548.88
443.371	1547.88
443.592	1544.88
443.813	1536.88
444.034	1550.88
444.255	1567.88
444.476	1616.88
444.698	1601.88
444.919	1562.88
445.14	1699.88
445.361	1640.88
445.582	1557.88
445.803	1539.88
446.024	1528.88
446.245	1532.88
446.466	1505.88
446.687	1465.88
446.908	1515.88
447.129	1462.88
447.35	1465.88
447.571	1463.88
447.792	1435.88
448.013	1419.88
448.234	1379.88
448.455	1412.88
448.675	1393.88
448.896	1407.88
449.117	1391.88
449.338	1420.88
449.559	1362.88
449.779	1329.88
450	1369.88
450.221	1387.88
450.442	1345.88
450.662	1362.88
450.883	1374.88
451.104	1407.88
451.324	1405.88
451.545	1346.88
451.766	1385.88
451.986	1376.88
452.207	1370.88
452.428	1338.88
452.648	1359.88
452.869	1333.88
453.089	1309.88
453.31	1331.88
453.53	1337.88
453.751	1315.88
453.971	1301.88
454.192	1362.88
454.412	1315.88
454.633	1301.88
454.853	1289.88
455.073	1300.88
455.294	1315.88
455.514	1297.88
455.734	1304.88
455.955	1304.88
456.175	1337.88
456.395	1324.88
456.616	1284.88
456.836	1290.88
457.056	1321.88
457.276	1273.88
457.497	1365.88
457.717	1303.88
457.937	1337.88
458.157	1336.88
458.377	1332.88
458.598	1388.88
458.818	1360.88
459.038	1385.88
459.258	1409.88
459.478	1473.88
459.698	1472.88
459.918	1481.88
460.138	1528.88
460.358	1514.88
460.578	1507.88
460.798	1556.88
461.018	1555.88
461.238	1586.88
461.458	1550.88
461.678	1578.88
461.898	1620.88
462.118	1595.88
462.338	1659.88
462.558	1652.88
462.777	1674.88
462.997	1730.88
463.217	1740.88
463.437	1768.88
463.657	1721.88
463.876	1714.88
464.096	1744.88
464.316	1701.88
464.536	1686.88
464.755	1637.88
464.975	1614.88
465.195	1608.88
465.414	1562.88
465.634	1537.88
465.854	1515.88
466.073	1523.88
466.293	1472.88
466.512	1472.88
466.732	1472.88
466.951	1462.88
467.171	1433.88
467.391	1479.88
467.61	1438.88
467.829	1467.88
468.049	1402.88
468.268	1387.88
468.488	1419.88
468.707	1425.88
468.927	1434.88
469.146	1398.88
469.365	1400.88
469.585	1392.88
469.804	1435.88
470.023	1457.88
470.243	1423.88
470.462	1449.88
470.681	1440.88
470.901	1468.88
471.12	1474.88
471.339	1483.88
471.558	1460.88
471.777	1487.88
471.997	1456.88
472.216	1430.88
472.435	1447.88
472.654	1431.88
472.873	1403.88
473.092	1430.88
473.311	1463.88
473.53	1422.88
473.749	1424.88
473.968	1433.88
474.187	1440.88
474.406	1401.88
474.625	1449.88
474.844	1468.88
475.063	1483.88
475.282	1487.88
475.501	1482.88
475.72	1471.88
475.939	1488.88
476.158	1501.88
476.377	1511.88
476.596	1503.88
476.814	1530.88
477.033	1519.88
477.252	1514.88
477.471	1548.88
477.69	1555.88
477.908	1581.88
478.127	1618.88
478.346	1611.88
478.564	1652.88
478.783	1665.88
479.002	1649.88
479.22	1683.88
479.439	1683.88
479.658	1684.88
479.876	1673.88
480.095	1687.88
480.313	1687.88
480.532	1736.88
480.751	1728.88
480.969	1681.88
481.188	1656.88
481.406	1669.88
481.624	1699.88
481.843	1683.88
482.061	1656.88
482.28	1679.88
482.498	1662.88
482.717	1681.88
482.935	1680.88
483.153	1691.88
483.372	1722.88
483.59	1726.88
483.808	1699.88
484.027	1710.88
484.245	1704.88
484.463	1730.88
484.681	1703.88
484.9	1745.88
485.118	1735.88
485.336	1719.88
485.554	1700.88
485.772	1745.88
485.99	1695.88
486.209	1727.88
486.427	1717.88
486.645	1729.88
486.863	1760.88
487.081	1735.88
487.299	1750.88
487.517	1721.88
487.735	1741.88
487.953	1805.88
488.171	1775.88
488.389	1737.88
488.607	1766.88
488.825	1759.88
489.043	1736.88
489.261	1719.88
489.479	1739.88
489.696	1729.88
489.914	1729.88
490.132	1755.88
490.35	1739.88
490.568	1767.88
490.786	1795.88
491.003	1793.88
491.221	1829.88
491.439	1834.88
491.657	1829.88
491.874	1807.88
492.092	1827.88
492.31	1838.88
492.527	1855.88
492.745	1845.88
492.963	1866.88
493.18	1871.88
493.398	1862.88
493.615	1898.88
493.833	1874.88
494.05	1859.88
494.268	1857.88
494.485	1866.88
494.703	1906.88
494.92	1885.88
495.138	1859.88
495.355	1857.88
495.573	1921.88
495.79	1937.88
496.008	1996.88
496.225	1990.88
496.442	1960.88
496.66	2011.88
496.877	2020.88
497.094	2056.88
497.312	2095.88
497.529	2076.88
497.746	2121.88
497.963	2208.88
498.181	2239.88
498.398	2221.88
498.615	2283.88
498.832	2346.88
499.049	2397.88
499.267	2471.88
499.484	2585.88
499.701	2679.88
499.918	2741.88
500.135	2789.88
500.352	2848.88
500.569	2926.88
500.786	2916.88
501.003	2889.88
501.22	2804.88
501.437	2717.88
501.654	2572.88
501.871	2552.88
502.088	2493.88
502.305	2425.88
502.522	2348.88
502.739	2363.88
502.956	2293.88
503.172	2228.88
503.389	2187.88
503.606	2132.88
503.823	2089.88
504.04	2074.88
504.256	2039.88
504.473	2043.88
504.69	1972.88
504.907	1971.88
505.123	1948.88
505.34	1929.88
505.557	1863.88
505.773	1882.88
505.99	1875.88
506.207	1815.88
506.423	1817.88
506.64	1755.88
506.856	1764.88
507.073	1694.88
507.289	1695.88
507.506	1717.88
507.722	1702.88
507.939	1760.88
508.155	1687.88
508.372	1664.88
508.588	1675.88
508.805	1683.88
509.021	1650.88
509.238	1645.88
509.454	1647.88
509.67	1663.88
509.887	1614.88
510.103	1629.88
510.319	1594.88
510.536	1560.88
510.752	1552.88
510.968	1583.88
511.184	1560.88
511.401	1587.88
511.617	1572.88
511.833	1530.88
512.049	1556.88
512.265	1585.88
512.481	1567.88
512.698	1550.88
512.914	1555.88
513.13	1589.88
513.346	1553.88
513.562	1556.88
513.778	1546.88
513.994	1564.88
514.21	1543.88
514.426	1591.88
514.642	1589.88
514.858	1583.88
515.074	1590.88
515.29	1602.88
515.506	1567.88
515.721	1642.88
515.937	1589.88
516.153	1608.88
516.369	1654.88
516.585	1669.88
516.801	1685.88
517.016	1633.88
517.232	1704.88
517.448	1723.88
517.664	1745.88
517.879	1740.88
518.095	1714.88
518.311	1717.88
518.527	1662.88
518.742	1669.88
518.958	1642.88
519.173	1625.88
519.389	1560.88
519.605	1616.88
519.82	1580.88
520.036	1590.88
520.251	1545.88
520.467	1533.88
520.682	1539.88
520.898	1522.88
521.113	1522.88
521.329	1500.88
521.544	1523.88
521.76	1489.88
521.975	1486.88
522.19	1436.88
522.406	1428.88
522.621	1446.88
522.836	1464.88
523.052	1471.88
523.267	1462.88
523.482	1449.88
523.698	1447.88
523.913	1445.88
524.128	1442.88
524.343	1458.88
524.559	1401.88
524.774	1422.88
524.989	1394.88
525.204	1416.88
525.419	1394.88
525.634	1387.88
525.849	1397.88
526.064	1401.88
526.28	1402.88
526.495	1395.88
526.71	1380.88
526.925	1411.88
527.14	1387.88
527.355	1402.88
527.57	1369.88
527.785	1368.88
527.999	1360.88
528.214	1399.88
528.429	1391.88
528.644	1372.88
528.859	1380.88
529.074	1380.88
529.289	1397.88
529.503	1350.88
529.718	1380.88
529.933	1343.88
530.148	1379.88
530.363	1373.88
530.577	1353.88
530.792	1336.88
531.007	1330.88
531.221	1350.88
531.436	1357.88
531.651	1324.88
531.865	1335.88
532.08	1354.88
532.295	1343.88
532.509	1331.88
532.724	1348.88
532.938	1351.88
533.153	1305.88
533.367	1308.88
533.582	1301.88
533.796	1341.88
534.011	1298.88
534.225	1311.88
534.44	1312.88
534.654	1333.88
534.868	1333.88
535.083	1286.88
535.297	1288.88
535.511	1282.88
535.726	1304.88
535.94	1323.88
536.154	1252.88
536.369	1245.88
536.583	1272.88
536.797	1233.88
537.011	1272.88
537.225	1275.88
537.44	1259.88
537.654	1243.88
537.868	1231.88
538.082	1216.88
538.296	1251.88
538.51	1257.88
538.724	1279.88
538.938	1236.88
539.153	1227.88
539.367	1257.88
539.581	1203.88
539.795	1221.88
540.009	1211.88
540.222	1229.88
540.436	1218.88
540.65	1204.88
540.864	1231.88
541.078	1216.88
541.292	1213.88
541.506	1233.88
541.72	1245.88
541.934	1249.88
542.147	1263.88
542.361	1237.88
542.575	1247.88
542.789	1203.88
543.002	1185.88
543.216	1241.88
543.43	1221.88
543.644	1197.88
543.857	1190.88
544.071	1197.88
544.285	1268.88
544.498	1223.88
544.712	1215.88
544.925	1200.88
545.139	1236.88
545.352	1188.88
545.566	1215.88
545.779	1191.88
545.993	1209.88
546.206	1209.88
546.42	1203.88
546.633	1212.88
546.847	1200.88
547.06	1223.88
547.274	1207.88
547.487	1206.88
547.7	1193.88
547.914	1219.88
548.127	1204.88
548.34	1222.88
548.554	1197.88
548.767	1194.88
548.98	1181.88
549.193	1209.88
549.407	1183.88
549.62	1184.88
549.833	1225.88
550.046	1179.88
550.259	1199.88
550.473	1191.88
550.686	1204.88
550.899	1195.88
551.112	1192.88
551.325	1174.88
551.538	1194.88
551.751	1175.88
551.964	1168.88
552.177	1162.88
552.39	1175.88
552.603	1200.88
552.816	1184.88
553.029	1187.88
553.242	1173.88
553.455	1179.88
553.667	1195.88
553.88	1205.88
554.093	1144.88
554.306	1148.88
554.519	1151.88
554.732	1135.88
554.944	1153.88
555.157	1130.88
555.37	1144.88
555.583	1139.88
555.795	1136.88
556.008	1105.88
556.221	1077.88
556.433	1064.88
556.646	1072.88
556.859	1081.88
557.071	1091.88
557.284	1066.88
557.496	1076.88
557.709	1068.88
557.921	1046.88
558.134	1043.88
558.346	1021.88
558.559	1041.88
558.771	1029.88
558.984	1033.88
559.196	1061.88
559.409	1027.88
559.621	1039.88
559.833	1012.88
560.046	997.88
560.258	1026.88
560.47	996.88
560.683	1013.88
560.895	987.88
561.107	1010.88
561.32	1000.88
561.532	1029.88
561.744	993.88
561.956	1032.88
562.168	1027.88
562.381	992.88
562.593	1002.88
562.805	992.88
563.017	1013.88
563.229	1019.88
563.441	1039.88
563.653	1025.88
563.865	1029.88
564.077	1026.88
564.289	1034.88
564.501	1041.88
564.713	1060.88
564.925	1048.88
565.137	1062.88
565.349	1059.88
565.561	1098.88
565.773	1104.88
565.985	1091.88
566.197	1123.88
566.408	1110.88
566.62	1150.88
566.832	1176.88
567.044	1164.88
567.255	1167.88
567.467	1187.88
567.679	1163.88
567.891	1173.88
568.102	1151.88
568.314	1147.88
568.526	1105.88
568.737	1084.88
568.949	1080.88
569.161	1027.88
569.372	1012.88
569.584	1001.88
569.795	1015.88
570.007	981.88
570.218	953.88
570.43	949.88
570.641	961.88
570.853	936.88
571.064	911.88
571.276	923.88
571.487	915.88
571.698	879.88
571.91	927.88
572.121	865.88
572.333	861.88
572.544	860.88
572.755	836.88
572.966	832.88
573.178	830.88
573.389	827.88
573.6	829.88
573.811	809.88
574.023	793.88
574.234	806.88
574.445	780.88
574.656	797.88
574.867	781.88
575.078	796.88
575.289	796.88
575.501	772.88
575.712	771.88
575.923	776.88
576.134	744.88
576.345	763.88
576.556	764.88
576.767	755.88
576.978	790.88
577.188	726.88
577.399	739.88
577.61	729.88
577.821	717.88
578.032	733.88
578.243	714.88
578.454	762.88
578.665	720.88
578.875	721.88
579.086	702.88
579.297	711.88
579.508	704.88
579.718	689.88
579.929	675.88
580.14	709.88
580.35	682.88
580.561	680.88
580.772	712.88
580.982	707.88
581.193	703.88
581.403	677.88
581.614	698.88
581.825	683.88
582.035	657.88
582.246	676.88
582.456	665.88
582.667	676.88
582.877	676.88
583.087	643.88
583.298	664.88
583.508	689.88
583.719	660.88
583.929	673.88
584.139	652.88
584.35	633.88
584.56	678.88
584.77	665.88
584.981	663.88
585.191	636.88
585.401	659.88
585.611	654.88
585.821	644.88
586.032	650.88
586.242	647.88
586.452	635.88
586.662	646.88
586.872	633.88
587.082	650.88
587.292	626.88
587.502	626.88
587.713	640.88
587.923	643.88
588.133	626.88
588.343	632.88
588.553	631.88
588.762	635.88
588.972	627.88
589.182	658.88
589.392	649.88
589.602	637.88
589.812	649.88
590.022	651.88
590.232	633.88
590.441	612.88
590.651	613.88
590.861	628.88
591.071	619.88
591.281	623.88
591.49	635.88
591.7	627.88
591.91	647.88
592.119	604.88
592.329	621.88
592.539	607.88
592.748	624.88
592.958	619.88
593.167	599.88
593.377	602.88
593.587	649.88
593.796	635.88
594.006	632.88
594.215	632.88
594.424	607.88
594.634	613.88
594.843	615.88
595.053	614.88
595.262	608.88
595.472	618.88
595.681	600.88
595.89	587.88
596.1	564.88
596.309	572.88
596.518	580.88
596.727	583.88
596.937	563.88
597.146	570.88
597.355	557.88
597.564	566.88
597.774	555.88
597.983	537.88
598.192	552.88
598.401	566.88
598.61	532.88
598.819	547.88
599.028	517.88
599.237	525.88
599.446	520.88
599.655	519.88
599.864	546.88
600.073	500.88
600.282	521.88
600.491	519.88
600.7	539.88
600.909	492.88
601.118	525.88
601.327	511.88
601.536	503.88
601.745	490.88
601.953	469.88
602.162	491.88
602.371	507.88
602.58	495.88
602.789	487.88
602.997	483.88
603.206	476.88
603.415	496.88
603.623	480.88
603.832	479.88
604.041	486.88
604.249	483.88
604.458	481.88
604.666	484.88
604.875	474.88
605.084	474.88
605.292	469.88
605.501	470.88
605.709	469.88
605.918	470.88
606.126	476.88
606.334	474.88
606.543	467.88
606.751	469.88
606.96	451.88
607.168	470.88
607.376	464.88
607.585	468.88
607.793	455.88
608.001	445.88
608.21	460.88
608.418	441.88
608.626	453.88
608.834	447.88
609.043	458.88
609.251	468.88
609.459	448.88
609.667	443.88
609.875	471.88
610.083	443.88
610.291	447.88
610.499	457.88
610.707	452.88
610.916	439.88
611.124	447.88
611.332	439.88
611.54	428.88
611.748	435.88
611.955	455.88
612.163	427.88
612.371	445.88
612.579	428.88
612.787	426.88
612.995	430.88
613.203	436.88
613.411	427.88
613.618	433.88
613.826	427.88
614.034	413.88
614.242	428.88
614.449	433.88
614.657	412.88
614.865	420.88
615.072	407.88
615.28	445.88
615.488	432.88
615.695	423.88
615.903	413.88
616.111	415.88
616.318	428.88
616.526	398.88
616.733	409.88
616.941	404.88
617.148	413.88
617.356	415.88
617.563	427.88
617.771	424.88
617.978	389.88
618.185	404.88
618.393	409.88
618.6	416.88
618.807	407.88
619.015	396.88
619.222	396.88
619.429	384.88
619.637	392.88
619.844	398.88
620.051	393.88
620.258	387.88
620.466	384.88
620.673	402.88
620.88	374.88
621.087	353.88
621.294	374.88
621.501	365.88
621.708	392.88
621.915	391.88
622.122	375.88
622.329	382.88
622.536	380.88
622.743	379.88
622.95	390.88
623.157	391.88
623.364	371.88
623.571	355.88
623.778	361.88
623.985	363.88
624.192	372.88
624.399	355.88
624.606	372.88
624.812	372.88
625.019	371.88
625.226	361.88
625.433	365.88
625.639	364.88
625.846	356.88
626.053	366.88
626.259	356.88
626.466	348.88
626.673	362.88
626.879	349.88
627.086	343.88
627.293	349.88
627.499	367.88
627.706	351.88
627.912	346.88
628.119	354.88
628.325	334.88
628.532	348.88
628.738	351.88
628.945	353.88
629.151	325.88
629.357	338.88
629.564	344.88
629.77	325.88
629.976	319.88
630.183	343.88
630.389	329.88
630.595	332.88
630.802	310.88
631.008	311.88
631.214	328.88
631.42	325.88
631.627	312.88
631.833	333.88
632.039	317.88
632.245	324.88
632.451	300.88
632.657	319.88
632.863	305.88
633.069	313.88
633.275	320.88
633.481	332.88
633.688	331.88
633.893	303.88
634.099	304.88
634.305	326.88
634.511	316.88
634.717	320.88
634.923	291.88
635.129	311.88
635.335	299.88
635.541	297.88
635.747	297.88
635.952	316.88
636.158	287.88
636.364	313.88
636.57	305.88
636.775	312.88
636.981	288.88
637.187	281.88
637.392	292.88
637.598	293.88
637.804	297.88
638.009	284.88
638.215	280.88
638.421	277.88
638.626	294.88
638.832	293.88
639.037	285.88
639.243	266.88
639.448	286.88
639.654	294.88
639.859	274.88
640.065	277.88
640.27	281.88
640.475	283.88
640.681	287.88
640.886	279.88
641.091	292.88
641.297	292.88
641.502	283.88
641.707	282.88
641.913	288.88
642.118	261.88
642.323	283.88
642.528	281.88
642.733	270.88
642.939	288.88
643.144	281.88
643.349	265.88
643.554	283.88
643.759	273.88
643.964	257.88
644.169	277.88
644.374	268.88
644.579	261.88
644.784	273.88
644.989	270.88
645.194	279.88
645.399	278.88
645.604	261.88
645.809	262.88
646.014	262.88
646.219	266.88
646.423	273.88
646.628	279.88
646.833	264.88
647.038	266.88
647.243	281.88
647.447	257.88
647.652	263.88
647.857	290.88
648.062	267.88
648.266	261.88
648.471	263.88
648.676	279.88
648.88	283.88
649.085	263.88
649.289	277.88
649.494	251.88
649.698	262.88
649.903	264.88
650.107	257.88
650.312	266.88
650.516	263.88
650.721	245.88
650.925	245.88
651.13	248.88
651.334	234.88
651.539	251.88
651.743	241.88
651.947	233.88
652.152	217.88
652.356	219.88
652.56	205.88
652.764	215.88
652.969	221.88
653.173	212.88
653.377	231.88
653.581	222.88
653.785	228.88
653.99	208.88
654.194	204.88
654.398	188.88
654.602	197.88
654.806	208.88
655.01	188.88
655.214	199.88
655.418	193.88
655.622	204.88
655.826	195.88
656.03	191.88
656.234	185.88
656.438	188.88
656.642	182.88
656.846	183.88
657.049	168.88
657.253	159.88
657.457	166.88
657.661	154.88
657.865	156.88
658.068	143.88
658.272	139.88
658.476	129.88
658.68	122.88
658.883	141.88
659.087	135.88
659.291	122.88
659.494	127.88
659.698	118.88
659.901	125.88
660.105	114.88
660.309	108.88
660.512	121.88
660.716	106.88
660.919	111.88
661.123	101.88
661.326	105.88
661.53	99.88
661.733	93.88
661.936	99.88
662.14	96.88
662.343	83.88
662.546	101.88
662.75	104.88
662.953	95.88
663.156	85.88
663.36	100.88
663.563	83.88
663.766	75.88
663.969	91.88
664.173	81.88
664.376	76.88
664.579	81.88
664.782	87.88
664.985	87.88
665.188	89.88
665.391	87.88
665.594	75.88
665.797	88.88
666	79.88
666.203	84.88
666.406	86.88
666.609	71.88
666.812	73.88
667.015	70.88
667.218	81.88
667.421	88.88
667.624	89.88
667.827	84.88
668.03	83.88
668.232	88.88
668.435	79.88
668.638	86.88
668.841	79.88
669.043	84.88
669.246	77.88
669.449	83.88
669.651	88.88
669.854	94.88
670.057	89.88
670.259	70.88
670.462	91.88
670.665	86.88
670.867	75.88
671.07	74.88
671.272	89.88
671.475	85.88
671.677	88.88
671.88	94.88
672.082	81.88
672.284	89.88
672.487	82.88
672.689	76.88
672.892	80.88
