Data from Ni(NO3)2@0.25M.TitratingCurve.Agarose3%dH2O.NegLispCup.LampEnergy10.LIBS07252019_HRD10591_18-03-39-566.txt Node
Date: Thu Jul 25 18:03:39 EDT 2019
User: cochatt
Spectrometer: HR+D1059
Trigger mode: 1
Integration Time (sec): 1.000000E-1
Scans to average: 1
Electric dark correction enabled: true
Nonlinearity correction enabled: false
Boxcar width: 0
XAxis mode: Wavelengths
Number of Pixels in Spectrum: 2048
>>>>>Begin Spectral Data<<<<<
223.165	-8.19
223.4	-8.19
223.635	-8.19
223.869	-10.19
224.104	-11.19
224.338	-16.19
224.573	-25.19
224.808	-14.19
225.042	6.81
225.277	8.81
225.511	4.81
225.746	-7.19
225.98	-5.19
226.215	10.81
226.449	9.81
226.683	15.81
226.918	14.81
227.152	25.81
227.387	34.81
227.621	45.81
227.856	53.81
228.09	64.81
228.324	45.81
228.559	57.81
228.793	72.81
229.027	139.81
229.262	145.81
229.496	154.81
229.73	157.81
229.964	157.81
230.199	174.81
230.433	187.81
230.667	156.81
230.901	171.81
231.136	176.81
231.37	168.81
231.604	192.81
231.838	187.81
232.072	200.81
232.306	195.81
232.541	180.81
232.775	185.81
233.009	184.81
233.243	188.81
233.477	189.81
233.711	193.81
233.945	198.81
234.179	185.81
234.413	173.81
234.647	193.81
234.881	189.81
235.115	215.81
235.349	202.81
235.583	177.81
235.817	198.81
236.051	205.81
236.285	203.81
236.519	191.81
236.753	202.81
236.987	214.81
237.221	216.81
237.455	202.81
237.689	209.81
237.922	223.81
238.156	211.81
238.39	204.81
238.624	193.81
238.858	217.81
239.091	222.81
239.325	210.81
239.559	219.81
239.793	232.81
240.027	225.81
240.26	230.81
240.494	227.81
240.728	239.81
240.961	239.81
241.195	245.81
241.429	263.81
241.662	262.81
241.896	257.81
242.13	280.81
242.363	260.81
242.597	266.81
242.83	268.81
243.064	272.81
243.298	257.81
243.531	271.81
243.765	297.81
243.998	274.81
244.232	283.81
244.465	276.81
244.699	285.81
244.932	310.81
245.166	316.81
245.399	298.81
245.633	289.81
245.866	283.81
246.099	289.81
246.333	277.81
246.566	303.81
246.8	304.81
247.033	297.81
247.266	303.81
247.5	314.81
247.733	316.81
247.966	320.81
248.2	338.81
248.433	344.81
248.666	333.81
248.899	361.81
249.133	335.81
249.366	364.81
249.599	361.81
249.832	353.81
250.066	388.81
250.299	374.81
250.532	384.81
250.765	376.81
250.998	389.81
251.231	385.81
251.465	394.81
251.698	403.81
251.931	410.81
252.164	388.81
252.397	426.81
252.63	398.81
252.863	421.81
253.096	439.81
253.329	449.81
253.562	441.81
253.795	441.81
254.028	443.81
254.261	462.81
254.494	449.81
254.727	460.81
254.96	459.81
255.193	463.81
255.426	473.81
255.659	481.81
255.892	479.81
256.124	475.81
256.357	493.81
256.59	487.81
256.823	462.81
257.056	492.81
257.289	476.81
257.521	500.81
257.754	492.81
257.987	514.81
258.22	509.81
258.452	516.81
258.685	519.81
258.918	509.81
259.151	516.81
259.383	533.81
259.616	518.81
259.849	517.81
260.081	544.81
260.314	547.81
260.547	555.81
260.779	535.81
261.012	557.81
261.244	570.81
261.477	576.81
261.71	570.81
261.942	550.81
262.175	571.81
262.407	569.81
262.64	574.81
262.872	560.81
263.105	565.81
263.337	569.81
263.57	591.81
263.802	596.81
264.035	598.81
264.267	609.81
264.499	589.81
264.732	621.81
264.964	606.81
265.197	598.81
265.429	609.81
265.661	613.81
265.894	584.81
266.126	613.81
266.358	622.81
266.591	625.81
266.823	624.81
267.055	613.81
267.287	634.81
267.52	635.81
267.752	620.81
267.984	634.81
268.216	640.81
268.448	659.81
268.681	659.81
268.913	644.81
269.145	657.81
269.377	626.81
269.609	646.81
269.841	672.81
270.073	678.81
270.306	670.81
270.538	673.81
270.77	656.81
271.002	675.81
271.234	678.81
271.466	673.81
271.698	672.81
271.93	676.81
272.162	702.81
272.394	659.81
272.626	686.81
272.858	715.81
273.09	692.81
273.322	696.81
273.553	689.81
273.785	692.81
274.017	704.81
274.249	696.81
274.481	722.81
274.713	717.81
274.945	696.81
275.176	715.81
275.408	737.81
275.64	715.81
275.872	733.81
276.104	718.81
276.335	722.81
276.567	737.81
276.799	737.81
277.031	732.81
277.262	717.81
277.494	726.81
277.726	730.81
277.957	742.81
278.189	753.81
278.421	745.81
278.652	750.81
278.884	753.81
279.115	766.81
279.347	762.81
279.579	728.81
279.81	768.81
280.042	735.81
280.273	779.81
280.505	753.81
280.736	760.81
280.968	765.81
281.199	780.81
281.431	783.81
281.662	781.81
281.894	772.81
282.125	761.81
282.356	787.81
282.588	810.81
282.819	785.81
283.051	788.81
283.282	794.81
283.513	794.81
283.745	811.81
283.976	779.81
284.207	804.81
284.439	783.81
284.67	812.81
284.901	824.81
285.132	816.81
285.364	799.81
285.595	818.81
285.826	830.81
286.057	816.81
286.288	832.81
286.52	831.81
286.751	827.81
286.982	812.81
287.213	829.81
287.444	830.81
287.675	826.81
287.906	833.81
288.138	852.81
288.369	859.81
288.6	828.81
288.831	828.81
289.062	796.81
289.293	835.81
289.524	813.81
289.755	830.81
289.986	836.81
290.217	832.81
290.448	858.81
290.679	862.81
290.91	852.81
291.141	848.81
291.371	864.81
291.602	848.81
291.833	832.81
292.064	858.81
292.295	831.81
292.526	830.81
292.757	856.81
292.987	832.81
293.218	815.81
293.449	871.81
293.68	847.81
293.91	844.81
294.141	832.81
294.372	850.81
294.603	834.81
294.833	833.81
295.064	839.81
295.295	857.81
295.525	854.81
295.756	863.81
295.987	833.81
296.217	868.81
296.448	865.81
296.679	862.81
296.909	872.81
297.14	896.81
297.37	874.81
297.601	898.81
297.831	896.81
298.062	868.81
298.292	895.81
298.523	901.81
298.753	923.81
298.984	890.81
299.214	891.81
299.445	897.81
299.675	914.81
299.905	917.81
300.136	914.81
300.366	918.81
300.597	944.81
300.827	920.81
301.057	917.81
301.288	924.81
301.518	955.81
301.748	933.81
301.979	955.81
302.209	935.81
302.439	943.81
302.669	934.81
302.9	949.81
303.13	948.81
303.36	966.81
303.59	958.81
303.82	956.81
304.051	974.81
304.281	956.81
304.511	941.81
304.741	948.81
304.971	968.81
305.201	998.81
305.431	1010.81
305.661	1017.81
305.891	995.81
306.121	985.81
306.352	959.81
306.582	973.81
306.812	952.81
307.042	964.81
307.272	985.81
307.502	940.81
307.731	989.81
307.961	984.81
308.191	976.81
308.421	982.81
308.651	988.81
308.881	992.81
309.111	987.81
309.341	970.81
309.571	1013.81
309.8	1018.81
310.03	989.81
310.26	1034.81
310.49	1048.81
310.72	1007.81
310.949	1022.81
311.179	1023.81
311.409	1033.81
311.639	1020.81
311.868	1007.81
312.098	1041.81
312.328	1049.81
312.557	1071.81
312.787	1017.81
313.017	1062.81
313.246	1122.81
313.476	1102.81
313.706	1090.81
313.935	1072.81
314.165	1072.81
314.394	1058.81
314.624	1095.81
314.853	1086.81
315.083	1104.81
315.312	1116.81
315.542	1106.81
315.771	1128.81
316.001	1117.81
316.23	1126.81
316.46	1133.81
316.689	1116.81
316.919	1158.81
317.148	1180.81
317.377	1135.81
317.607	1130.81
317.836	1146.81
318.065	1132.81
318.295	1150.81
318.524	1189.81
318.753	1165.81
318.983	1170.81
319.212	1144.81
319.441	1149.81
319.67	1210.81
319.9	1177.81
320.129	1195.81
320.358	1188.81
320.587	1180.81
320.816	1199.81
321.046	1224.81
321.275	1234.81
321.504	1212.81
321.733	1226.81
321.962	1248.81
322.191	1233.81
322.42	1225.81
322.649	1237.81
322.878	1271.81
323.108	1237.81
323.337	1291.81
323.566	1287.81
323.795	1260.81
324.024	1290.81
324.253	1293.81
324.482	1311.81
324.71	1322.81
324.939	1345.81
325.168	1323.81
325.397	1322.81
325.626	1352.81
325.855	1341.81
326.084	1381.81
326.313	1369.81
326.542	1369.81
326.77	1427.81
326.999	1384.81
327.228	1375.81
327.457	1382.81
327.686	1426.81
327.914	1416.81
328.143	1408.81
328.372	1381.81
328.6	1417.81
328.829	1408.81
329.058	1397.81
329.287	1439.81
329.515	1463.81
329.744	1431.81
329.972	1470.81
330.201	1489.81
330.43	1463.81
330.658	1478.81
330.887	1486.81
331.115	1489.81
331.344	1482.81
331.572	1505.81
331.801	1522.81
332.03	1537.81
332.258	1560.81
332.486	1560.81
332.715	1593.81
332.943	1617.81
333.172	1647.81
333.4	1650.81
333.629	1697.81
333.857	1700.81
334.085	1705.81
334.314	1692.81
334.542	1752.81
334.771	1766.81
334.999	1722.81
335.227	1735.81
335.455	1767.81
335.684	1753.81
335.912	1773.81
336.14	1712.81
336.369	1760.81
336.597	1742.81
336.825	1755.81
337.053	1773.81
337.281	1722.81
337.51	1688.81
337.738	1720.81
337.966	1685.81
338.194	1695.81
338.422	1693.81
338.65	1674.81
338.878	1661.81
339.106	1624.81
339.334	1693.81
339.562	1660.81
339.79	1660.81
340.018	1619.81
340.246	1611.81
340.474	1648.81
340.702	1591.81
340.93	1626.81
341.158	1643.81
341.386	1625.81
341.614	1668.81
341.842	1597.81
342.07	1624.81
342.298	1597.81
342.526	1622.81
342.754	1624.81
342.981	1602.81
343.209	1611.81
343.437	1679.81
343.665	1654.81
343.893	1698.81
344.12	1741.81
344.348	1718.81
344.576	1772.81
344.804	1743.81
345.031	1710.81
345.259	1637.81
345.487	1619.81
345.714	1630.81
345.942	1616.81
346.17	1647.81
346.397	1606.81
346.625	1562.81
346.853	1536.81
347.08	1542.81
347.308	1556.81
347.535	1553.81
347.763	1555.81
347.99	1528.81
348.218	1566.81
348.445	1544.81
348.673	1532.81
348.9	1530.81
349.128	1555.81
349.355	1525.81
349.583	1518.81
349.81	1514.81
350.037	1520.81
350.265	1469.81
350.492	1494.81
350.72	1497.81
350.947	1525.81
351.174	1528.81
351.402	1541.81
351.629	1493.81
351.856	1513.81
352.083	1508.81
352.311	1514.81
352.538	1519.81
352.765	1529.81
352.992	1455.81
353.22	1461.81
353.447	1473.81
353.674	1453.81
353.901	1472.81
354.128	1480.81
354.355	1462.81
354.583	1478.81
354.81	1466.81
355.037	1477.81
355.264	1480.81
355.491	1498.81
355.718	1500.81
355.945	1484.81
356.172	1482.81
356.399	1497.81
356.626	1476.81
356.853	1526.81
357.08	1499.81
357.307	1529.81
357.534	1514.81
357.761	1494.81
357.988	1500.81
358.215	1455.81
358.441	1472.81
358.668	1455.81
358.895	1479.81
359.122	1514.81
359.349	1514.81
359.576	1501.81
359.802	1507.81
360.029	1456.81
360.256	1482.81
360.483	1484.81
360.709	1477.81
360.936	1490.81
361.163	1506.81
361.39	1482.81
361.616	1490.81
361.843	1500.81
362.07	1515.81
362.296	1508.81
362.523	1480.81
362.749	1509.81
362.976	1468.81
363.203	1512.81
363.429	1495.81
363.656	1466.81
363.882	1485.81
364.109	1472.81
364.335	1435.81
364.562	1486.81
364.788	1477.81
365.015	1488.81
365.241	1484.81
365.468	1453.81
365.694	1474.81
365.92	1468.81
366.147	1456.81
366.373	1488.81
366.599	1482.81
366.826	1469.81
367.052	1464.81
367.278	1507.81
367.505	1491.81
367.731	1469.81
367.957	1480.81
368.184	1487.81
368.41	1493.81
368.636	1474.81
368.862	1476.81
369.089	1518.81
369.315	1468.81
369.541	1484.81
369.767	1516.81
369.993	1497.81
370.219	1495.81
370.445	1522.81
370.672	1532.81
370.898	1511.81
371.124	1578.81
371.35	1549.81
371.576	1530.81
371.802	1562.81
372.028	1524.81
372.254	1559.81
372.48	1541.81
372.706	1580.81
372.932	1528.81
373.158	1520.81
373.384	1581.81
373.61	1549.81
373.835	1553.81
374.061	1565.81
374.287	1566.81
374.513	1547.81
374.739	1599.81
374.965	1593.81
375.191	1575.81
375.416	1600.81
375.642	1587.81
375.868	1541.81
376.094	1546.81
376.319	1549.81
376.545	1551.81
376.771	1539.81
376.997	1492.81
377.222	1503.81
377.448	1474.81
377.674	1494.81
377.899	1507.81
378.125	1529.81
378.35	1497.81
378.576	1487.81
378.802	1488.81
379.027	1504.81
379.253	1499.81
379.478	1494.81
379.704	1478.81
379.929	1495.81
380.155	1479.81
380.38	1473.81
380.606	1467.81
380.831	1476.81
381.057	1492.81
381.282	1472.81
381.507	1473.81
381.733	1485.81
381.958	1494.81
382.184	1495.81
382.409	1517.81
382.634	1538.81
382.86	1533.81
383.085	1561.81
383.31	1560.81
383.535	1586.81
383.761	1549.81
383.986	1594.81
384.211	1561.81
384.436	1577.81
384.662	1583.81
384.887	1611.81
385.112	1614.81
385.337	1636.81
385.562	1643.81
385.787	1613.81
386.013	1689.81
386.238	1656.81
386.463	1658.81
386.688	1673.81
386.913	1681.81
387.138	1683.81
387.363	1675.81
387.588	1696.81
387.813	1672.81
388.038	1677.81
388.263	1698.81
388.488	1693.81
388.713	1690.81
388.938	1694.81
389.163	1664.81
389.387	1684.81
389.612	1712.81
389.837	1714.81
390.062	1681.81
390.287	1695.81
390.512	1683.81
390.736	1742.81
390.961	1786.81
391.186	1720.81
391.411	1770.81
391.636	1780.81
391.86	1776.81
392.085	1764.81
392.31	1754.81
392.534	1819.81
392.759	1784.81
392.984	1783.81
393.208	1832.81
393.433	1775.81
393.658	1743.81
393.882	1767.81
394.107	1768.81
394.331	1731.81
394.556	1757.81
394.78	1799.81
395.005	1829.81
395.229	1774.81
395.454	1802.81
395.678	1820.81
395.903	1791.81
396.127	1847.81
396.352	1842.81
396.576	1837.81
396.801	1893.81
397.025	1816.81
397.249	1878.81
397.474	1887.81
397.698	1902.81
397.922	1939.81
398.147	1921.81
398.371	1979.81
398.595	2002.81
398.82	2026.81
399.044	2129.81
399.268	2206.81
399.492	2291.81
399.717	2351.81
399.941	2400.81
400.165	2321.81
400.389	2331.81
400.613	2221.81
400.837	2188.81
401.062	2171.81
401.286	2161.81
401.51	2120.81
401.734	2061.81
401.958	2094.81
402.182	2021.81
402.406	2065.81
402.63	2066.81
402.854	2040.81
403.078	2088.81
403.302	2064.81
403.526	2066.81
403.75	2063.81
403.974	2083.81
404.198	2091.81
404.422	2093.81
404.645	2074.81
404.869	2097.81
405.093	2130.81
405.317	2123.81
405.541	2116.81
405.765	2122.81
405.988	2115.81
406.212	2164.81
406.436	2181.81
406.66	2244.81
406.883	2222.81
407.107	2276.81
407.331	2302.81
407.555	2368.81
407.778	2357.81
408.002	2316.81
408.226	2316.81
408.449	2323.81
408.673	2327.81
408.896	2257.81
409.12	2269.81
409.344	2230.81
409.567	2214.81
409.791	2220.81
410.014	2180.81
410.238	2163.81
410.461	2187.81
410.685	2139.81
410.908	2166.81
411.132	2113.81
411.355	2150.81
411.578	2135.81
411.802	2131.81
412.025	2127.81
412.249	2140.81
412.472	2144.81
412.695	2098.81
412.919	2132.81
413.142	2109.81
413.365	2100.81
413.589	2134.81
413.812	2093.81
414.035	2064.81
414.258	2114.81
414.482	2114.81
414.705	2113.81
414.928	2106.81
415.151	2078.81
415.374	2057.81
415.597	2081.81
415.821	2033.81
416.044	2026.81
416.267	2076.81
416.49	2056.81
416.713	2015.81
416.936	2025.81
417.159	1997.81
417.382	2008.81
417.605	2010.81
417.828	2013.81
418.051	2038.81
418.274	2000.81
418.497	2001.81
418.72	2049.81
418.943	2006.81
419.166	2157.81
419.389	2262.81
419.611	2209.81
419.834	2193.81
420.057	2128.81
420.28	2072.81
420.503	1992.81
420.726	1999.81
420.948	2015.81
421.171	2039.81
421.394	2023.81
421.617	2018.81
421.839	2061.81
422.062	1996.81
422.285	1966.81
422.507	2051.81
422.73	2072.81
422.953	2027.81
423.175	2033.81
423.398	2016.81
423.621	1992.81
423.843	2085.81
424.066	2029.81
424.288	2061.81
424.511	2032.81
424.733	2069.81
424.956	2023.81
425.178	2043.81
425.401	1982.81
425.623	2078.81
425.846	1994.81
426.068	2020.81
426.291	2010.81
426.513	2006.81
426.735	1990.81
426.958	2006.81
427.18	1983.81
427.402	2008.81
427.625	1999.81
427.847	1953.81
428.069	1951.81
428.292	1982.81
428.514	1977.81
428.736	1952.81
428.958	1956.81
429.181	1915.81
429.403	1936.81
429.625	1976.81
429.847	1929.81
430.069	1947.81
430.292	1965.81
430.514	1923.81
430.736	1995.81
430.958	1981.81
431.18	1931.81
431.402	1953.81
431.624	1978.81
431.846	1939.81
432.068	1960.81
432.29	2010.81
432.512	1958.81
432.734	2000.81
432.956	1982.81
433.178	1964.81
433.4	1963.81
433.622	1993.81
433.844	2023.81
434.066	2016.81
434.287	1992.81
434.509	2025.81
434.731	2037.81
434.953	2076.81
435.175	2057.81
435.397	2078.81
435.618	2029.81
435.84	2041.81
436.062	1972.81
436.284	1946.81
436.505	1957.81
436.727	1979.81
436.949	1965.81
437.17	1938.81
437.392	1941.81
437.614	1914.81
437.835	1897.81
438.057	1893.81
438.278	1844.81
438.5	1854.81
438.721	1901.81
438.943	1921.81
439.165	1905.81
439.386	1911.81
439.608	1954.81
439.829	1944.81
440.05	1923.81
440.272	1936.81
440.493	1987.81
440.715	1996.81
440.936	2014.81
441.158	2016.81
441.379	2010.81
441.6	2021.81
441.822	2035.81
442.043	2044.81
442.264	2043.81
442.486	2013.81
442.707	2052.81
442.928	2067.81
443.149	2047.81
443.371	2054.81
443.592	2109.81
443.813	2114.81
444.034	2053.81
444.255	2068.81
444.476	2127.81
444.698	2152.81
444.919	2222.81
445.14	2196.81
445.361	2186.81
445.582	2095.81
445.803	2095.81
446.024	2012.81
446.245	2025.81
446.466	2058.81
446.687	1972.81
446.908	1974.81
447.129	1934.81
447.35	1931.81
447.571	1925.81
447.792	1869.81
448.013	1876.81
448.234	1866.81
448.455	1848.81
448.675	1822.81
448.896	1865.81
449.117	1814.81
449.338	1826.81
449.559	1847.81
449.779	1799.81
450	1801.81
450.221	1817.81
450.442	1808.81
450.662	1781.81
450.883	1777.81
451.104	1836.81
451.324	1807.81
451.545	1791.81
451.766	1788.81
451.986	1781.81
452.207	1771.81
452.428	1760.81
452.648	1733.81
452.869	1718.81
453.089	1739.81
453.31	1729.81
453.53	1724.81
453.751	1732.81
453.971	1704.81
454.192	1739.81
454.412	1704.81
454.633	1729.81
454.853	1727.81
455.073	1655.81
455.294	1733.81
455.514	1716.81
455.734	1719.81
455.955	1729.81
456.175	1755.81
456.395	1698.81
456.616	1649.81
456.836	1718.81
457.056	1733.81
457.276	1704.81
457.497	1781.81
457.717	1716.81
457.937	1754.81
458.157	1761.81
458.377	1796.81
458.598	1788.81
458.818	1817.81
459.038	1860.81
459.258	1871.81
459.478	1932.81
459.698	1975.81
459.918	1992.81
460.138	2017.81
460.358	2059.81
460.578	2088.81
460.798	2108.81
461.018	2141.81
461.238	2168.81
461.458	2134.81
461.678	2137.81
461.898	2189.81
462.118	2149.81
462.338	2266.81
462.558	2309.81
462.777	2318.81
462.997	2316.81
463.217	2416.81
463.437	2415.81
463.657	2375.81
463.876	2366.81
464.096	2368.81
464.316	2310.81
464.536	2310.81
464.755	2223.81
464.975	2204.81
465.195	2140.81
465.414	2111.81
465.634	2058.81
465.854	2028.81
466.073	2009.81
466.293	1965.81
466.512	1948.81
466.732	1925.81
466.951	1904.81
467.171	1918.81
467.391	1918.81
467.61	1864.81
467.829	1874.81
468.049	1873.81
468.268	1863.81
468.488	1828.81
468.707	1846.81
468.927	1855.81
469.146	1859.81
469.365	1868.81
469.585	1827.81
469.804	1882.81
470.023	1894.81
470.243	1884.81
470.462	1879.81
470.681	1860.81
470.901	1892.81
471.12	1880.81
471.339	1896.81
471.558	1879.81
471.777	1920.81
471.997	1844.81
472.216	1872.81
472.435	1835.81
472.654	1845.81
472.873	1829.81
473.092	1857.81
473.311	1869.81
473.53	1927.81
473.749	1858.81
473.968	1863.81
474.187	1835.81
474.406	1838.81
474.625	1883.81
474.844	1829.81
475.063	1903.81
475.282	1872.81
475.501	1872.81
475.72	1901.81
475.939	1874.81
476.158	1950.81
476.377	1950.81
476.596	1920.81
476.814	2007.81
477.033	1980.81
477.252	1985.81
477.471	2020.81
477.69	2064.81
477.908	2057.81
478.127	2113.81
478.346	2149.81
478.564	2127.81
478.783	2178.81
479.002	2203.81
479.22	2189.81
479.439	2209.81
479.658	2221.81
479.876	2232.81
480.095	2218.81
480.313	2246.81
480.532	2249.81
480.751	2217.81
480.969	2218.81
481.188	2202.81
481.406	2207.81
481.624	2180.81
481.843	2166.81
482.061	2158.81
482.28	2125.81
482.498	2167.81
482.717	2146.81
482.935	2169.81
483.153	2202.81
483.372	2192.81
483.59	2191.81
483.808	2177.81
484.027	2200.81
484.245	2229.81
484.463	2212.81
484.681	2159.81
484.9	2248.81
485.118	2206.81
485.336	2176.81
485.554	2192.81
485.772	2197.81
485.99	2194.81
486.209	2169.81
486.427	2204.81
486.645	2214.81
486.863	2245.81
487.081	2186.81
487.299	2208.81
487.517	2220.81
487.735	2201.81
487.953	2268.81
488.171	2287.81
488.389	2265.81
488.607	2271.81
488.825	2234.81
489.043	2233.81
489.261	2221.81
489.479	2228.81
489.696	2173.81
489.914	2242.81
490.132	2214.81
490.35	2311.81
490.568	2300.81
490.786	2292.81
491.003	2300.81
491.221	2311.81
491.439	2320.81
491.657	2299.81
491.874	2347.81
492.092	2377.81
492.31	2363.81
492.527	2332.81
492.745	2364.81
492.963	2357.81
493.18	2327.81
493.398	2333.81
493.615	2365.81
493.833	2366.81
494.05	2415.81
494.268	2422.81
494.485	2380.81
494.703	2433.81
494.92	2454.81
495.138	2470.81
495.355	2475.81
495.573	2474.81
495.79	2456.81
496.008	2517.81
496.225	2511.81
496.442	2578.81
496.66	2595.81
496.877	2597.81
497.094	2683.81
497.312	2718.81
497.529	2790.81
497.746	2784.81
497.963	2886.81
498.181	2926.81
498.398	3039.81
498.615	3132.81
498.832	3208.81
499.049	3345.81
499.267	3437.81
499.484	3593.81
499.701	3776.81
499.918	3805.81
500.135	4062.81
500.352	4217.81
500.569	4219.81
500.786	4225.81
501.003	4134.81
501.22	4012.81
501.437	3877.81
501.654	3729.81
501.871	3568.81
502.088	3407.81
502.305	3341.81
502.522	3253.81
502.739	3166.81
502.956	3017.81
503.172	2963.81
503.389	2888.81
503.606	2782.81
503.823	2752.81
504.04	2763.81
504.256	2708.81
504.473	2658.81
504.69	2651.81
504.907	2615.81
505.123	2554.81
505.34	2534.81
505.557	2441.81
505.773	2421.81
505.99	2358.81
506.207	2317.81
506.423	2301.81
506.64	2298.81
506.856	2284.81
507.073	2189.81
507.289	2208.81
507.506	2208.81
507.722	2167.81
507.939	2167.81
508.155	2136.81
508.372	2155.81
508.588	2067.81
508.805	2090.81
509.021	2048.81
509.238	2051.81
509.454	2041.81
509.67	1995.81
509.887	2011.81
510.103	1992.81
510.319	1924.81
510.536	2005.81
510.752	1991.81
510.968	1989.81
511.184	1963.81
511.401	1984.81
511.617	1978.81
511.833	1963.81
512.049	1980.81
512.265	1983.81
512.481	1979.81
512.698	1962.81
512.914	1977.81
513.13	1937.81
513.346	1959.81
513.562	1944.81
513.778	1956.81
513.994	1954.81
514.21	1984.81
514.426	1954.81
514.642	2000.81
514.858	2022.81
515.074	1987.81
515.29	2038.81
515.506	2026.81
515.721	2020.81
515.937	2059.81
516.153	2073.81
516.369	2064.81
516.585	2117.81
516.801	2103.81
517.016	2182.81
517.232	2168.81
517.448	2203.81
517.664	2269.81
517.879	2244.81
518.095	2244.81
518.311	2198.81
518.527	2184.81
518.742	2116.81
518.958	2159.81
519.173	2092.81
519.389	2073.81
519.605	2032.81
519.82	2012.81
520.036	2037.81
520.251	1985.81
520.467	1931.81
520.682	1984.81
520.898	1897.81
521.113	1915.81
521.329	1884.81
521.544	1871.81
521.76	1856.81
521.975	1855.81
522.19	1849.81
522.406	1821.81
522.621	1860.81
522.836	1846.81
523.052	1840.81
523.267	1844.81
523.482	1813.81
523.698	1789.81
523.913	1746.81
524.128	1788.81
524.343	1796.81
524.559	1754.81
524.774	1810.81
524.989	1802.81
525.204	1770.81
525.419	1806.81
525.634	1737.81
525.849	1751.81
526.064	1777.81
526.28	1750.81
526.495	1746.81
526.71	1716.81
526.925	1739.81
527.14	1704.81
527.355	1736.81
527.57	1688.81
527.785	1689.81
527.999	1686.81
528.214	1713.81
528.429	1693.81
528.644	1704.81
528.859	1722.81
529.074	1717.81
529.289	1699.81
529.503	1696.81
529.718	1723.81
529.933	1676.81
530.148	1693.81
530.363	1679.81
530.577	1675.81
530.792	1656.81
531.007	1665.81
531.221	1695.81
531.436	1690.81
531.651	1678.81
531.865	1659.81
532.08	1666.81
532.295	1654.81
532.509	1622.81
532.724	1663.81
532.938	1634.81
533.153	1667.81
533.367	1664.81
533.582	1677.81
533.796	1661.81
534.011	1683.81
534.225	1627.81
534.44	1637.81
534.654	1608.81
534.868	1600.81
535.083	1625.81
535.297	1603.81
535.511	1598.81
535.726	1583.81
535.94	1607.81
536.154	1604.81
536.369	1583.81
536.583	1570.81
536.797	1581.81
537.011	1561.81
537.225	1599.81
537.44	1548.81
537.654	1593.81
537.868	1570.81
538.082	1565.81
538.296	1573.81
538.51	1561.81
538.724	1555.81
538.938	1538.81
539.153	1520.81
539.367	1526.81
539.581	1559.81
539.795	1508.81
540.009	1515.81
540.222	1473.81
540.436	1527.81
540.65	1504.81
540.864	1500.81
541.078	1504.81
541.292	1510.81
541.506	1505.81
541.72	1548.81
541.934	1559.81
542.147	1549.81
542.361	1522.81
542.575	1479.81
542.789	1491.81
543.002	1484.81
543.216	1466.81
543.43	1476.81
543.644	1456.81
543.857	1511.81
544.071	1490.81
544.285	1489.81
544.498	1520.81
544.712	1477.81
544.925	1537.81
545.139	1497.81
545.352	1503.81
545.566	1524.81
545.779	1500.81
545.993	1533.81
546.206	1498.81
546.42	1514.81
546.633	1514.81
546.847	1512.81
547.06	1507.81
547.274	1492.81
547.487	1526.81
547.7	1527.81
547.914	1525.81
548.127	1523.81
548.34	1520.81
548.554	1497.81
548.767	1490.81
548.98	1509.81
549.193	1510.81
549.407	1492.81
549.62	1525.81
549.833	1489.81
550.046	1494.81
550.259	1471.81
550.473	1463.81
550.686	1464.81
550.899	1468.81
551.112	1495.81
551.325	1507.81
551.538	1482.81
551.751	1511.81
551.964	1496.81
552.177	1494.81
552.39	1533.81
552.603	1502.81
552.816	1508.81
553.029	1512.81
553.242	1530.81
553.455	1532.81
553.667	1535.81
553.88	1516.81
554.093	1474.81
554.306	1487.81
554.519	1454.81
554.732	1440.81
554.944	1430.81
555.157	1417.81
555.37	1398.81
555.583	1401.81
555.795	1399.81
556.008	1364.81
556.221	1362.81
556.433	1355.81
556.646	1359.81
556.859	1334.81
557.071	1310.81
557.284	1325.81
557.496	1308.81
557.709	1306.81
557.921	1292.81
558.134	1310.81
558.346	1290.81
558.559	1236.81
558.771	1264.81
558.984	1273.81
559.196	1233.81
559.409	1288.81
559.621	1266.81
559.833	1264.81
560.046	1248.81
560.258	1234.81
560.47	1240.81
560.683	1243.81
560.895	1276.81
561.107	1220.81
561.32	1238.81
561.532	1237.81
561.744	1254.81
561.956	1208.81
562.168	1231.81
562.381	1225.81
562.593	1253.81
562.805	1272.81
563.017	1284.81
563.229	1271.81
563.441	1256.81
563.653	1257.81
563.865	1314.81
564.077	1301.81
564.289	1286.81
564.501	1297.81
564.713	1311.81
564.925	1330.81
565.137	1376.81
565.349	1372.81
565.561	1426.81
565.773	1408.81
565.985	1430.81
566.197	1431.81
566.408	1521.81
566.62	1554.81
566.832	1560.81
567.044	1606.81
567.255	1598.81
567.467	1645.81
567.679	1623.81
567.891	1608.81
568.102	1578.81
568.314	1526.81
568.526	1540.81
568.737	1460.81
568.949	1455.81
569.161	1368.81
569.372	1348.81
569.584	1293.81
569.795	1328.81
570.007	1270.81
570.218	1237.81
570.43	1242.81
570.641	1219.81
570.853	1224.81
571.064	1199.81
571.276	1177.81
571.487	1147.81
571.698	1137.81
571.91	1095.81
572.121	1104.81
572.333	1094.81
572.544	1052.81
572.755	1079.81
572.966	1047.81
573.178	1055.81
573.389	1028.81
573.6	1009.81
573.811	1017.81
574.023	1009.81
574.234	1014.81
574.445	989.81
574.656	977.81
574.867	949.81
575.078	971.81
575.289	960.81
575.501	958.81
575.712	961.81
575.923	967.81
576.134	956.81
576.345	907.81
576.556	912.81
576.767	939.81
576.978	930.81
577.188	929.81
577.399	909.81
577.61	915.81
577.821	897.81
578.032	912.81
578.243	878.81
578.454	871.81
578.665	879.81
578.875	885.81
579.086	880.81
579.297	884.81
579.508	861.81
579.718	855.81
579.929	881.81
580.14	859.81
580.35	833.81
580.561	865.81
580.772	869.81
580.982	822.81
581.193	864.81
581.403	826.81
581.614	828.81
581.825	836.81
582.035	836.81
582.246	847.81
582.456	837.81
582.667	794.81
582.877	838.81
583.087	789.81
583.298	834.81
583.508	810.81
583.719	810.81
583.929	794.81
584.139	824.81
584.35	802.81
584.56	796.81
584.77	811.81
584.981	799.81
585.191	789.81
585.401	778.81
585.611	806.81
585.821	793.81
586.032	790.81
586.242	802.81
586.452	788.81
586.662	794.81
586.872	784.81
587.082	782.81
587.292	759.81
587.502	774.81
587.713	765.81
587.923	773.81
588.133	784.81
588.343	756.81
588.553	776.81
588.762	766.81
588.972	785.81
589.182	815.81
589.392	798.81
589.602	755.81
589.812	784.81
590.022	780.81
590.232	739.81
590.441	776.81
590.651	780.81
590.861	773.81
591.071	781.81
591.281	802.81
591.49	806.81
591.7	787.81
591.91	784.81
592.119	782.81
592.329	795.81
592.539	813.81
592.748	806.81
592.958	798.81
593.167	805.81
593.377	801.81
593.587	804.81
593.796	805.81
594.006	843.81
594.215	830.81
594.424	808.81
594.634	777.81
594.843	806.81
595.053	785.81
595.262	792.81
595.472	742.81
595.681	733.81
595.89	745.81
596.1	711.81
596.309	734.81
596.518	722.81
596.727	717.81
596.937	711.81
597.146	718.81
597.355	696.81
597.564	685.81
597.774	673.81
597.983	660.81
598.192	659.81
598.401	657.81
598.61	652.81
598.819	653.81
599.028	668.81
599.237	638.81
599.446	634.81
599.655	637.81
599.864	624.81
600.073	644.81
600.282	603.81
600.491	630.81
600.7	602.81
600.909	632.81
601.118	612.81
601.327	609.81
601.536	596.81
601.745	622.81
601.953	614.81
602.162	606.81
602.371	623.81
602.58	605.81
602.789	601.81
602.997	619.81
603.206	597.81
603.415	580.81
603.623	584.81
603.832	576.81
604.041	595.81
604.249	590.81
604.458	571.81
604.666	582.81
604.875	589.81
605.084	553.81
605.292	570.81
605.501	572.81
605.709	566.81
605.918	552.81
606.126	557.81
606.334	570.81
606.543	570.81
606.751	566.81
606.96	547.81
607.168	538.81
607.376	544.81
607.585	538.81
607.793	557.81
608.001	560.81
608.21	548.81
608.418	572.81
608.626	540.81
608.834	539.81
609.043	556.81
609.251	543.81
609.459	511.81
609.667	563.81
609.875	530.81
610.083	552.81
610.291	529.81
610.499	546.81
610.707	525.81
610.916	526.81
611.124	544.81
611.332	549.81
611.54	539.81
611.748	546.81
611.955	524.81
612.163	502.81
612.371	523.81
612.579	526.81
612.787	529.81
612.995	521.81
613.203	526.81
613.411	537.81
613.618	528.81
613.826	497.81
614.034	517.81
614.242	495.81
614.449	506.81
614.657	500.81
614.865	497.81
615.072	521.81
615.28	509.81
615.488	489.81
615.695	520.81
615.903	509.81
616.111	504.81
616.318	518.81
616.526	517.81
616.733	494.81
616.941	519.81
617.148	510.81
617.356	501.81
617.563	503.81
617.771	504.81
617.978	472.81
618.185	480.81
618.393	496.81
618.6	495.81
618.807	495.81
619.015	493.81
619.222	482.81
619.429	458.81
619.637	476.81
619.844	462.81
620.051	483.81
620.258	456.81
620.466	486.81
620.673	441.81
620.88	462.81
621.087	484.81
621.294	470.81
621.501	482.81
621.708	477.81
621.915	464.81
622.122	450.81
622.329	457.81
622.536	469.81
622.743	477.81
622.95	484.81
623.157	445.81
623.364	462.81
623.571	459.81
623.778	444.81
623.985	444.81
624.192	439.81
624.399	443.81
624.606	439.81
624.812	428.81
625.019	432.81
625.226	447.81
625.433	452.81
625.639	459.81
625.846	434.81
626.053	426.81
626.259	441.81
626.466	425.81
626.673	408.81
626.879	422.81
627.086	430.81
627.293	402.81
627.499	410.81
627.706	421.81
627.912	424.81
628.119	409.81
628.325	420.81
628.532	416.81
628.738	409.81
628.945	400.81
629.151	413.81
629.357	405.81
629.564	387.81
629.77	394.81
629.976	382.81
630.183	404.81
630.389	423.81
630.595	400.81
630.802	383.81
631.008	377.81
631.214	394.81
631.42	397.81
631.627	406.81
631.833	377.81
632.039	376.81
632.245	401.81
632.451	382.81
632.657	390.81
632.863	373.81
633.069	374.81
633.275	348.81
633.481	358.81
633.688	391.81
633.893	394.81
634.099	373.81
634.305	364.81
634.511	374.81
634.717	368.81
634.923	361.81
635.129	371.81
635.335	345.81
635.541	356.81
635.747	361.81
635.952	358.81
636.158	364.81
636.364	346.81
636.57	348.81
636.775	355.81
636.981	354.81
637.187	369.81
637.392	351.81
637.598	354.81
637.804	340.81
638.009	349.81
638.215	336.81
638.421	342.81
638.626	339.81
638.832	339.81
639.037	336.81
639.243	351.81
639.448	335.81
639.654	342.81
639.859	331.81
640.065	335.81
640.27	332.81
640.475	335.81
640.681	363.81
640.886	336.81
641.091	332.81
641.297	341.81
641.502	328.81
641.707	340.81
641.913	318.81
642.118	334.81
642.323	349.81
642.528	319.81
642.733	319.81
642.939	318.81
643.144	312.81
643.349	317.81
643.554	331.81
643.759	327.81
643.964	333.81
644.169	318.81
644.374	314.81
644.579	323.81
644.784	318.81
644.989	335.81
645.194	338.81
645.399	329.81
645.604	332.81
645.809	319.81
646.014	322.81
646.219	309.81
646.423	332.81
646.628	298.81
646.833	332.81
647.038	305.81
647.243	310.81
647.447	309.81
647.652	299.81
647.857	329.81
648.062	337.81
648.266	315.81
648.471	328.81
648.676	333.81
648.88	329.81
649.085	323.81
649.289	301.81
649.494	300.81
649.698	308.81
649.903	310.81
650.107	292.81
650.312	306.81
650.516	281.81
650.721	304.81
650.925	296.81
651.13	297.81
651.334	290.81
651.539	303.81
651.743	280.81
651.947	281.81
652.152	278.81
652.356	270.81
652.56	264.81
652.764	274.81
652.969	272.81
653.173	273.81
653.377	249.81
653.581	262.81
653.785	261.81
653.99	238.81
654.194	219.81
654.398	247.81
654.602	253.81
654.806	244.81
655.01	236.81
655.214	248.81
655.418	244.81
655.622	237.81
655.826	220.81
656.03	219.81
656.234	229.81
656.438	213.81
656.642	208.81
656.846	218.81
657.049	202.81
657.253	201.81
657.457	197.81
657.661	189.81
657.865	194.81
658.068	176.81
658.272	160.81
658.476	164.81
658.68	166.81
658.883	155.81
659.087	152.81
659.291	144.81
659.494	142.81
659.698	128.81
659.901	138.81
660.105	129.81
660.309	129.81
660.512	128.81
660.716	118.81
660.919	117.81
661.123	126.81
661.326	126.81
661.53	120.81
661.733	102.81
661.936	110.81
662.14	94.81
662.343	98.81
662.546	98.81
662.75	96.81
662.953	86.81
663.156	95.81
663.36	86.81
663.563	108.81
663.766	87.81
663.969	83.81
664.173	85.81
664.376	97.81
664.579	97.81
664.782	88.81
664.985	90.81
665.188	85.81
665.391	75.81
665.594	79.81
665.797	84.81
666	84.81
666.203	86.81
666.406	96.81
666.609	79.81
666.812	85.81
667.015	94.81
667.218	91.81
667.421	91.81
667.624	82.81
667.827	96.81
668.03	81.81
668.232	77.81
668.435	96.81
668.638	92.81
668.841	86.81
669.043	65.81
669.246	79.81
669.449	86.81
669.651	82.81
669.854	72.81
670.057	85.81
670.259	79.81
670.462	84.81
670.665	85.81
670.867	76.81
671.07	77.81
671.272	72.81
671.475	75.81
671.677	91.81
671.88	90.81
672.082	100.81
672.284	90.81
672.487	90.81
672.689	70.81
672.892	79.81
