Data from Ni(NO3)2@0.5M.TitratingCurve.Agarose3%dH2O.NegLispCup.LampEnergy10.LIBS07252019_HRD10591_17-59-20-565.txt Node
Date: Thu Jul 25 17:59:20 EDT 2019
User: cochatt
Spectrometer: HR+D1059
Trigger mode: 1
Integration Time (sec): 1.000000E-1
Scans to average: 1
Electric dark correction enabled: true
Nonlinearity correction enabled: false
Boxcar width: 0
XAxis mode: Wavelengths
Number of Pixels in Spectrum: 2048
>>>>>Begin Spectral Data<<<<<
223.165	-19.44
223.4	-19.44
223.635	-19.44
223.869	-12.44
224.104	-12.44
224.338	-10.44
224.573	-27.44
224.808	-10.44
225.042	5.56
225.277	-11.44
225.511	-7.44
225.746	4.56
225.98	3.56
226.215	18.56
226.449	22.56
226.683	14.56
226.918	22.56
227.152	19.56
227.387	44.56
227.621	36.56
227.856	45.56
228.09	37.56
228.324	54.56
228.559	67.56
228.793	72.56
229.027	111.56
229.262	100.56
229.496	124.56
229.73	128.56
229.964	142.56
230.199	173.56
230.433	162.56
230.667	170.56
230.901	150.56
231.136	138.56
231.37	145.56
231.604	160.56
231.838	149.56
232.072	166.56
232.306	156.56
232.541	134.56
232.775	137.56
233.009	139.56
233.243	159.56
233.477	135.56
233.711	140.56
233.945	141.56
234.179	142.56
234.413	136.56
234.647	154.56
234.881	154.56
235.115	147.56
235.349	118.56
235.583	133.56
235.817	139.56
236.051	137.56
236.285	147.56
236.519	128.56
236.753	140.56
236.987	147.56
237.221	163.56
237.455	148.56
237.689	127.56
237.922	154.56
238.156	152.56
238.39	140.56
238.624	142.56
238.858	149.56
239.091	156.56
239.325	150.56
239.559	161.56
239.793	157.56
240.027	192.56
240.26	164.56
240.494	138.56
240.728	173.56
240.961	173.56
241.195	181.56
241.429	165.56
241.662	170.56
241.896	156.56
242.13	185.56
242.363	164.56
242.597	173.56
242.83	184.56
243.064	161.56
243.298	176.56
243.531	167.56
243.765	171.56
243.998	190.56
244.232	177.56
244.465	179.56
244.699	161.56
244.932	185.56
245.166	176.56
245.399	174.56
245.633	170.56
245.866	180.56
246.099	170.56
246.333	188.56
246.566	173.56
246.8	180.56
247.033	196.56
247.266	185.56
247.5	182.56
247.733	200.56
247.966	191.56
248.2	205.56
248.433	183.56
248.666	196.56
248.899	209.56
249.133	196.56
249.366	196.56
249.599	218.56
249.832	201.56
250.066	189.56
250.299	185.56
250.532	206.56
250.765	220.56
250.998	219.56
251.231	232.56
251.465	226.56
251.698	242.56
251.931	233.56
252.164	233.56
252.397	220.56
252.63	249.56
252.863	210.56
253.096	208.56
253.329	215.56
253.562	235.56
253.795	213.56
254.028	222.56
254.261	233.56
254.494	237.56
254.727	225.56
254.96	258.56
255.193	243.56
255.426	236.56
255.659	223.56
255.892	236.56
256.124	223.56
256.357	225.56
256.59	235.56
256.823	260.56
257.056	252.56
257.289	244.56
257.521	234.56
257.754	250.56
257.987	237.56
258.22	240.56
258.452	256.56
258.685	243.56
258.918	257.56
259.151	249.56
259.383	286.56
259.616	265.56
259.849	267.56
260.081	253.56
260.314	270.56
260.547	259.56
260.779	266.56
261.012	260.56
261.244	265.56
261.477	279.56
261.71	271.56
261.942	283.56
262.175	280.56
262.407	271.56
262.64	268.56
262.872	258.56
263.105	256.56
263.337	271.56
263.57	287.56
263.802	288.56
264.035	296.56
264.267	296.56
264.499	289.56
264.732	267.56
264.964	265.56
265.197	272.56
265.429	275.56
265.661	279.56
265.894	317.56
266.126	296.56
266.358	288.56
266.591	292.56
266.823	314.56
267.055	320.56
267.287	308.56
267.52	286.56
267.752	301.56
267.984	334.56
268.216	297.56
268.448	296.56
268.681	301.56
268.913	302.56
269.145	312.56
269.377	294.56
269.609	322.56
269.841	306.56
270.073	299.56
270.306	288.56
270.538	328.56
270.77	324.56
271.002	321.56
271.234	310.56
271.466	324.56
271.698	341.56
271.93	321.56
272.162	328.56
272.394	330.56
272.626	320.56
272.858	325.56
273.09	324.56
273.322	333.56
273.553	326.56
273.785	341.56
274.017	332.56
274.249	334.56
274.481	317.56
274.713	335.56
274.945	339.56
275.176	343.56
275.408	352.56
275.64	350.56
275.872	353.56
276.104	342.56
276.335	345.56
276.567	349.56
276.799	356.56
277.031	335.56
277.262	353.56
277.494	352.56
277.726	357.56
277.957	373.56
278.189	356.56
278.421	325.56
278.652	348.56
278.884	360.56
279.115	362.56
279.347	379.56
279.579	352.56
279.81	358.56
280.042	373.56
280.273	361.56
280.505	372.56
280.736	357.56
280.968	376.56
281.199	384.56
281.431	377.56
281.662	377.56
281.894	387.56
282.125	388.56
282.356	384.56
282.588	383.56
282.819	376.56
283.051	363.56
283.282	396.56
283.513	386.56
283.745	406.56
283.976	397.56
284.207	413.56
284.439	392.56
284.67	404.56
284.901	401.56
285.132	389.56
285.364	361.56
285.595	392.56
285.826	412.56
286.057	375.56
286.288	389.56
286.52	411.56
286.751	399.56
286.982	397.56
287.213	378.56
287.444	391.56
287.675	404.56
287.906	399.56
288.138	402.56
288.369	421.56
288.6	413.56
288.831	419.56
289.062	406.56
289.293	413.56
289.524	403.56
289.755	413.56
289.986	415.56
290.217	415.56
290.448	389.56
290.679	407.56
290.91	410.56
291.141	392.56
291.371	426.56
291.602	422.56
291.833	407.56
292.064	411.56
292.295	406.56
292.526	402.56
292.757	412.56
292.987	402.56
293.218	413.56
293.449	424.56
293.68	429.56
293.91	411.56
294.141	417.56
294.372	422.56
294.603	437.56
294.833	414.56
295.064	421.56
295.295	406.56
295.525	414.56
295.756	424.56
295.987	433.56
296.217	438.56
296.448	447.56
296.679	433.56
296.909	421.56
297.14	430.56
297.37	429.56
297.601	445.56
297.831	425.56
298.062	453.56
298.292	409.56
298.523	466.56
298.753	449.56
298.984	456.56
299.214	423.56
299.445	454.56
299.675	456.56
299.905	458.56
300.136	472.56
300.366	469.56
300.597	491.56
300.827	489.56
301.057	471.56
301.288	478.56
301.518	466.56
301.748	465.56
301.979	493.56
302.209	457.56
302.439	468.56
302.669	473.56
302.9	474.56
303.13	467.56
303.36	468.56
303.59	448.56
303.82	480.56
304.051	496.56
304.281	484.56
304.511	475.56
304.741	473.56
304.971	502.56
305.201	528.56
305.431	524.56
305.661	501.56
305.891	485.56
306.121	496.56
306.352	485.56
306.582	474.56
306.812	471.56
307.042	474.56
307.272	483.56
307.502	492.56
307.731	475.56
307.961	467.56
308.191	474.56
308.421	487.56
308.651	480.56
308.881	494.56
309.111	485.56
309.341	484.56
309.571	490.56
309.8	505.56
310.03	500.56
310.26	513.56
310.49	530.56
310.72	494.56
310.949	477.56
311.179	514.56
311.409	491.56
311.639	516.56
311.868	504.56
312.098	496.56
312.328	497.56
312.557	521.56
312.787	517.56
313.017	521.56
313.246	518.56
313.476	527.56
313.706	547.56
313.935	527.56
314.165	497.56
314.394	509.56
314.624	494.56
314.853	522.56
315.083	508.56
315.312	534.56
315.542	538.56
315.771	524.56
316.001	512.56
316.23	529.56
316.46	521.56
316.689	539.56
316.919	539.56
317.148	534.56
317.377	532.56
317.607	535.56
317.836	536.56
318.065	526.56
318.295	537.56
318.524	550.56
318.753	546.56
318.983	535.56
319.212	564.56
319.441	547.56
319.67	542.56
319.9	533.56
320.129	543.56
320.358	542.56
320.587	526.56
320.816	530.56
321.046	561.56
321.275	552.56
321.504	576.56
321.733	578.56
321.962	579.56
322.191	562.56
322.42	556.56
322.649	548.56
322.878	589.56
323.108	560.56
323.337	558.56
323.566	560.56
323.795	571.56
324.024	568.56
324.253	568.56
324.482	602.56
324.71	581.56
324.939	572.56
325.168	573.56
325.397	565.56
325.626	568.56
325.855	576.56
326.084	586.56
326.313	587.56
326.542	568.56
326.77	597.56
326.999	579.56
327.228	589.56
327.457	576.56
327.686	567.56
327.914	614.56
328.143	614.56
328.372	596.56
328.6	597.56
328.829	599.56
329.058	594.56
329.287	599.56
329.515	607.56
329.744	598.56
329.972	594.56
330.201	620.56
330.43	602.56
330.658	603.56
330.887	617.56
331.115	633.56
331.344	627.56
331.572	616.56
331.801	615.56
332.03	630.56
332.258	630.56
332.486	656.56
332.715	646.56
332.943	632.56
333.172	653.56
333.4	664.56
333.629	666.56
333.857	668.56
334.085	673.56
334.314	691.56
334.542	693.56
334.771	696.56
334.999	678.56
335.227	700.56
335.455	684.56
335.684	712.56
335.912	686.56
336.14	697.56
336.369	667.56
336.597	710.56
336.825	696.56
337.053	693.56
337.281	702.56
337.51	685.56
337.738	679.56
337.966	692.56
338.194	704.56
338.422	677.56
338.65	630.56
338.878	655.56
339.106	684.56
339.334	676.56
339.562	653.56
339.79	664.56
340.018	639.56
340.246	633.56
340.474	636.56
340.702	653.56
340.93	657.56
341.158	636.56
341.386	677.56
341.614	686.56
341.842	699.56
342.07	650.56
342.298	658.56
342.526	670.56
342.754	651.56
342.981	649.56
343.209	655.56
343.437	672.56
343.665	691.56
343.893	680.56
344.12	700.56
344.348	677.56
344.576	698.56
344.804	701.56
345.031	678.56
345.259	670.56
345.487	660.56
345.714	645.56
345.942	682.56
346.17	700.56
346.397	674.56
346.625	646.56
346.853	647.56
347.08	625.56
347.308	659.56
347.535	650.56
347.763	626.56
347.99	622.56
348.218	636.56
348.445	610.56
348.673	628.56
348.9	603.56
349.128	607.56
349.355	653.56
349.583	642.56
349.81	618.56
350.037	604.56
350.265	625.56
350.492	624.56
350.72	616.56
350.947	604.56
351.174	653.56
351.402	657.56
351.629	650.56
351.856	657.56
352.083	628.56
352.311	651.56
352.538	666.56
352.765	640.56
352.992	640.56
353.22	610.56
353.447	604.56
353.674	600.56
353.901	598.56
354.128	590.56
354.355	609.56
354.583	600.56
354.81	600.56
355.037	604.56
355.264	632.56
355.491	608.56
355.718	601.56
355.945	601.56
356.172	606.56
356.399	614.56
356.626	616.56
356.853	630.56
357.08	621.56
357.307	642.56
357.534	611.56
357.761	621.56
357.988	611.56
358.215	594.56
358.441	628.56
358.668	594.56
358.895	609.56
359.122	606.56
359.349	617.56
359.576	609.56
359.802	599.56
360.029	605.56
360.256	615.56
360.483	622.56
360.709	586.56
360.936	632.56
361.163	618.56
361.39	630.56
361.616	644.56
361.843	649.56
362.07	658.56
362.296	618.56
362.523	613.56
362.749	630.56
362.976	604.56
363.203	620.56
363.429	617.56
363.656	613.56
363.882	635.56
364.109	631.56
364.335	631.56
364.562	601.56
364.788	609.56
365.015	603.56
365.241	621.56
365.468	627.56
365.694	613.56
365.92	624.56
366.147	617.56
366.373	624.56
366.599	628.56
366.826	611.56
367.052	634.56
367.278	628.56
367.505	617.56
367.731	632.56
367.957	652.56
368.184	621.56
368.41	635.56
368.636	629.56
368.862	661.56
369.089	657.56
369.315	637.56
369.541	652.56
369.767	644.56
369.993	638.56
370.219	632.56
370.445	619.56
370.672	653.56
370.898	658.56
371.124	635.56
371.35	660.56
371.576	663.56
371.802	663.56
372.028	653.56
372.254	646.56
372.48	658.56
372.706	685.56
372.932	677.56
373.158	645.56
373.384	668.56
373.61	641.56
373.835	684.56
374.061	659.56
374.287	677.56
374.513	683.56
374.739	692.56
374.965	680.56
375.191	687.56
375.416	694.56
375.642	673.56
375.868	656.56
376.094	656.56
376.319	661.56
376.545	655.56
376.771	653.56
376.997	669.56
377.222	665.56
377.448	655.56
377.674	666.56
377.899	647.56
378.125	658.56
378.35	629.56
378.576	648.56
378.802	671.56
379.027	652.56
379.253	653.56
379.478	661.56
379.704	669.56
379.929	651.56
380.155	647.56
380.38	649.56
380.606	642.56
380.831	664.56
381.057	676.56
381.282	635.56
381.507	632.56
381.733	674.56
381.958	677.56
382.184	646.56
382.409	664.56
382.634	668.56
382.86	677.56
383.085	691.56
383.31	685.56
383.535	697.56
383.761	667.56
383.986	698.56
384.211	684.56
384.436	712.56
384.662	711.56
384.887	699.56
385.112	685.56
385.337	707.56
385.562	703.56
385.787	736.56
386.013	741.56
386.238	728.56
386.463	733.56
386.688	749.56
386.913	749.56
387.138	729.56
387.363	770.56
387.588	724.56
387.813	739.56
388.038	723.56
388.263	706.56
388.488	752.56
388.713	748.56
388.938	745.56
389.163	736.56
389.387	747.56
389.612	730.56
389.837	735.56
390.062	729.56
390.287	730.56
390.512	739.56
390.736	758.56
390.961	763.56
391.186	770.56
391.411	786.56
391.636	756.56
391.86	788.56
392.085	794.56
392.31	799.56
392.534	786.56
392.759	762.56
392.984	793.56
393.208	761.56
393.433	786.56
393.658	781.56
393.882	768.56
394.107	763.56
394.331	779.56
394.556	782.56
394.78	754.56
395.005	779.56
395.229	771.56
395.454	804.56
395.678	790.56
395.903	792.56
396.127	807.56
396.352	810.56
396.576	794.56
396.801	786.56
397.025	795.56
397.249	813.56
397.474	813.56
397.698	824.56
397.922	837.56
398.147	806.56
398.371	841.56
398.595	862.56
398.82	885.56
399.044	862.56
399.268	926.56
399.492	964.56
399.717	962.56
399.941	981.56
400.165	1001.56
400.389	955.56
400.613	938.56
400.837	899.56
401.062	895.56
401.286	882.56
401.51	868.56
401.734	861.56
401.958	889.56
402.182	871.56
402.406	890.56
402.63	868.56
402.854	850.56
403.078	871.56
403.302	861.56
403.526	860.56
403.75	876.56
403.974	883.56
404.198	860.56
404.422	889.56
404.645	884.56
404.869	896.56
405.093	900.56
405.317	901.56
405.541	908.56
405.765	907.56
405.988	895.56
406.212	931.56
406.436	924.56
406.66	938.56
406.883	920.56
407.107	960.56
407.331	1003.56
407.555	1005.56
407.778	1016.56
408.002	969.56
408.226	996.56
408.449	1010.56
408.673	1005.56
408.896	948.56
409.12	928.56
409.344	937.56
409.567	955.56
409.791	955.56
410.014	920.56
410.238	916.56
410.461	938.56
410.685	916.56
410.908	904.56
411.132	910.56
411.355	894.56
411.578	915.56
411.802	901.56
412.025	924.56
412.249	920.56
412.472	908.56
412.695	893.56
412.919	908.56
413.142	926.56
413.365	856.56
413.589	882.56
413.812	890.56
414.035	888.56
414.258	884.56
414.482	872.56
414.705	877.56
414.928	853.56
415.151	866.56
415.374	877.56
415.597	872.56
415.821	860.56
416.044	878.56
416.267	839.56
416.49	854.56
416.713	867.56
416.936	857.56
417.159	845.56
417.382	830.56
417.605	827.56
417.828	832.56
418.051	861.56
418.274	841.56
418.497	824.56
418.72	850.56
418.943	834.56
419.166	849.56
419.389	907.56
419.611	877.56
419.834	860.56
420.057	892.56
420.28	865.56
420.503	856.56
420.726	844.56
420.948	844.56
421.171	858.56
421.394	838.56
421.617	826.56
421.839	853.56
422.062	856.56
422.285	832.56
422.507	825.56
422.73	846.56
422.953	857.56
423.175	834.56
423.398	844.56
423.621	842.56
423.843	871.56
424.066	819.56
424.288	853.56
424.511	839.56
424.733	824.56
424.956	819.56
425.178	846.56
425.401	836.56
425.623	865.56
425.846	805.56
426.068	854.56
426.291	826.56
426.513	809.56
426.735	796.56
426.958	820.56
427.18	807.56
427.402	830.56
427.625	820.56
427.847	794.56
428.069	799.56
428.292	843.56
428.514	809.56
428.736	813.56
428.958	822.56
429.181	796.56
429.403	798.56
429.625	778.56
429.847	800.56
430.069	798.56
430.292	825.56
430.514	801.56
430.736	821.56
430.958	797.56
431.18	796.56
431.402	804.56
431.624	800.56
431.846	798.56
432.068	806.56
432.29	842.56
432.512	794.56
432.734	824.56
432.956	797.56
433.178	836.56
433.4	836.56
433.622	849.56
433.844	840.56
434.066	843.56
434.287	853.56
434.509	836.56
434.731	848.56
434.953	857.56
435.175	880.56
435.397	894.56
435.618	840.56
435.84	844.56
436.062	820.56
436.284	819.56
436.505	809.56
436.727	843.56
436.949	852.56
437.17	828.56
437.392	809.56
437.614	818.56
437.835	773.56
438.057	758.56
438.278	788.56
438.5	786.56
438.721	782.56
438.943	806.56
439.165	792.56
439.386	829.56
439.608	804.56
439.829	809.56
440.05	802.56
440.272	808.56
440.493	831.56
440.715	831.56
440.936	822.56
441.158	828.56
441.379	838.56
441.6	870.56
441.822	893.56
442.043	845.56
442.264	856.56
442.486	802.56
442.707	862.56
442.928	843.56
443.149	870.56
443.371	877.56
443.592	909.56
443.813	904.56
444.034	878.56
444.255	888.56
444.476	896.56
444.698	905.56
444.919	925.56
445.14	1034.56
445.361	962.56
445.582	902.56
445.803	846.56
446.024	837.56
446.245	852.56
446.466	816.56
446.687	788.56
446.908	828.56
447.129	781.56
447.35	792.56
447.571	792.56
447.792	772.56
448.013	762.56
448.234	774.56
448.455	753.56
448.675	761.56
448.896	747.56
449.117	727.56
449.338	755.56
449.559	749.56
449.779	755.56
450	742.56
450.221	744.56
450.442	706.56
450.662	752.56
450.883	736.56
451.104	773.56
451.324	744.56
451.545	727.56
451.766	754.56
451.986	712.56
452.207	724.56
452.428	716.56
452.648	752.56
452.869	709.56
453.089	732.56
453.31	766.56
453.53	728.56
453.751	708.56
453.971	726.56
454.192	736.56
454.412	738.56
454.633	727.56
454.853	717.56
455.073	724.56
455.294	746.56
455.514	729.56
455.734	740.56
455.955	766.56
456.175	744.56
456.395	705.56
456.616	712.56
456.836	731.56
457.056	693.56
457.276	720.56
457.497	750.56
457.717	749.56
457.937	768.56
458.157	736.56
458.377	738.56
458.598	743.56
458.818	724.56
459.038	780.56
459.258	781.56
459.478	819.56
459.698	860.56
459.918	856.56
460.138	867.56
460.358	883.56
460.578	886.56
460.798	925.56
461.018	917.56
461.238	875.56
461.458	844.56
461.678	837.56
461.898	887.56
462.118	917.56
462.338	890.56
462.558	935.56
462.777	962.56
462.997	990.56
463.217	997.56
463.437	1037.56
463.657	1027.56
463.876	975.56
464.096	943.56
464.316	948.56
464.536	938.56
464.755	928.56
464.975	883.56
465.195	858.56
465.414	850.56
465.634	836.56
465.854	833.56
466.073	822.56
466.293	804.56
466.512	796.56
466.732	795.56
466.951	799.56
467.171	813.56
467.391	794.56
467.61	808.56
467.829	785.56
468.049	789.56
468.268	792.56
468.488	799.56
468.707	797.56
468.927	778.56
469.146	772.56
469.365	807.56
469.585	788.56
469.804	798.56
470.023	800.56
470.243	779.56
470.462	776.56
470.681	806.56
470.901	774.56
471.12	770.56
471.339	801.56
471.558	813.56
471.777	779.56
471.997	782.56
472.216	791.56
472.435	801.56
472.654	756.56
472.873	765.56
473.092	774.56
473.311	764.56
473.53	760.56
473.749	768.56
473.968	811.56
474.187	786.56
474.406	792.56
474.625	787.56
474.844	802.56
475.063	777.56
475.282	807.56
475.501	806.56
475.72	814.56
475.939	800.56
476.158	815.56
476.377	812.56
476.596	806.56
476.814	816.56
477.033	801.56
477.252	814.56
477.471	867.56
477.69	876.56
477.908	888.56
478.127	862.56
478.346	892.56
478.564	894.56
478.783	872.56
479.002	948.56
479.22	962.56
479.439	980.56
479.658	932.56
479.876	902.56
480.095	930.56
480.313	954.56
480.532	956.56
480.751	923.56
480.969	926.56
481.188	928.56
481.406	914.56
481.624	916.56
481.843	925.56
482.061	927.56
482.28	896.56
482.498	898.56
482.717	915.56
482.935	945.56
483.153	929.56
483.372	966.56
483.59	949.56
483.808	915.56
484.027	929.56
484.245	936.56
484.463	937.56
484.681	924.56
484.9	933.56
485.118	944.56
485.336	928.56
485.554	908.56
485.772	930.56
485.99	930.56
486.209	905.56
486.427	921.56
486.645	937.56
486.863	941.56
487.081	944.56
487.299	965.56
487.517	963.56
487.735	975.56
487.953	991.56
488.171	976.56
488.389	970.56
488.607	938.56
488.825	945.56
489.043	918.56
489.261	936.56
489.479	949.56
489.696	942.56
489.914	954.56
490.132	941.56
490.35	944.56
490.568	943.56
490.786	947.56
491.003	956.56
491.221	966.56
491.439	965.56
491.657	939.56
491.874	972.56
492.092	993.56
492.31	984.56
492.527	987.56
492.745	1007.56
492.963	974.56
493.18	964.56
493.398	968.56
493.615	973.56
493.833	980.56
494.05	990.56
494.268	1000.56
494.485	981.56
494.703	1010.56
494.92	989.56
495.138	1014.56
495.355	988.56
495.573	1022.56
495.79	1001.56
496.008	1010.56
496.225	1005.56
496.442	1007.56
496.66	1056.56
496.877	1038.56
497.094	1075.56
497.312	1066.56
497.529	1078.56
497.746	1065.56
497.963	1120.56
498.181	1130.56
498.398	1143.56
498.615	1177.56
498.832	1203.56
499.049	1267.56
499.267	1332.56
499.484	1364.56
499.701	1397.56
499.918	1466.56
500.135	1525.56
500.352	1629.56
500.569	1641.56
500.786	1625.56
501.003	1633.56
501.22	1578.56
501.437	1490.56
501.654	1388.56
501.871	1362.56
502.088	1299.56
502.305	1216.56
502.522	1249.56
502.739	1210.56
502.956	1169.56
503.172	1113.56
503.389	1108.56
503.606	1078.56
503.823	1057.56
504.04	1040.56
504.256	1036.56
504.473	1018.56
504.69	994.56
504.907	1040.56
505.123	978.56
505.34	967.56
505.557	962.56
505.773	921.56
505.99	960.56
506.207	898.56
506.423	903.56
506.64	873.56
506.856	899.56
507.073	881.56
507.289	864.56
507.506	887.56
507.722	868.56
507.939	852.56
508.155	873.56
508.372	864.56
508.588	832.56
508.805	831.56
509.021	836.56
509.238	820.56
509.454	836.56
509.67	810.56
509.887	806.56
510.103	814.56
510.319	795.56
510.536	789.56
510.752	779.56
510.968	786.56
511.184	764.56
511.401	774.56
511.617	757.56
511.833	779.56
512.049	781.56
512.265	796.56
512.481	750.56
512.698	798.56
512.914	778.56
513.13	775.56
513.346	776.56
513.562	811.56
513.778	776.56
513.994	789.56
514.21	770.56
514.426	779.56
514.642	772.56
514.858	810.56
515.074	776.56
515.29	813.56
515.506	781.56
515.721	812.56
515.937	800.56
516.153	826.56
516.369	809.56
516.585	833.56
516.801	823.56
517.016	829.56
517.232	844.56
517.448	866.56
517.664	849.56
517.879	861.56
518.095	852.56
518.311	870.56
518.527	841.56
518.742	833.56
518.958	819.56
519.173	780.56
519.389	834.56
519.605	793.56
519.82	808.56
520.036	759.56
520.251	780.56
520.467	771.56
520.682	772.56
520.898	749.56
521.113	736.56
521.329	757.56
521.544	719.56
521.76	752.56
521.975	722.56
522.19	720.56
522.406	740.56
522.621	728.56
522.836	723.56
523.052	699.56
523.267	704.56
523.482	705.56
523.698	694.56
523.913	718.56
524.128	712.56
524.343	719.56
524.559	697.56
524.774	714.56
524.989	688.56
525.204	725.56
525.419	725.56
525.634	704.56
525.849	688.56
526.064	714.56
526.28	711.56
526.495	708.56
526.71	681.56
526.925	674.56
527.14	685.56
527.355	691.56
527.57	692.56
527.785	723.56
527.999	670.56
528.214	692.56
528.429	680.56
528.644	692.56
528.859	702.56
529.074	660.56
529.289	680.56
529.503	660.56
529.718	681.56
529.933	683.56
530.148	685.56
530.363	671.56
530.577	677.56
530.792	681.56
531.007	685.56
531.221	639.56
531.436	651.56
531.651	690.56
531.865	681.56
532.08	669.56
532.295	665.56
532.509	660.56
532.724	682.56
532.938	678.56
533.153	663.56
533.367	652.56
533.582	665.56
533.796	674.56
534.011	653.56
534.225	662.56
534.44	628.56
534.654	655.56
534.868	635.56
535.083	665.56
535.297	650.56
535.511	641.56
535.726	632.56
535.94	631.56
536.154	624.56
536.369	625.56
536.583	618.56
536.797	644.56
537.011	633.56
537.225	644.56
537.44	620.56
537.654	630.56
537.868	614.56
538.082	616.56
538.296	647.56
538.51	610.56
538.724	644.56
538.938	628.56
539.153	626.56
539.367	613.56
539.581	599.56
539.795	607.56
540.009	625.56
540.222	610.56
540.436	605.56
540.65	627.56
540.864	613.56
541.078	610.56
541.292	609.56
541.506	610.56
541.72	622.56
541.934	632.56
542.147	620.56
542.361	631.56
542.575	617.56
542.789	616.56
543.002	593.56
543.216	605.56
543.43	582.56
543.644	619.56
543.857	583.56
544.071	628.56
544.285	629.56
544.498	619.56
544.712	614.56
544.925	621.56
545.139	617.56
545.352	619.56
545.566	598.56
545.779	610.56
545.993	634.56
546.206	622.56
546.42	633.56
546.633	584.56
546.847	606.56
547.06	615.56
547.274	625.56
547.487	621.56
547.7	634.56
547.914	624.56
548.127	626.56
548.34	635.56
548.554	597.56
548.767	604.56
548.98	633.56
549.193	584.56
549.407	596.56
549.62	609.56
549.833	607.56
550.046	617.56
550.259	611.56
550.473	602.56
550.686	610.56
550.899	625.56
551.112	614.56
551.325	592.56
551.538	611.56
551.751	593.56
551.964	565.56
552.177	588.56
552.39	603.56
552.603	619.56
552.816	605.56
553.029	610.56
553.242	605.56
553.455	610.56
553.667	601.56
553.88	629.56
554.093	569.56
554.306	610.56
554.519	603.56
554.732	572.56
554.944	584.56
555.157	576.56
555.37	561.56
555.583	573.56
555.795	560.56
556.008	532.56
556.221	552.56
556.433	544.56
556.646	521.56
556.859	559.56
557.071	551.56
557.284	539.56
557.496	533.56
557.709	530.56
557.921	518.56
558.134	561.56
558.346	542.56
558.559	521.56
558.771	538.56
558.984	533.56
559.196	553.56
559.409	521.56
559.621	537.56
559.833	520.56
560.046	516.56
560.258	505.56
560.47	508.56
560.683	522.56
560.895	524.56
561.107	526.56
561.32	522.56
561.532	520.56
561.744	522.56
561.956	513.56
562.168	501.56
562.381	530.56
562.593	528.56
562.805	531.56
563.017	520.56
563.229	512.56
563.441	519.56
563.653	505.56
563.865	532.56
564.077	533.56
564.289	494.56
564.501	523.56
564.713	520.56
564.925	567.56
565.137	536.56
565.349	546.56
565.561	547.56
565.773	565.56
565.985	569.56
566.197	602.56
566.408	633.56
566.62	635.56
566.832	631.56
567.044	632.56
567.255	620.56
567.467	650.56
567.679	665.56
567.891	664.56
568.102	638.56
568.314	643.56
568.526	609.56
568.737	593.56
568.949	578.56
569.161	539.56
569.372	534.56
569.584	522.56
569.795	534.56
570.007	515.56
570.218	514.56
570.43	503.56
570.641	510.56
570.853	473.56
571.064	481.56
571.276	471.56
571.487	488.56
571.698	465.56
571.91	460.56
572.121	463.56
572.333	463.56
572.544	447.56
572.755	422.56
572.966	435.56
573.178	449.56
573.389	440.56
573.6	423.56
573.811	426.56
574.023	412.56
574.234	401.56
574.445	420.56
574.656	412.56
574.867	420.56
575.078	401.56
575.289	407.56
575.501	407.56
575.712	412.56
575.923	391.56
576.134	409.56
576.345	406.56
576.556	392.56
576.767	407.56
576.978	397.56
577.188	411.56
577.399	394.56
577.61	394.56
577.821	387.56
578.032	390.56
578.243	375.56
578.454	379.56
578.665	380.56
578.875	376.56
579.086	386.56
579.297	379.56
579.508	356.56
579.718	392.56
579.929	384.56
580.14	383.56
580.35	378.56
580.561	373.56
580.772	360.56
580.982	371.56
581.193	343.56
581.403	370.56
581.614	379.56
581.825	360.56
582.035	378.56
582.246	368.56
582.456	360.56
582.667	347.56
582.877	355.56
583.087	373.56
583.298	354.56
583.508	357.56
583.719	355.56
583.929	345.56
584.139	371.56
584.35	340.56
584.56	347.56
584.77	349.56
584.981	347.56
585.191	353.56
585.401	360.56
585.611	338.56
585.821	344.56
586.032	331.56
586.242	324.56
586.452	338.56
586.662	341.56
586.872	342.56
587.082	347.56
587.292	329.56
587.502	347.56
587.713	349.56
587.923	353.56
588.133	356.56
588.343	364.56
588.553	340.56
588.762	350.56
588.972	360.56
589.182	371.56
589.392	344.56
589.602	344.56
589.812	340.56
590.022	337.56
590.232	339.56
590.441	345.56
590.651	334.56
590.861	334.56
591.071	324.56
591.281	330.56
591.49	343.56
591.7	326.56
591.91	340.56
592.119	340.56
592.329	339.56
592.539	330.56
592.748	346.56
592.958	337.56
593.167	358.56
593.377	354.56
593.587	351.56
593.796	348.56
594.006	373.56
594.215	354.56
594.424	359.56
594.634	352.56
594.843	344.56
595.053	340.56
595.262	340.56
595.472	343.56
595.681	348.56
595.89	345.56
596.1	339.56
596.309	329.56
596.518	321.56
596.727	333.56
596.937	340.56
597.146	338.56
597.355	321.56
597.564	311.56
597.774	315.56
597.983	317.56
598.192	300.56
598.401	297.56
598.61	317.56
598.819	304.56
599.028	298.56
599.237	289.56
599.446	289.56
599.655	300.56
599.864	280.56
600.073	287.56
600.282	293.56
600.491	281.56
600.7	310.56
600.909	285.56
601.118	295.56
601.327	300.56
601.536	298.56
601.745	283.56
601.953	286.56
602.162	295.56
602.371	281.56
602.58	291.56
602.789	282.56
602.997	283.56
603.206	288.56
603.415	271.56
603.623	297.56
603.832	288.56
604.041	273.56
604.249	284.56
604.458	270.56
604.666	274.56
604.875	284.56
605.084	256.56
605.292	272.56
605.501	268.56
605.709	269.56
605.918	286.56
606.126	274.56
606.334	267.56
606.543	266.56
606.751	276.56
606.96	268.56
607.168	268.56
607.376	266.56
607.585	278.56
607.793	273.56
608.001	262.56
608.21	272.56
608.418	248.56
608.626	278.56
608.834	269.56
609.043	267.56
609.251	249.56
609.459	245.56
609.667	257.56
609.875	244.56
610.083	260.56
610.291	266.56
610.499	276.56
610.707	242.56
610.916	264.56
611.124	266.56
611.332	265.56
611.54	271.56
611.748	248.56
611.955	250.56
612.163	253.56
612.371	248.56
612.579	267.56
612.787	240.56
612.995	248.56
613.203	274.56
613.411	274.56
613.618	263.56
613.826	265.56
614.034	228.56
614.242	248.56
614.449	257.56
614.657	261.56
614.865	255.56
615.072	237.56
615.28	263.56
615.488	259.56
615.695	249.56
615.903	259.56
616.111	248.56
616.318	253.56
616.526	253.56
616.733	245.56
616.941	264.56
617.148	248.56
617.356	252.56
617.563	232.56
617.771	246.56
617.978	254.56
618.185	250.56
618.393	246.56
618.6	257.56
618.807	242.56
619.015	242.56
619.222	247.56
619.429	235.56
619.637	263.56
619.844	258.56
620.051	256.56
620.258	240.56
620.466	221.56
620.673	233.56
620.88	242.56
621.087	229.56
621.294	229.56
621.501	240.56
621.708	243.56
621.915	238.56
622.122	226.56
622.329	241.56
622.536	236.56
622.743	232.56
622.95	246.56
623.157	230.56
623.364	225.56
623.571	252.56
623.778	229.56
623.985	224.56
624.192	231.56
624.399	228.56
624.606	238.56
624.812	241.56
625.019	224.56
625.226	222.56
625.433	241.56
625.639	219.56
625.846	212.56
626.053	217.56
626.259	226.56
626.466	220.56
626.673	226.56
626.879	223.56
627.086	234.56
627.293	215.56
627.499	212.56
627.706	223.56
627.912	215.56
628.119	205.56
628.325	213.56
628.532	218.56
628.738	211.56
628.945	226.56
629.151	226.56
629.357	204.56
629.564	213.56
629.77	212.56
629.976	212.56
630.183	188.56
630.389	214.56
630.595	217.56
630.802	210.56
631.008	188.56
631.214	216.56
631.42	204.56
631.627	224.56
631.833	204.56
632.039	190.56
632.245	211.56
632.451	220.56
632.657	211.56
632.863	204.56
633.069	215.56
633.275	201.56
633.481	198.56
633.688	203.56
633.893	196.56
634.099	208.56
634.305	206.56
634.511	197.56
634.717	206.56
634.923	205.56
635.129	200.56
635.335	205.56
635.541	200.56
635.747	212.56
635.952	193.56
636.158	202.56
636.364	193.56
636.57	186.56
636.775	190.56
636.981	204.56
637.187	201.56
637.392	201.56
637.598	177.56
637.804	185.56
638.009	184.56
638.215	196.56
638.421	197.56
638.626	192.56
638.832	196.56
639.037	192.56
639.243	198.56
639.448	197.56
639.654	196.56
639.859	187.56
640.065	196.56
640.27	207.56
640.475	192.56
640.681	178.56
640.886	190.56
641.091	216.56
641.297	189.56
641.502	203.56
641.707	187.56
641.913	194.56
642.118	193.56
642.323	200.56
642.528	180.56
642.733	194.56
642.939	187.56
643.144	202.56
643.349	197.56
643.554	203.56
643.759	196.56
643.964	199.56
644.169	205.56
644.374	204.56
644.579	197.56
644.784	189.56
644.989	189.56
645.194	202.56
645.399	184.56
645.604	198.56
645.809	202.56
646.014	203.56
646.219	201.56
646.423	201.56
646.628	196.56
646.833	192.56
647.038	194.56
647.243	202.56
647.447	202.56
647.652	188.56
647.857	197.56
648.062	208.56
648.266	202.56
648.471	202.56
648.676	203.56
648.88	209.56
649.085	206.56
649.289	206.56
649.494	197.56
649.698	206.56
649.903	191.56
650.107	201.56
650.312	210.56
650.516	195.56
650.721	180.56
650.925	187.56
651.13	193.56
651.334	187.56
651.539	212.56
651.743	203.56
651.947	212.56
652.152	203.56
652.356	200.56
652.56	186.56
652.764	199.56
652.969	193.56
653.173	196.56
653.377	189.56
653.581	202.56
653.785	193.56
653.99	190.56
654.194	184.56
654.398	185.56
654.602	199.56
654.806	188.56
655.01	188.56
655.214	205.56
655.418	208.56
655.622	200.56
655.826	192.56
656.03	199.56
656.234	204.56
656.438	187.56
656.642	203.56
656.846	205.56
657.049	190.56
657.253	195.56
657.457	178.56
657.661	164.56
657.865	177.56
658.068	157.56
658.272	145.56
658.476	153.56
658.68	136.56
658.883	125.56
659.087	136.56
659.291	128.56
659.494	123.56
659.698	124.56
659.901	108.56
660.105	126.56
660.309	119.56
660.512	115.56
660.716	115.56
660.919	109.56
661.123	101.56
661.326	109.56
661.53	94.56
661.733	102.56
661.936	100.56
662.14	78.56
662.343	98.56
662.546	99.56
662.75	87.56
662.953	97.56
663.156	92.56
663.36	72.56
663.563	81.56
663.766	95.56
663.969	75.56
664.173	75.56
664.376	81.56
664.579	74.56
664.782	78.56
664.985	87.56
665.188	72.56
665.391	82.56
665.594	76.56
665.797	78.56
666	78.56
666.203	87.56
666.406	81.56
666.609	76.56
666.812	70.56
667.015	93.56
667.218	85.56
667.421	86.56
667.624	97.56
667.827	84.56
668.03	75.56
668.232	86.56
668.435	64.56
668.638	89.56
668.841	89.56
669.043	77.56
669.246	75.56
669.449	78.56
669.651	95.56
669.854	84.56
670.057	86.56
670.259	72.56
670.462	78.56
670.665	93.56
670.867	84.56
671.07	83.56
671.272	82.56
671.475	85.56
671.677	73.56
671.88	90.56
672.082	75.56
672.284	93.56
672.487	94.56
672.689	86.56
672.892	85.56
