Data from Ni(NO3)2@0.0625M.TitratingCurve.Agarose3%dH2O.NegLispCup.LampEnergy10.LIBS07252019_HRD10591_18-13-40-569.txt Node
Date: Thu Jul 25 18:13:40 EDT 2019
User: cochatt
Spectrometer: HR+D1059
Trigger mode: 1
Integration Time (sec): 1.000000E-1
Scans to average: 1
Electric dark correction enabled: true
Nonlinearity correction enabled: false
Boxcar width: 0
XAxis mode: Wavelengths
Number of Pixels in Spectrum: 2048
>>>>>Begin Spectral Data<<<<<
223.165	-22.75
223.4	-22.75
223.635	-22.75
223.869	-6.75
224.104	-18.75
224.338	-8.75
224.573	-14.75
224.808	-17.75
225.042	-8.75
225.277	-2.75
225.511	4.25
225.746	7.25
225.98	-10.75
226.215	17.25
226.449	10.25
226.683	19.25
226.918	20.25
227.152	33.25
227.387	37.25
227.621	50.25
227.856	38.25
228.09	42.25
228.324	55.25
228.559	58.25
228.793	67.25
229.027	104.25
229.262	100.25
229.496	102.25
229.73	106.25
229.964	122.25
230.199	109.25
230.433	110.25
230.667	117.25
230.901	135.25
231.136	127.25
231.37	130.25
231.604	125.25
231.838	133.25
232.072	138.25
232.306	133.25
232.541	127.25
232.775	135.25
233.009	140.25
233.243	134.25
233.477	137.25
233.711	129.25
233.945	140.25
234.179	138.25
234.413	128.25
234.647	145.25
234.881	136.25
235.115	138.25
235.349	136.25
235.583	146.25
235.817	152.25
236.051	126.25
236.285	147.25
236.519	136.25
236.753	126.25
236.987	130.25
237.221	137.25
237.455	147.25
237.689	133.25
237.922	149.25
238.156	150.25
238.39	151.25
238.624	156.25
238.858	158.25
239.091	153.25
239.325	154.25
239.559	154.25
239.793	162.25
240.027	167.25
240.26	156.25
240.494	178.25
240.728	154.25
240.961	149.25
241.195	146.25
241.429	187.25
241.662	153.25
241.896	161.25
242.13	161.25
242.363	175.25
242.597	169.25
242.83	174.25
243.064	167.25
243.298	187.25
243.531	172.25
243.765	185.25
243.998	177.25
244.232	174.25
244.465	186.25
244.699	188.25
244.932	166.25
245.166	188.25
245.399	185.25
245.633	181.25
245.866	184.25
246.099	197.25
246.333	194.25
246.566	179.25
246.8	198.25
247.033	172.25
247.266	203.25
247.5	191.25
247.733	200.25
247.966	187.25
248.2	202.25
248.433	212.25
248.666	195.25
248.899	207.25
249.133	202.25
249.366	204.25
249.599	215.25
249.832	211.25
250.066	199.25
250.299	217.25
250.532	198.25
250.765	208.25
250.998	227.25
251.231	220.25
251.465	227.25
251.698	206.25
251.931	239.25
252.164	224.25
252.397	234.25
252.63	229.25
252.863	216.25
253.096	243.25
253.329	237.25
253.562	244.25
253.795	238.25
254.028	253.25
254.261	233.25
254.494	234.25
254.727	235.25
254.96	224.25
255.193	249.25
255.426	245.25
255.659	241.25
255.892	235.25
256.124	254.25
256.357	236.25
256.59	265.25
256.823	250.25
257.056	251.25
257.289	228.25
257.521	262.25
257.754	245.25
257.987	254.25
258.22	251.25
258.452	254.25
258.685	250.25
258.918	246.25
259.151	250.25
259.383	265.25
259.616	261.25
259.849	262.25
260.081	264.25
260.314	259.25
260.547	274.25
260.779	263.25
261.012	293.25
261.244	263.25
261.477	268.25
261.71	283.25
261.942	283.25
262.175	279.25
262.407	291.25
262.64	280.25
262.872	273.25
263.105	267.25
263.337	274.25
263.57	279.25
263.802	290.25
264.035	278.25
264.267	284.25
264.499	289.25
264.732	269.25
264.964	279.25
265.197	287.25
265.429	315.25
265.661	297.25
265.894	300.25
266.126	286.25
266.358	296.25
266.591	307.25
266.823	300.25
267.055	290.25
267.287	275.25
267.52	300.25
267.752	305.25
267.984	293.25
268.216	298.25
268.448	316.25
268.681	308.25
268.913	314.25
269.145	308.25
269.377	301.25
269.609	310.25
269.841	305.25
270.073	309.25
270.306	315.25
270.538	327.25
270.77	305.25
271.002	298.25
271.234	318.25
271.466	317.25
271.698	325.25
271.93	328.25
272.162	328.25
272.394	334.25
272.626	338.25
272.858	325.25
273.09	329.25
273.322	340.25
273.553	321.25
273.785	325.25
274.017	327.25
274.249	330.25
274.481	342.25
274.713	343.25
274.945	333.25
275.176	339.25
275.408	372.25
275.64	344.25
275.872	337.25
276.104	342.25
276.335	339.25
276.567	342.25
276.799	354.25
277.031	352.25
277.262	349.25
277.494	365.25
277.726	351.25
277.957	346.25
278.189	346.25
278.421	354.25
278.652	371.25
278.884	364.25
279.115	370.25
279.347	366.25
279.579	349.25
279.81	358.25
280.042	351.25
280.273	376.25
280.505	355.25
280.736	375.25
280.968	387.25
281.199	374.25
281.431	403.25
281.662	387.25
281.894	381.25
282.125	380.25
282.356	391.25
282.588	391.25
282.819	381.25
283.051	376.25
283.282	382.25
283.513	386.25
283.745	408.25
283.976	390.25
284.207	363.25
284.439	396.25
284.67	399.25
284.901	410.25
285.132	401.25
285.364	404.25
285.595	401.25
285.826	393.25
286.057	402.25
286.288	410.25
286.52	397.25
286.751	415.25
286.982	423.25
287.213	397.25
287.444	403.25
287.675	429.25
287.906	399.25
288.138	429.25
288.369	403.25
288.6	423.25
288.831	430.25
289.062	426.25
289.293	428.25
289.524	409.25
289.755	419.25
289.986	425.25
290.217	437.25
290.448	443.25
290.679	420.25
290.91	425.25
291.141	442.25
291.371	437.25
291.602	443.25
291.833	414.25
292.064	419.25
292.295	440.25
292.526	427.25
292.757	445.25
292.987	434.25
293.218	438.25
293.449	437.25
293.68	422.25
293.91	429.25
294.141	439.25
294.372	459.25
294.603	446.25
294.833	437.25
295.064	456.25
295.295	433.25
295.525	441.25
295.756	446.25
295.987	457.25
296.217	454.25
296.448	450.25
296.679	450.25
296.909	464.25
297.14	440.25
297.37	475.25
297.601	473.25
297.831	457.25
298.062	468.25
298.292	480.25
298.523	484.25
298.753	489.25
298.984	475.25
299.214	484.25
299.445	462.25
299.675	470.25
299.905	470.25
300.136	453.25
300.366	482.25
300.597	485.25
300.827	476.25
301.057	495.25
301.288	525.25
301.518	499.25
301.748	507.25
301.979	501.25
302.209	487.25
302.439	493.25
302.669	504.25
302.9	481.25
303.13	482.25
303.36	483.25
303.59	473.25
303.82	491.25
304.051	470.25
304.281	482.25
304.511	494.25
304.741	485.25
304.971	504.25
305.201	518.25
305.431	494.25
305.661	469.25
305.891	493.25
306.121	499.25
306.352	509.25
306.582	487.25
306.812	452.25
307.042	466.25
307.272	491.25
307.502	479.25
307.731	476.25
307.961	477.25
308.191	475.25
308.421	461.25
308.651	479.25
308.881	465.25
309.111	487.25
309.341	469.25
309.571	484.25
309.8	478.25
310.03	487.25
310.26	480.25
310.49	469.25
310.72	485.25
310.949	511.25
311.179	499.25
311.409	499.25
311.639	502.25
311.868	517.25
312.098	507.25
312.328	524.25
312.557	504.25
312.787	514.25
313.017	503.25
313.246	518.25
313.476	504.25
313.706	523.25
313.935	533.25
314.165	515.25
314.394	522.25
314.624	530.25
314.853	500.25
315.083	497.25
315.312	510.25
315.542	528.25
315.771	500.25
316.001	510.25
316.23	507.25
316.46	522.25
316.689	515.25
316.919	513.25
317.148	500.25
317.377	491.25
317.607	511.25
317.836	509.25
318.065	509.25
318.295	509.25
318.524	481.25
318.753	505.25
318.983	503.25
319.212	501.25
319.441	483.25
319.67	500.25
319.9	523.25
320.129	504.25
320.358	501.25
320.587	498.25
320.816	508.25
321.046	501.25
321.275	499.25
321.504	516.25
321.733	516.25
321.962	518.25
322.191	515.25
322.42	518.25
322.649	515.25
322.878	527.25
323.108	540.25
323.337	518.25
323.566	523.25
323.795	530.25
324.024	537.25
324.253	532.25
324.482	522.25
324.71	524.25
324.939	543.25
325.168	523.25
325.397	516.25
325.626	550.25
325.855	535.25
326.084	557.25
326.313	549.25
326.542	564.25
326.77	576.25
326.999	557.25
327.228	563.25
327.457	567.25
327.686	559.25
327.914	554.25
328.143	537.25
328.372	559.25
328.6	563.25
328.829	541.25
329.058	559.25
329.287	567.25
329.515	567.25
329.744	579.25
329.972	566.25
330.201	573.25
330.43	557.25
330.658	587.25
330.887	571.25
331.115	590.25
331.344	576.25
331.572	583.25
331.801	613.25
332.03	619.25
332.258	639.25
332.486	654.25
332.715	687.25
332.943	695.25
333.172	737.25
333.4	749.25
333.629	775.25
333.857	777.25
334.085	761.25
334.314	732.25
334.542	710.25
334.771	717.25
334.999	714.25
335.227	703.25
335.455	723.25
335.684	697.25
335.912	692.25
336.14	668.25
336.369	661.25
336.597	687.25
336.825	669.25
337.053	676.25
337.281	644.25
337.51	636.25
337.738	631.25
337.966	648.25
338.194	598.25
338.422	599.25
338.65	613.25
338.878	603.25
339.106	625.25
339.334	643.25
339.562	605.25
339.79	586.25
340.018	591.25
340.246	589.25
340.474	582.25
340.702	582.25
340.93	570.25
341.158	572.25
341.386	586.25
341.614	593.25
341.842	570.25
342.07	589.25
342.298	572.25
342.526	555.25
342.754	583.25
342.981	584.25
343.209	597.25
343.437	629.25
343.665	662.25
343.893	702.25
344.12	734.25
344.348	697.25
344.576	659.25
344.804	645.25
345.031	606.25
345.259	615.25
345.487	605.25
345.714	595.25
345.942	579.25
346.17	602.25
346.397	589.25
346.625	567.25
346.853	550.25
347.08	579.25
347.308	597.25
347.535	561.25
347.763	563.25
347.99	563.25
348.218	591.25
348.445	581.25
348.673	573.25
348.9	578.25
349.128	572.25
349.355	541.25
349.583	553.25
349.81	544.25
350.037	574.25
350.265	566.25
350.492	574.25
350.72	543.25
350.947	579.25
351.174	554.25
351.402	543.25
351.629	552.25
351.856	559.25
352.083	546.25
352.311	548.25
352.538	568.25
352.765	551.25
352.992	539.25
353.22	553.25
353.447	540.25
353.674	539.25
353.901	551.25
354.128	549.25
354.355	526.25
354.583	542.25
354.81	552.25
355.037	538.25
355.264	547.25
355.491	568.25
355.718	556.25
355.945	556.25
356.172	553.25
356.399	540.25
356.626	541.25
356.853	549.25
357.08	547.25
357.307	557.25
357.534	581.25
357.761	536.25
357.988	537.25
358.215	567.25
358.441	558.25
358.668	564.25
358.895	550.25
359.122	561.25
359.349	554.25
359.576	549.25
359.802	558.25
360.029	557.25
360.256	549.25
360.483	574.25
360.709	565.25
360.936	558.25
361.163	559.25
361.39	569.25
361.616	541.25
361.843	551.25
362.07	559.25
362.296	554.25
362.523	547.25
362.749	554.25
362.976	543.25
363.203	551.25
363.429	546.25
363.656	554.25
363.882	564.25
364.109	551.25
364.335	554.25
364.562	544.25
364.788	549.25
365.015	562.25
365.241	537.25
365.468	552.25
365.694	544.25
365.92	555.25
366.147	536.25
366.373	557.25
366.599	547.25
366.826	541.25
367.052	541.25
367.278	567.25
367.505	535.25
367.731	556.25
367.957	536.25
368.184	563.25
368.41	579.25
368.636	565.25
368.862	562.25
369.089	585.25
369.315	570.25
369.541	599.25
369.767	577.25
369.993	556.25
370.219	582.25
370.445	586.25
370.672	597.25
370.898	587.25
371.124	584.25
371.35	589.25
371.576	585.25
371.802	587.25
372.028	586.25
372.254	633.25
372.48	617.25
372.706	610.25
372.932	643.25
373.158	621.25
373.384	622.25
373.61	612.25
373.835	587.25
374.061	603.25
374.287	593.25
374.513	626.25
374.739	639.25
374.965	653.25
375.191	693.25
375.416	667.25
375.642	663.25
375.868	609.25
376.094	641.25
376.319	604.25
376.545	604.25
376.771	616.25
376.997	605.25
377.222	594.25
377.448	588.25
377.674	605.25
377.899	599.25
378.125	618.25
378.35	591.25
378.576	618.25
378.802	616.25
379.027	599.25
379.253	604.25
379.478	587.25
379.704	614.25
379.929	601.25
380.155	609.25
380.38	585.25
380.606	597.25
380.831	591.25
381.057	602.25
381.282	578.25
381.507	583.25
381.733	614.25
381.958	596.25
382.184	633.25
382.409	618.25
382.634	609.25
382.86	641.25
383.085	648.25
383.31	667.25
383.535	629.25
383.761	684.25
383.986	657.25
384.211	688.25
384.436	732.25
384.662	690.25
384.887	723.25
385.112	732.25
385.337	711.25
385.562	731.25
385.787	727.25
386.013	733.25
386.238	720.25
386.463	742.25
386.688	734.25
386.913	710.25
387.138	712.25
387.363	732.25
387.588	717.25
387.813	700.25
388.038	700.25
388.263	709.25
388.488	724.25
388.713	698.25
388.938	703.25
389.163	697.25
389.387	712.25
389.612	689.25
389.837	690.25
390.062	707.25
390.287	706.25
390.512	697.25
390.736	698.25
390.961	719.25
391.186	705.25
391.411	769.25
391.636	785.25
391.86	811.25
392.085	831.25
392.31	815.25
392.534	804.25
392.759	803.25
392.984	757.25
393.208	781.25
393.433	755.25
393.658	777.25
393.882	763.25
394.107	800.25
394.331	795.25
394.556	759.25
394.78	808.25
395.005	783.25
395.229	784.25
395.454	779.25
395.678	819.25
395.903	818.25
396.127	808.25
396.352	781.25
396.576	786.25
396.801	738.25
397.025	734.25
397.249	781.25
397.474	790.25
397.698	807.25
397.922	814.25
398.147	825.25
398.371	832.25
398.595	835.25
398.82	866.25
399.044	948.25
399.268	1047.25
399.492	1250.25
399.717	1459.25
399.941	1409.25
400.165	1194.25
400.389	1071.25
400.613	985.25
400.837	936.25
401.062	907.25
401.286	897.25
401.51	901.25
401.734	923.25
401.958	897.25
402.182	930.25
402.406	914.25
402.63	963.25
402.854	953.25
403.078	1002.25
403.302	1019.25
403.526	1025.25
403.75	1044.25
403.974	1086.25
404.198	1070.25
404.422	1115.25
404.645	1075.25
404.869	1057.25
405.093	1023.25
405.317	1024.25
405.541	998.25
405.765	1009.25
405.988	983.25
406.212	996.25
406.436	980.25
406.66	1018.25
406.883	1065.25
407.107	1085.25
407.331	1197.25
407.555	1198.25
407.778	1166.25
408.002	1150.25
408.226	1122.25
408.449	1090.25
408.673	1058.25
408.896	1050.25
409.12	1026.25
409.344	1033.25
409.567	1028.25
409.791	1031.25
410.014	1039.25
410.238	1025.25
410.461	999.25
410.685	1012.25
410.908	959.25
411.132	963.25
411.355	907.25
411.578	975.25
411.802	921.25
412.025	946.25
412.249	972.25
412.472	945.25
412.695	926.25
412.919	904.25
413.142	869.25
413.365	908.25
413.589	917.25
413.812	909.25
414.035	885.25
414.258	912.25
414.482	910.25
414.705	904.25
414.928	951.25
415.151	939.25
415.374	930.25
415.597	900.25
415.821	899.25
416.044	889.25
416.267	884.25
416.49	887.25
416.713	860.25
416.936	878.25
417.159	912.25
417.382	864.25
417.605	899.25
417.828	889.25
418.051	909.25
418.274	932.25
418.497	891.25
418.72	919.25
418.943	957.25
419.166	978.25
419.389	1011.25
419.611	1007.25
419.834	963.25
420.057	934.25
420.28	935.25
420.503	880.25
420.726	881.25
420.948	917.25
421.171	925.25
421.394	884.25
421.617	903.25
421.839	897.25
422.062	895.25
422.285	870.25
422.507	919.25
422.73	895.25
422.953	933.25
423.175	960.25
423.398	967.25
423.621	954.25
423.843	968.25
424.066	949.25
424.288	968.25
424.511	949.25
424.733	956.25
424.956	941.25
425.178	927.25
425.401	915.25
425.623	884.25
425.846	862.25
426.068	866.25
426.291	849.25
426.513	835.25
426.735	819.25
426.958	852.25
427.18	820.25
427.402	833.25
427.625	808.25
427.847	811.25
428.069	793.25
428.292	814.25
428.514	790.25
428.736	812.25
428.958	808.25
429.181	795.25
429.403	790.25
429.625	777.25
429.847	785.25
430.069	778.25
430.292	777.25
430.514	769.25
430.736	770.25
430.958	769.25
431.18	759.25
431.402	791.25
431.624	762.25
431.846	805.25
432.068	807.25
432.29	842.25
432.512	798.25
432.734	817.25
432.956	789.25
433.178	786.25
433.4	829.25
433.622	783.25
433.844	811.25
434.066	801.25
434.287	820.25
434.509	881.25
434.731	897.25
434.953	893.25
435.175	897.25
435.397	894.25
435.618	868.25
435.84	806.25
436.062	811.25
436.284	780.25
436.505	786.25
436.727	822.25
436.949	844.25
437.17	792.25
437.392	782.25
437.614	783.25
437.835	798.25
438.057	782.25
438.278	766.25
438.5	766.25
438.721	756.25
438.943	786.25
439.165	787.25
439.386	790.25
439.608	788.25
439.829	780.25
440.05	819.25
440.272	817.25
440.493	796.25
440.715	830.25
440.936	843.25
441.158	857.25
441.379	858.25
441.6	909.25
441.822	921.25
442.043	902.25
442.264	892.25
442.486	869.25
442.707	876.25
442.928	896.25
443.149	883.25
443.371	865.25
443.592	889.25
443.813	905.25
444.034	928.25
444.255	927.25
444.476	973.25
444.698	1053.25
444.919	1162.25
445.14	1184.25
445.361	998.25
445.582	927.25
445.803	879.25
446.024	876.25
446.245	856.25
446.466	849.25
446.687	819.25
446.908	801.25
447.129	789.25
447.35	797.25
447.571	758.25
447.792	769.25
448.013	739.25
448.234	725.25
448.455	726.25
448.675	736.25
448.896	735.25
449.117	751.25
449.338	736.25
449.559	725.25
449.779	746.25
450	722.25
450.221	732.25
450.442	721.25
450.662	747.25
450.883	727.25
451.104	740.25
451.324	755.25
451.545	753.25
451.766	746.25
451.986	769.25
452.207	754.25
452.428	745.25
452.648	755.25
452.869	719.25
453.089	727.25
453.31	729.25
453.53	728.25
453.751	687.25
453.971	698.25
454.192	697.25
454.412	693.25
454.633	690.25
454.853	686.25
455.073	669.25
455.294	690.25
455.514	691.25
455.734	700.25
455.955	696.25
456.175	690.25
456.395	682.25
456.616	685.25
456.836	670.25
457.056	668.25
457.276	650.25
457.497	687.25
457.717	698.25
457.937	683.25
458.157	683.25
458.377	692.25
458.598	730.25
458.818	718.25
459.038	771.25
459.258	782.25
459.478	821.25
459.698	836.25
459.918	864.25
460.138	886.25
460.358	941.25
460.578	934.25
460.798	975.25
461.018	965.25
461.238	954.25
461.458	959.25
461.678	928.25
461.898	971.25
462.118	957.25
462.338	1015.25
462.558	1012.25
462.777	1075.25
462.997	1156.25
463.217	1308.25
463.437	1277.25
463.657	1179.25
463.876	1111.25
464.096	1113.25
464.316	1120.25
464.536	1135.25
464.755	1085.25
464.975	1048.25
465.195	983.25
465.414	922.25
465.634	853.25
465.854	821.25
466.073	826.25
466.293	823.25
466.512	795.25
466.732	781.25
466.951	765.25
467.171	777.25
467.391	768.25
467.61	770.25
467.829	772.25
468.049	760.25
468.268	731.25
468.488	736.25
468.707	715.25
468.927	719.25
469.146	745.25
469.365	733.25
469.585	739.25
469.804	774.25
470.023	813.25
470.243	782.25
470.462	795.25
470.681	785.25
470.901	795.25
471.12	793.25
471.339	774.25
471.558	735.25
471.777	743.25
471.997	743.25
472.216	741.25
472.435	723.25
472.654	719.25
472.873	721.25
473.092	728.25
473.311	747.25
473.53	744.25
473.749	700.25
473.968	717.25
474.187	689.25
474.406	691.25
474.625	707.25
474.844	712.25
475.063	726.25
475.282	707.25
475.501	716.25
475.72	731.25
475.939	701.25
476.158	729.25
476.377	719.25
476.596	728.25
476.814	734.25
477.033	758.25
477.252	748.25
477.471	774.25
477.69	774.25
477.908	818.25
478.127	854.25
478.346	847.25
478.564	866.25
478.783	888.25
479.002	897.25
479.22	874.25
479.439	860.25
479.658	909.25
479.876	881.25
480.095	883.25
480.313	917.25
480.532	961.25
480.751	973.25
480.969	903.25
481.188	878.25
481.406	872.25
481.624	825.25
481.843	790.25
482.061	821.25
482.28	831.25
482.498	807.25
482.717	799.25
482.935	808.25
483.153	804.25
483.372	789.25
483.59	808.25
483.808	816.25
484.027	801.25
484.245	802.25
484.463	828.25
484.681	808.25
484.9	833.25
485.118	869.25
485.336	829.25
485.554	846.25
485.772	844.25
485.99	895.25
486.209	853.25
486.427	876.25
486.645	861.25
486.863	857.25
487.081	836.25
487.299	857.25
487.517	870.25
487.735	878.25
487.953	818.25
488.171	844.25
488.389	847.25
488.607	836.25
488.825	806.25
489.043	856.25
489.261	834.25
489.479	828.25
489.696	836.25
489.914	830.25
490.132	870.25
490.35	842.25
490.568	834.25
490.786	853.25
491.003	839.25
491.221	855.25
491.439	845.25
491.657	836.25
491.874	846.25
492.092	852.25
492.31	862.25
492.527	861.25
492.745	843.25
492.963	863.25
493.18	864.25
493.398	864.25
493.615	887.25
493.833	893.25
494.05	875.25
494.268	893.25
494.485	907.25
494.703	878.25
494.92	894.25
495.138	897.25
495.355	888.25
495.573	884.25
495.79	879.25
496.008	896.25
496.225	872.25
496.442	890.25
496.66	919.25
496.877	915.25
497.094	964.25
497.312	950.25
497.529	988.25
497.746	1001.25
497.963	1057.25
498.181	1088.25
498.398	1114.25
498.615	1227.25
498.832	1253.25
499.049	1371.25
499.267	1464.25
499.484	1653.25
499.701	1830.25
499.918	2031.25
500.135	2359.25
500.352	2789.25
500.569	2902.25
500.786	2837.25
501.003	2601.25
501.22	2277.25
501.437	2023.25
501.654	1741.25
501.871	1583.25
502.088	1446.25
502.305	1365.25
502.522	1247.25
502.739	1222.25
502.956	1173.25
503.172	1141.25
503.389	1094.25
503.606	1048.25
503.823	1028.25
504.04	1019.25
504.256	1031.25
504.473	1017.25
504.69	1116.25
504.907	1091.25
505.123	987.25
505.34	940.25
505.557	903.25
505.773	886.25
505.99	836.25
506.207	845.25
506.423	821.25
506.64	826.25
506.856	811.25
507.073	797.25
507.289	790.25
507.506	781.25
507.722	793.25
507.939	763.25
508.155	746.25
508.372	757.25
508.588	753.25
508.805	751.25
509.021	728.25
509.238	740.25
509.454	747.25
509.67	735.25
509.887	751.25
510.103	740.25
510.319	716.25
510.536	712.25
510.752	719.25
510.968	727.25
511.184	719.25
511.401	725.25
511.617	715.25
511.833	729.25
512.049	722.25
512.265	721.25
512.481	719.25
512.698	719.25
512.914	716.25
513.13	717.25
513.346	719.25
513.562	692.25
513.778	731.25
513.994	715.25
514.21	708.25
514.426	727.25
514.642	756.25
514.858	758.25
515.074	770.25
515.29	769.25
515.506	756.25
515.721	787.25
515.937	783.25
516.153	789.25
516.369	837.25
516.585	805.25
516.801	851.25
517.016	918.25
517.232	931.25
517.448	995.25
517.664	1004.25
517.879	1038.25
518.095	1077.25
518.311	995.25
518.527	966.25
518.742	921.25
518.958	867.25
519.173	848.25
519.389	826.25
519.605	803.25
519.82	783.25
520.036	789.25
520.251	761.25
520.467	718.25
520.682	744.25
520.898	706.25
521.113	723.25
521.329	709.25
521.544	692.25
521.76	719.25
521.975	705.25
522.19	702.25
522.406	676.25
522.621	664.25
522.836	693.25
523.052	689.25
523.267	680.25
523.482	663.25
523.698	651.25
523.913	676.25
524.128	699.25
524.343	680.25
524.559	682.25
524.774	683.25
524.989	658.25
525.204	673.25
525.419	661.25
525.634	655.25
525.849	665.25
526.064	635.25
526.28	660.25
526.495	667.25
526.71	673.25
526.925	653.25
527.14	651.25
527.355	661.25
527.57	660.25
527.785	669.25
527.999	663.25
528.214	666.25
528.429	655.25
528.644	662.25
528.859	663.25
529.074	672.25
529.289	669.25
529.503	651.25
529.718	667.25
529.933	649.25
530.148	644.25
530.363	660.25
530.577	644.25
530.792	665.25
531.007	641.25
531.221	656.25
531.436	683.25
531.651	647.25
531.865	658.25
532.08	665.25
532.295	675.25
532.509	674.25
532.724	632.25
532.938	677.25
533.153	653.25
533.367	652.25
533.582	662.25
533.796	649.25
534.011	669.25
534.225	649.25
534.44	639.25
534.654	650.25
534.868	615.25
535.083	650.25
535.297	653.25
535.511	631.25
535.726	645.25
535.94	645.25
536.154	629.25
536.369	606.25
536.583	597.25
536.797	621.25
537.011	603.25
537.225	610.25
537.44	589.25
537.654	606.25
537.868	609.25
538.082	601.25
538.296	595.25
538.51	595.25
538.724	591.25
538.938	621.25
539.153	597.25
539.367	604.25
539.581	601.25
539.795	583.25
540.009	607.25
540.222	573.25
540.436	609.25
540.65	593.25
540.864	603.25
541.078	591.25
541.292	604.25
541.506	578.25
541.72	587.25
541.934	595.25
542.147	589.25
542.361	564.25
542.575	578.25
542.789	594.25
543.002	583.25
543.216	577.25
543.43	598.25
543.644	586.25
543.857	585.25
544.071	588.25
544.285	587.25
544.498	607.25
544.712	582.25
544.925	601.25
545.139	601.25
545.352	609.25
545.566	612.25
545.779	613.25
545.993	622.25
546.206	596.25
546.42	620.25
546.633	605.25
546.847	602.25
547.06	620.25
547.274	598.25
547.487	599.25
547.7	610.25
547.914	597.25
548.127	605.25
548.34	604.25
548.554	580.25
548.767	614.25
548.98	588.25
549.193	611.25
549.407	623.25
549.62	638.25
549.833	643.25
550.046	630.25
550.259	613.25
550.473	597.25
550.686	598.25
550.899	608.25
551.112	590.25
551.325	583.25
551.538	585.25
551.751	614.25
551.964	609.25
552.177	597.25
552.39	625.25
552.603	629.25
552.816	628.25
553.029	641.25
553.242	667.25
553.455	681.25
553.667	670.25
553.88	676.25
554.093	620.25
554.306	639.25
554.519	629.25
554.732	610.25
554.944	617.25
555.157	574.25
555.37	569.25
555.583	563.25
555.795	567.25
556.008	539.25
556.221	539.25
556.433	527.25
556.646	516.25
556.859	536.25
557.071	539.25
557.284	509.25
557.496	520.25
557.709	507.25
557.921	515.25
558.134	516.25
558.346	510.25
558.559	498.25
558.771	507.25
558.984	494.25
559.196	498.25
559.409	491.25
559.621	500.25
559.833	492.25
560.046	490.25
560.258	485.25
560.47	483.25
560.683	513.25
560.895	471.25
561.107	502.25
561.32	492.25
561.532	500.25
561.744	494.25
561.956	491.25
562.168	495.25
562.381	505.25
562.593	520.25
562.805	523.25
563.017	503.25
563.229	502.25
563.441	499.25
563.653	527.25
563.865	509.25
564.077	520.25
564.289	528.25
564.501	523.25
564.713	535.25
564.925	533.25
565.137	545.25
565.349	560.25
565.561	567.25
565.773	596.25
565.985	625.25
566.197	647.25
566.408	671.25
566.62	767.25
566.832	823.25
567.044	852.25
567.255	806.25
567.467	843.25
567.679	895.25
567.891	1009.25
568.102	1036.25
568.314	969.25
568.526	856.25
568.737	781.25
568.949	695.25
569.161	641.25
569.372	576.25
569.584	575.25
569.795	530.25
570.007	519.25
570.218	508.25
570.43	503.25
570.641	525.25
570.853	527.25
571.064	541.25
571.276	539.25
571.487	528.25
571.698	493.25
571.91	477.25
572.121	465.25
572.333	454.25
572.544	444.25
572.755	429.25
572.966	449.25
573.178	439.25
573.389	427.25
573.6	424.25
573.811	410.25
574.023	423.25
574.234	421.25
574.445	404.25
574.656	428.25
574.867	412.25
575.078	413.25
575.289	431.25
575.501	411.25
575.712	386.25
575.923	391.25
576.134	382.25
576.345	393.25
576.556	387.25
576.767	403.25
576.978	402.25
577.188	408.25
577.399	401.25
577.61	375.25
577.821	381.25
578.032	381.25
578.243	385.25
578.454	389.25
578.665	384.25
578.875	349.25
579.086	370.25
579.297	373.25
579.508	374.25
579.718	364.25
579.929	371.25
580.14	353.25
580.35	348.25
580.561	362.25
580.772	353.25
580.982	343.25
581.193	351.25
581.403	341.25
581.614	346.25
581.825	341.25
582.035	345.25
582.246	353.25
582.456	358.25
582.667	348.25
582.877	356.25
583.087	352.25
583.298	353.25
583.508	349.25
583.719	325.25
583.929	357.25
584.139	362.25
584.35	354.25
584.56	355.25
584.77	347.25
584.981	338.25
585.191	353.25
585.401	352.25
585.611	323.25
585.821	338.25
586.032	343.25
586.242	319.25
586.452	344.25
586.662	354.25
586.872	327.25
587.082	332.25
587.292	331.25
587.502	351.25
587.713	337.25
587.923	339.25
588.133	347.25
588.343	345.25
588.553	346.25
588.762	331.25
588.972	348.25
589.182	326.25
589.392	330.25
589.602	337.25
589.812	346.25
590.022	329.25
590.232	347.25
590.441	340.25
590.651	334.25
590.861	337.25
591.071	331.25
591.281	358.25
591.49	350.25
591.7	346.25
591.91	355.25
592.119	374.25
592.329	389.25
592.539	381.25
592.748	401.25
592.958	417.25
593.167	433.25
593.377	421.25
593.587	451.25
593.796	422.25
594.006	433.25
594.215	449.25
594.424	434.25
594.634	422.25
594.843	421.25
595.053	406.25
595.262	400.25
595.472	371.25
595.681	359.25
595.89	367.25
596.1	333.25
596.309	352.25
596.518	343.25
596.727	328.25
596.937	327.25
597.146	327.25
597.355	296.25
597.564	311.25
597.774	315.25
597.983	287.25
598.192	285.25
598.401	298.25
598.61	309.25
598.819	313.25
599.028	300.25
599.237	302.25
599.446	288.25
599.655	292.25
599.864	301.25
600.073	309.25
600.282	287.25
600.491	295.25
600.7	282.25
600.909	301.25
601.118	314.25
601.327	282.25
601.536	282.25
601.745	277.25
601.953	292.25
602.162	289.25
602.371	284.25
602.58	289.25
602.789	273.25
602.997	282.25
603.206	278.25
603.415	278.25
603.623	292.25
603.832	273.25
604.041	279.25
604.249	256.25
604.458	270.25
604.666	277.25
604.875	265.25
605.084	258.25
605.292	268.25
605.501	255.25
605.709	259.25
605.918	263.25
606.126	275.25
606.334	272.25
606.543	267.25
606.751	257.25
606.96	262.25
607.168	261.25
607.376	281.25
607.585	248.25
607.793	247.25
608.001	260.25
608.21	253.25
608.418	261.25
608.626	278.25
608.834	286.25
609.043	268.25
609.251	259.25
609.459	266.25
609.667	262.25
609.875	268.25
610.083	257.25
610.291	256.25
610.499	270.25
610.707	255.25
610.916	266.25
611.124	258.25
611.332	270.25
611.54	267.25
611.748	275.25
611.955	251.25
612.163	251.25
612.371	262.25
612.579	263.25
612.787	268.25
612.995	246.25
613.203	252.25
613.411	257.25
613.618	245.25
613.826	252.25
614.034	237.25
614.242	243.25
614.449	242.25
614.657	252.25
614.865	246.25
615.072	241.25
615.28	231.25
615.488	238.25
615.695	242.25
615.903	257.25
616.111	259.25
616.318	263.25
616.526	231.25
616.733	250.25
616.941	265.25
617.148	262.25
617.356	263.25
617.563	261.25
617.771	264.25
617.978	257.25
618.185	247.25
618.393	232.25
618.6	264.25
618.807	259.25
619.015	275.25
619.222	236.25
619.429	228.25
619.637	232.25
619.844	245.25
620.051	230.25
620.258	228.25
620.466	247.25
620.673	238.25
620.88	222.25
621.087	235.25
621.294	247.25
621.501	222.25
621.708	232.25
621.915	228.25
622.122	218.25
622.329	239.25
622.536	236.25
622.743	221.25
622.95	225.25
623.157	230.25
623.364	238.25
623.571	215.25
623.778	211.25
623.985	226.25
624.192	229.25
624.399	227.25
624.606	223.25
624.812	224.25
625.019	207.25
625.226	212.25
625.433	220.25
625.639	229.25
625.846	198.25
626.053	229.25
626.259	224.25
626.466	214.25
626.673	203.25
626.879	201.25
627.086	198.25
627.293	212.25
627.499	220.25
627.706	211.25
627.912	203.25
628.119	203.25
628.325	211.25
628.532	204.25
628.738	219.25
628.945	218.25
629.151	206.25
629.357	201.25
629.564	190.25
629.77	206.25
629.976	205.25
630.183	204.25
630.389	216.25
630.595	187.25
630.802	199.25
631.008	198.25
631.214	198.25
631.42	198.25
631.627	200.25
631.833	187.25
632.039	207.25
632.245	190.25
632.451	201.25
632.657	214.25
632.863	189.25
633.069	182.25
633.275	184.25
633.481	196.25
633.688	174.25
633.893	206.25
634.099	206.25
634.305	192.25
634.511	191.25
634.717	184.25
634.923	166.25
635.129	186.25
635.335	176.25
635.541	174.25
635.747	169.25
635.952	183.25
636.158	187.25
636.364	190.25
636.57	190.25
636.775	192.25
636.981	179.25
637.187	164.25
637.392	179.25
637.598	193.25
637.804	174.25
638.009	204.25
638.215	194.25
638.421	177.25
638.626	181.25
638.832	188.25
639.037	177.25
639.243	168.25
639.448	181.25
639.654	186.25
639.859	183.25
640.065	177.25
640.27	178.25
640.475	177.25
640.681	181.25
640.886	166.25
641.091	174.25
641.297	193.25
641.502	165.25
641.707	182.25
641.913	167.25
642.118	182.25
642.323	184.25
642.528	183.25
642.733	170.25
642.939	162.25
643.144	187.25
643.349	157.25
643.554	181.25
643.759	157.25
643.964	173.25
644.169	167.25
644.374	165.25
644.579	168.25
644.784	171.25
644.989	177.25
645.194	167.25
645.399	161.25
645.604	158.25
645.809	144.25
646.014	169.25
646.219	172.25
646.423	148.25
646.628	167.25
646.833	173.25
647.038	180.25
647.243	179.25
647.447	185.25
647.652	167.25
647.857	179.25
648.062	185.25
648.266	197.25
648.471	186.25
648.676	197.25
648.88	178.25
649.085	173.25
649.289	172.25
649.494	167.25
649.698	182.25
649.903	161.25
650.107	179.25
650.312	155.25
650.516	169.25
650.721	157.25
650.925	163.25
651.13	169.25
651.334	152.25
651.539	147.25
651.743	143.25
651.947	153.25
652.152	151.25
652.356	147.25
652.56	141.25
652.764	139.25
652.969	149.25
653.173	150.25
653.377	137.25
653.581	139.25
653.785	134.25
653.99	129.25
654.194	125.25
654.398	142.25
654.602	128.25
654.806	133.25
655.01	132.25
655.214	125.25
655.418	119.25
655.622	130.25
655.826	128.25
656.03	126.25
656.234	125.25
656.438	124.25
656.642	122.25
656.846	120.25
657.049	132.25
657.253	115.25
657.457	115.25
657.661	110.25
657.865	133.25
658.068	101.25
658.272	102.25
658.476	108.25
658.68	109.25
658.883	96.25
659.087	102.25
659.291	114.25
659.494	94.25
659.698	95.25
659.901	101.25
660.105	89.25
660.309	104.25
660.512	112.25
660.716	103.25
660.919	87.25
661.123	94.25
661.326	92.25
661.53	95.25
661.733	97.25
661.936	77.25
662.14	73.25
662.343	80.25
662.546	83.25
662.75	89.25
662.953	95.25
663.156	86.25
663.36	87.25
663.563	92.25
663.766	91.25
663.969	78.25
664.173	81.25
664.376	85.25
664.579	78.25
664.782	82.25
664.985	74.25
665.188	85.25
665.391	73.25
665.594	87.25
665.797	71.25
666	93.25
666.203	81.25
666.406	85.25
666.609	86.25
666.812	85.25
667.015	86.25
667.218	88.25
667.421	83.25
667.624	78.25
667.827	90.25
668.03	79.25
668.232	73.25
668.435	82.25
668.638	76.25
668.841	87.25
669.043	82.25
669.246	84.25
669.449	79.25
669.651	78.25
669.854	74.25
670.057	83.25
670.259	95.25
670.462	78.25
670.665	83.25
670.867	97.25
671.07	81.25
671.272	86.25
671.475	90.25
671.677	77.25
671.88	80.25
672.082	79.25
672.284	82.25
672.487	88.25
672.689	76.25
672.892	86.25
