Data from Ni(NO3)2@0.0625M.TitratingCurve.Agarose3%dH2O.NegLispCup.LampEnergy10.LIBS07252019_HRD10591_18-15-33-569.txt Node
Date: Thu Jul 25 18:15:33 EDT 2019
User: cochatt
Spectrometer: HR+D1059
Trigger mode: 1
Integration Time (sec): 1.000000E-1
Scans to average: 1
Electric dark correction enabled: true
Nonlinearity correction enabled: false
Boxcar width: 0
XAxis mode: Wavelengths
Number of Pixels in Spectrum: 2048
>>>>>Begin Spectral Data<<<<<
223.165	-11.75
223.4	-11.75
223.635	-11.75
223.869	-20.75
224.104	-18.75
224.338	-24.75
224.573	-7.75
224.808	9.25
225.042	5.25
225.277	-10.75
225.511	-13.75
225.746	-3.75
225.98	3.25
226.215	-3.75
226.449	14.25
226.683	28.25
226.918	27.25
227.152	28.25
227.387	25.25
227.621	31.25
227.856	38.25
228.09	41.25
228.324	44.25
228.559	63.25
228.793	61.25
229.027	95.25
229.262	107.25
229.496	107.25
229.73	98.25
229.964	119.25
230.199	112.25
230.433	119.25
230.667	112.25
230.901	123.25
231.136	113.25
231.37	132.25
231.604	129.25
231.838	137.25
232.072	121.25
232.306	137.25
232.541	140.25
232.775	128.25
233.009	128.25
233.243	120.25
233.477	125.25
233.711	141.25
233.945	115.25
234.179	123.25
234.413	117.25
234.647	134.25
234.881	135.25
235.115	132.25
235.349	125.25
235.583	136.25
235.817	140.25
236.051	135.25
236.285	125.25
236.519	116.25
236.753	133.25
236.987	129.25
237.221	123.25
237.455	137.25
237.689	128.25
237.922	132.25
238.156	139.25
238.39	142.25
238.624	144.25
238.858	143.25
239.091	141.25
239.325	146.25
239.559	141.25
239.793	160.25
240.027	145.25
240.26	144.25
240.494	141.25
240.728	160.25
240.961	142.25
241.195	150.25
241.429	151.25
241.662	158.25
241.896	169.25
242.13	150.25
242.363	154.25
242.597	164.25
242.83	151.25
243.064	174.25
243.298	154.25
243.531	162.25
243.765	153.25
243.998	156.25
244.232	177.25
244.465	163.25
244.699	174.25
244.932	186.25
245.166	172.25
245.399	179.25
245.633	171.25
245.866	179.25
246.099	168.25
246.333	188.25
246.566	192.25
246.8	178.25
247.033	176.25
247.266	164.25
247.5	162.25
247.733	173.25
247.966	201.25
248.2	187.25
248.433	184.25
248.666	171.25
248.899	186.25
249.133	198.25
249.366	213.25
249.599	186.25
249.832	201.25
250.066	184.25
250.299	204.25
250.532	196.25
250.765	212.25
250.998	208.25
251.231	192.25
251.465	201.25
251.698	194.25
251.931	217.25
252.164	205.25
252.397	218.25
252.63	206.25
252.863	209.25
253.096	212.25
253.329	229.25
253.562	212.25
253.795	206.25
254.028	216.25
254.261	217.25
254.494	201.25
254.727	238.25
254.96	234.25
255.193	231.25
255.426	225.25
255.659	215.25
255.892	222.25
256.124	226.25
256.357	229.25
256.59	216.25
256.823	225.25
257.056	226.25
257.289	249.25
257.521	236.25
257.754	245.25
257.987	225.25
258.22	228.25
258.452	230.25
258.685	245.25
258.918	236.25
259.151	223.25
259.383	228.25
259.616	247.25
259.849	257.25
260.081	232.25
260.314	222.25
260.547	242.25
260.779	243.25
261.012	241.25
261.244	258.25
261.477	272.25
261.71	257.25
261.942	260.25
262.175	243.25
262.407	245.25
262.64	229.25
262.872	250.25
263.105	249.25
263.337	262.25
263.57	260.25
263.802	247.25
264.035	254.25
264.267	263.25
264.499	258.25
264.732	271.25
264.964	268.25
265.197	283.25
265.429	276.25
265.661	278.25
265.894	274.25
266.126	279.25
266.358	276.25
266.591	286.25
266.823	280.25
267.055	262.25
267.287	266.25
267.52	276.25
267.752	262.25
267.984	286.25
268.216	268.25
268.448	284.25
268.681	276.25
268.913	280.25
269.145	282.25
269.377	265.25
269.609	286.25
269.841	285.25
270.073	281.25
270.306	287.25
270.538	276.25
270.77	283.25
271.002	284.25
271.234	292.25
271.466	293.25
271.698	292.25
271.93	294.25
272.162	283.25
272.394	282.25
272.626	300.25
272.858	281.25
273.09	312.25
273.322	315.25
273.553	290.25
273.785	307.25
274.017	299.25
274.249	310.25
274.481	320.25
274.713	302.25
274.945	312.25
275.176	310.25
275.408	304.25
275.64	314.25
275.872	323.25
276.104	328.25
276.335	304.25
276.567	308.25
276.799	328.25
277.031	312.25
277.262	327.25
277.494	346.25
277.726	327.25
277.957	321.25
278.189	336.25
278.421	334.25
278.652	320.25
278.884	322.25
279.115	323.25
279.347	332.25
279.579	338.25
279.81	336.25
280.042	341.25
280.273	340.25
280.505	359.25
280.736	352.25
280.968	351.25
281.199	328.25
281.431	354.25
281.662	340.25
281.894	351.25
282.125	338.25
282.356	362.25
282.588	352.25
282.819	341.25
283.051	370.25
283.282	347.25
283.513	361.25
283.745	355.25
283.976	347.25
284.207	369.25
284.439	378.25
284.67	366.25
284.901	376.25
285.132	364.25
285.364	359.25
285.595	372.25
285.826	359.25
286.057	384.25
286.288	363.25
286.52	370.25
286.751	373.25
286.982	373.25
287.213	346.25
287.444	404.25
287.675	378.25
287.906	384.25
288.138	370.25
288.369	386.25
288.6	388.25
288.831	402.25
289.062	388.25
289.293	397.25
289.524	385.25
289.755	373.25
289.986	381.25
290.217	397.25
290.448	389.25
290.679	387.25
290.91	399.25
291.141	405.25
291.371	402.25
291.602	408.25
291.833	394.25
292.064	385.25
292.295	390.25
292.526	412.25
292.757	384.25
292.987	396.25
293.218	403.25
293.449	384.25
293.68	408.25
293.91	384.25
294.141	422.25
294.372	404.25
294.603	391.25
294.833	397.25
295.064	399.25
295.295	404.25
295.525	402.25
295.756	406.25
295.987	417.25
296.217	410.25
296.448	406.25
296.679	412.25
296.909	429.25
297.14	427.25
297.37	425.25
297.601	443.25
297.831	420.25
298.062	419.25
298.292	434.25
298.523	444.25
298.753	448.25
298.984	452.25
299.214	427.25
299.445	440.25
299.675	432.25
299.905	460.25
300.136	448.25
300.366	443.25
300.597	474.25
300.827	462.25
301.057	466.25
301.288	470.25
301.518	480.25
301.748	453.25
301.979	471.25
302.209	451.25
302.439	435.25
302.669	443.25
302.9	459.25
303.13	439.25
303.36	445.25
303.59	438.25
303.82	438.25
304.051	468.25
304.281	467.25
304.511	438.25
304.741	437.25
304.971	451.25
305.201	447.25
305.431	444.25
305.661	440.25
305.891	485.25
306.121	453.25
306.352	445.25
306.582	446.25
306.812	436.25
307.042	423.25
307.272	434.25
307.502	444.25
307.731	432.25
307.961	432.25
308.191	440.25
308.421	446.25
308.651	444.25
308.881	445.25
309.111	425.25
309.341	426.25
309.571	428.25
309.8	420.25
310.03	459.25
310.26	462.25
310.49	480.25
310.72	434.25
310.949	440.25
311.179	448.25
311.409	446.25
311.639	444.25
311.868	459.25
312.098	458.25
312.328	451.25
312.557	462.25
312.787	475.25
313.017	475.25
313.246	453.25
313.476	491.25
313.706	503.25
313.935	481.25
314.165	481.25
314.394	473.25
314.624	463.25
314.853	469.25
315.083	469.25
315.312	484.25
315.542	462.25
315.771	467.25
316.001	468.25
316.23	453.25
316.46	463.25
316.689	468.25
316.919	471.25
317.148	452.25
317.377	464.25
317.607	458.25
317.836	472.25
318.065	466.25
318.295	457.25
318.524	478.25
318.753	467.25
318.983	451.25
319.212	444.25
319.441	470.25
319.67	475.25
319.9	452.25
320.129	461.25
320.358	446.25
320.587	466.25
320.816	444.25
321.046	442.25
321.275	448.25
321.504	468.25
321.733	467.25
321.962	483.25
322.191	488.25
322.42	460.25
322.649	479.25
322.878	464.25
323.108	482.25
323.337	470.25
323.566	457.25
323.795	467.25
324.024	485.25
324.253	469.25
324.482	472.25
324.71	477.25
324.939	500.25
325.168	502.25
325.397	497.25
325.626	485.25
325.855	512.25
326.084	512.25
326.313	526.25
326.542	525.25
326.77	521.25
326.999	515.25
327.228	514.25
327.457	517.25
327.686	531.25
327.914	506.25
328.143	511.25
328.372	523.25
328.6	496.25
328.829	524.25
329.058	498.25
329.287	504.25
329.515	508.25
329.744	532.25
329.972	532.25
330.201	534.25
330.43	529.25
330.658	541.25
330.887	541.25
331.115	537.25
331.344	538.25
331.572	531.25
331.801	539.25
332.03	560.25
332.258	595.25
332.486	593.25
332.715	595.25
332.943	653.25
333.172	681.25
333.4	673.25
333.629	690.25
333.857	690.25
334.085	697.25
334.314	678.25
334.542	664.25
334.771	648.25
334.999	626.25
335.227	619.25
335.455	639.25
335.684	636.25
335.912	630.25
336.14	631.25
336.369	632.25
336.597	605.25
336.825	635.25
337.053	636.25
337.281	604.25
337.51	589.25
337.738	595.25
337.966	569.25
338.194	572.25
338.422	561.25
338.65	561.25
338.878	580.25
339.106	574.25
339.334	574.25
339.562	556.25
339.79	535.25
340.018	553.25
340.246	518.25
340.474	519.25
340.702	518.25
340.93	546.25
341.158	536.25
341.386	544.25
341.614	552.25
341.842	566.25
342.07	536.25
342.298	522.25
342.526	556.25
342.754	543.25
342.981	534.25
343.209	554.25
343.437	588.25
343.665	613.25
343.893	674.25
344.12	688.25
344.348	645.25
344.576	613.25
344.804	582.25
345.031	536.25
345.259	552.25
345.487	570.25
345.714	553.25
345.942	551.25
346.17	547.25
346.397	557.25
346.625	551.25
346.853	508.25
347.08	546.25
347.308	553.25
347.535	547.25
347.763	553.25
347.99	545.25
348.218	527.25
348.445	541.25
348.673	530.25
348.9	532.25
349.128	518.25
349.355	538.25
349.583	554.25
349.81	518.25
350.037	513.25
350.265	509.25
350.492	530.25
350.72	499.25
350.947	520.25
351.174	523.25
351.402	529.25
351.629	539.25
351.856	500.25
352.083	522.25
352.311	505.25
352.538	504.25
352.765	503.25
352.992	510.25
353.22	487.25
353.447	480.25
353.674	488.25
353.901	502.25
354.128	514.25
354.355	502.25
354.583	496.25
354.81	512.25
355.037	511.25
355.264	521.25
355.491	503.25
355.718	507.25
355.945	500.25
356.172	504.25
356.399	537.25
356.626	535.25
356.853	517.25
357.08	525.25
357.307	498.25
357.534	492.25
357.761	507.25
357.988	542.25
358.215	526.25
358.441	523.25
358.668	517.25
358.895	491.25
359.122	502.25
359.349	522.25
359.576	507.25
359.802	514.25
360.029	516.25
360.256	507.25
360.483	534.25
360.709	518.25
360.936	530.25
361.163	532.25
361.39	499.25
361.616	485.25
361.843	525.25
362.07	516.25
362.296	526.25
362.523	526.25
362.749	501.25
362.976	493.25
363.203	529.25
363.429	493.25
363.656	489.25
363.882	491.25
364.109	508.25
364.335	504.25
364.562	500.25
364.788	508.25
365.015	540.25
365.241	500.25
365.468	510.25
365.694	505.25
365.92	500.25
366.147	520.25
366.373	504.25
366.599	522.25
366.826	508.25
367.052	486.25
367.278	528.25
367.505	510.25
367.731	519.25
367.957	487.25
368.184	493.25
368.41	520.25
368.636	540.25
368.862	524.25
369.089	509.25
369.315	538.25
369.541	534.25
369.767	518.25
369.993	532.25
370.219	512.25
370.445	532.25
370.672	553.25
370.898	543.25
371.124	546.25
371.35	546.25
371.576	573.25
371.802	562.25
372.028	562.25
372.254	555.25
372.48	548.25
372.706	572.25
372.932	561.25
373.158	554.25
373.384	564.25
373.61	542.25
373.835	564.25
374.061	571.25
374.287	567.25
374.513	573.25
374.739	602.25
374.965	596.25
375.191	644.25
375.416	612.25
375.642	572.25
375.868	604.25
376.094	598.25
376.319	566.25
376.545	539.25
376.771	564.25
376.997	554.25
377.222	550.25
377.448	554.25
377.674	509.25
377.899	542.25
378.125	556.25
378.35	575.25
378.576	540.25
378.802	548.25
379.027	545.25
379.253	556.25
379.478	537.25
379.704	549.25
379.929	544.25
380.155	527.25
380.38	548.25
380.606	553.25
380.831	541.25
381.057	549.25
381.282	547.25
381.507	561.25
381.733	564.25
381.958	562.25
382.184	557.25
382.409	566.25
382.634	546.25
382.86	568.25
383.085	585.25
383.31	584.25
383.535	599.25
383.761	615.25
383.986	634.25
384.211	644.25
384.436	621.25
384.662	674.25
384.887	659.25
385.112	653.25
385.337	668.25
385.562	677.25
385.787	654.25
386.013	683.25
386.238	680.25
386.463	686.25
386.688	676.25
386.913	664.25
387.138	650.25
387.363	670.25
387.588	655.25
387.813	626.25
388.038	642.25
388.263	634.25
388.488	632.25
388.713	645.25
388.938	648.25
389.163	621.25
389.387	655.25
389.612	655.25
389.837	637.25
390.062	637.25
390.287	625.25
390.512	650.25
390.736	655.25
390.961	670.25
391.186	684.25
391.411	682.25
391.636	695.25
391.86	725.25
392.085	736.25
392.31	748.25
392.534	727.25
392.759	719.25
392.984	706.25
393.208	674.25
393.433	673.25
393.658	693.25
393.882	711.25
394.107	710.25
394.331	718.25
394.556	700.25
394.78	724.25
395.005	705.25
395.229	707.25
395.454	710.25
395.678	739.25
395.903	739.25
396.127	715.25
396.352	698.25
396.576	698.25
396.801	681.25
397.025	686.25
397.249	721.25
397.474	728.25
397.698	716.25
397.922	745.25
398.147	745.25
398.371	781.25
398.595	760.25
398.82	805.25
399.044	843.25
399.268	953.25
399.492	1100.25
399.717	1271.25
399.941	1283.25
400.165	1090.25
400.389	962.25
400.613	897.25
400.837	854.25
401.062	828.25
401.286	800.25
401.51	820.25
401.734	832.25
401.958	852.25
402.182	844.25
402.406	829.25
402.63	846.25
402.854	873.25
403.078	883.25
403.302	926.25
403.526	927.25
403.75	989.25
403.974	978.25
404.198	938.25
404.422	948.25
404.645	944.25
404.869	946.25
405.093	932.25
405.317	894.25
405.541	877.25
405.765	896.25
405.988	878.25
406.212	889.25
406.436	898.25
406.66	906.25
406.883	920.25
407.107	1012.25
407.331	1037.25
407.555	1063.25
407.778	1038.25
408.002	1034.25
408.226	1010.25
408.449	992.25
408.673	917.25
408.896	933.25
409.12	911.25
409.344	947.25
409.567	944.25
409.791	969.25
410.014	948.25
410.238	930.25
410.461	933.25
410.685	917.25
410.908	913.25
411.132	894.25
411.355	867.25
411.578	858.25
411.802	876.25
412.025	867.25
412.249	873.25
412.472	867.25
412.695	842.25
412.919	821.25
413.142	794.25
413.365	810.25
413.589	832.25
413.812	812.25
414.035	809.25
414.258	834.25
414.482	812.25
414.705	842.25
414.928	856.25
415.151	838.25
415.374	853.25
415.597	816.25
415.821	806.25
416.044	805.25
416.267	780.25
416.49	806.25
416.713	803.25
416.936	801.25
417.159	823.25
417.382	808.25
417.605	794.25
417.828	799.25
418.051	818.25
418.274	813.25
418.497	818.25
418.72	842.25
418.943	837.25
419.166	906.25
419.389	953.25
419.611	929.25
419.834	883.25
420.057	834.25
420.28	824.25
420.503	806.25
420.726	796.25
420.948	829.25
421.171	804.25
421.394	817.25
421.617	815.25
421.839	804.25
422.062	797.25
422.285	828.25
422.507	837.25
422.73	836.25
422.953	845.25
423.175	854.25
423.398	864.25
423.621	858.25
423.843	874.25
424.066	897.25
424.288	838.25
424.511	836.25
424.733	852.25
424.956	844.25
425.178	836.25
425.401	817.25
425.623	804.25
425.846	807.25
426.068	786.25
426.291	788.25
426.513	782.25
426.735	779.25
426.958	769.25
427.18	732.25
427.402	743.25
427.625	754.25
427.847	710.25
428.069	716.25
428.292	729.25
428.514	718.25
428.736	754.25
428.958	726.25
429.181	704.25
429.403	720.25
429.625	718.25
429.847	694.25
430.069	720.25
430.292	701.25
430.514	714.25
430.736	713.25
430.958	696.25
431.18	716.25
431.402	749.25
431.624	719.25
431.846	736.25
432.068	729.25
432.29	754.25
432.512	731.25
432.734	746.25
432.956	727.25
433.178	724.25
433.4	745.25
433.622	723.25
433.844	743.25
434.066	726.25
434.287	766.25
434.509	785.25
434.731	820.25
434.953	837.25
435.175	853.25
435.397	852.25
435.618	777.25
435.84	761.25
436.062	751.25
436.284	736.25
436.505	746.25
436.727	765.25
436.949	748.25
437.17	734.25
437.392	729.25
437.614	728.25
437.835	725.25
438.057	708.25
438.278	694.25
438.5	698.25
438.721	701.25
438.943	726.25
439.165	702.25
439.386	710.25
439.608	733.25
439.829	722.25
440.05	724.25
440.272	747.25
440.493	760.25
440.715	752.25
440.936	784.25
441.158	791.25
441.379	801.25
441.6	851.25
441.822	840.25
442.043	845.25
442.264	817.25
442.486	794.25
442.707	811.25
442.928	797.25
443.149	800.25
443.371	811.25
443.592	820.25
443.813	818.25
444.034	832.25
444.255	884.25
444.476	901.25
444.698	968.25
444.919	1000.25
445.14	1139.25
445.361	949.25
445.582	860.25
445.803	824.25
446.024	783.25
446.245	781.25
446.466	770.25
446.687	761.25
446.908	766.25
447.129	722.25
447.35	725.25
447.571	684.25
447.792	706.25
448.013	694.25
448.234	704.25
448.455	703.25
448.675	659.25
448.896	708.25
449.117	690.25
449.338	676.25
449.559	658.25
449.779	674.25
450	680.25
450.221	698.25
450.442	679.25
450.662	670.25
450.883	690.25
451.104	740.25
451.324	726.25
451.545	704.25
451.766	695.25
451.986	716.25
452.207	702.25
452.428	675.25
452.648	685.25
452.869	694.25
453.089	672.25
453.31	691.25
453.53	679.25
453.751	674.25
453.971	664.25
454.192	647.25
454.412	645.25
454.633	619.25
454.853	663.25
455.073	639.25
455.294	651.25
455.514	671.25
455.734	666.25
455.955	626.25
456.175	636.25
456.395	614.25
456.616	628.25
456.836	614.25
457.056	629.25
457.276	614.25
457.497	616.25
457.717	650.25
457.937	640.25
458.157	652.25
458.377	662.25
458.598	675.25
458.818	688.25
459.038	696.25
459.258	725.25
459.478	758.25
459.698	790.25
459.918	789.25
460.138	818.25
460.358	859.25
460.578	881.25
460.798	872.25
461.018	884.25
461.238	898.25
461.458	874.25
461.678	857.25
461.898	886.25
462.118	890.25
462.338	918.25
462.558	951.25
462.777	998.25
462.997	1093.25
463.217	1186.25
463.437	1218.25
463.657	1105.25
463.876	1017.25
464.096	1017.25
464.316	1041.25
464.536	1034.25
464.755	981.25
464.975	941.25
465.195	924.25
465.414	851.25
465.634	798.25
465.854	788.25
466.073	755.25
466.293	758.25
466.512	727.25
466.732	741.25
466.951	737.25
467.171	716.25
467.391	717.25
467.61	702.25
467.829	696.25
468.049	694.25
468.268	707.25
468.488	676.25
468.707	676.25
468.927	685.25
469.146	711.25
469.365	692.25
469.585	674.25
469.804	711.25
470.023	709.25
470.243	725.25
470.462	754.25
470.681	737.25
470.901	766.25
471.12	710.25
471.339	705.25
471.558	716.25
471.777	704.25
471.997	673.25
472.216	668.25
472.435	679.25
472.654	658.25
472.873	669.25
473.092	666.25
473.311	665.25
473.53	657.25
473.749	669.25
473.968	684.25
474.187	648.25
474.406	649.25
474.625	660.25
474.844	650.25
475.063	672.25
475.282	680.25
475.501	696.25
475.72	705.25
475.939	696.25
476.158	708.25
476.377	711.25
476.596	684.25
476.814	715.25
477.033	703.25
477.252	738.25
477.471	746.25
477.69	751.25
477.908	772.25
478.127	783.25
478.346	797.25
478.564	794.25
478.783	790.25
479.002	838.25
479.22	820.25
479.439	822.25
479.658	831.25
479.876	834.25
480.095	839.25
480.313	894.25
480.532	910.25
480.751	940.25
480.969	858.25
481.188	845.25
481.406	835.25
481.624	800.25
481.843	805.25
482.061	741.25
482.28	776.25
482.498	779.25
482.717	751.25
482.935	764.25
483.153	778.25
483.372	778.25
483.59	774.25
483.808	772.25
484.027	792.25
484.245	786.25
484.463	797.25
484.681	809.25
484.9	803.25
485.118	818.25
485.336	840.25
485.554	839.25
485.772	837.25
485.99	828.25
486.209	802.25
486.427	854.25
486.645	822.25
486.863	832.25
487.081	825.25
487.299	813.25
487.517	817.25
487.735	790.25
487.953	822.25
488.171	800.25
488.389	818.25
488.607	806.25
488.825	794.25
489.043	776.25
489.261	789.25
489.479	796.25
489.696	781.25
489.914	796.25
490.132	816.25
490.35	814.25
490.568	792.25
490.786	827.25
491.003	828.25
491.221	821.25
491.439	822.25
491.657	818.25
491.874	794.25
492.092	806.25
492.31	822.25
492.527	837.25
492.745	813.25
492.963	842.25
493.18	836.25
493.398	835.25
493.615	826.25
493.833	858.25
494.05	850.25
494.268	838.25
494.485	845.25
494.703	866.25
494.92	856.25
495.138	843.25
495.355	844.25
495.573	849.25
495.79	852.25
496.008	882.25
496.225	861.25
496.442	892.25
496.66	898.25
496.877	864.25
497.094	899.25
497.312	918.25
497.529	913.25
497.746	941.25
497.963	968.25
498.181	993.25
498.398	1054.25
498.615	1092.25
498.832	1184.25
499.049	1252.25
499.267	1368.25
499.484	1483.25
499.701	1694.25
499.918	1873.25
500.135	2163.25
500.352	2473.25
500.569	2631.25
500.786	2544.25
501.003	2370.25
501.22	2149.25
501.437	1853.25
501.654	1597.25
501.871	1482.25
502.088	1328.25
502.305	1282.25
502.522	1209.25
502.739	1143.25
502.956	1070.25
503.172	1030.25
503.389	1006.25
503.606	965.25
503.823	955.25
504.04	958.25
504.256	979.25
504.473	1000.25
504.69	1002.25
504.907	1010.25
505.123	923.25
505.34	862.25
505.557	836.25
505.773	825.25
505.99	832.25
506.207	804.25
506.423	788.25
506.64	794.25
506.856	783.25
507.073	750.25
507.289	752.25
507.506	764.25
507.722	762.25
507.939	744.25
508.155	724.25
508.372	732.25
508.588	715.25
508.805	713.25
509.021	720.25
509.238	708.25
509.454	705.25
509.67	710.25
509.887	717.25
510.103	704.25
510.319	689.25
510.536	688.25
510.752	685.25
510.968	683.25
511.184	681.25
511.401	677.25
511.617	704.25
511.833	684.25
512.049	704.25
512.265	684.25
512.481	711.25
512.698	662.25
512.914	674.25
513.13	686.25
513.346	693.25
513.562	696.25
513.778	692.25
513.994	694.25
514.21	689.25
514.426	701.25
514.642	685.25
514.858	692.25
515.074	698.25
515.29	713.25
515.506	698.25
515.721	719.25
515.937	721.25
516.153	732.25
516.369	757.25
516.585	766.25
516.801	802.25
517.016	850.25
517.232	883.25
517.448	954.25
517.664	951.25
517.879	971.25
518.095	968.25
518.311	948.25
518.527	897.25
518.742	851.25
518.958	810.25
519.173	783.25
519.389	775.25
519.605	747.25
519.82	710.25
520.036	713.25
520.251	706.25
520.467	699.25
520.682	707.25
520.898	695.25
521.113	677.25
521.329	689.25
521.544	668.25
521.76	668.25
521.975	660.25
522.19	670.25
522.406	655.25
522.621	638.25
522.836	644.25
523.052	640.25
523.267	649.25
523.482	638.25
523.698	650.25
523.913	635.25
524.128	648.25
524.343	632.25
524.559	626.25
524.774	653.25
524.989	646.25
525.204	617.25
525.419	636.25
525.634	632.25
525.849	637.25
526.064	650.25
526.28	644.25
526.495	637.25
526.71	636.25
526.925	613.25
527.14	621.25
527.355	605.25
527.57	610.25
527.785	612.25
527.999	618.25
528.214	646.25
528.429	626.25
528.644	628.25
528.859	627.25
529.074	634.25
529.289	625.25
529.503	633.25
529.718	637.25
529.933	661.25
530.148	635.25
530.363	646.25
530.577	635.25
530.792	620.25
531.007	650.25
531.221	646.25
531.436	626.25
531.651	648.25
531.865	634.25
532.08	661.25
532.295	638.25
532.509	643.25
532.724	639.25
532.938	625.25
533.153	638.25
533.367	623.25
533.582	624.25
533.796	613.25
534.011	610.25
534.225	604.25
534.44	632.25
534.654	624.25
534.868	612.25
535.083	592.25
535.297	596.25
535.511	618.25
535.726	621.25
535.94	615.25
536.154	593.25
536.369	583.25
536.583	597.25
536.797	594.25
537.011	576.25
537.225	582.25
537.44	582.25
537.654	602.25
537.868	579.25
538.082	594.25
538.296	578.25
538.51	588.25
538.724	591.25
538.938	570.25
539.153	590.25
539.367	582.25
539.581	576.25
539.795	556.25
540.009	591.25
540.222	600.25
540.436	577.25
540.65	584.25
540.864	574.25
541.078	568.25
541.292	561.25
541.506	570.25
541.72	571.25
541.934	551.25
542.147	566.25
542.361	551.25
542.575	544.25
542.789	553.25
543.002	549.25
543.216	565.25
543.43	560.25
543.644	572.25
543.857	561.25
544.071	555.25
544.285	553.25
544.498	543.25
544.712	580.25
544.925	573.25
545.139	568.25
545.352	580.25
545.566	582.25
545.779	590.25
545.993	584.25
546.206	590.25
546.42	577.25
546.633	593.25
546.847	563.25
547.06	597.25
547.274	588.25
547.487	568.25
547.7	550.25
547.914	597.25
548.127	588.25
548.34	573.25
548.554	585.25
548.767	541.25
548.98	579.25
549.193	572.25
549.407	588.25
549.62	595.25
549.833	595.25
550.046	597.25
550.259	570.25
550.473	603.25
550.686	580.25
550.899	556.25
551.112	568.25
551.325	573.25
551.538	552.25
551.751	551.25
551.964	530.25
552.177	579.25
552.39	572.25
552.603	599.25
552.816	588.25
553.029	620.25
553.242	606.25
553.455	633.25
553.667	639.25
553.88	632.25
554.093	608.25
554.306	605.25
554.519	584.25
554.732	572.25
554.944	557.25
555.157	561.25
555.37	559.25
555.583	532.25
555.795	522.25
556.008	507.25
556.221	510.25
556.433	517.25
556.646	488.25
556.859	510.25
557.071	493.25
557.284	519.25
557.496	518.25
557.709	504.25
557.921	489.25
558.134	490.25
558.346	475.25
558.559	478.25
558.771	514.25
558.984	503.25
559.196	474.25
559.409	487.25
559.621	499.25
559.833	496.25
560.046	485.25
560.258	496.25
560.47	481.25
560.683	485.25
560.895	484.25
561.107	480.25
561.32	475.25
561.532	477.25
561.744	490.25
561.956	490.25
562.168	492.25
562.381	473.25
562.593	474.25
562.805	490.25
563.017	467.25
563.229	487.25
563.441	498.25
563.653	496.25
563.865	504.25
564.077	499.25
564.289	510.25
564.501	488.25
564.713	529.25
564.925	524.25
565.137	506.25
565.349	529.25
565.561	523.25
565.773	556.25
565.985	582.25
566.197	614.25
566.408	656.25
566.62	724.25
566.832	757.25
567.044	776.25
567.255	780.25
567.467	816.25
567.679	855.25
567.891	954.25
568.102	964.25
568.314	914.25
568.526	778.25
568.737	712.25
568.949	661.25
569.161	612.25
569.372	572.25
569.584	550.25
569.795	538.25
570.007	520.25
570.218	482.25
570.43	478.25
570.641	472.25
570.853	504.25
571.064	510.25
571.276	498.25
571.487	473.25
571.698	457.25
571.91	460.25
572.121	446.25
572.333	437.25
572.544	434.25
572.755	424.25
572.966	416.25
573.178	443.25
573.389	432.25
573.6	412.25
573.811	399.25
574.023	421.25
574.234	408.25
574.445	415.25
574.656	416.25
574.867	412.25
575.078	418.25
575.289	386.25
575.501	384.25
575.712	377.25
575.923	388.25
576.134	395.25
576.345	413.25
576.556	407.25
576.767	376.25
576.978	389.25
577.188	390.25
577.399	372.25
577.61	370.25
577.821	374.25
578.032	375.25
578.243	357.25
578.454	375.25
578.665	372.25
578.875	373.25
579.086	370.25
579.297	363.25
579.508	371.25
579.718	345.25
579.929	376.25
580.14	378.25
580.35	369.25
580.561	337.25
580.772	350.25
580.982	362.25
581.193	348.25
581.403	358.25
581.614	357.25
581.825	369.25
582.035	336.25
582.246	340.25
582.456	350.25
582.667	336.25
582.877	338.25
583.087	340.25
583.298	351.25
583.508	340.25
583.719	348.25
583.929	345.25
584.139	343.25
584.35	338.25
584.56	333.25
584.77	335.25
584.981	340.25
585.191	329.25
585.401	358.25
585.611	326.25
585.821	346.25
586.032	325.25
586.242	339.25
586.452	330.25
586.662	324.25
586.872	338.25
587.082	317.25
587.292	314.25
587.502	328.25
587.713	341.25
587.923	323.25
588.133	328.25
588.343	325.25
588.553	348.25
588.762	328.25
588.972	354.25
589.182	354.25
589.392	352.25
589.602	332.25
589.812	350.25
590.022	333.25
590.232	314.25
590.441	329.25
590.651	341.25
590.861	317.25
591.071	332.25
591.281	331.25
591.49	339.25
591.7	331.25
591.91	364.25
592.119	372.25
592.329	368.25
592.539	398.25
592.748	406.25
592.958	399.25
593.167	401.25
593.377	419.25
593.587	395.25
593.796	416.25
594.006	413.25
594.215	426.25
594.424	441.25
594.634	433.25
594.843	393.25
595.053	373.25
595.262	360.25
595.472	376.25
595.681	357.25
595.89	335.25
596.1	306.25
596.309	328.25
596.518	321.25
596.727	323.25
596.937	313.25
597.146	308.25
597.355	330.25
597.564	309.25
597.774	301.25
597.983	289.25
598.192	301.25
598.401	278.25
598.61	317.25
598.819	298.25
599.028	296.25
599.237	301.25
599.446	295.25
599.655	314.25
599.864	283.25
600.073	291.25
600.282	270.25
600.491	264.25
600.7	255.25
600.909	302.25
601.118	274.25
601.327	281.25
601.536	286.25
601.745	282.25
601.953	287.25
602.162	285.25
602.371	283.25
602.58	289.25
602.789	288.25
602.997	283.25
603.206	290.25
603.415	280.25
603.623	278.25
603.832	277.25
604.041	263.25
604.249	260.25
604.458	279.25
604.666	264.25
604.875	272.25
605.084	266.25
605.292	272.25
605.501	259.25
605.709	245.25
605.918	273.25
606.126	251.25
606.334	266.25
606.543	262.25
606.751	259.25
606.96	244.25
607.168	261.25
607.376	236.25
607.585	265.25
607.793	258.25
608.001	245.25
608.21	266.25
608.418	244.25
608.626	269.25
608.834	260.25
609.043	244.25
609.251	249.25
609.459	257.25
609.667	261.25
609.875	274.25
610.083	259.25
610.291	232.25
610.499	244.25
610.707	235.25
610.916	240.25
611.124	250.25
611.332	260.25
611.54	233.25
611.748	264.25
611.955	245.25
612.163	238.25
612.371	242.25
612.579	251.25
612.787	237.25
612.995	258.25
613.203	244.25
613.411	266.25
613.618	251.25
613.826	240.25
614.034	255.25
614.242	254.25
614.449	232.25
614.657	240.25
614.865	239.25
615.072	244.25
615.28	267.25
615.488	238.25
615.695	239.25
615.903	245.25
616.111	258.25
616.318	250.25
616.526	251.25
616.733	242.25
616.941	260.25
617.148	242.25
617.356	244.25
617.563	246.25
617.771	246.25
617.978	230.25
618.185	255.25
618.393	253.25
618.6	248.25
618.807	238.25
619.015	251.25
619.222	254.25
619.429	250.25
619.637	236.25
619.844	244.25
620.051	230.25
620.258	230.25
620.466	234.25
620.673	222.25
620.88	222.25
621.087	225.25
621.294	237.25
621.501	230.25
621.708	231.25
621.915	221.25
622.122	225.25
622.329	236.25
622.536	230.25
622.743	227.25
622.95	207.25
623.157	228.25
623.364	217.25
623.571	222.25
623.778	222.25
623.985	236.25
624.192	222.25
624.399	221.25
624.606	232.25
624.812	231.25
625.019	212.25
625.226	211.25
625.433	229.25
625.639	217.25
625.846	229.25
626.053	221.25
626.259	226.25
626.466	210.25
626.673	215.25
626.879	226.25
627.086	211.25
627.293	201.25
627.499	196.25
627.706	224.25
627.912	201.25
628.119	200.25
628.325	207.25
628.532	205.25
628.738	206.25
628.945	211.25
629.151	212.25
629.357	220.25
629.564	206.25
629.77	175.25
629.976	210.25
630.183	200.25
630.389	209.25
630.595	186.25
630.802	197.25
631.008	210.25
631.214	189.25
631.42	209.25
631.627	196.25
631.833	205.25
632.039	196.25
632.245	200.25
632.451	199.25
632.657	186.25
632.863	202.25
633.069	180.25
633.275	178.25
633.481	188.25
633.688	203.25
633.893	193.25
634.099	199.25
634.305	205.25
634.511	201.25
634.717	186.25
634.923	202.25
635.129	196.25
635.335	183.25
635.541	185.25
635.747	202.25
635.952	177.25
636.158	197.25
636.364	174.25
636.57	194.25
636.775	178.25
636.981	176.25
637.187	159.25
637.392	187.25
637.598	199.25
637.804	183.25
638.009	199.25
638.215	180.25
638.421	170.25
638.626	169.25
638.832	190.25
639.037	158.25
639.243	153.25
639.448	178.25
639.654	185.25
639.859	180.25
640.065	172.25
640.27	168.25
640.475	184.25
640.681	176.25
640.886	182.25
641.091	181.25
641.297	180.25
641.502	172.25
641.707	174.25
641.913	174.25
642.118	187.25
642.323	176.25
642.528	182.25
642.733	174.25
642.939	168.25
643.144	180.25
643.349	165.25
643.554	177.25
643.759	168.25
643.964	164.25
644.169	154.25
644.374	165.25
644.579	157.25
644.784	174.25
644.989	180.25
645.194	162.25
645.399	165.25
645.604	178.25
645.809	161.25
646.014	156.25
646.219	184.25
646.423	182.25
646.628	166.25
646.833	182.25
647.038	160.25
647.243	170.25
647.447	172.25
647.652	164.25
647.857	183.25
648.062	184.25
648.266	177.25
648.471	185.25
648.676	182.25
648.88	178.25
649.085	179.25
649.289	170.25
649.494	158.25
649.698	166.25
649.903	183.25
650.107	182.25
650.312	169.25
650.516	166.25
650.721	170.25
650.925	170.25
651.13	156.25
651.334	166.25
651.539	173.25
651.743	157.25
651.947	158.25
652.152	156.25
652.356	161.25
652.56	152.25
652.764	166.25
652.969	159.25
653.173	146.25
653.377	135.25
653.581	138.25
653.785	151.25
653.99	152.25
654.194	165.25
654.398	135.25
654.602	155.25
654.806	143.25
655.01	141.25
655.214	141.25
655.418	147.25
655.622	153.25
655.826	155.25
656.03	155.25
656.234	153.25
656.438	164.25
656.642	156.25
656.846	159.25
657.049	138.25
657.253	130.25
657.457	130.25
657.661	134.25
657.865	113.25
658.068	125.25
658.272	115.25
658.476	116.25
658.68	132.25
658.883	100.25
659.087	114.25
659.291	106.25
659.494	117.25
659.698	104.25
659.901	96.25
660.105	101.25
660.309	95.25
660.512	104.25
660.716	83.25
660.919	86.25
661.123	89.25
661.326	87.25
661.53	94.25
661.733	94.25
661.936	94.25
662.14	81.25
662.343	96.25
662.546	90.25
662.75	91.25
662.953	104.25
663.156	87.25
663.36	74.25
663.563	98.25
663.766	94.25
663.969	92.25
664.173	91.25
664.376	92.25
664.579	81.25
664.782	70.25
664.985	74.25
665.188	98.25
665.391	79.25
665.594	77.25
665.797	74.25
666	82.25
666.203	66.25
666.406	88.25
666.609	81.25
666.812	72.25
667.015	83.25
667.218	80.25
667.421	82.25
667.624	74.25
667.827	82.25
668.03	77.25
668.232	84.25
668.435	78.25
668.638	73.25
668.841	80.25
669.043	81.25
669.246	74.25
669.449	95.25
669.651	95.25
669.854	84.25
670.057	79.25
670.259	86.25
670.462	83.25
670.665	71.25
670.867	88.25
671.07	72.25
671.272	87.25
671.475	88.25
671.677	69.25
671.88	72.25
672.082	88.25
672.284	73.25
672.487	86.25
672.689	74.25
672.892	81.25
