Data from Ni(NO3)2@0.25M.TitratingCurve.Agarose3%dH2O.NegLispCup.LampEnergy10.LIBS07252019_HRD10591_18-04-40-566.txt Node
Date: Thu Jul 25 18:04:40 EDT 2019
User: cochatt
Spectrometer: HR+D1059
Trigger mode: 1
Integration Time (sec): 1.000000E-1
Scans to average: 1
Electric dark correction enabled: true
Nonlinearity correction enabled: false
Boxcar width: 0
XAxis mode: Wavelengths
Number of Pixels in Spectrum: 2048
>>>>>Begin Spectral Data<<<<<
223.165	-14.94
223.4	-14.94
223.635	-14.94
223.869	-15.94
224.104	-23.94
224.338	-10.94
224.573	-14.94
224.808	-15.94
225.042	-15.94
225.277	2.06
225.511	-1.94
225.746	6.06
225.98	11.06
226.215	6.06
226.449	12.06
226.683	15.06
226.918	30.06
227.152	32.06
227.387	23.06
227.621	44.06
227.856	50.06
228.09	28.06
228.324	49.06
228.559	60.06
228.793	70.06
229.027	86.06
229.262	78.06
229.496	86.06
229.73	94.06
229.964	98.06
230.199	101.06
230.433	118.06
230.667	110.06
230.901	109.06
231.136	104.06
231.37	97.06
231.604	118.06
231.838	114.06
232.072	114.06
232.306	117.06
232.541	108.06
232.775	129.06
233.009	122.06
233.243	112.06
233.477	130.06
233.711	121.06
233.945	112.06
234.179	125.06
234.413	116.06
234.647	116.06
234.881	121.06
235.115	117.06
235.349	109.06
235.583	113.06
235.817	117.06
236.051	121.06
236.285	115.06
236.519	109.06
236.753	112.06
236.987	120.06
237.221	127.06
237.455	125.06
237.689	127.06
237.922	136.06
238.156	129.06
238.39	126.06
238.624	130.06
238.858	125.06
239.091	130.06
239.325	126.06
239.559	128.06
239.793	144.06
240.027	140.06
240.26	141.06
240.494	122.06
240.728	134.06
240.961	115.06
241.195	152.06
241.429	135.06
241.662	129.06
241.896	158.06
242.13	144.06
242.363	123.06
242.597	141.06
242.83	134.06
243.064	123.06
243.298	145.06
243.531	144.06
243.765	165.06
243.998	171.06
244.232	171.06
244.465	150.06
244.699	151.06
244.932	151.06
245.166	145.06
245.399	150.06
245.633	156.06
245.866	157.06
246.099	152.06
246.333	161.06
246.566	160.06
246.8	165.06
247.033	182.06
247.266	167.06
247.5	156.06
247.733	161.06
247.966	166.06
248.2	179.06
248.433	167.06
248.666	177.06
248.899	170.06
249.133	172.06
249.366	160.06
249.599	185.06
249.832	162.06
250.066	169.06
250.299	177.06
250.532	194.06
250.765	176.06
250.998	198.06
251.231	178.06
251.465	192.06
251.698	199.06
251.931	224.06
252.164	197.06
252.397	184.06
252.63	194.06
252.863	201.06
253.096	202.06
253.329	207.06
253.562	198.06
253.795	211.06
254.028	232.06
254.261	204.06
254.494	217.06
254.727	224.06
254.96	220.06
255.193	204.06
255.426	224.06
255.659	201.06
255.892	228.06
256.124	229.06
256.357	242.06
256.59	240.06
256.823	227.06
257.056	240.06
257.289	237.06
257.521	241.06
257.754	236.06
257.987	218.06
258.22	239.06
258.452	230.06
258.685	242.06
258.918	266.06
259.151	234.06
259.383	232.06
259.616	238.06
259.849	248.06
260.081	259.06
260.314	256.06
260.547	260.06
260.779	256.06
261.012	270.06
261.244	245.06
261.477	268.06
261.71	250.06
261.942	262.06
262.175	266.06
262.407	271.06
262.64	260.06
262.872	273.06
263.105	280.06
263.337	273.06
263.57	279.06
263.802	274.06
264.035	283.06
264.267	267.06
264.499	270.06
264.732	273.06
264.964	273.06
265.197	289.06
265.429	297.06
265.661	284.06
265.894	286.06
266.126	302.06
266.358	294.06
266.591	297.06
266.823	317.06
267.055	292.06
267.287	282.06
267.52	305.06
267.752	290.06
267.984	310.06
268.216	305.06
268.448	293.06
268.681	296.06
268.913	292.06
269.145	300.06
269.377	315.06
269.609	317.06
269.841	302.06
270.073	288.06
270.306	305.06
270.538	276.06
270.77	292.06
271.002	302.06
271.234	316.06
271.466	296.06
271.698	293.06
271.93	314.06
272.162	323.06
272.394	321.06
272.626	329.06
272.858	317.06
273.09	306.06
273.322	320.06
273.553	325.06
273.785	332.06
274.017	333.06
274.249	312.06
274.481	335.06
274.713	332.06
274.945	322.06
275.176	333.06
275.408	333.06
275.64	310.06
275.872	338.06
276.104	306.06
276.335	327.06
276.567	330.06
276.799	345.06
277.031	351.06
277.262	336.06
277.494	330.06
277.726	344.06
277.957	331.06
278.189	350.06
278.421	329.06
278.652	353.06
278.884	338.06
279.115	373.06
279.347	340.06
279.579	335.06
279.81	334.06
280.042	357.06
280.273	360.06
280.505	350.06
280.736	350.06
280.968	355.06
281.199	354.06
281.431	356.06
281.662	361.06
281.894	370.06
282.125	341.06
282.356	368.06
282.588	356.06
282.819	347.06
283.051	363.06
283.282	353.06
283.513	371.06
283.745	372.06
283.976	362.06
284.207	350.06
284.439	366.06
284.67	386.06
284.901	373.06
285.132	366.06
285.364	364.06
285.595	371.06
285.826	357.06
286.057	349.06
286.288	371.06
286.52	367.06
286.751	358.06
286.982	359.06
287.213	383.06
287.444	386.06
287.675	404.06
287.906	387.06
288.138	387.06
288.369	373.06
288.6	366.06
288.831	382.06
289.062	381.06
289.293	393.06
289.524	394.06
289.755	389.06
289.986	374.06
290.217	375.06
290.448	386.06
290.679	392.06
290.91	399.06
291.141	398.06
291.371	376.06
291.602	392.06
291.833	391.06
292.064	373.06
292.295	370.06
292.526	382.06
292.757	386.06
292.987	375.06
293.218	384.06
293.449	383.06
293.68	387.06
293.91	373.06
294.141	401.06
294.372	396.06
294.603	384.06
294.833	402.06
295.064	392.06
295.295	397.06
295.525	401.06
295.756	381.06
295.987	400.06
296.217	400.06
296.448	390.06
296.679	394.06
296.909	393.06
297.14	378.06
297.37	409.06
297.601	419.06
297.831	401.06
298.062	395.06
298.292	413.06
298.523	424.06
298.753	409.06
298.984	421.06
299.214	409.06
299.445	405.06
299.675	398.06
299.905	423.06
300.136	416.06
300.366	428.06
300.597	423.06
300.827	428.06
301.057	426.06
301.288	438.06
301.518	417.06
301.748	470.06
301.979	465.06
302.209	462.06
302.439	442.06
302.669	449.06
302.9	415.06
303.13	426.06
303.36	458.06
303.59	438.06
303.82	414.06
304.051	440.06
304.281	440.06
304.511	442.06
304.741	428.06
304.971	438.06
305.201	424.06
305.431	455.06
305.661	458.06
305.891	437.06
306.121	441.06
306.352	443.06
306.582	455.06
306.812	434.06
307.042	442.06
307.272	452.06
307.502	446.06
307.731	458.06
307.961	442.06
308.191	448.06
308.421	440.06
308.651	446.06
308.881	440.06
309.111	441.06
309.341	421.06
309.571	469.06
309.8	456.06
310.03	470.06
310.26	470.06
310.49	468.06
310.72	454.06
310.949	451.06
311.179	463.06
311.409	470.06
311.639	453.06
311.868	476.06
312.098	469.06
312.328	445.06
312.557	470.06
312.787	456.06
313.017	484.06
313.246	492.06
313.476	477.06
313.706	475.06
313.935	500.06
314.165	482.06
314.394	494.06
314.624	488.06
314.853	484.06
315.083	482.06
315.312	492.06
315.542	520.06
315.771	505.06
316.001	509.06
316.23	511.06
316.46	509.06
316.689	503.06
316.919	492.06
317.148	510.06
317.377	520.06
317.607	494.06
317.836	486.06
318.065	510.06
318.295	537.06
318.524	505.06
318.753	508.06
318.983	528.06
319.212	479.06
319.441	498.06
319.67	533.06
319.9	498.06
320.129	550.06
320.358	538.06
320.587	529.06
320.816	531.06
321.046	529.06
321.275	510.06
321.504	519.06
321.733	547.06
321.962	544.06
322.191	557.06
322.42	534.06
322.649	565.06
322.878	540.06
323.108	536.06
323.337	533.06
323.566	547.06
323.795	573.06
324.024	544.06
324.253	552.06
324.482	581.06
324.71	569.06
324.939	585.06
325.168	587.06
325.397	560.06
325.626	570.06
325.855	595.06
326.084	592.06
326.313	597.06
326.542	603.06
326.77	606.06
326.999	589.06
327.228	614.06
327.457	598.06
327.686	589.06
327.914	613.06
328.143	589.06
328.372	611.06
328.6	619.06
328.829	607.06
329.058	625.06
329.287	615.06
329.515	616.06
329.744	629.06
329.972	620.06
330.201	658.06
330.43	653.06
330.658	642.06
330.887	657.06
331.115	645.06
331.344	667.06
331.572	672.06
331.801	659.06
332.03	678.06
332.258	682.06
332.486	708.06
332.715	687.06
332.943	712.06
333.172	759.06
333.4	748.06
333.629	764.06
333.857	777.06
334.085	784.06
334.314	760.06
334.542	773.06
334.771	772.06
334.999	774.06
335.227	799.06
335.455	757.06
335.684	770.06
335.912	766.06
336.14	766.06
336.369	778.06
336.597	758.06
336.825	781.06
337.053	785.06
337.281	749.06
337.51	792.06
337.738	742.06
337.966	768.06
338.194	753.06
338.422	720.06
338.65	714.06
338.878	708.06
339.106	721.06
339.334	728.06
339.562	710.06
339.79	676.06
340.018	656.06
340.246	688.06
340.474	706.06
340.702	695.06
340.93	703.06
341.158	701.06
341.386	693.06
341.614	717.06
341.842	713.06
342.07	720.06
342.298	705.06
342.526	694.06
342.754	680.06
342.981	712.06
343.209	712.06
343.437	711.06
343.665	742.06
343.893	782.06
344.12	786.06
344.348	777.06
344.576	756.06
344.804	765.06
345.031	732.06
345.259	728.06
345.487	719.06
345.714	689.06
345.942	701.06
346.17	748.06
346.397	706.06
346.625	700.06
346.853	657.06
347.08	668.06
347.308	675.06
347.535	664.06
347.763	674.06
347.99	660.06
348.218	669.06
348.445	669.06
348.673	670.06
348.9	667.06
349.128	679.06
349.355	675.06
349.583	676.06
349.81	658.06
350.037	657.06
350.265	649.06
350.492	658.06
350.72	646.06
350.947	633.06
351.174	669.06
351.402	653.06
351.629	681.06
351.856	651.06
352.083	630.06
352.311	649.06
352.538	676.06
352.765	684.06
352.992	648.06
353.22	646.06
353.447	654.06
353.674	654.06
353.901	617.06
354.128	648.06
354.355	631.06
354.583	632.06
354.81	649.06
355.037	647.06
355.264	662.06
355.491	646.06
355.718	654.06
355.945	633.06
356.172	636.06
356.399	658.06
356.626	679.06
356.853	632.06
357.08	669.06
357.307	644.06
357.534	643.06
357.761	647.06
357.988	642.06
358.215	614.06
358.441	636.06
358.668	650.06
358.895	627.06
359.122	625.06
359.349	626.06
359.576	634.06
359.802	655.06
360.029	640.06
360.256	627.06
360.483	650.06
360.709	642.06
360.936	624.06
361.163	642.06
361.39	661.06
361.616	678.06
361.843	662.06
362.07	689.06
362.296	671.06
362.523	650.06
362.749	633.06
362.976	637.06
363.203	630.06
363.429	631.06
363.656	651.06
363.882	641.06
364.109	648.06
364.335	659.06
364.562	626.06
364.788	656.06
365.015	623.06
365.241	647.06
365.468	647.06
365.694	643.06
365.92	634.06
366.147	629.06
366.373	620.06
366.599	631.06
366.826	668.06
367.052	648.06
367.278	628.06
367.505	634.06
367.731	636.06
367.957	639.06
368.184	646.06
368.41	622.06
368.636	647.06
368.862	656.06
369.089	644.06
369.315	636.06
369.541	660.06
369.767	640.06
369.993	650.06
370.219	648.06
370.445	668.06
370.672	673.06
370.898	663.06
371.124	688.06
371.35	677.06
371.576	688.06
371.802	686.06
372.028	679.06
372.254	680.06
372.48	680.06
372.706	697.06
372.932	698.06
373.158	665.06
373.384	678.06
373.61	690.06
373.835	689.06
374.061	677.06
374.287	689.06
374.513	701.06
374.739	693.06
374.965	710.06
375.191	733.06
375.416	713.06
375.642	681.06
375.868	701.06
376.094	672.06
376.319	670.06
376.545	666.06
376.771	656.06
376.997	688.06
377.222	658.06
377.448	651.06
377.674	673.06
377.899	694.06
378.125	659.06
378.35	664.06
378.576	654.06
378.802	676.06
379.027	651.06
379.253	674.06
379.478	677.06
379.704	645.06
379.929	655.06
380.155	654.06
380.38	658.06
380.606	663.06
380.831	674.06
381.057	671.06
381.282	666.06
381.507	680.06
381.733	651.06
381.958	656.06
382.184	653.06
382.409	681.06
382.634	680.06
382.86	677.06
383.085	678.06
383.31	693.06
383.535	724.06
383.761	718.06
383.986	718.06
384.211	701.06
384.436	710.06
384.662	749.06
384.887	727.06
385.112	738.06
385.337	772.06
385.562	740.06
385.787	752.06
386.013	784.06
386.238	775.06
386.463	764.06
386.688	774.06
386.913	762.06
387.138	766.06
387.363	767.06
387.588	758.06
387.813	769.06
388.038	744.06
388.263	788.06
388.488	769.06
388.713	768.06
388.938	763.06
389.163	772.06
389.387	771.06
389.612	756.06
389.837	773.06
390.062	768.06
390.287	753.06
390.512	766.06
390.736	767.06
390.961	830.06
391.186	785.06
391.411	802.06
391.636	824.06
391.86	821.06
392.085	798.06
392.31	816.06
392.534	847.06
392.759	821.06
392.984	816.06
393.208	803.06
393.433	830.06
393.658	798.06
393.882	807.06
394.107	836.06
394.331	833.06
394.556	793.06
394.78	836.06
395.005	850.06
395.229	840.06
395.454	833.06
395.678	834.06
395.903	852.06
396.127	814.06
396.352	855.06
396.576	818.06
396.801	823.06
397.025	868.06
397.249	867.06
397.474	849.06
397.698	851.06
397.922	876.06
398.147	883.06
398.371	911.06
398.595	914.06
398.82	948.06
399.044	1002.06
399.268	1041.06
399.492	1133.06
399.717	1198.06
399.941	1191.06
400.165	1162.06
400.389	1105.06
400.613	1072.06
400.837	1017.06
401.062	1002.06
401.286	986.06
401.51	975.06
401.734	961.06
401.958	966.06
402.182	958.06
402.406	933.06
402.63	946.06
402.854	963.06
403.078	977.06
403.302	986.06
403.526	984.06
403.75	1025.06
403.974	1007.06
404.198	1018.06
404.422	1011.06
404.645	1004.06
404.869	1002.06
405.093	1015.06
405.317	981.06
405.541	1009.06
405.765	1030.06
405.988	1026.06
406.212	1011.06
406.436	1005.06
406.66	1057.06
406.883	1052.06
407.107	1108.06
407.331	1152.06
407.555	1138.06
407.778	1123.06
408.002	1122.06
408.226	1101.06
408.449	1119.06
408.673	1082.06
408.896	1072.06
409.12	1057.06
409.344	1057.06
409.567	1024.06
409.791	1034.06
410.014	1053.06
410.238	1038.06
410.461	1039.06
410.685	1034.06
410.908	1030.06
411.132	989.06
411.355	1011.06
411.578	1019.06
411.802	998.06
412.025	987.06
412.249	980.06
412.472	1030.06
412.695	1011.06
412.919	998.06
413.142	980.06
413.365	1004.06
413.589	997.06
413.812	991.06
414.035	977.06
414.258	973.06
414.482	963.06
414.705	955.06
414.928	974.06
415.151	991.06
415.374	975.06
415.597	973.06
415.821	942.06
416.044	948.06
416.267	944.06
416.49	940.06
416.713	957.06
416.936	936.06
417.159	926.06
417.382	935.06
417.605	924.06
417.828	927.06
418.051	971.06
418.274	934.06
418.497	952.06
418.72	952.06
418.943	966.06
419.166	1034.06
419.389	1109.06
419.611	1053.06
419.834	1030.06
420.057	972.06
420.28	988.06
420.503	986.06
420.726	955.06
420.948	930.06
421.171	950.06
421.394	960.06
421.617	969.06
421.839	963.06
422.062	988.06
422.285	962.06
422.507	966.06
422.73	974.06
422.953	976.06
423.175	984.06
423.398	971.06
423.621	996.06
423.843	972.06
424.066	1008.06
424.288	989.06
424.511	989.06
424.733	1002.06
424.956	961.06
425.178	952.06
425.401	967.06
425.623	957.06
425.846	991.06
426.068	964.06
426.291	935.06
426.513	933.06
426.735	928.06
426.958	931.06
427.18	921.06
427.402	946.06
427.625	948.06
427.847	936.06
428.069	896.06
428.292	890.06
428.514	886.06
428.736	928.06
428.958	911.06
429.181	930.06
429.403	887.06
429.625	909.06
429.847	898.06
430.069	912.06
430.292	887.06
430.514	893.06
430.736	897.06
430.958	919.06
431.18	898.06
431.402	924.06
431.624	902.06
431.846	911.06
432.068	913.06
432.29	900.06
432.512	907.06
432.734	936.06
432.956	922.06
433.178	959.06
433.4	936.06
433.622	940.06
433.844	922.06
434.066	945.06
434.287	954.06
434.509	977.06
434.731	977.06
434.953	982.06
435.175	991.06
435.397	969.06
435.618	961.06
435.84	968.06
436.062	924.06
436.284	927.06
436.505	930.06
436.727	945.06
436.949	922.06
437.17	929.06
437.392	893.06
437.614	882.06
437.835	884.06
438.057	906.06
438.278	894.06
438.5	880.06
438.721	898.06
438.943	900.06
439.165	904.06
439.386	906.06
439.608	937.06
439.829	930.06
440.05	904.06
440.272	937.06
440.493	949.06
440.715	960.06
440.936	954.06
441.158	960.06
441.379	957.06
441.6	994.06
441.822	967.06
442.043	965.06
442.264	978.06
442.486	980.06
442.707	1002.06
442.928	967.06
443.149	974.06
443.371	990.06
443.592	996.06
443.813	1010.06
444.034	993.06
444.255	1014.06
444.476	1054.06
444.698	1093.06
444.919	1081.06
445.14	1195.06
445.361	1104.06
445.582	1047.06
445.803	994.06
446.024	992.06
446.245	981.06
446.466	950.06
446.687	930.06
446.908	929.06
447.129	942.06
447.35	934.06
447.571	917.06
447.792	892.06
448.013	886.06
448.234	865.06
448.455	869.06
448.675	866.06
448.896	883.06
449.117	858.06
449.338	848.06
449.559	838.06
449.779	868.06
450	868.06
450.221	873.06
450.442	872.06
450.662	885.06
450.883	873.06
451.104	857.06
451.324	856.06
451.545	841.06
451.766	853.06
451.986	847.06
452.207	818.06
452.428	842.06
452.648	816.06
452.869	809.06
453.089	812.06
453.31	814.06
453.53	801.06
453.751	818.06
453.971	810.06
454.192	805.06
454.412	804.06
454.633	807.06
454.853	792.06
455.073	800.06
455.294	830.06
455.514	824.06
455.734	845.06
455.955	798.06
456.175	806.06
456.395	791.06
456.616	816.06
456.836	816.06
457.056	822.06
457.276	791.06
457.497	826.06
457.717	822.06
457.937	807.06
458.157	848.06
458.377	838.06
458.598	874.06
458.818	864.06
459.038	853.06
459.258	890.06
459.478	912.06
459.698	936.06
459.918	963.06
460.138	997.06
460.358	998.06
460.578	1025.06
460.798	1041.06
461.018	1037.06
461.238	1037.06
461.458	1052.06
461.678	1044.06
461.898	1053.06
462.118	1063.06
462.338	1103.06
462.558	1144.06
462.777	1169.06
462.997	1226.06
463.217	1206.06
463.437	1291.06
463.657	1214.06
463.876	1204.06
464.096	1197.06
464.316	1153.06
464.536	1124.06
464.755	1144.06
464.975	1115.06
465.195	1086.06
465.414	1044.06
465.634	993.06
465.854	968.06
466.073	965.06
466.293	929.06
466.512	929.06
466.732	916.06
466.951	920.06
467.171	913.06
467.391	876.06
467.61	880.06
467.829	897.06
468.049	889.06
468.268	849.06
468.488	854.06
468.707	863.06
468.927	880.06
469.146	882.06
469.365	921.06
469.585	889.06
469.804	891.06
470.023	918.06
470.243	892.06
470.462	928.06
470.681	907.06
470.901	925.06
471.12	897.06
471.339	897.06
471.558	907.06
471.777	868.06
471.997	892.06
472.216	880.06
472.435	881.06
472.654	858.06
472.873	856.06
473.092	882.06
473.311	871.06
473.53	883.06
473.749	896.06
473.968	862.06
474.187	858.06
474.406	883.06
474.625	845.06
474.844	877.06
475.063	884.06
475.282	883.06
475.501	879.06
475.72	895.06
475.939	916.06
476.158	924.06
476.377	917.06
476.596	922.06
476.814	897.06
477.033	928.06
477.252	947.06
477.471	944.06
477.69	967.06
477.908	999.06
478.127	984.06
478.346	1003.06
478.564	1040.06
478.783	1044.06
479.002	1061.06
479.22	1091.06
479.439	1064.06
479.658	1058.06
479.876	1058.06
480.095	1078.06
480.313	1046.06
480.532	1088.06
480.751	1092.06
480.969	1062.06
481.188	1061.06
481.406	1040.06
481.624	1020.06
481.843	1021.06
482.061	1007.06
482.28	1006.06
482.498	968.06
482.717	1006.06
482.935	1032.06
483.153	1023.06
483.372	1028.06
483.59	1006.06
483.808	1016.06
484.027	1015.06
484.245	1007.06
484.463	1005.06
484.681	1021.06
484.9	986.06
485.118	1054.06
485.336	1020.06
485.554	1044.06
485.772	1042.06
485.99	1021.06
486.209	1047.06
486.427	1021.06
486.645	1024.06
486.863	1034.06
487.081	1033.06
487.299	1047.06
487.517	1028.06
487.735	1038.06
487.953	1056.06
488.171	1040.06
488.389	1046.06
488.607	1048.06
488.825	1056.06
489.043	1049.06
489.261	1023.06
489.479	1021.06
489.696	1044.06
489.914	1051.06
490.132	1068.06
490.35	1085.06
490.568	1069.06
490.786	1041.06
491.003	1058.06
491.221	1096.06
491.439	1105.06
491.657	1079.06
491.874	1116.06
492.092	1114.06
492.31	1140.06
492.527	1144.06
492.745	1112.06
492.963	1121.06
493.18	1107.06
493.398	1129.06
493.615	1115.06
493.833	1108.06
494.05	1126.06
494.268	1142.06
494.485	1108.06
494.703	1150.06
494.92	1138.06
495.138	1149.06
495.355	1157.06
495.573	1153.06
495.79	1181.06
496.008	1153.06
496.225	1183.06
496.442	1189.06
496.66	1180.06
496.877	1223.06
497.094	1239.06
497.312	1244.06
497.529	1274.06
497.746	1313.06
497.963	1324.06
498.181	1369.06
498.398	1414.06
498.615	1476.06
498.832	1527.06
499.049	1620.06
499.267	1721.06
499.484	1801.06
499.701	1946.06
499.918	2048.06
500.135	2163.06
500.352	2305.06
500.569	2389.06
500.786	2358.06
501.003	2264.06
501.22	2138.06
501.437	1960.06
501.654	1859.06
501.871	1791.06
502.088	1680.06
502.305	1603.06
502.522	1518.06
502.739	1481.06
502.956	1432.06
503.172	1387.06
503.389	1373.06
503.606	1313.06
503.823	1328.06
504.04	1290.06
504.256	1263.06
504.473	1250.06
504.69	1228.06
504.907	1236.06
505.123	1202.06
505.34	1143.06
505.557	1114.06
505.773	1106.06
505.99	1093.06
506.207	1052.06
506.423	1074.06
506.64	1056.06
506.856	1008.06
507.073	1026.06
507.289	1020.06
507.506	999.06
507.722	970.06
507.939	994.06
508.155	989.06
508.372	983.06
508.588	949.06
508.805	933.06
509.021	959.06
509.238	925.06
509.454	940.06
509.67	944.06
509.887	905.06
510.103	929.06
510.319	896.06
510.536	886.06
510.752	896.06
510.968	909.06
511.184	915.06
511.401	902.06
511.617	908.06
511.833	924.06
512.049	884.06
512.265	881.06
512.481	911.06
512.698	900.06
512.914	900.06
513.13	866.06
513.346	902.06
513.562	881.06
513.778	921.06
513.994	917.06
514.21	909.06
514.426	930.06
514.642	926.06
514.858	901.06
515.074	946.06
515.29	943.06
515.506	947.06
515.721	927.06
515.937	975.06
516.153	978.06
516.369	1013.06
516.585	1013.06
516.801	1022.06
517.016	1032.06
517.232	1068.06
517.448	1101.06
517.664	1133.06
517.879	1077.06
518.095	1117.06
518.311	1094.06
518.527	1068.06
518.742	1080.06
518.958	1031.06
519.173	1006.06
519.389	988.06
519.605	961.06
519.82	956.06
520.036	947.06
520.251	928.06
520.467	905.06
520.682	905.06
520.898	877.06
521.113	893.06
521.329	897.06
521.544	898.06
521.76	885.06
521.975	869.06
522.19	864.06
522.406	874.06
522.621	837.06
522.836	862.06
523.052	855.06
523.267	858.06
523.482	830.06
523.698	826.06
523.913	853.06
524.128	853.06
524.343	826.06
524.559	844.06
524.774	834.06
524.989	831.06
525.204	816.06
525.419	813.06
525.634	796.06
525.849	832.06
526.064	836.06
526.28	830.06
526.495	806.06
526.71	790.06
526.925	802.06
527.14	811.06
527.355	817.06
527.57	817.06
527.785	820.06
527.999	802.06
528.214	804.06
528.429	801.06
528.644	829.06
528.859	830.06
529.074	803.06
529.289	826.06
529.503	807.06
529.718	845.06
529.933	809.06
530.148	788.06
530.363	797.06
530.577	812.06
530.792	786.06
531.007	775.06
531.221	781.06
531.436	782.06
531.651	783.06
531.865	788.06
532.08	815.06
532.295	776.06
532.509	771.06
532.724	784.06
532.938	792.06
533.153	797.06
533.367	812.06
533.582	764.06
533.796	810.06
534.011	797.06
534.225	775.06
534.44	757.06
534.654	752.06
534.868	766.06
535.083	767.06
535.297	762.06
535.511	766.06
535.726	771.06
535.94	769.06
536.154	766.06
536.369	755.06
536.583	736.06
536.797	726.06
537.011	727.06
537.225	725.06
537.44	734.06
537.654	731.06
537.868	720.06
538.082	739.06
538.296	738.06
538.51	704.06
538.724	764.06
538.938	723.06
539.153	730.06
539.367	733.06
539.581	736.06
539.795	710.06
540.009	722.06
540.222	726.06
540.436	737.06
540.65	741.06
540.864	708.06
541.078	725.06
541.292	736.06
541.506	705.06
541.72	737.06
541.934	738.06
542.147	759.06
542.361	766.06
542.575	713.06
542.789	741.06
543.002	714.06
543.216	713.06
543.43	733.06
543.644	722.06
543.857	714.06
544.071	719.06
544.285	736.06
544.498	748.06
544.712	748.06
544.925	743.06
545.139	751.06
545.352	764.06
545.566	734.06
545.779	749.06
545.993	756.06
546.206	743.06
546.42	716.06
546.633	750.06
546.847	762.06
547.06	728.06
547.274	746.06
547.487	739.06
547.7	757.06
547.914	754.06
548.127	740.06
548.34	744.06
548.554	753.06
548.767	758.06
548.98	729.06
549.193	727.06
549.407	735.06
549.62	754.06
549.833	736.06
550.046	722.06
550.259	758.06
550.473	750.06
550.686	751.06
550.899	749.06
551.112	734.06
551.325	730.06
551.538	710.06
551.751	727.06
551.964	713.06
552.177	725.06
552.39	724.06
552.603	761.06
552.816	756.06
553.029	750.06
553.242	774.06
553.455	811.06
553.667	780.06
553.88	745.06
554.093	765.06
554.306	773.06
554.519	720.06
554.732	716.06
554.944	729.06
555.157	723.06
555.37	716.06
555.583	677.06
555.795	654.06
556.008	654.06
556.221	646.06
556.433	661.06
556.646	648.06
556.859	672.06
557.071	625.06
557.284	635.06
557.496	645.06
557.709	644.06
557.921	650.06
558.134	649.06
558.346	651.06
558.559	641.06
558.771	621.06
558.984	638.06
559.196	649.06
559.409	654.06
559.621	626.06
559.833	632.06
560.046	655.06
560.258	625.06
560.47	610.06
560.683	632.06
560.895	622.06
561.107	611.06
561.32	620.06
561.532	617.06
561.744	618.06
561.956	613.06
562.168	621.06
562.381	640.06
562.593	644.06
562.805	624.06
563.017	592.06
563.229	626.06
563.441	606.06
563.653	631.06
563.865	628.06
564.077	633.06
564.289	625.06
564.501	662.06
564.713	666.06
564.925	666.06
565.137	682.06
565.349	682.06
565.561	695.06
565.773	712.06
565.985	730.06
566.197	740.06
566.408	761.06
566.62	834.06
566.832	852.06
567.044	876.06
567.255	849.06
567.467	855.06
567.679	897.06
567.891	912.06
568.102	881.06
568.314	878.06
568.526	831.06
568.737	773.06
568.949	740.06
569.161	711.06
569.372	692.06
569.584	665.06
569.795	640.06
570.007	636.06
570.218	601.06
570.43	622.06
570.641	600.06
570.853	622.06
571.064	598.06
571.276	598.06
571.487	588.06
571.698	579.06
571.91	570.06
572.121	547.06
572.333	577.06
572.544	543.06
572.755	545.06
572.966	532.06
573.178	522.06
573.389	497.06
573.6	516.06
573.811	516.06
574.023	501.06
574.234	495.06
574.445	498.06
574.656	505.06
574.867	480.06
575.078	492.06
575.289	498.06
575.501	474.06
575.712	495.06
575.923	476.06
576.134	508.06
576.345	478.06
576.556	476.06
576.767	469.06
576.978	466.06
577.188	446.06
577.399	463.06
577.61	462.06
577.821	467.06
578.032	455.06
578.243	477.06
578.454	462.06
578.665	436.06
578.875	455.06
579.086	480.06
579.297	435.06
579.508	457.06
579.718	440.06
579.929	437.06
580.14	434.06
580.35	432.06
580.561	440.06
580.772	435.06
580.982	430.06
581.193	436.06
581.403	447.06
581.614	435.06
581.825	418.06
582.035	407.06
582.246	440.06
582.456	422.06
582.667	412.06
582.877	419.06
583.087	414.06
583.298	399.06
583.508	404.06
583.719	415.06
583.929	401.06
584.139	393.06
584.35	402.06
584.56	418.06
584.77	395.06
584.981	432.06
585.191	405.06
585.401	392.06
585.611	398.06
585.821	394.06
586.032	406.06
586.242	425.06
586.452	396.06
586.662	417.06
586.872	407.06
587.082	390.06
587.292	425.06
587.502	392.06
587.713	386.06
587.923	388.06
588.133	397.06
588.343	400.06
588.553	412.06
588.762	413.06
588.972	391.06
589.182	408.06
589.392	398.06
589.602	383.06
589.812	401.06
590.022	418.06
590.232	404.06
590.441	397.06
590.651	417.06
590.861	386.06
591.071	414.06
591.281	425.06
591.49	413.06
591.7	424.06
591.91	434.06
592.119	414.06
592.329	412.06
592.539	444.06
592.748	446.06
592.958	433.06
593.167	454.06
593.377	442.06
593.587	462.06
593.796	460.06
594.006	439.06
594.215	436.06
594.424	453.06
594.634	436.06
594.843	453.06
595.053	426.06
595.262	430.06
595.472	424.06
595.681	395.06
595.89	411.06
596.1	390.06
596.309	390.06
596.518	405.06
596.727	382.06
596.937	369.06
597.146	374.06
597.355	369.06
597.564	394.06
597.774	357.06
597.983	365.06
598.192	346.06
598.401	345.06
598.61	349.06
598.819	354.06
599.028	344.06
599.237	345.06
599.446	340.06
599.655	351.06
599.864	323.06
600.073	350.06
600.282	350.06
600.491	342.06
600.7	351.06
600.909	345.06
601.118	331.06
601.327	349.06
601.536	335.06
601.745	357.06
601.953	326.06
602.162	344.06
602.371	342.06
602.58	319.06
602.789	340.06
602.997	330.06
603.206	334.06
603.415	334.06
603.623	339.06
603.832	306.06
604.041	317.06
604.249	313.06
604.458	333.06
604.666	326.06
604.875	324.06
605.084	324.06
605.292	333.06
605.501	305.06
605.709	316.06
605.918	308.06
606.126	291.06
606.334	301.06
606.543	322.06
606.751	312.06
606.96	315.06
607.168	322.06
607.376	309.06
607.585	331.06
607.793	317.06
608.001	313.06
608.21	295.06
608.418	289.06
608.626	292.06
608.834	309.06
609.043	308.06
609.251	306.06
609.459	313.06
609.667	309.06
609.875	288.06
610.083	332.06
610.291	312.06
610.499	279.06
610.707	303.06
610.916	295.06
611.124	283.06
611.332	306.06
611.54	308.06
611.748	308.06
611.955	296.06
612.163	292.06
612.371	313.06
612.579	304.06
612.787	315.06
612.995	287.06
613.203	293.06
613.411	273.06
613.618	284.06
613.826	287.06
614.034	286.06
614.242	298.06
614.449	294.06
614.657	301.06
614.865	291.06
615.072	288.06
615.28	290.06
615.488	308.06
615.695	293.06
615.903	289.06
616.111	296.06
616.318	300.06
616.526	292.06
616.733	282.06
616.941	288.06
617.148	298.06
617.356	312.06
617.563	289.06
617.771	285.06
617.978	282.06
618.185	288.06
618.393	276.06
618.6	281.06
618.807	267.06
619.015	274.06
619.222	276.06
619.429	297.06
619.637	284.06
619.844	285.06
620.051	274.06
620.258	272.06
620.466	267.06
620.673	273.06
620.88	270.06
621.087	260.06
621.294	274.06
621.501	280.06
621.708	280.06
621.915	263.06
622.122	272.06
622.329	266.06
622.536	264.06
622.743	259.06
622.95	257.06
623.157	280.06
623.364	264.06
623.571	280.06
623.778	267.06
623.985	258.06
624.192	261.06
624.399	249.06
624.606	262.06
624.812	265.06
625.019	240.06
625.226	251.06
625.433	260.06
625.639	264.06
625.846	249.06
626.053	262.06
626.259	242.06
626.466	240.06
626.673	254.06
626.879	224.06
627.086	233.06
627.293	245.06
627.499	240.06
627.706	252.06
627.912	255.06
628.119	246.06
628.325	241.06
628.532	241.06
628.738	247.06
628.945	240.06
629.151	242.06
629.357	222.06
629.564	236.06
629.77	251.06
629.976	221.06
630.183	222.06
630.389	227.06
630.595	218.06
630.802	244.06
631.008	238.06
631.214	231.06
631.42	236.06
631.627	231.06
631.833	238.06
632.039	252.06
632.245	223.06
632.451	222.06
632.657	226.06
632.863	228.06
633.069	241.06
633.275	227.06
633.481	231.06
633.688	206.06
633.893	214.06
634.099	214.06
634.305	222.06
634.511	222.06
634.717	211.06
634.923	210.06
635.129	202.06
635.335	201.06
635.541	206.06
635.747	221.06
635.952	216.06
636.158	214.06
636.364	219.06
636.57	213.06
636.775	209.06
636.981	225.06
637.187	223.06
637.392	210.06
637.598	209.06
637.804	208.06
638.009	209.06
638.215	212.06
638.421	228.06
638.626	216.06
638.832	206.06
639.037	205.06
639.243	204.06
639.448	214.06
639.654	220.06
639.859	203.06
640.065	212.06
640.27	213.06
640.475	181.06
640.681	204.06
640.886	210.06
641.091	212.06
641.297	215.06
641.502	210.06
641.707	185.06
641.913	189.06
642.118	193.06
642.323	201.06
642.528	191.06
642.733	197.06
642.939	202.06
643.144	194.06
643.349	202.06
643.554	179.06
643.759	203.06
643.964	194.06
644.169	195.06
644.374	204.06
644.579	204.06
644.784	190.06
644.989	195.06
645.194	201.06
645.399	196.06
645.604	188.06
645.809	211.06
646.014	189.06
646.219	201.06
646.423	203.06
646.628	194.06
646.833	208.06
647.038	209.06
647.243	193.06
647.447	179.06
647.652	193.06
647.857	202.06
648.062	204.06
648.266	202.06
648.471	226.06
648.676	208.06
648.88	204.06
649.085	206.06
649.289	193.06
649.494	185.06
649.698	193.06
649.903	183.06
650.107	207.06
650.312	193.06
650.516	192.06
650.721	198.06
650.925	184.06
651.13	182.06
651.334	191.06
651.539	196.06
651.743	171.06
651.947	188.06
652.152	176.06
652.356	174.06
652.56	161.06
652.764	183.06
652.969	167.06
653.173	173.06
653.377	176.06
653.581	190.06
653.785	169.06
653.99	161.06
654.194	162.06
654.398	178.06
654.602	176.06
654.806	165.06
655.01	165.06
655.214	162.06
655.418	131.06
655.622	150.06
655.826	142.06
656.03	170.06
656.234	155.06
656.438	153.06
656.642	144.06
656.846	148.06
657.049	135.06
657.253	140.06
657.457	140.06
657.661	135.06
657.865	124.06
658.068	124.06
658.272	121.06
658.476	129.06
658.68	121.06
658.883	112.06
659.087	111.06
659.291	120.06
659.494	122.06
659.698	121.06
659.901	106.06
660.105	103.06
660.309	100.06
660.512	98.06
660.716	113.06
660.919	105.06
661.123	86.06
661.326	84.06
661.53	97.06
661.733	103.06
661.936	76.06
662.14	96.06
662.343	80.06
662.546	89.06
662.75	85.06
662.953	89.06
663.156	80.06
663.36	89.06
663.563	80.06
663.766	74.06
663.969	75.06
664.173	86.06
664.376	67.06
664.579	72.06
664.782	85.06
664.985	68.06
665.188	75.06
665.391	70.06
665.594	69.06
665.797	83.06
666	78.06
666.203	79.06
666.406	73.06
666.609	73.06
666.812	86.06
667.015	77.06
667.218	79.06
667.421	73.06
667.624	70.06
667.827	90.06
668.03	79.06
668.232	92.06
668.435	88.06
668.638	78.06
668.841	73.06
669.043	83.06
669.246	74.06
669.449	79.06
669.651	86.06
669.854	80.06
670.057	76.06
670.259	77.06
670.462	68.06
670.665	78.06
670.867	79.06
671.07	78.06
671.272	58.06
671.475	82.06
671.677	90.06
671.88	75.06
672.082	86.06
672.284	69.06
672.487	86.06
672.689	68.06
672.892	76.06
