Data from Ni(NO3)2@0.0625M.TitratingCurve.Agarose3%dH2O.NegLispCup.LampEnergy10.LIBS07252019_HRD10591_18-14-56-569.txt Node
Date: Thu Jul 25 18:14:56 EDT 2019
User: cochatt
Spectrometer: HR+D1059
Trigger mode: 1
Integration Time (sec): 1.000000E-1
Scans to average: 1
Electric dark correction enabled: true
Nonlinearity correction enabled: false
Boxcar width: 0
XAxis mode: Wavelengths
Number of Pixels in Spectrum: 2048
>>>>>Begin Spectral Data<<<<<
223.165	3.62
223.4	3.62
223.635	3.62
223.869	-17.38
224.104	-20.38
224.338	-11.38
224.573	-20.38
224.808	-5.38
225.042	-13.38
225.277	-5.38
225.511	4.62
225.746	7.62
225.98	-3.38
226.215	4.62
226.449	9.62
226.683	19.62
226.918	21.62
227.152	25.62
227.387	18.62
227.621	38.62
227.856	38.62
228.09	28.62
228.324	41.62
228.559	54.62
228.793	67.62
229.027	103.62
229.262	101.62
229.496	95.62
229.73	106.62
229.964	116.62
230.199	118.62
230.433	114.62
230.667	118.62
230.901	116.62
231.136	127.62
231.37	130.62
231.604	115.62
231.838	138.62
232.072	119.62
232.306	139.62
232.541	123.62
232.775	129.62
233.009	113.62
233.243	131.62
233.477	116.62
233.711	114.62
233.945	117.62
234.179	124.62
234.413	125.62
234.647	140.62
234.881	134.62
235.115	120.62
235.349	116.62
235.583	133.62
235.817	136.62
236.051	134.62
236.285	133.62
236.519	137.62
236.753	134.62
236.987	151.62
237.221	137.62
237.455	131.62
237.689	140.62
237.922	139.62
238.156	135.62
238.39	129.62
238.624	157.62
238.858	133.62
239.091	147.62
239.325	141.62
239.559	140.62
239.793	130.62
240.027	156.62
240.26	150.62
240.494	154.62
240.728	147.62
240.961	148.62
241.195	150.62
241.429	161.62
241.662	149.62
241.896	153.62
242.13	157.62
242.363	165.62
242.597	162.62
242.83	169.62
243.064	141.62
243.298	146.62
243.531	159.62
243.765	189.62
243.998	171.62
244.232	167.62
244.465	159.62
244.699	176.62
244.932	180.62
245.166	173.62
245.399	171.62
245.633	194.62
245.866	199.62
246.099	169.62
246.333	158.62
246.566	170.62
246.8	184.62
247.033	185.62
247.266	192.62
247.5	167.62
247.733	184.62
247.966	192.62
248.2	195.62
248.433	194.62
248.666	184.62
248.899	189.62
249.133	193.62
249.366	188.62
249.599	188.62
249.832	196.62
250.066	193.62
250.299	210.62
250.532	204.62
250.765	201.62
250.998	184.62
251.231	190.62
251.465	209.62
251.698	217.62
251.931	196.62
252.164	200.62
252.397	217.62
252.63	203.62
252.863	207.62
253.096	195.62
253.329	202.62
253.562	206.62
253.795	214.62
254.028	224.62
254.261	217.62
254.494	215.62
254.727	220.62
254.96	212.62
255.193	215.62
255.426	233.62
255.659	226.62
255.892	223.62
256.124	212.62
256.357	237.62
256.59	220.62
256.823	217.62
257.056	216.62
257.289	236.62
257.521	228.62
257.754	229.62
257.987	218.62
258.22	231.62
258.452	229.62
258.685	245.62
258.918	245.62
259.151	234.62
259.383	232.62
259.616	230.62
259.849	246.62
260.081	237.62
260.314	231.62
260.547	245.62
260.779	252.62
261.012	244.62
261.244	242.62
261.477	263.62
261.71	266.62
261.942	238.62
262.175	253.62
262.407	239.62
262.64	248.62
262.872	255.62
263.105	233.62
263.337	257.62
263.57	259.62
263.802	264.62
264.035	281.62
264.267	265.62
264.499	252.62
264.732	269.62
264.964	281.62
265.197	262.62
265.429	275.62
265.661	284.62
265.894	280.62
266.126	263.62
266.358	264.62
266.591	261.62
266.823	279.62
267.055	282.62
267.287	264.62
267.52	278.62
267.752	260.62
267.984	274.62
268.216	280.62
268.448	288.62
268.681	285.62
268.913	286.62
269.145	256.62
269.377	279.62
269.609	270.62
269.841	272.62
270.073	289.62
270.306	292.62
270.538	299.62
270.77	274.62
271.002	293.62
271.234	289.62
271.466	286.62
271.698	288.62
271.93	281.62
272.162	299.62
272.394	284.62
272.626	316.62
272.858	309.62
273.09	288.62
273.322	315.62
273.553	298.62
273.785	318.62
274.017	318.62
274.249	312.62
274.481	294.62
274.713	326.62
274.945	318.62
275.176	309.62
275.408	304.62
275.64	312.62
275.872	319.62
276.104	314.62
276.335	315.62
276.567	305.62
276.799	308.62
277.031	318.62
277.262	304.62
277.494	312.62
277.726	315.62
277.957	326.62
278.189	332.62
278.421	348.62
278.652	344.62
278.884	319.62
279.115	339.62
279.347	340.62
279.579	328.62
279.81	321.62
280.042	332.62
280.273	338.62
280.505	338.62
280.736	330.62
280.968	349.62
281.199	340.62
281.431	321.62
281.662	350.62
281.894	349.62
282.125	352.62
282.356	355.62
282.588	345.62
282.819	339.62
283.051	355.62
283.282	361.62
283.513	332.62
283.745	362.62
283.976	372.62
284.207	345.62
284.439	366.62
284.67	357.62
284.901	357.62
285.132	356.62
285.364	381.62
285.595	352.62
285.826	384.62
286.057	364.62
286.288	357.62
286.52	379.62
286.751	364.62
286.982	370.62
287.213	390.62
287.444	375.62
287.675	389.62
287.906	373.62
288.138	367.62
288.369	383.62
288.6	371.62
288.831	355.62
289.062	375.62
289.293	384.62
289.524	375.62
289.755	398.62
289.986	406.62
290.217	393.62
290.448	390.62
290.679	393.62
290.91	385.62
291.141	388.62
291.371	413.62
291.602	396.62
291.833	406.62
292.064	412.62
292.295	408.62
292.526	392.62
292.757	403.62
292.987	363.62
293.218	408.62
293.449	401.62
293.68	389.62
293.91	388.62
294.141	392.62
294.372	396.62
294.603	382.62
294.833	401.62
295.064	399.62
295.295	413.62
295.525	406.62
295.756	414.62
295.987	397.62
296.217	416.62
296.448	400.62
296.679	402.62
296.909	399.62
297.14	414.62
297.37	444.62
297.601	416.62
297.831	436.62
298.062	426.62
298.292	429.62
298.523	439.62
298.753	419.62
298.984	417.62
299.214	444.62
299.445	424.62
299.675	418.62
299.905	426.62
300.136	434.62
300.366	449.62
300.597	456.62
300.827	452.62
301.057	472.62
301.288	444.62
301.518	452.62
301.748	465.62
301.979	461.62
302.209	457.62
302.439	453.62
302.669	458.62
302.9	437.62
303.13	433.62
303.36	439.62
303.59	422.62
303.82	438.62
304.051	444.62
304.281	468.62
304.511	450.62
304.741	438.62
304.971	472.62
305.201	471.62
305.431	443.62
305.661	460.62
305.891	453.62
306.121	433.62
306.352	450.62
306.582	453.62
306.812	444.62
307.042	434.62
307.272	434.62
307.502	437.62
307.731	464.62
307.961	427.62
308.191	440.62
308.421	406.62
308.651	408.62
308.881	446.62
309.111	456.62
309.341	455.62
309.571	444.62
309.8	448.62
310.03	447.62
310.26	453.62
310.49	452.62
310.72	425.62
310.949	438.62
311.179	432.62
311.409	440.62
311.639	441.62
311.868	461.62
312.098	446.62
312.328	438.62
312.557	463.62
312.787	448.62
313.017	458.62
313.246	466.62
313.476	452.62
313.706	462.62
313.935	464.62
314.165	480.62
314.394	449.62
314.624	499.62
314.853	471.62
315.083	459.62
315.312	469.62
315.542	466.62
315.771	470.62
316.001	462.62
316.23	456.62
316.46	445.62
316.689	456.62
316.919	445.62
317.148	450.62
317.377	452.62
317.607	468.62
317.836	468.62
318.065	459.62
318.295	460.62
318.524	445.62
318.753	442.62
318.983	451.62
319.212	450.62
319.441	443.62
319.67	452.62
319.9	471.62
320.129	449.62
320.358	457.62
320.587	464.62
320.816	463.62
321.046	456.62
321.275	467.62
321.504	448.62
321.733	455.62
321.962	470.62
322.191	462.62
322.42	458.62
322.649	454.62
322.878	485.62
323.108	463.62
323.337	472.62
323.566	454.62
323.795	480.62
324.024	473.62
324.253	469.62
324.482	454.62
324.71	493.62
324.939	481.62
325.168	477.62
325.397	482.62
325.626	489.62
325.855	476.62
326.084	486.62
326.313	497.62
326.542	516.62
326.77	513.62
326.999	504.62
327.228	500.62
327.457	496.62
327.686	505.62
327.914	477.62
328.143	515.62
328.372	496.62
328.6	508.62
328.829	508.62
329.058	508.62
329.287	480.62
329.515	520.62
329.744	513.62
329.972	510.62
330.201	523.62
330.43	535.62
330.658	524.62
330.887	522.62
331.115	527.62
331.344	528.62
331.572	532.62
331.801	550.62
332.03	544.62
332.258	567.62
332.486	576.62
332.715	605.62
332.943	628.62
333.172	660.62
333.4	669.62
333.629	704.62
333.857	667.62
334.085	668.62
334.314	650.62
334.542	673.62
334.771	658.62
334.999	623.62
335.227	634.62
335.455	619.62
335.684	634.62
335.912	632.62
336.14	615.62
336.369	617.62
336.597	616.62
336.825	625.62
337.053	605.62
337.281	598.62
337.51	570.62
337.738	597.62
337.966	575.62
338.194	567.62
338.422	548.62
338.65	560.62
338.878	560.62
339.106	549.62
339.334	558.62
339.562	561.62
339.79	522.62
340.018	508.62
340.246	501.62
340.474	527.62
340.702	537.62
340.93	529.62
341.158	533.62
341.386	541.62
341.614	544.62
341.842	510.62
342.07	513.62
342.298	521.62
342.526	521.62
342.754	529.62
342.981	533.62
343.209	509.62
343.437	553.62
343.665	603.62
343.893	664.62
344.12	648.62
344.348	647.62
344.576	608.62
344.804	592.62
345.031	541.62
345.259	546.62
345.487	535.62
345.714	530.62
345.942	557.62
346.17	549.62
346.397	552.62
346.625	525.62
346.853	510.62
347.08	538.62
347.308	538.62
347.535	544.62
347.763	559.62
347.99	529.62
348.218	537.62
348.445	538.62
348.673	536.62
348.9	540.62
349.128	526.62
349.355	512.62
349.583	526.62
349.81	502.62
350.037	494.62
350.265	491.62
350.492	517.62
350.72	512.62
350.947	497.62
351.174	508.62
351.402	518.62
351.629	502.62
351.856	517.62
352.083	508.62
352.311	510.62
352.538	508.62
352.765	502.62
352.992	509.62
353.22	506.62
353.447	501.62
353.674	482.62
353.901	487.62
354.128	474.62
354.355	495.62
354.583	487.62
354.81	516.62
355.037	504.62
355.264	498.62
355.491	516.62
355.718	486.62
355.945	488.62
356.172	502.62
356.399	506.62
356.626	518.62
356.853	494.62
357.08	515.62
357.307	491.62
357.534	508.62
357.761	499.62
357.988	493.62
358.215	497.62
358.441	480.62
358.668	506.62
358.895	486.62
359.122	510.62
359.349	513.62
359.576	500.62
359.802	502.62
360.029	509.62
360.256	514.62
360.483	519.62
360.709	524.62
360.936	499.62
361.163	497.62
361.39	505.62
361.616	492.62
361.843	498.62
362.07	498.62
362.296	544.62
362.523	506.62
362.749	504.62
362.976	509.62
363.203	508.62
363.429	495.62
363.656	491.62
363.882	512.62
364.109	512.62
364.335	504.62
364.562	500.62
364.788	497.62
365.015	489.62
365.241	473.62
365.468	487.62
365.694	496.62
365.92	500.62
366.147	488.62
366.373	492.62
366.599	505.62
366.826	504.62
367.052	482.62
367.278	493.62
367.505	508.62
367.731	481.62
367.957	493.62
368.184	520.62
368.41	500.62
368.636	506.62
368.862	518.62
369.089	494.62
369.315	512.62
369.541	536.62
369.767	516.62
369.993	527.62
370.219	529.62
370.445	546.62
370.672	543.62
370.898	553.62
371.124	533.62
371.35	551.62
371.576	549.62
371.802	543.62
372.028	548.62
372.254	569.62
372.48	552.62
372.706	548.62
372.932	585.62
373.158	584.62
373.384	560.62
373.61	537.62
373.835	537.62
374.061	550.62
374.287	543.62
374.513	573.62
374.739	577.62
374.965	604.62
375.191	621.62
375.416	630.62
375.642	581.62
375.868	579.62
376.094	561.62
376.319	562.62
376.545	577.62
376.771	548.62
376.997	562.62
377.222	549.62
377.448	544.62
377.674	570.62
377.899	542.62
378.125	544.62
378.35	536.62
378.576	525.62
378.802	533.62
379.027	554.62
379.253	536.62
379.478	528.62
379.704	554.62
379.929	544.62
380.155	532.62
380.38	514.62
380.606	520.62
380.831	557.62
381.057	539.62
381.282	555.62
381.507	540.62
381.733	549.62
381.958	560.62
382.184	531.62
382.409	562.62
382.634	570.62
382.86	580.62
383.085	591.62
383.31	597.62
383.535	598.62
383.761	625.62
383.986	638.62
384.211	643.62
384.436	643.62
384.662	638.62
384.887	662.62
385.112	628.62
385.337	675.62
385.562	655.62
385.787	660.62
386.013	666.62
386.238	648.62
386.463	666.62
386.688	650.62
386.913	647.62
387.138	645.62
387.363	641.62
387.588	646.62
387.813	635.62
388.038	646.62
388.263	643.62
388.488	656.62
388.713	646.62
388.938	638.62
389.163	633.62
389.387	618.62
389.612	632.62
389.837	625.62
390.062	643.62
390.287	657.62
390.512	637.62
390.736	656.62
390.961	634.62
391.186	682.62
391.411	690.62
391.636	714.62
391.86	750.62
392.085	746.62
392.31	737.62
392.534	722.62
392.759	718.62
392.984	695.62
393.208	668.62
393.433	698.62
393.658	701.62
393.882	698.62
394.107	716.62
394.331	706.62
394.556	707.62
394.78	711.62
395.005	716.62
395.229	722.62
395.454	736.62
395.678	732.62
395.903	753.62
396.127	724.62
396.352	709.62
396.576	698.62
396.801	669.62
397.025	680.62
397.249	723.62
397.474	737.62
397.698	723.62
397.922	741.62
398.147	721.62
398.371	724.62
398.595	757.62
398.82	798.62
399.044	874.62
399.268	986.62
399.492	1125.62
399.717	1254.62
399.941	1276.62
400.165	1074.62
400.389	971.62
400.613	873.62
400.837	836.62
401.062	803.62
401.286	808.62
401.51	822.62
401.734	806.62
401.958	836.62
402.182	833.62
402.406	872.62
402.63	851.62
402.854	872.62
403.078	874.62
403.302	906.62
403.526	906.62
403.75	946.62
403.974	973.62
404.198	973.62
404.422	984.62
404.645	956.62
404.869	919.62
405.093	929.62
405.317	923.62
405.541	910.62
405.765	893.62
405.988	881.62
406.212	909.62
406.436	903.62
406.66	919.62
406.883	930.62
407.107	983.62
407.331	1056.62
407.555	1104.62
407.778	1062.62
408.002	1054.62
408.226	996.62
408.449	983.62
408.673	957.62
408.896	937.62
409.12	933.62
409.344	936.62
409.567	922.62
409.791	931.62
410.014	947.62
410.238	953.62
410.461	944.62
410.685	945.62
410.908	888.62
411.132	880.62
411.355	859.62
411.578	832.62
411.802	868.62
412.025	867.62
412.249	850.62
412.472	856.62
412.695	820.62
412.919	799.62
413.142	821.62
413.365	818.62
413.589	833.62
413.812	824.62
414.035	783.62
414.258	838.62
414.482	818.62
414.705	865.62
414.928	839.62
415.151	834.62
415.374	799.62
415.597	844.62
415.821	817.62
416.044	807.62
416.267	801.62
416.49	798.62
416.713	804.62
416.936	796.62
417.159	788.62
417.382	794.62
417.605	780.62
417.828	814.62
418.051	794.62
418.274	807.62
418.497	818.62
418.72	842.62
418.943	830.62
419.166	874.62
419.389	948.62
419.611	916.62
419.834	884.62
420.057	846.62
420.28	829.62
420.503	798.62
420.726	796.62
420.948	805.62
421.171	809.62
421.394	804.62
421.617	779.62
421.839	819.62
422.062	846.62
422.285	813.62
422.507	834.62
422.73	833.62
422.953	841.62
423.175	857.62
423.398	870.62
423.621	883.62
423.843	876.62
424.066	883.62
424.288	848.62
424.511	878.62
424.733	853.62
424.956	846.62
425.178	825.62
425.401	824.62
425.623	828.62
425.846	783.62
426.068	787.62
426.291	792.62
426.513	761.62
426.735	761.62
426.958	757.62
427.18	716.62
427.402	733.62
427.625	739.62
427.847	752.62
428.069	731.62
428.292	734.62
428.514	732.62
428.736	714.62
428.958	719.62
429.181	704.62
429.403	700.62
429.625	723.62
429.847	683.62
430.069	715.62
430.292	693.62
430.514	690.62
430.736	702.62
430.958	714.62
431.18	702.62
431.402	708.62
431.624	698.62
431.846	726.62
432.068	737.62
432.29	745.62
432.512	729.62
432.734	731.62
432.956	732.62
433.178	717.62
433.4	724.62
433.622	746.62
433.844	728.62
434.066	755.62
434.287	736.62
434.509	782.62
434.731	834.62
434.953	863.62
435.175	851.62
435.397	820.62
435.618	798.62
435.84	772.62
436.062	736.62
436.284	755.62
436.505	741.62
436.727	750.62
436.949	749.62
437.17	714.62
437.392	709.62
437.614	712.62
437.835	689.62
438.057	695.62
438.278	706.62
438.5	717.62
438.721	718.62
438.943	698.62
439.165	696.62
439.386	716.62
439.608	730.62
439.829	745.62
440.05	744.62
440.272	734.62
440.493	740.62
440.715	778.62
440.936	726.62
441.158	760.62
441.379	788.62
441.6	819.62
441.822	833.62
442.043	859.62
442.264	823.62
442.486	806.62
442.707	817.62
442.928	826.62
443.149	780.62
443.371	800.62
443.592	830.62
443.813	843.62
444.034	834.62
444.255	856.62
444.476	926.62
444.698	958.62
444.919	995.62
445.14	1048.62
445.361	952.62
445.582	826.62
445.803	786.62
446.024	770.62
446.245	752.62
446.466	766.62
446.687	744.62
446.908	752.62
447.129	733.62
447.35	696.62
447.571	715.62
447.792	686.62
448.013	669.62
448.234	666.62
448.455	692.62
448.675	676.62
448.896	666.62
449.117	665.62
449.338	649.62
449.559	670.62
449.779	675.62
450	664.62
450.221	670.62
450.442	685.62
450.662	674.62
450.883	716.62
451.104	705.62
451.324	712.62
451.545	688.62
451.766	711.62
451.986	692.62
452.207	686.62
452.428	674.62
452.648	695.62
452.869	692.62
453.089	672.62
453.31	682.62
453.53	681.62
453.751	661.62
453.971	649.62
454.192	658.62
454.412	628.62
454.633	642.62
454.853	638.62
455.073	672.62
455.294	662.62
455.514	658.62
455.734	650.62
455.955	632.62
456.175	650.62
456.395	633.62
456.616	640.62
456.836	640.62
457.056	637.62
457.276	605.62
457.497	638.62
457.717	621.62
457.937	643.62
458.157	630.62
458.377	642.62
458.598	658.62
458.818	665.62
459.038	716.62
459.258	734.62
459.478	731.62
459.698	771.62
459.918	778.62
460.138	837.62
460.358	889.62
460.578	880.62
460.798	903.62
461.018	902.62
461.238	875.62
461.458	844.62
461.678	873.62
461.898	869.62
462.118	899.62
462.338	948.62
462.558	981.62
462.777	978.62
462.997	1077.62
463.217	1184.62
463.437	1210.62
463.657	1103.62
463.876	1046.62
464.096	1030.62
464.316	1029.62
464.536	1039.62
464.755	978.62
464.975	951.62
465.195	883.62
465.414	862.62
465.634	820.62
465.854	769.62
466.073	765.62
466.293	758.62
466.512	716.62
466.732	726.62
466.951	740.62
467.171	732.62
467.391	727.62
467.61	705.62
467.829	723.62
468.049	710.62
468.268	668.62
468.488	689.62
468.707	695.62
468.927	693.62
469.146	692.62
469.365	722.62
469.585	684.62
469.804	718.62
470.023	716.62
470.243	742.62
470.462	745.62
470.681	754.62
470.901	760.62
471.12	720.62
471.339	709.62
471.558	681.62
471.777	712.62
471.997	701.62
472.216	697.62
472.435	683.62
472.654	659.62
472.873	669.62
473.092	679.62
473.311	669.62
473.53	656.62
473.749	656.62
473.968	674.62
474.187	649.62
474.406	657.62
474.625	644.62
474.844	675.62
475.063	667.62
475.282	682.62
475.501	682.62
475.72	664.62
475.939	703.62
476.158	694.62
476.377	718.62
476.596	685.62
476.814	715.62
477.033	733.62
477.252	684.62
477.471	732.62
477.69	752.62
477.908	779.62
478.127	778.62
478.346	806.62
478.564	800.62
478.783	811.62
479.002	810.62
479.22	838.62
479.439	827.62
479.658	807.62
479.876	835.62
480.095	854.62
480.313	892.62
480.532	906.62
480.751	920.62
480.969	862.62
481.188	840.62
481.406	813.62
481.624	802.62
481.843	770.62
482.061	777.62
482.28	753.62
482.498	772.62
482.717	778.62
482.935	761.62
483.153	757.62
483.372	768.62
483.59	800.62
483.808	782.62
484.027	767.62
484.245	764.62
484.463	786.62
484.681	817.62
484.9	799.62
485.118	788.62
485.336	804.62
485.554	818.62
485.772	816.62
485.99	835.62
486.209	842.62
486.427	821.62
486.645	845.62
486.863	819.62
487.081	801.62
487.299	837.62
487.517	821.62
487.735	810.62
487.953	820.62
488.171	807.62
488.389	792.62
488.607	809.62
488.825	789.62
489.043	765.62
489.261	797.62
489.479	802.62
489.696	810.62
489.914	793.62
490.132	852.62
490.35	821.62
490.568	812.62
490.786	803.62
491.003	822.62
491.221	823.62
491.439	837.62
491.657	814.62
491.874	828.62
492.092	832.62
492.31	826.62
492.527	819.62
492.745	824.62
492.963	812.62
493.18	824.62
493.398	841.62
493.615	837.62
493.833	830.62
494.05	844.62
494.268	848.62
494.485	854.62
494.703	848.62
494.92	852.62
495.138	836.62
495.355	840.62
495.573	820.62
495.79	861.62
496.008	857.62
496.225	862.62
496.442	843.62
496.66	886.62
496.877	902.62
497.094	887.62
497.312	893.62
497.529	893.62
497.746	932.62
497.963	974.62
498.181	994.62
498.398	1014.62
498.615	1137.62
498.832	1162.62
499.049	1296.62
499.267	1388.62
499.484	1484.62
499.701	1676.62
499.918	1863.62
500.135	2154.62
500.352	2463.62
500.569	2618.62
500.786	2626.62
501.003	2383.62
501.22	2137.62
501.437	1847.62
501.654	1588.62
501.871	1459.62
502.088	1319.62
502.305	1273.62
502.522	1202.62
502.739	1138.62
502.956	1100.62
503.172	1003.62
503.389	1009.62
503.606	938.62
503.823	940.62
504.04	923.62
504.256	937.62
504.473	982.62
504.69	1016.62
504.907	994.62
505.123	918.62
505.34	875.62
505.557	852.62
505.773	810.62
505.99	822.62
506.207	810.62
506.423	775.62
506.64	757.62
506.856	757.62
507.073	756.62
507.289	769.62
507.506	709.62
507.722	776.62
507.939	740.62
508.155	736.62
508.372	729.62
508.588	731.62
508.805	718.62
509.021	717.62
509.238	700.62
509.454	704.62
509.67	715.62
509.887	707.62
510.103	699.62
510.319	678.62
510.536	716.62
510.752	699.62
510.968	695.62
511.184	696.62
511.401	697.62
511.617	694.62
511.833	691.62
512.049	670.62
512.265	678.62
512.481	684.62
512.698	688.62
512.914	708.62
513.13	685.62
513.346	696.62
513.562	682.62
513.778	689.62
513.994	690.62
514.21	689.62
514.426	702.62
514.642	711.62
514.858	714.62
515.074	691.62
515.29	705.62
515.506	702.62
515.721	707.62
515.937	745.62
516.153	752.62
516.369	750.62
516.585	810.62
516.801	826.62
517.016	825.62
517.232	860.62
517.448	931.62
517.664	967.62
517.879	971.62
518.095	973.62
518.311	955.62
518.527	914.62
518.742	858.62
518.958	818.62
519.173	819.62
519.389	770.62
519.605	730.62
519.82	733.62
520.036	718.62
520.251	701.62
520.467	726.62
520.682	691.62
520.898	688.62
521.113	701.62
521.329	681.62
521.544	672.62
521.76	667.62
521.975	664.62
522.19	659.62
522.406	671.62
522.621	636.62
522.836	636.62
523.052	641.62
523.267	658.62
523.482	642.62
523.698	645.62
523.913	640.62
524.128	637.62
524.343	646.62
524.559	635.62
524.774	629.62
524.989	640.62
525.204	612.62
525.419	625.62
525.634	613.62
525.849	636.62
526.064	650.62
526.28	645.62
526.495	644.62
526.71	625.62
526.925	638.62
527.14	620.62
527.355	636.62
527.57	633.62
527.785	641.62
527.999	622.62
528.214	642.62
528.429	643.62
528.644	628.62
528.859	647.62
529.074	639.62
529.289	662.62
529.503	628.62
529.718	596.62
529.933	605.62
530.148	636.62
530.363	632.62
530.577	619.62
530.792	610.62
531.007	623.62
531.221	660.62
531.436	636.62
531.651	614.62
531.865	638.62
532.08	640.62
532.295	630.62
532.509	634.62
532.724	621.62
532.938	628.62
533.153	618.62
533.367	642.62
533.582	622.62
533.796	628.62
534.011	626.62
534.225	636.62
534.44	634.62
534.654	627.62
534.868	627.62
535.083	613.62
535.297	634.62
535.511	619.62
535.726	606.62
535.94	602.62
536.154	577.62
536.369	595.62
536.583	615.62
536.797	580.62
537.011	579.62
537.225	626.62
537.44	588.62
537.654	581.62
537.868	579.62
538.082	590.62
538.296	581.62
538.51	588.62
538.724	588.62
538.938	574.62
539.153	585.62
539.367	553.62
539.581	570.62
539.795	582.62
540.009	567.62
540.222	543.62
540.436	593.62
540.65	562.62
540.864	573.62
541.078	561.62
541.292	546.62
541.506	572.62
541.72	575.62
541.934	552.62
542.147	568.62
542.361	573.62
542.575	546.62
542.789	568.62
543.002	552.62
543.216	570.62
543.43	547.62
543.644	541.62
543.857	546.62
544.071	565.62
544.285	549.62
544.498	579.62
544.712	550.62
544.925	573.62
545.139	574.62
545.352	552.62
545.566	567.62
545.779	569.62
545.993	572.62
546.206	574.62
546.42	567.62
546.633	578.62
546.847	561.62
547.06	568.62
547.274	545.62
547.487	562.62
547.7	571.62
547.914	569.62
548.127	580.62
548.34	585.62
548.554	561.62
548.767	603.62
548.98	549.62
549.193	570.62
549.407	595.62
549.62	619.62
549.833	614.62
550.046	597.62
550.259	548.62
550.473	572.62
550.686	552.62
550.899	553.62
551.112	548.62
551.325	564.62
551.538	561.62
551.751	580.62
551.964	564.62
552.177	594.62
552.39	600.62
552.603	584.62
552.816	597.62
553.029	616.62
553.242	634.62
553.455	650.62
553.667	634.62
553.88	638.62
554.093	598.62
554.306	609.62
554.519	572.62
554.732	568.62
554.944	568.62
555.157	548.62
555.37	540.62
555.583	530.62
555.795	530.62
556.008	543.62
556.221	506.62
556.433	522.62
556.646	521.62
556.859	501.62
557.071	529.62
557.284	521.62
557.496	502.62
557.709	496.62
557.921	470.62
558.134	485.62
558.346	490.62
558.559	484.62
558.771	481.62
558.984	481.62
559.196	477.62
559.409	479.62
559.621	498.62
559.833	483.62
560.046	480.62
560.258	484.62
560.47	486.62
560.683	488.62
560.895	473.62
561.107	475.62
561.32	480.62
561.532	462.62
561.744	473.62
561.956	476.62
562.168	491.62
562.381	504.62
562.593	464.62
562.805	512.62
563.017	480.62
563.229	492.62
563.441	494.62
563.653	503.62
563.865	500.62
564.077	506.62
564.289	512.62
564.501	497.62
564.713	513.62
564.925	517.62
565.137	526.62
565.349	523.62
565.561	534.62
565.773	572.62
565.985	592.62
566.197	617.62
566.408	644.62
566.62	696.62
566.832	788.62
567.044	778.62
567.255	798.62
567.467	823.62
567.679	877.62
567.891	937.62
568.102	952.62
568.314	896.62
568.526	809.62
568.737	730.62
568.949	640.62
569.161	621.62
569.372	549.62
569.584	515.62
569.795	518.62
570.007	489.62
570.218	496.62
570.43	497.62
570.641	486.62
570.853	486.62
571.064	532.62
571.276	497.62
571.487	499.62
571.698	477.62
571.91	450.62
572.121	417.62
572.333	418.62
572.544	433.62
572.755	437.62
572.966	425.62
573.178	422.62
573.389	422.62
573.6	417.62
573.811	401.62
574.023	399.62
574.234	408.62
574.445	394.62
574.656	405.62
574.867	399.62
575.078	414.62
575.289	407.62
575.501	398.62
575.712	390.62
575.923	404.62
576.134	389.62
576.345	387.62
576.556	391.62
576.767	381.62
576.978	386.62
577.188	385.62
577.399	378.62
577.61	374.62
577.821	368.62
578.032	355.62
578.243	347.62
578.454	370.62
578.665	360.62
578.875	365.62
579.086	378.62
579.297	362.62
579.508	353.62
579.718	347.62
579.929	362.62
580.14	374.62
580.35	368.62
580.561	361.62
580.772	370.62
580.982	344.62
581.193	361.62
581.403	359.62
581.614	349.62
581.825	338.62
582.035	342.62
582.246	338.62
582.456	349.62
582.667	358.62
582.877	353.62
583.087	336.62
583.298	344.62
583.508	334.62
583.719	341.62
583.929	330.62
584.139	341.62
584.35	341.62
584.56	317.62
584.77	329.62
584.981	325.62
585.191	324.62
585.401	317.62
585.611	346.62
585.821	341.62
586.032	339.62
586.242	338.62
586.452	332.62
586.662	314.62
586.872	317.62
587.082	322.62
587.292	326.62
587.502	339.62
587.713	332.62
587.923	320.62
588.133	334.62
588.343	338.62
588.553	324.62
588.762	322.62
588.972	309.62
589.182	319.62
589.392	341.62
589.602	340.62
589.812	342.62
590.022	337.62
590.232	341.62
590.441	342.62
590.651	327.62
590.861	325.62
591.071	336.62
591.281	334.62
591.49	346.62
591.7	351.62
591.91	346.62
592.119	348.62
592.329	349.62
592.539	357.62
592.748	376.62
592.958	406.62
593.167	416.62
593.377	416.62
593.587	408.62
593.796	420.62
594.006	426.62
594.215	445.62
594.424	436.62
594.634	408.62
594.843	385.62
595.053	377.62
595.262	382.62
595.472	362.62
595.681	345.62
595.89	344.62
596.1	322.62
596.309	342.62
596.518	306.62
596.727	315.62
596.937	313.62
597.146	308.62
597.355	304.62
597.564	290.62
597.774	293.62
597.983	285.62
598.192	299.62
598.401	295.62
598.61	290.62
598.819	296.62
599.028	299.62
599.237	292.62
599.446	293.62
599.655	285.62
599.864	296.62
600.073	280.62
600.282	287.62
600.491	290.62
600.7	281.62
600.909	277.62
601.118	268.62
601.327	276.62
601.536	276.62
601.745	285.62
601.953	276.62
602.162	277.62
602.371	260.62
602.58	259.62
602.789	285.62
602.997	277.62
603.206	275.62
603.415	281.62
603.623	262.62
603.832	276.62
604.041	267.62
604.249	278.62
604.458	282.62
604.666	274.62
604.875	277.62
605.084	258.62
605.292	278.62
605.501	264.62
605.709	255.62
605.918	258.62
606.126	244.62
606.334	257.62
606.543	264.62
606.751	260.62
606.96	272.62
607.168	263.62
607.376	278.62
607.585	250.62
607.793	267.62
608.001	243.62
608.21	246.62
608.418	271.62
608.626	264.62
608.834	252.62
609.043	253.62
609.251	262.62
609.459	261.62
609.667	260.62
609.875	237.62
610.083	256.62
610.291	253.62
610.499	254.62
610.707	265.62
610.916	237.62
611.124	259.62
611.332	241.62
611.54	246.62
611.748	250.62
611.955	249.62
612.163	234.62
612.371	242.62
612.579	263.62
612.787	246.62
612.995	250.62
613.203	263.62
613.411	245.62
613.618	240.62
613.826	257.62
614.034	265.62
614.242	237.62
614.449	256.62
614.657	230.62
614.865	245.62
615.072	236.62
615.28	260.62
615.488	227.62
615.695	242.62
615.903	260.62
616.111	261.62
616.318	268.62
616.526	250.62
616.733	237.62
616.941	254.62
617.148	242.62
617.356	255.62
617.563	248.62
617.771	258.62
617.978	257.62
618.185	252.62
618.393	234.62
618.6	260.62
618.807	256.62
619.015	233.62
619.222	252.62
619.429	234.62
619.637	246.62
619.844	252.62
620.051	232.62
620.258	240.62
620.466	246.62
620.673	233.62
620.88	220.62
621.087	229.62
621.294	240.62
621.501	226.62
621.708	232.62
621.915	233.62
622.122	226.62
622.329	235.62
622.536	225.62
622.743	217.62
622.95	228.62
623.157	221.62
623.364	219.62
623.571	230.62
623.778	222.62
623.985	225.62
624.192	221.62
624.399	220.62
624.606	224.62
624.812	227.62
625.019	222.62
625.226	205.62
625.433	211.62
625.639	216.62
625.846	212.62
626.053	218.62
626.259	213.62
626.466	201.62
626.673	200.62
626.879	202.62
627.086	203.62
627.293	212.62
627.499	203.62
627.706	204.62
627.912	203.62
628.119	214.62
628.325	213.62
628.532	196.62
628.738	205.62
628.945	226.62
629.151	193.62
629.357	187.62
629.564	207.62
629.77	194.62
629.976	182.62
630.183	189.62
630.389	205.62
630.595	209.62
630.802	194.62
631.008	189.62
631.214	195.62
631.42	203.62
631.627	211.62
631.833	184.62
632.039	208.62
632.245	201.62
632.451	208.62
632.657	202.62
632.863	194.62
633.069	183.62
633.275	209.62
633.481	200.62
633.688	202.62
633.893	191.62
634.099	196.62
634.305	180.62
634.511	194.62
634.717	187.62
634.923	206.62
635.129	203.62
635.335	182.62
635.541	178.62
635.747	194.62
635.952	186.62
636.158	187.62
636.364	192.62
636.57	184.62
636.775	193.62
636.981	191.62
637.187	189.62
637.392	192.62
637.598	194.62
637.804	189.62
638.009	174.62
638.215	171.62
638.421	170.62
638.626	186.62
638.832	171.62
639.037	191.62
639.243	192.62
639.448	177.62
639.654	185.62
639.859	182.62
640.065	166.62
640.27	176.62
640.475	170.62
640.681	173.62
640.886	169.62
641.091	176.62
641.297	191.62
641.502	188.62
641.707	157.62
641.913	169.62
642.118	164.62
642.323	164.62
642.528	165.62
642.733	179.62
642.939	168.62
643.144	149.62
643.349	164.62
643.554	172.62
643.759	169.62
643.964	168.62
644.169	163.62
644.374	168.62
644.579	164.62
644.784	176.62
644.989	172.62
645.194	171.62
645.399	185.62
645.604	172.62
645.809	173.62
646.014	173.62
646.219	171.62
646.423	168.62
646.628	199.62
646.833	177.62
647.038	171.62
647.243	179.62
647.447	189.62
647.652	179.62
647.857	173.62
648.062	178.62
648.266	192.62
648.471	190.62
648.676	173.62
648.88	186.62
649.085	168.62
649.289	195.62
649.494	172.62
649.698	166.62
649.903	168.62
650.107	177.62
650.312	176.62
650.516	172.62
650.721	159.62
650.925	153.62
651.13	153.62
651.334	169.62
651.539	155.62
651.743	139.62
651.947	160.62
652.152	172.62
652.356	168.62
652.56	157.62
652.764	159.62
652.969	150.62
653.173	134.62
653.377	147.62
653.581	140.62
653.785	150.62
653.99	149.62
654.194	155.62
654.398	144.62
654.602	140.62
654.806	157.62
655.01	150.62
655.214	148.62
655.418	134.62
655.622	134.62
655.826	155.62
656.03	148.62
656.234	153.62
656.438	150.62
656.642	141.62
656.846	136.62
657.049	141.62
657.253	145.62
657.457	131.62
657.661	132.62
657.865	116.62
658.068	118.62
658.272	112.62
658.476	118.62
658.68	127.62
658.883	112.62
659.087	97.62
659.291	113.62
659.494	106.62
659.698	103.62
659.901	105.62
660.105	109.62
660.309	84.62
660.512	90.62
660.716	106.62
660.919	95.62
661.123	104.62
661.326	78.62
661.53	84.62
661.733	81.62
661.936	78.62
662.14	86.62
662.343	92.62
662.546	85.62
662.75	96.62
662.953	79.62
663.156	81.62
663.36	87.62
663.563	81.62
663.766	80.62
663.969	96.62
664.173	77.62
664.376	103.62
664.579	77.62
664.782	76.62
664.985	76.62
665.188	77.62
665.391	90.62
665.594	89.62
665.797	77.62
666	78.62
666.203	79.62
666.406	81.62
666.609	74.62
666.812	83.62
667.015	81.62
667.218	65.62
667.421	72.62
667.624	86.62
667.827	86.62
668.03	71.62
668.232	86.62
668.435	76.62
668.638	85.62
668.841	78.62
669.043	72.62
669.246	90.62
669.449	87.62
669.651	67.62
669.854	95.62
670.057	98.62
670.259	92.62
670.462	84.62
670.665	87.62
670.867	87.62
671.07	79.62
671.272	90.62
671.475	88.62
671.677	84.62
671.88	86.62
672.082	74.62
672.284	88.62
672.487	91.62
672.689	83.62
672.892	86.62
