Data from Ni(NO3)2@0.0625M.TitratingCurve.Agarose3%dH2O.NegLispCup.LampEnergy10.LIBS07252019_HRD10591_18-13-11-569.txt Node
Date: Thu Jul 25 18:13:11 EDT 2019
User: cochatt
Spectrometer: HR+D1059
Trigger mode: 1
Integration Time (sec): 1.000000E-1
Scans to average: 1
Electric dark correction enabled: true
Nonlinearity correction enabled: false
Boxcar width: 0
XAxis mode: Wavelengths
Number of Pixels in Spectrum: 2048
>>>>>Begin Spectral Data<<<<<
223.165	-19.56
223.4	-19.56
223.635	-19.56
223.869	-13.56
224.104	-22.56
224.338	-20.56
224.573	-18.56
224.808	-8.56
225.042	-21.56
225.277	-8.56
225.511	4.44
225.746	14.44
225.98	10.44
226.215	11.44
226.449	25.44
226.683	16.44
226.918	13.44
227.152	37.44
227.387	44.44
227.621	24.44
227.856	33.44
228.09	48.44
228.324	48.44
228.559	42.44
228.793	66.44
229.027	101.44
229.262	105.44
229.496	105.44
229.73	122.44
229.964	112.44
230.199	135.44
230.433	119.44
230.667	123.44
230.901	117.44
231.136	116.44
231.37	118.44
231.604	132.44
231.838	129.44
232.072	126.44
232.306	123.44
232.541	124.44
232.775	129.44
233.009	130.44
233.243	129.44
233.477	141.44
233.711	145.44
233.945	150.44
234.179	130.44
234.413	139.44
234.647	137.44
234.881	152.44
235.115	140.44
235.349	138.44
235.583	124.44
235.817	120.44
236.051	138.44
236.285	145.44
236.519	148.44
236.753	132.44
236.987	138.44
237.221	137.44
237.455	133.44
237.689	126.44
237.922	138.44
238.156	129.44
238.39	147.44
238.624	153.44
238.858	132.44
239.091	140.44
239.325	146.44
239.559	148.44
239.793	157.44
240.027	162.44
240.26	164.44
240.494	171.44
240.728	166.44
240.961	165.44
241.195	142.44
241.429	173.44
241.662	169.44
241.896	172.44
242.13	165.44
242.363	169.44
242.597	168.44
242.83	177.44
243.064	171.44
243.298	162.44
243.531	162.44
243.765	164.44
243.998	173.44
244.232	194.44
244.465	187.44
244.699	172.44
244.932	187.44
245.166	179.44
245.399	193.44
245.633	190.44
245.866	191.44
246.099	192.44
246.333	195.44
246.566	199.44
246.8	199.44
247.033	184.44
247.266	180.44
247.5	206.44
247.733	193.44
247.966	205.44
248.2	200.44
248.433	200.44
248.666	200.44
248.899	201.44
249.133	220.44
249.366	206.44
249.599	213.44
249.832	216.44
250.066	223.44
250.299	210.44
250.532	212.44
250.765	203.44
250.998	214.44
251.231	227.44
251.465	200.44
251.698	214.44
251.931	229.44
252.164	220.44
252.397	221.44
252.63	239.44
252.863	222.44
253.096	220.44
253.329	240.44
253.562	229.44
253.795	223.44
254.028	234.44
254.261	245.44
254.494	235.44
254.727	228.44
254.96	238.44
255.193	237.44
255.426	235.44
255.659	247.44
255.892	248.44
256.124	257.44
256.357	260.44
256.59	240.44
256.823	253.44
257.056	253.44
257.289	269.44
257.521	257.44
257.754	243.44
257.987	240.44
258.22	260.44
258.452	264.44
258.685	265.44
258.918	247.44
259.151	255.44
259.383	258.44
259.616	260.44
259.849	272.44
260.081	261.44
260.314	277.44
260.547	254.44
260.779	272.44
261.012	281.44
261.244	276.44
261.477	278.44
261.71	273.44
261.942	263.44
262.175	276.44
262.407	284.44
262.64	277.44
262.872	290.44
263.105	291.44
263.337	284.44
263.57	272.44
263.802	292.44
264.035	294.44
264.267	305.44
264.499	282.44
264.732	316.44
264.964	304.44
265.197	282.44
265.429	306.44
265.661	300.44
265.894	299.44
266.126	314.44
266.358	304.44
266.591	293.44
266.823	296.44
267.055	300.44
267.287	307.44
267.52	298.44
267.752	308.44
267.984	323.44
268.216	326.44
268.448	314.44
268.681	326.44
268.913	320.44
269.145	296.44
269.377	291.44
269.609	321.44
269.841	291.44
270.073	313.44
270.306	306.44
270.538	317.44
270.77	299.44
271.002	332.44
271.234	334.44
271.466	318.44
271.698	316.44
271.93	329.44
272.162	322.44
272.394	314.44
272.626	312.44
272.858	351.44
273.09	356.44
273.322	339.44
273.553	326.44
273.785	336.44
274.017	338.44
274.249	343.44
274.481	349.44
274.713	346.44
274.945	330.44
275.176	349.44
275.408	338.44
275.64	333.44
275.872	330.44
276.104	338.44
276.335	334.44
276.567	372.44
276.799	338.44
277.031	373.44
277.262	344.44
277.494	354.44
277.726	350.44
277.957	365.44
278.189	351.44
278.421	360.44
278.652	358.44
278.884	386.44
279.115	365.44
279.347	342.44
279.579	370.44
279.81	360.44
280.042	374.44
280.273	381.44
280.505	372.44
280.736	380.44
280.968	388.44
281.199	374.44
281.431	383.44
281.662	389.44
281.894	388.44
282.125	373.44
282.356	386.44
282.588	390.44
282.819	400.44
283.051	387.44
283.282	374.44
283.513	405.44
283.745	398.44
283.976	402.44
284.207	410.44
284.439	403.44
284.67	402.44
284.901	412.44
285.132	406.44
285.364	395.44
285.595	416.44
285.826	392.44
286.057	416.44
286.288	414.44
286.52	400.44
286.751	413.44
286.982	420.44
287.213	430.44
287.444	400.44
287.675	423.44
287.906	416.44
288.138	427.44
288.369	432.44
288.6	443.44
288.831	429.44
289.062	423.44
289.293	430.44
289.524	412.44
289.755	418.44
289.986	435.44
290.217	427.44
290.448	434.44
290.679	440.44
290.91	451.44
291.141	444.44
291.371	438.44
291.602	426.44
291.833	448.44
292.064	451.44
292.295	427.44
292.526	451.44
292.757	453.44
292.987	468.44
293.218	420.44
293.449	441.44
293.68	440.44
293.91	428.44
294.141	453.44
294.372	427.44
294.603	424.44
294.833	436.44
295.064	450.44
295.295	444.44
295.525	453.44
295.756	468.44
295.987	442.44
296.217	462.44
296.448	472.44
296.679	450.44
296.909	474.44
297.14	479.44
297.37	468.44
297.601	475.44
297.831	482.44
298.062	485.44
298.292	488.44
298.523	507.44
298.753	488.44
298.984	495.44
299.214	497.44
299.445	462.44
299.675	488.44
299.905	472.44
300.136	478.44
300.366	487.44
300.597	485.44
300.827	490.44
301.057	498.44
301.288	515.44
301.518	521.44
301.748	512.44
301.979	513.44
302.209	521.44
302.439	514.44
302.669	495.44
302.9	501.44
303.13	475.44
303.36	477.44
303.59	517.44
303.82	508.44
304.051	476.44
304.281	497.44
304.511	498.44
304.741	491.44
304.971	504.44
305.201	496.44
305.431	502.44
305.661	487.44
305.891	484.44
306.121	492.44
306.352	482.44
306.582	464.44
306.812	474.44
307.042	493.44
307.272	491.44
307.502	465.44
307.731	458.44
307.961	498.44
308.191	477.44
308.421	491.44
308.651	466.44
308.881	475.44
309.111	485.44
309.341	440.44
309.571	472.44
309.8	466.44
310.03	460.44
310.26	477.44
310.49	469.44
310.72	475.44
310.949	458.44
311.179	468.44
311.409	499.44
311.639	498.44
311.868	498.44
312.098	485.44
312.328	478.44
312.557	490.44
312.787	500.44
313.017	486.44
313.246	501.44
313.476	491.44
313.706	533.44
313.935	520.44
314.165	511.44
314.394	537.44
314.624	531.44
314.853	499.44
315.083	506.44
315.312	517.44
315.542	506.44
315.771	512.44
316.001	482.44
316.23	504.44
316.46	507.44
316.689	509.44
316.919	482.44
317.148	499.44
317.377	530.44
317.607	528.44
317.836	501.44
318.065	523.44
318.295	506.44
318.524	506.44
318.753	493.44
318.983	510.44
319.212	494.44
319.441	506.44
319.67	510.44
319.9	525.44
320.129	513.44
320.358	500.44
320.587	488.44
320.816	505.44
321.046	514.44
321.275	493.44
321.504	504.44
321.733	513.44
321.962	504.44
322.191	520.44
322.42	515.44
322.649	527.44
322.878	505.44
323.108	497.44
323.337	518.44
323.566	511.44
323.795	518.44
324.024	532.44
324.253	529.44
324.482	514.44
324.71	524.44
324.939	540.44
325.168	536.44
325.397	520.44
325.626	529.44
325.855	548.44
326.084	548.44
326.313	586.44
326.542	561.44
326.77	564.44
326.999	546.44
327.228	533.44
327.457	538.44
327.686	552.44
327.914	536.44
328.143	554.44
328.372	572.44
328.6	554.44
328.829	538.44
329.058	554.44
329.287	567.44
329.515	583.44
329.744	582.44
329.972	573.44
330.201	581.44
330.43	591.44
330.658	574.44
330.887	597.44
331.115	563.44
331.344	608.44
331.572	605.44
331.801	589.44
332.03	612.44
332.258	648.44
332.486	657.44
332.715	653.44
332.943	679.44
333.172	718.44
333.4	756.44
333.629	761.44
333.857	769.44
334.085	748.44
334.314	730.44
334.542	728.44
334.771	703.44
334.999	705.44
335.227	701.44
335.455	711.44
335.684	680.44
335.912	699.44
336.14	678.44
336.369	688.44
336.597	668.44
336.825	682.44
337.053	654.44
337.281	651.44
337.51	640.44
337.738	646.44
337.966	634.44
338.194	626.44
338.422	598.44
338.65	602.44
338.878	612.44
339.106	598.44
339.334	605.44
339.562	621.44
339.79	599.44
340.018	593.44
340.246	573.44
340.474	587.44
340.702	567.44
340.93	597.44
341.158	599.44
341.386	581.44
341.614	610.44
341.842	589.44
342.07	582.44
342.298	558.44
342.526	566.44
342.754	598.44
342.981	590.44
343.209	598.44
343.437	636.44
343.665	666.44
343.893	709.44
344.12	758.44
344.348	696.44
344.576	653.44
344.804	639.44
345.031	580.44
345.259	621.44
345.487	591.44
345.714	589.44
345.942	579.44
346.17	590.44
346.397	579.44
346.625	583.44
346.853	581.44
347.08	567.44
347.308	571.44
347.535	593.44
347.763	579.44
347.99	594.44
348.218	600.44
348.445	594.44
348.673	563.44
348.9	565.44
349.128	589.44
349.355	584.44
349.583	558.44
349.81	566.44
350.037	537.44
350.265	555.44
350.492	531.44
350.72	552.44
350.947	549.44
351.174	543.44
351.402	552.44
351.629	556.44
351.856	563.44
352.083	544.44
352.311	535.44
352.538	517.44
352.765	556.44
352.992	548.44
353.22	531.44
353.447	537.44
353.674	532.44
353.901	532.44
354.128	535.44
354.355	542.44
354.583	547.44
354.81	545.44
355.037	572.44
355.264	539.44
355.491	566.44
355.718	551.44
355.945	545.44
356.172	560.44
356.399	555.44
356.626	541.44
356.853	567.44
357.08	543.44
357.307	553.44
357.534	544.44
357.761	563.44
357.988	550.44
358.215	524.44
358.441	534.44
358.668	548.44
358.895	550.44
359.122	553.44
359.349	546.44
359.576	571.44
359.802	562.44
360.029	535.44
360.256	549.44
360.483	551.44
360.709	555.44
360.936	580.44
361.163	547.44
361.39	530.44
361.616	559.44
361.843	540.44
362.07	565.44
362.296	548.44
362.523	580.44
362.749	538.44
362.976	548.44
363.203	573.44
363.429	547.44
363.656	557.44
363.882	522.44
364.109	548.44
364.335	544.44
364.562	546.44
364.788	560.44
365.015	532.44
365.241	544.44
365.468	544.44
365.694	551.44
365.92	555.44
366.147	537.44
366.373	530.44
366.599	542.44
366.826	530.44
367.052	538.44
367.278	544.44
367.505	545.44
367.731	546.44
367.957	543.44
368.184	545.44
368.41	566.44
368.636	544.44
368.862	568.44
369.089	556.44
369.315	551.44
369.541	559.44
369.767	564.44
369.993	586.44
370.219	587.44
370.445	564.44
370.672	571.44
370.898	597.44
371.124	579.44
371.35	604.44
371.576	581.44
371.802	596.44
372.028	577.44
372.254	602.44
372.48	588.44
372.706	646.44
372.932	620.44
373.158	612.44
373.384	600.44
373.61	595.44
373.835	610.44
374.061	586.44
374.287	621.44
374.513	620.44
374.739	628.44
374.965	648.44
375.191	659.44
375.416	652.44
375.642	649.44
375.868	620.44
376.094	620.44
376.319	620.44
376.545	605.44
376.771	594.44
376.997	595.44
377.222	591.44
377.448	593.44
377.674	598.44
377.899	597.44
378.125	593.44
378.35	602.44
378.576	599.44
378.802	598.44
379.027	584.44
379.253	589.44
379.478	597.44
379.704	579.44
379.929	596.44
380.155	593.44
380.38	613.44
380.606	594.44
380.831	590.44
381.057	586.44
381.282	589.44
381.507	590.44
381.733	597.44
381.958	587.44
382.184	619.44
382.409	593.44
382.634	627.44
382.86	626.44
383.085	617.44
383.31	639.44
383.535	665.44
383.761	666.44
383.986	681.44
384.211	660.44
384.436	698.44
384.662	709.44
384.887	725.44
385.112	746.44
385.337	736.44
385.562	730.44
385.787	753.44
386.013	720.44
386.238	713.44
386.463	717.44
386.688	730.44
386.913	704.44
387.138	702.44
387.363	702.44
387.588	704.44
387.813	700.44
388.038	704.44
388.263	694.44
388.488	689.44
388.713	718.44
388.938	716.44
389.163	701.44
389.387	701.44
389.612	682.44
389.837	690.44
390.062	670.44
390.287	687.44
390.512	707.44
390.736	702.44
390.961	709.44
391.186	716.44
391.411	757.44
391.636	782.44
391.86	802.44
392.085	838.44
392.31	825.44
392.534	774.44
392.759	766.44
392.984	748.44
393.208	750.44
393.433	756.44
393.658	760.44
393.882	735.44
394.107	772.44
394.331	772.44
394.556	785.44
394.78	771.44
395.005	783.44
395.229	768.44
395.454	791.44
395.678	806.44
395.903	797.44
396.127	794.44
396.352	741.44
396.576	776.44
396.801	733.44
397.025	766.44
397.249	792.44
397.474	788.44
397.698	807.44
397.922	803.44
398.147	765.44
398.371	811.44
398.595	848.44
398.82	875.44
399.044	923.44
399.268	1026.44
399.492	1188.44
399.717	1399.44
399.941	1376.44
400.165	1222.44
400.389	1085.44
400.613	968.44
400.837	950.44
401.062	894.44
401.286	907.44
401.51	900.44
401.734	881.44
401.958	892.44
402.182	908.44
402.406	902.44
402.63	941.44
402.854	971.44
403.078	980.44
403.302	991.44
403.526	1058.44
403.75	1056.44
403.974	1100.44
404.198	1078.44
404.422	1069.44
404.645	1074.44
404.869	1048.44
405.093	1050.44
405.317	991.44
405.541	987.44
405.765	983.44
405.988	965.44
406.212	964.44
406.436	989.44
406.66	1003.44
406.883	1000.44
407.107	1097.44
407.331	1155.44
407.555	1203.44
407.778	1164.44
408.002	1175.44
408.226	1114.44
408.449	1088.44
408.673	1060.44
408.896	1060.44
409.12	1033.44
409.344	1019.44
409.567	1028.44
409.791	1043.44
410.014	1032.44
410.238	1046.44
410.461	997.44
410.685	1016.44
410.908	982.44
411.132	973.44
411.355	939.44
411.578	949.44
411.802	940.44
412.025	925.44
412.249	948.44
412.472	948.44
412.695	938.44
412.919	907.44
413.142	880.44
413.365	908.44
413.589	896.44
413.812	886.44
414.035	909.44
414.258	907.44
414.482	921.44
414.705	922.44
414.928	926.44
415.151	921.44
415.374	900.44
415.597	914.44
415.821	909.44
416.044	881.44
416.267	859.44
416.49	867.44
416.713	854.44
416.936	855.44
417.159	877.44
417.382	889.44
417.605	906.44
417.828	902.44
418.051	891.44
418.274	909.44
418.497	930.44
418.72	904.44
418.943	941.44
419.166	976.44
419.389	1061.44
419.611	1010.44
419.834	938.44
420.057	935.44
420.28	901.44
420.503	890.44
420.726	893.44
420.948	865.44
421.171	857.44
421.394	892.44
421.617	902.44
421.839	909.44
422.062	895.44
422.285	876.44
422.507	913.44
422.73	908.44
422.953	932.44
423.175	952.44
423.398	948.44
423.621	956.44
423.843	954.44
424.066	998.44
424.288	964.44
424.511	965.44
424.733	984.44
424.956	924.44
425.178	920.44
425.401	906.44
425.623	873.44
425.846	850.44
426.068	846.44
426.291	872.44
426.513	837.44
426.735	842.44
426.958	855.44
427.18	812.44
427.402	826.44
427.625	809.44
427.847	806.44
428.069	816.44
428.292	794.44
428.514	818.44
428.736	793.44
428.958	804.44
429.181	792.44
429.403	772.44
429.625	796.44
429.847	774.44
430.069	756.44
430.292	774.44
430.514	771.44
430.736	773.44
430.958	772.44
431.18	790.44
431.402	796.44
431.624	788.44
431.846	801.44
432.068	840.44
432.29	822.44
432.512	796.44
432.734	782.44
432.956	801.44
433.178	794.44
433.4	779.44
433.622	811.44
433.844	813.44
434.066	814.44
434.287	833.44
434.509	845.44
434.731	895.44
434.953	923.44
435.175	926.44
435.397	908.44
435.618	858.44
435.84	828.44
436.062	820.44
436.284	794.44
436.505	756.44
436.727	781.44
436.949	824.44
437.17	797.44
437.392	778.44
437.614	776.44
437.835	785.44
438.057	789.44
438.278	791.44
438.5	763.44
438.721	756.44
438.943	776.44
439.165	789.44
439.386	804.44
439.608	798.44
439.829	799.44
440.05	808.44
440.272	815.44
440.493	809.44
440.715	816.44
440.936	821.44
441.158	849.44
441.379	870.44
441.6	930.44
441.822	938.44
442.043	914.44
442.264	900.44
442.486	868.44
442.707	885.44
442.928	890.44
443.149	890.44
443.371	875.44
443.592	883.44
443.813	894.44
444.034	933.44
444.255	934.44
444.476	1008.44
444.698	1091.44
444.919	1128.44
445.14	1152.44
445.361	1037.44
445.582	914.44
445.803	869.44
446.024	809.44
446.245	827.44
446.466	832.44
446.687	810.44
446.908	818.44
447.129	788.44
447.35	771.44
447.571	800.44
447.792	750.44
448.013	764.44
448.234	768.44
448.455	758.44
448.675	735.44
448.896	739.44
449.117	717.44
449.338	740.44
449.559	718.44
449.779	745.44
450	725.44
450.221	760.44
450.442	734.44
450.662	739.44
450.883	755.44
451.104	794.44
451.324	799.44
451.545	776.44
451.766	764.44
451.986	760.44
452.207	741.44
452.428	734.44
452.648	745.44
452.869	749.44
453.089	762.44
453.31	782.44
453.53	763.44
453.751	738.44
453.971	743.44
454.192	726.44
454.412	694.44
454.633	691.44
454.853	720.44
455.073	709.44
455.294	702.44
455.514	692.44
455.734	698.44
455.955	700.44
456.175	693.44
456.395	698.44
456.616	676.44
456.836	688.44
457.056	702.44
457.276	667.44
457.497	687.44
457.717	700.44
457.937	685.44
458.157	694.44
458.377	729.44
458.598	734.44
458.818	749.44
459.038	769.44
459.258	818.44
459.478	834.44
459.698	808.44
459.918	872.44
460.138	868.44
460.358	942.44
460.578	941.44
460.798	947.44
461.018	979.44
461.238	967.44
461.458	965.44
461.678	954.44
461.898	960.44
462.118	982.44
462.338	1022.44
462.558	1056.44
462.777	1084.44
462.997	1186.44
463.217	1316.44
463.437	1367.44
463.657	1201.44
463.876	1148.44
464.096	1136.44
464.316	1118.44
464.536	1154.44
464.755	1095.44
464.975	1072.44
465.195	1012.44
465.414	937.44
465.634	859.44
465.854	832.44
466.073	808.44
466.293	800.44
466.512	807.44
466.732	766.44
466.951	806.44
467.171	771.44
467.391	798.44
467.61	768.44
467.829	786.44
468.049	756.44
468.268	747.44
468.488	755.44
468.707	731.44
468.927	722.44
469.146	736.44
469.365	755.44
469.585	740.44
469.804	790.44
470.023	813.44
470.243	802.44
470.462	817.44
470.681	816.44
470.901	801.44
471.12	803.44
471.339	780.44
471.558	753.44
471.777	759.44
471.997	766.44
472.216	757.44
472.435	739.44
472.654	714.44
472.873	726.44
473.092	726.44
473.311	711.44
473.53	731.44
473.749	709.44
473.968	715.44
474.187	723.44
474.406	749.44
474.625	730.44
474.844	709.44
475.063	730.44
475.282	729.44
475.501	733.44
475.72	730.44
475.939	727.44
476.158	710.44
476.377	754.44
476.596	742.44
476.814	782.44
477.033	764.44
477.252	759.44
477.471	777.44
477.69	802.44
477.908	818.44
478.127	845.44
478.346	862.44
478.564	908.44
478.783	883.44
479.002	920.44
479.22	921.44
479.439	900.44
479.658	898.44
479.876	882.44
480.095	885.44
480.313	937.44
480.532	989.44
480.751	1000.44
480.969	933.44
481.188	909.44
481.406	885.44
481.624	828.44
481.843	815.44
482.061	820.44
482.28	822.44
482.498	798.44
482.717	816.44
482.935	845.44
483.153	828.44
483.372	812.44
483.59	807.44
483.808	809.44
484.027	823.44
484.245	843.44
484.463	835.44
484.681	864.44
484.9	864.44
485.118	854.44
485.336	846.44
485.554	882.44
485.772	861.44
485.99	869.44
486.209	886.44
486.427	893.44
486.645	873.44
486.863	884.44
487.081	857.44
487.299	876.44
487.517	855.44
487.735	895.44
487.953	846.44
488.171	858.44
488.389	874.44
488.607	827.44
488.825	852.44
489.043	842.44
489.261	849.44
489.479	865.44
489.696	847.44
489.914	859.44
490.132	858.44
490.35	860.44
490.568	832.44
490.786	854.44
491.003	849.44
491.221	872.44
491.439	872.44
491.657	853.44
491.874	878.44
492.092	889.44
492.31	874.44
492.527	864.44
492.745	869.44
492.963	880.44
493.18	875.44
493.398	892.44
493.615	904.44
493.833	887.44
494.05	910.44
494.268	930.44
494.485	917.44
494.703	923.44
494.92	908.44
495.138	918.44
495.355	905.44
495.573	905.44
495.79	894.44
496.008	902.44
496.225	917.44
496.442	916.44
496.66	951.44
496.877	955.44
497.094	951.44
497.312	978.44
497.529	995.44
497.746	1001.44
497.963	1032.44
498.181	1092.44
498.398	1163.44
498.615	1198.44
498.832	1267.44
499.049	1377.44
499.267	1493.44
499.484	1694.44
499.701	1860.44
499.918	2057.44
500.135	2394.44
500.352	2806.44
500.569	3004.44
500.786	2925.44
501.003	2693.44
501.22	2364.44
501.437	2033.44
501.654	1781.44
501.871	1626.44
502.088	1501.44
502.305	1328.44
502.522	1304.44
502.739	1259.44
502.956	1196.44
503.172	1147.44
503.389	1056.44
503.606	1049.44
503.823	1060.44
504.04	1027.44
504.256	1049.44
504.473	1090.44
504.69	1136.44
504.907	1106.44
505.123	1015.44
505.34	978.44
505.557	935.44
505.773	917.44
505.99	859.44
506.207	836.44
506.423	864.44
506.64	845.44
506.856	835.44
507.073	823.44
507.289	822.44
507.506	797.44
507.722	813.44
507.939	810.44
508.155	786.44
508.372	794.44
508.588	777.44
508.805	770.44
509.021	778.44
509.238	759.44
509.454	762.44
509.67	734.44
509.887	765.44
510.103	743.44
510.319	742.44
510.536	762.44
510.752	756.44
510.968	729.44
511.184	720.44
511.401	736.44
511.617	777.44
511.833	740.44
512.049	740.44
512.265	746.44
512.481	749.44
512.698	747.44
512.914	743.44
513.13	736.44
513.346	780.44
513.562	742.44
513.778	732.44
513.994	729.44
514.21	732.44
514.426	749.44
514.642	748.44
514.858	773.44
515.074	774.44
515.29	770.44
515.506	756.44
515.721	786.44
515.937	788.44
516.153	823.44
516.369	807.44
516.585	854.44
516.801	850.44
517.016	913.44
517.232	978.44
517.448	1020.44
517.664	1059.44
517.879	1080.44
518.095	1084.44
518.311	1043.44
518.527	972.44
518.742	946.44
518.958	888.44
519.173	850.44
519.389	851.44
519.605	850.44
519.82	805.44
520.036	818.44
520.251	741.44
520.467	754.44
520.682	766.44
520.898	745.44
521.113	725.44
521.329	731.44
521.544	733.44
521.76	742.44
521.975	700.44
522.19	728.44
522.406	716.44
522.621	716.44
522.836	702.44
523.052	696.44
523.267	670.44
523.482	709.44
523.698	712.44
523.913	676.44
524.128	674.44
524.343	699.44
524.559	703.44
524.774	670.44
524.989	692.44
525.204	701.44
525.419	683.44
525.634	658.44
525.849	700.44
526.064	679.44
526.28	718.44
526.495	669.44
526.71	666.44
526.925	676.44
527.14	652.44
527.355	663.44
527.57	680.44
527.785	666.44
527.999	662.44
528.214	692.44
528.429	685.44
528.644	700.44
528.859	683.44
529.074	690.44
529.289	700.44
529.503	681.44
529.718	697.44
529.933	688.44
530.148	684.44
530.363	668.44
530.577	666.44
530.792	672.44
531.007	668.44
531.221	689.44
531.436	676.44
531.651	690.44
531.865	678.44
532.08	677.44
532.295	708.44
532.509	685.44
532.724	682.44
532.938	698.44
533.153	665.44
533.367	672.44
533.582	697.44
533.796	694.44
534.011	674.44
534.225	683.44
534.44	681.44
534.654	669.44
534.868	658.44
535.083	680.44
535.297	646.44
535.511	652.44
535.726	661.44
535.94	648.44
536.154	643.44
536.369	652.44
536.583	638.44
536.797	642.44
537.011	628.44
537.225	638.44
537.44	647.44
537.654	629.44
537.868	601.44
538.082	621.44
538.296	614.44
538.51	610.44
538.724	609.44
538.938	601.44
539.153	624.44
539.367	655.44
539.581	634.44
539.795	624.44
540.009	617.44
540.222	615.44
540.436	635.44
540.65	597.44
540.864	621.44
541.078	603.44
541.292	633.44
541.506	616.44
541.72	595.44
541.934	611.44
542.147	610.44
542.361	605.44
542.575	599.44
542.789	593.44
543.002	589.44
543.216	606.44
543.43	593.44
543.644	580.44
543.857	586.44
544.071	599.44
544.285	624.44
544.498	605.44
544.712	589.44
544.925	606.44
545.139	618.44
545.352	620.44
545.566	626.44
545.779	612.44
545.993	629.44
546.206	597.44
546.42	610.44
546.633	631.44
546.847	619.44
547.06	648.44
547.274	632.44
547.487	613.44
547.7	618.44
547.914	640.44
548.127	619.44
548.34	613.44
548.554	626.44
548.767	618.44
548.98	624.44
549.193	633.44
549.407	633.44
549.62	642.44
549.833	652.44
550.046	663.44
550.259	640.44
550.473	624.44
550.686	615.44
550.899	608.44
551.112	603.44
551.325	602.44
551.538	609.44
551.751	589.44
551.964	627.44
552.177	648.44
552.39	622.44
552.603	652.44
552.816	668.44
553.029	670.44
553.242	674.44
553.455	700.44
553.667	714.44
553.88	692.44
554.093	667.44
554.306	638.44
554.519	630.44
554.732	650.44
554.944	600.44
555.157	588.44
555.37	587.44
555.583	602.44
555.795	585.44
556.008	574.44
556.221	573.44
556.433	567.44
556.646	553.44
556.859	523.44
557.071	526.44
557.284	545.44
557.496	530.44
557.709	548.44
557.921	575.44
558.134	548.44
558.346	534.44
558.559	520.44
558.771	508.44
558.984	532.44
559.196	506.44
559.409	524.44
559.621	524.44
559.833	534.44
560.046	518.44
560.258	512.44
560.47	514.44
560.683	509.44
560.895	505.44
561.107	527.44
561.32	529.44
561.532	524.44
561.744	529.44
561.956	524.44
562.168	502.44
562.381	534.44
562.593	528.44
562.805	526.44
563.017	506.44
563.229	497.44
563.441	522.44
563.653	539.44
563.865	528.44
564.077	546.44
564.289	534.44
564.501	553.44
564.713	534.44
564.925	541.44
565.137	601.44
565.349	566.44
565.561	594.44
565.773	620.44
565.985	632.44
566.197	653.44
566.408	697.44
566.62	778.44
566.832	856.44
567.044	865.44
567.255	851.44
567.467	882.44
567.679	934.44
567.891	1018.44
568.102	1038.44
568.314	1012.44
568.526	893.44
568.737	797.44
568.949	729.44
569.161	677.44
569.372	614.44
569.584	603.44
569.795	559.44
570.007	562.44
570.218	527.44
570.43	531.44
570.641	527.44
570.853	547.44
571.064	552.44
571.276	557.44
571.487	536.44
571.698	509.44
571.91	484.44
572.121	481.44
572.333	460.44
572.544	446.44
572.755	454.44
572.966	457.44
573.178	466.44
573.389	451.44
573.6	447.44
573.811	425.44
574.023	430.44
574.234	440.44
574.445	442.44
574.656	427.44
574.867	432.44
575.078	422.44
575.289	451.44
575.501	431.44
575.712	425.44
575.923	412.44
576.134	412.44
576.345	393.44
576.556	434.44
576.767	424.44
576.978	432.44
577.188	408.44
577.399	418.44
577.61	387.44
577.821	381.44
578.032	422.44
578.243	384.44
578.454	380.44
578.665	396.44
578.875	395.44
579.086	372.44
579.297	399.44
579.508	385.44
579.718	399.44
579.929	380.44
580.14	389.44
580.35	378.44
580.561	370.44
580.772	378.44
580.982	389.44
581.193	382.44
581.403	375.44
581.614	350.44
581.825	369.44
582.035	370.44
582.246	373.44
582.456	360.44
582.667	352.44
582.877	358.44
583.087	361.44
583.298	349.44
583.508	377.44
583.719	376.44
583.929	369.44
584.139	374.44
584.35	358.44
584.56	374.44
584.77	345.44
584.981	368.44
585.191	358.44
585.401	369.44
585.611	344.44
585.821	372.44
586.032	348.44
586.242	341.44
586.452	369.44
586.662	348.44
586.872	356.44
587.082	345.44
587.292	361.44
587.502	357.44
587.713	352.44
587.923	355.44
588.133	342.44
588.343	360.44
588.553	355.44
588.762	369.44
588.972	348.44
589.182	339.44
589.392	350.44
589.602	361.44
589.812	345.44
590.022	360.44
590.232	358.44
590.441	351.44
590.651	344.44
590.861	360.44
591.071	364.44
591.281	360.44
591.49	361.44
591.7	366.44
591.91	378.44
592.119	372.44
592.329	369.44
592.539	395.44
592.748	412.44
592.958	447.44
593.167	443.44
593.377	456.44
593.587	450.44
593.796	459.44
594.006	457.44
594.215	471.44
594.424	468.44
594.634	442.44
594.843	398.44
595.053	395.44
595.262	408.44
595.472	398.44
595.681	384.44
595.89	365.44
596.1	370.44
596.309	343.44
596.518	332.44
596.727	308.44
596.937	321.44
597.146	344.44
597.355	313.44
597.564	330.44
597.774	321.44
597.983	322.44
598.192	330.44
598.401	327.44
598.61	305.44
598.819	307.44
599.028	307.44
599.237	332.44
599.446	294.44
599.655	295.44
599.864	307.44
600.073	297.44
600.282	310.44
600.491	290.44
600.7	300.44
600.909	301.44
601.118	302.44
601.327	293.44
601.536	300.44
601.745	307.44
601.953	270.44
602.162	291.44
602.371	292.44
602.58	286.44
602.789	288.44
602.997	301.44
603.206	298.44
603.415	288.44
603.623	269.44
603.832	285.44
604.041	278.44
604.249	271.44
604.458	284.44
604.666	274.44
604.875	267.44
605.084	280.44
605.292	286.44
605.501	277.44
605.709	274.44
605.918	265.44
606.126	280.44
606.334	287.44
606.543	270.44
606.751	282.44
606.96	287.44
607.168	269.44
607.376	260.44
607.585	276.44
607.793	271.44
608.001	271.44
608.21	265.44
608.418	268.44
608.626	259.44
608.834	275.44
609.043	276.44
609.251	253.44
609.459	278.44
609.667	261.44
609.875	281.44
610.083	263.44
610.291	274.44
610.499	286.44
610.707	277.44
610.916	256.44
611.124	268.44
611.332	261.44
611.54	269.44
611.748	263.44
611.955	274.44
612.163	238.44
612.371	271.44
612.579	248.44
612.787	250.44
612.995	249.44
613.203	261.44
613.411	261.44
613.618	274.44
613.826	263.44
614.034	267.44
614.242	260.44
614.449	252.44
614.657	253.44
614.865	264.44
615.072	256.44
615.28	270.44
615.488	261.44
615.695	244.44
615.903	274.44
616.111	259.44
616.318	251.44
616.526	271.44
616.733	275.44
616.941	273.44
617.148	268.44
617.356	248.44
617.563	273.44
617.771	272.44
617.978	264.44
618.185	269.44
618.393	262.44
618.6	256.44
618.807	244.44
619.015	274.44
619.222	268.44
619.429	260.44
619.637	256.44
619.844	254.44
620.051	242.44
620.258	235.44
620.466	237.44
620.673	249.44
620.88	245.44
621.087	247.44
621.294	244.44
621.501	251.44
621.708	238.44
621.915	228.44
622.122	248.44
622.329	250.44
622.536	245.44
622.743	229.44
622.95	254.44
623.157	247.44
623.364	233.44
623.571	244.44
623.778	242.44
623.985	229.44
624.192	222.44
624.399	206.44
624.606	234.44
624.812	233.44
625.019	235.44
625.226	222.44
625.433	234.44
625.639	223.44
625.846	233.44
626.053	220.44
626.259	226.44
626.466	236.44
626.673	218.44
626.879	222.44
627.086	217.44
627.293	216.44
627.499	203.44
627.706	202.44
627.912	222.44
628.119	210.44
628.325	228.44
628.532	224.44
628.738	225.44
628.945	228.44
629.151	222.44
629.357	218.44
629.564	206.44
629.77	225.44
629.976	200.44
630.183	217.44
630.389	213.44
630.595	214.44
630.802	209.44
631.008	197.44
631.214	190.44
631.42	201.44
631.627	224.44
631.833	207.44
632.039	203.44
632.245	200.44
632.451	196.44
632.657	195.44
632.863	199.44
633.069	200.44
633.275	202.44
633.481	192.44
633.688	196.44
633.893	188.44
634.099	208.44
634.305	202.44
634.511	206.44
634.717	212.44
634.923	196.44
635.129	216.44
635.335	192.44
635.541	198.44
635.747	189.44
635.952	190.44
636.158	181.44
636.364	189.44
636.57	193.44
636.775	178.44
636.981	182.44
637.187	187.44
637.392	194.44
637.598	198.44
637.804	207.44
638.009	198.44
638.215	189.44
638.421	199.44
638.626	186.44
638.832	172.44
639.037	196.44
639.243	197.44
639.448	202.44
639.654	187.44
639.859	186.44
640.065	164.44
640.27	191.44
640.475	184.44
640.681	190.44
640.886	188.44
641.091	168.44
641.297	196.44
641.502	174.44
641.707	183.44
641.913	184.44
642.118	170.44
642.323	169.44
642.528	154.44
642.733	178.44
642.939	179.44
643.144	165.44
643.349	178.44
643.554	170.44
643.759	159.44
643.964	172.44
644.169	179.44
644.374	170.44
644.579	188.44
644.784	184.44
644.989	182.44
645.194	179.44
645.399	166.44
645.604	182.44
645.809	176.44
646.014	188.44
646.219	166.44
646.423	177.44
646.628	182.44
646.833	158.44
647.038	197.44
647.243	179.44
647.447	178.44
647.652	186.44
647.857	188.44
648.062	188.44
648.266	180.44
648.471	187.44
648.676	172.44
648.88	169.44
649.085	193.44
649.289	182.44
649.494	180.44
649.698	176.44
649.903	160.44
650.107	164.44
650.312	185.44
650.516	159.44
650.721	158.44
650.925	169.44
651.13	156.44
651.334	144.44
651.539	145.44
651.743	150.44
651.947	145.44
652.152	143.44
652.356	142.44
652.56	151.44
652.764	140.44
652.969	142.44
653.173	139.44
653.377	152.44
653.581	149.44
653.785	140.44
653.99	145.44
654.194	145.44
654.398	132.44
654.602	125.44
654.806	120.44
655.01	134.44
655.214	133.44
655.418	117.44
655.622	138.44
655.826	136.44
656.03	129.44
656.234	135.44
656.438	126.44
656.642	138.44
656.846	122.44
657.049	112.44
657.253	128.44
657.457	140.44
657.661	102.44
657.865	121.44
658.068	117.44
658.272	108.44
658.476	98.44
658.68	96.44
658.883	90.44
659.087	98.44
659.291	98.44
659.494	98.44
659.698	86.44
659.901	91.44
660.105	83.44
660.309	91.44
660.512	86.44
660.716	97.44
660.919	78.44
661.123	82.44
661.326	74.44
661.53	87.44
661.733	73.44
661.936	97.44
662.14	89.44
662.343	84.44
662.546	91.44
662.75	91.44
662.953	87.44
663.156	88.44
663.36	88.44
663.563	79.44
663.766	78.44
663.969	81.44
664.173	83.44
664.376	78.44
664.579	87.44
664.782	76.44
664.985	83.44
665.188	98.44
665.391	84.44
665.594	88.44
665.797	86.44
666	74.44
666.203	68.44
666.406	77.44
666.609	88.44
666.812	72.44
667.015	69.44
667.218	89.44
667.421	71.44
667.624	82.44
667.827	79.44
668.03	79.44
668.232	63.44
668.435	72.44
668.638	84.44
668.841	89.44
669.043	90.44
669.246	75.44
669.449	78.44
669.651	73.44
669.854	86.44
670.057	84.44
670.259	89.44
670.462	85.44
670.665	70.44
670.867	80.44
671.07	78.44
671.272	85.44
671.475	73.44
671.677	82.44
671.88	74.44
672.082	58.44
672.284	86.44
672.487	88.44
672.689	91.44
672.892	75.44
