Data from Ni(NO3)2@0.125M.TitratingCurve.Agarose3%dH2O.NegLispCup.LampEnergy10.LIBS07252019_HRD10591_18-08-38-567.txt Node
Date: Thu Jul 25 18:08:38 EDT 2019
User: cochatt
Spectrometer: HR+D1059
Trigger mode: 1
Integration Time (sec): 1.000000E-1
Scans to average: 1
Electric dark correction enabled: true
Nonlinearity correction enabled: false
Boxcar width: 0
XAxis mode: Wavelengths
Number of Pixels in Spectrum: 2048
>>>>>Begin Spectral Data<<<<<
223.165	-23.12
223.4	-23.12
223.635	-23.12
223.869	-14.12
224.104	-10.12
224.338	-20.12
224.573	-13.12
224.808	-22.12
225.042	-10.12
225.277	-3.12
225.511	0.88
225.746	-3.12
225.98	5.88
226.215	15.88
226.449	17.88
226.683	31.88
226.918	12.88
227.152	33.88
227.387	39.88
227.621	42.88
227.856	27.88
228.09	51.88
228.324	60.88
228.559	59.88
228.793	79.88
229.027	102.88
229.262	135.88
229.496	127.88
229.73	137.88
229.964	136.88
230.199	134.88
230.433	144.88
230.667	157.88
230.901	154.88
231.136	149.88
231.37	153.88
231.604	152.88
231.838	162.88
232.072	170.88
232.306	165.88
232.541	173.88
232.775	178.88
233.009	154.88
233.243	162.88
233.477	153.88
233.711	162.88
233.945	154.88
234.179	172.88
234.413	168.88
234.647	165.88
234.881	151.88
235.115	173.88
235.349	169.88
235.583	166.88
235.817	157.88
236.051	170.88
236.285	167.88
236.519	176.88
236.753	185.88
236.987	185.88
237.221	176.88
237.455	163.88
237.689	161.88
237.922	174.88
238.156	168.88
238.39	186.88
238.624	174.88
238.858	194.88
239.091	203.88
239.325	199.88
239.559	203.88
239.793	208.88
240.027	189.88
240.26	189.88
240.494	196.88
240.728	208.88
240.961	205.88
241.195	225.88
241.429	197.88
241.662	206.88
241.896	210.88
242.13	199.88
242.363	212.88
242.597	219.88
242.83	226.88
243.064	222.88
243.298	215.88
243.531	244.88
243.765	223.88
243.998	249.88
244.232	231.88
244.465	235.88
244.699	230.88
244.932	243.88
245.166	239.88
245.399	242.88
245.633	255.88
245.866	265.88
246.099	245.88
246.333	255.88
246.566	258.88
246.8	262.88
247.033	265.88
247.266	266.88
247.5	283.88
247.733	263.88
247.966	276.88
248.2	291.88
248.433	267.88
248.666	279.88
248.899	281.88
249.133	306.88
249.366	290.88
249.599	280.88
249.832	286.88
250.066	295.88
250.299	298.88
250.532	286.88
250.765	293.88
250.998	292.88
251.231	300.88
251.465	318.88
251.698	310.88
251.931	315.88
252.164	306.88
252.397	317.88
252.63	342.88
252.863	333.88
253.096	344.88
253.329	344.88
253.562	330.88
253.795	351.88
254.028	317.88
254.261	348.88
254.494	333.88
254.727	337.88
254.96	332.88
255.193	342.88
255.426	344.88
255.659	353.88
255.892	356.88
256.124	360.88
256.357	355.88
256.59	348.88
256.823	353.88
257.056	355.88
257.289	364.88
257.521	390.88
257.754	383.88
257.987	368.88
258.22	377.88
258.452	363.88
258.685	362.88
258.918	384.88
259.151	379.88
259.383	387.88
259.616	383.88
259.849	390.88
260.081	396.88
260.314	371.88
260.547	387.88
260.779	379.88
261.012	382.88
261.244	379.88
261.477	410.88
261.71	394.88
261.942	383.88
262.175	390.88
262.407	393.88
262.64	391.88
262.872	426.88
263.105	401.88
263.337	423.88
263.57	429.88
263.802	434.88
264.035	439.88
264.267	404.88
264.499	403.88
264.732	420.88
264.964	429.88
265.197	432.88
265.429	421.88
265.661	432.88
265.894	433.88
266.126	435.88
266.358	430.88
266.591	441.88
266.823	436.88
267.055	424.88
267.287	451.88
267.52	442.88
267.752	441.88
267.984	465.88
268.216	453.88
268.448	455.88
268.681	445.88
268.913	475.88
269.145	442.88
269.377	434.88
269.609	450.88
269.841	459.88
270.073	453.88
270.306	445.88
270.538	467.88
270.77	465.88
271.002	466.88
271.234	470.88
271.466	463.88
271.698	476.88
271.93	461.88
272.162	480.88
272.394	435.88
272.626	467.88
272.858	458.88
273.09	467.88
273.322	481.88
273.553	503.88
273.785	495.88
274.017	480.88
274.249	510.88
274.481	490.88
274.713	499.88
274.945	513.88
275.176	482.88
275.408	495.88
275.64	515.88
275.872	496.88
276.104	502.88
276.335	529.88
276.567	503.88
276.799	517.88
277.031	503.88
277.262	517.88
277.494	543.88
277.726	546.88
277.957	524.88
278.189	550.88
278.421	520.88
278.652	528.88
278.884	545.88
279.115	548.88
279.347	541.88
279.579	523.88
279.81	536.88
280.042	545.88
280.273	561.88
280.505	563.88
280.736	553.88
280.968	593.88
281.199	557.88
281.431	561.88
281.662	545.88
281.894	533.88
282.125	572.88
282.356	595.88
282.588	581.88
282.819	569.88
283.051	577.88
283.282	571.88
283.513	557.88
283.745	575.88
283.976	573.88
284.207	592.88
284.439	597.88
284.67	599.88
284.901	594.88
285.132	595.88
285.364	591.88
285.595	594.88
285.826	616.88
286.057	612.88
286.288	611.88
286.52	598.88
286.751	604.88
286.982	601.88
287.213	603.88
287.444	620.88
287.675	600.88
287.906	637.88
288.138	631.88
288.369	612.88
288.6	609.88
288.831	631.88
289.062	594.88
289.293	615.88
289.524	641.88
289.755	633.88
289.986	624.88
290.217	618.88
290.448	633.88
290.679	636.88
290.91	667.88
291.141	654.88
291.371	642.88
291.602	633.88
291.833	643.88
292.064	625.88
292.295	645.88
292.526	639.88
292.757	640.88
292.987	631.88
293.218	627.88
293.449	641.88
293.68	648.88
293.91	653.88
294.141	629.88
294.372	640.88
294.603	671.88
294.833	644.88
295.064	643.88
295.295	653.88
295.525	648.88
295.756	667.88
295.987	661.88
296.217	646.88
296.448	664.88
296.679	651.88
296.909	676.88
297.14	655.88
297.37	671.88
297.601	673.88
297.831	692.88
298.062	705.88
298.292	685.88
298.523	715.88
298.753	722.88
298.984	701.88
299.214	714.88
299.445	697.88
299.675	705.88
299.905	677.88
300.136	692.88
300.366	727.88
300.597	737.88
300.827	737.88
301.057	718.88
301.288	727.88
301.518	710.88
301.748	713.88
301.979	751.88
302.209	738.88
302.439	730.88
302.669	738.88
302.9	737.88
303.13	700.88
303.36	721.88
303.59	724.88
303.82	732.88
304.051	731.88
304.281	740.88
304.511	709.88
304.741	729.88
304.971	719.88
305.201	728.88
305.431	741.88
305.661	716.88
305.891	729.88
306.121	715.88
306.352	709.88
306.582	727.88
306.812	713.88
307.042	726.88
307.272	708.88
307.502	695.88
307.731	710.88
307.961	704.88
308.191	732.88
308.421	716.88
308.651	701.88
308.881	701.88
309.111	705.88
309.341	682.88
309.571	703.88
309.8	691.88
310.03	719.88
310.26	733.88
310.49	716.88
310.72	722.88
310.949	715.88
311.179	727.88
311.409	713.88
311.639	714.88
311.868	739.88
312.098	747.88
312.328	729.88
312.557	741.88
312.787	737.88
313.017	760.88
313.246	777.88
313.476	758.88
313.706	761.88
313.935	756.88
314.165	766.88
314.394	768.88
314.624	777.88
314.853	758.88
315.083	767.88
315.312	746.88
315.542	771.88
315.771	749.88
316.001	728.88
316.23	771.88
316.46	746.88
316.689	749.88
316.919	753.88
317.148	709.88
317.377	746.88
317.607	726.88
317.836	739.88
318.065	761.88
318.295	769.88
318.524	754.88
318.753	739.88
318.983	718.88
319.212	749.88
319.441	742.88
319.67	743.88
319.9	755.88
320.129	757.88
320.358	738.88
320.587	765.88
320.816	774.88
321.046	774.88
321.275	781.88
321.504	783.88
321.733	764.88
321.962	776.88
322.191	783.88
322.42	767.88
322.649	765.88
322.878	790.88
323.108	775.88
323.337	791.88
323.566	749.88
323.795	798.88
324.024	785.88
324.253	796.88
324.482	782.88
324.71	792.88
324.939	807.88
325.168	801.88
325.397	826.88
325.626	802.88
325.855	831.88
326.084	831.88
326.313	873.88
326.542	853.88
326.77	847.88
326.999	856.88
327.228	829.88
327.457	819.88
327.686	854.88
327.914	879.88
328.143	875.88
328.372	863.88
328.6	848.88
328.829	860.88
329.058	857.88
329.287	860.88
329.515	850.88
329.744	888.88
329.972	872.88
330.201	872.88
330.43	908.88
330.658	889.88
330.887	895.88
331.115	880.88
331.344	897.88
331.572	930.88
331.801	951.88
332.03	951.88
332.258	960.88
332.486	998.88
332.715	1033.88
332.943	1093.88
333.172	1158.88
333.4	1172.88
333.629	1194.88
333.857	1201.88
334.085	1194.88
334.314	1161.88
334.542	1142.88
334.771	1100.88
334.999	1087.88
335.227	1122.88
335.455	1079.88
335.684	1082.88
335.912	1083.88
336.14	1052.88
336.369	1061.88
336.597	1035.88
336.825	1071.88
337.053	1041.88
337.281	1017.88
337.51	1013.88
337.738	1009.88
337.966	979.88
338.194	967.88
338.422	972.88
338.65	981.88
338.878	970.88
339.106	952.88
339.334	975.88
339.562	943.88
339.79	910.88
340.018	905.88
340.246	908.88
340.474	916.88
340.702	913.88
340.93	915.88
341.158	937.88
341.386	915.88
341.614	944.88
341.842	923.88
342.07	879.88
342.298	904.88
342.526	928.88
342.754	916.88
342.981	912.88
343.209	943.88
343.437	971.88
343.665	1028.88
343.893	1129.88
344.12	1157.88
344.348	1128.88
344.576	1032.88
344.804	977.88
345.031	965.88
345.259	950.88
345.487	922.88
345.714	927.88
345.942	928.88
346.17	908.88
346.397	913.88
346.625	900.88
346.853	872.88
347.08	899.88
347.308	905.88
347.535	890.88
347.763	912.88
347.99	900.88
348.218	926.88
348.445	897.88
348.673	896.88
348.9	868.88
349.128	894.88
349.355	880.88
349.583	885.88
349.81	872.88
350.037	839.88
350.265	857.88
350.492	889.88
350.72	821.88
350.947	849.88
351.174	861.88
351.402	891.88
351.629	860.88
351.856	858.88
352.083	874.88
352.311	849.88
352.538	835.88
352.765	865.88
352.992	824.88
353.22	845.88
353.447	838.88
353.674	845.88
353.901	844.88
354.128	853.88
354.355	833.88
354.583	826.88
354.81	839.88
355.037	825.88
355.264	864.88
355.491	833.88
355.718	837.88
355.945	852.88
356.172	856.88
356.399	869.88
356.626	850.88
356.853	872.88
357.08	876.88
357.307	877.88
357.534	843.88
357.761	847.88
357.988	886.88
358.215	871.88
358.441	842.88
358.668	845.88
358.895	825.88
359.122	840.88
359.349	856.88
359.576	855.88
359.802	828.88
360.029	843.88
360.256	844.88
360.483	824.88
360.709	878.88
360.936	860.88
361.163	848.88
361.39	801.88
361.616	868.88
361.843	842.88
362.07	841.88
362.296	849.88
362.523	857.88
362.749	809.88
362.976	849.88
363.203	856.88
363.429	860.88
363.656	858.88
363.882	827.88
364.109	835.88
364.335	845.88
364.562	829.88
364.788	829.88
365.015	857.88
365.241	796.88
365.468	840.88
365.694	853.88
365.92	816.88
366.147	840.88
366.373	816.88
366.599	817.88
366.826	837.88
367.052	848.88
367.278	841.88
367.505	838.88
367.731	874.88
367.957	824.88
368.184	863.88
368.41	873.88
368.636	812.88
368.862	873.88
369.089	849.88
369.315	865.88
369.541	875.88
369.767	844.88
369.993	884.88
370.219	875.88
370.445	877.88
370.672	904.88
370.898	884.88
371.124	891.88
371.35	918.88
371.576	892.88
371.802	913.88
372.028	901.88
372.254	877.88
372.48	911.88
372.706	927.88
372.932	964.88
373.158	957.88
373.384	926.88
373.61	932.88
373.835	924.88
374.061	907.88
374.287	902.88
374.513	928.88
374.739	979.88
374.965	1003.88
375.191	1011.88
375.416	1001.88
375.642	985.88
375.868	939.88
376.094	960.88
376.319	943.88
376.545	927.88
376.771	932.88
376.997	914.88
377.222	902.88
377.448	891.88
377.674	891.88
377.899	893.88
378.125	903.88
378.35	906.88
378.576	900.88
378.802	872.88
379.027	879.88
379.253	908.88
379.478	893.88
379.704	870.88
379.929	881.88
380.155	903.88
380.38	900.88
380.606	896.88
380.831	875.88
381.057	920.88
381.282	891.88
381.507	907.88
381.733	904.88
381.958	897.88
382.184	915.88
382.409	923.88
382.634	963.88
382.86	932.88
383.085	968.88
383.31	983.88
383.535	952.88
383.761	968.88
383.986	1026.88
384.211	1044.88
384.436	1051.88
384.662	1072.88
384.887	1074.88
385.112	1071.88
385.337	1091.88
385.562	1087.88
385.787	1101.88
386.013	1133.88
386.238	1092.88
386.463	1113.88
386.688	1128.88
386.913	1066.88
387.138	1078.88
387.363	1108.88
387.588	1074.88
387.813	1019.88
388.038	1067.88
388.263	1066.88
388.488	1080.88
388.713	1062.88
388.938	1072.88
389.163	1049.88
389.387	1046.88
389.612	1025.88
389.837	1064.88
390.062	1044.88
390.287	1046.88
390.512	1055.88
390.736	1030.88
390.961	1099.88
391.186	1100.88
391.411	1151.88
391.636	1177.88
391.86	1181.88
392.085	1250.88
392.31	1239.88
392.534	1176.88
392.759	1181.88
392.984	1149.88
393.208	1116.88
393.433	1183.88
393.658	1157.88
393.882	1127.88
394.107	1172.88
394.331	1156.88
394.556	1169.88
394.78	1144.88
395.005	1183.88
395.229	1162.88
395.454	1213.88
395.678	1205.88
395.903	1215.88
396.127	1194.88
396.352	1133.88
396.576	1167.88
396.801	1135.88
397.025	1165.88
397.249	1188.88
397.474	1200.88
397.698	1233.88
397.922	1218.88
398.147	1221.88
398.371	1226.88
398.595	1276.88
398.82	1355.88
399.044	1437.88
399.268	1569.88
399.492	1847.88
399.717	2138.88
399.941	2142.88
400.165	1865.88
400.389	1683.88
400.613	1510.88
400.837	1429.88
401.062	1419.88
401.286	1351.88
401.51	1365.88
401.734	1382.88
401.958	1415.88
402.182	1383.88
402.406	1404.88
402.63	1445.88
402.854	1475.88
403.078	1461.88
403.302	1501.88
403.526	1556.88
403.75	1577.88
403.974	1655.88
404.198	1632.88
404.422	1638.88
404.645	1644.88
404.869	1593.88
405.093	1605.88
405.317	1526.88
405.541	1525.88
405.765	1523.88
405.988	1516.88
406.212	1523.88
406.436	1506.88
406.66	1553.88
406.883	1563.88
407.107	1671.88
407.331	1727.88
407.555	1830.88
407.778	1810.88
408.002	1731.88
408.226	1675.88
408.449	1712.88
408.673	1595.88
408.896	1555.88
409.12	1554.88
409.344	1562.88
409.567	1573.88
409.791	1602.88
410.014	1562.88
410.238	1556.88
410.461	1573.88
410.685	1514.88
410.908	1486.88
411.132	1451.88
411.355	1413.88
411.578	1452.88
411.802	1406.88
412.025	1444.88
412.249	1454.88
412.472	1453.88
412.695	1421.88
412.919	1362.88
413.142	1359.88
413.365	1373.88
413.589	1395.88
413.812	1352.88
414.035	1349.88
414.258	1345.88
414.482	1347.88
414.705	1402.88
414.928	1383.88
415.151	1364.88
415.374	1377.88
415.597	1399.88
415.821	1339.88
416.044	1348.88
416.267	1343.88
416.49	1359.88
416.713	1371.88
416.936	1362.88
417.159	1330.88
417.382	1337.88
417.605	1366.88
417.828	1357.88
418.051	1383.88
418.274	1379.88
418.497	1381.88
418.72	1422.88
418.943	1387.88
419.166	1511.88
419.389	1598.88
419.611	1535.88
419.834	1470.88
420.057	1460.88
420.28	1397.88
420.503	1377.88
420.726	1357.88
420.948	1373.88
421.171	1364.88
421.394	1385.88
421.617	1345.88
421.839	1388.88
422.062	1395.88
422.285	1357.88
422.507	1392.88
422.73	1384.88
422.953	1412.88
423.175	1456.88
423.398	1491.88
423.621	1487.88
423.843	1471.88
424.066	1507.88
424.288	1485.88
424.511	1478.88
424.733	1447.88
424.956	1425.88
425.178	1370.88
425.401	1397.88
425.623	1370.88
425.846	1327.88
426.068	1333.88
426.291	1327.88
426.513	1309.88
426.735	1308.88
426.958	1289.88
427.18	1270.88
427.402	1279.88
427.625	1263.88
427.847	1199.88
428.069	1272.88
428.292	1251.88
428.514	1219.88
428.736	1214.88
428.958	1222.88
429.181	1219.88
429.403	1211.88
429.625	1193.88
429.847	1204.88
430.069	1205.88
430.292	1207.88
430.514	1202.88
430.736	1167.88
430.958	1181.88
431.18	1182.88
431.402	1225.88
431.624	1255.88
431.846	1234.88
432.068	1247.88
432.29	1280.88
432.512	1237.88
432.734	1226.88
432.956	1209.88
433.178	1271.88
433.4	1238.88
433.622	1264.88
433.844	1245.88
434.066	1237.88
434.287	1257.88
434.509	1270.88
434.731	1363.88
434.953	1404.88
435.175	1415.88
435.397	1394.88
435.618	1301.88
435.84	1281.88
436.062	1243.88
436.284	1268.88
436.505	1232.88
436.727	1229.88
436.949	1240.88
437.17	1243.88
437.392	1209.88
437.614	1190.88
437.835	1187.88
438.057	1159.88
438.278	1172.88
438.5	1179.88
438.721	1189.88
438.943	1211.88
439.165	1179.88
439.386	1193.88
439.608	1227.88
439.829	1263.88
440.05	1252.88
440.272	1252.88
440.493	1251.88
440.715	1272.88
440.936	1268.88
441.158	1313.88
441.379	1315.88
441.6	1386.88
441.822	1438.88
442.043	1419.88
442.264	1384.88
442.486	1347.88
442.707	1369.88
442.928	1368.88
443.149	1410.88
443.371	1377.88
443.592	1404.88
443.813	1409.88
444.034	1407.88
444.255	1479.88
444.476	1517.88
444.698	1642.88
444.919	1734.88
445.14	1785.88
445.361	1580.88
445.582	1455.88
445.803	1359.88
446.024	1303.88
446.245	1289.88
446.466	1299.88
446.687	1252.88
446.908	1243.88
447.129	1239.88
447.35	1226.88
447.571	1203.88
447.792	1153.88
448.013	1155.88
448.234	1161.88
448.455	1155.88
448.675	1142.88
448.896	1172.88
449.117	1135.88
449.338	1128.88
449.559	1134.88
449.779	1117.88
450	1107.88
450.221	1151.88
450.442	1134.88
450.662	1161.88
450.883	1189.88
451.104	1183.88
451.324	1179.88
451.545	1173.88
451.766	1179.88
451.986	1188.88
452.207	1118.88
452.428	1149.88
452.648	1131.88
452.869	1108.88
453.089	1111.88
453.31	1132.88
453.53	1116.88
453.751	1106.88
453.971	1084.88
454.192	1153.88
454.412	1099.88
454.633	1090.88
454.853	1076.88
455.073	1069.88
455.294	1067.88
455.514	1055.88
455.734	1090.88
455.955	1041.88
456.175	1065.88
456.395	1039.88
456.616	1039.88
456.836	1055.88
457.056	1040.88
457.276	1043.88
457.497	1083.88
457.717	1054.88
457.937	1085.88
458.157	1112.88
458.377	1075.88
458.598	1105.88
458.818	1131.88
459.038	1193.88
459.258	1207.88
459.478	1236.88
459.698	1331.88
459.918	1299.88
460.138	1389.88
460.358	1472.88
460.578	1459.88
460.798	1485.88
461.018	1514.88
461.238	1468.88
461.458	1475.88
461.678	1435.88
461.898	1497.88
462.118	1488.88
462.338	1588.88
462.558	1664.88
462.777	1688.88
462.997	1844.88
463.217	2041.88
463.437	2100.88
463.657	1836.88
463.876	1759.88
464.096	1765.88
464.316	1783.88
464.536	1763.88
464.755	1701.88
464.975	1628.88
465.195	1529.88
465.414	1455.88
465.634	1368.88
465.854	1316.88
466.073	1319.88
466.293	1241.88
466.512	1238.88
466.732	1234.88
466.951	1224.88
467.171	1195.88
467.391	1188.88
467.61	1204.88
467.829	1222.88
468.049	1194.88
468.268	1146.88
468.488	1184.88
468.707	1148.88
468.927	1160.88
469.146	1135.88
469.365	1188.88
469.585	1171.88
469.804	1192.88
470.023	1203.88
470.243	1236.88
470.462	1233.88
470.681	1255.88
470.901	1272.88
471.12	1215.88
471.339	1211.88
471.558	1190.88
471.777	1178.88
471.997	1135.88
472.216	1147.88
472.435	1122.88
472.654	1137.88
472.873	1109.88
473.092	1100.88
473.311	1094.88
473.53	1087.88
473.749	1137.88
473.968	1108.88
474.187	1110.88
474.406	1104.88
474.625	1130.88
474.844	1120.88
475.063	1123.88
475.282	1131.88
475.501	1133.88
475.72	1145.88
475.939	1155.88
476.158	1171.88
476.377	1151.88
476.596	1168.88
476.814	1161.88
477.033	1175.88
477.252	1214.88
477.471	1220.88
477.69	1248.88
477.908	1270.88
478.127	1344.88
478.346	1341.88
478.564	1376.88
478.783	1402.88
479.002	1408.88
479.22	1409.88
479.439	1398.88
479.658	1377.88
479.876	1384.88
480.095	1403.88
480.313	1511.88
480.532	1530.88
480.751	1577.88
480.969	1448.88
481.188	1399.88
481.406	1357.88
481.624	1334.88
481.843	1280.88
482.061	1273.88
482.28	1275.88
482.498	1248.88
482.717	1290.88
482.935	1267.88
483.153	1256.88
483.372	1301.88
483.59	1303.88
483.808	1284.88
484.027	1297.88
484.245	1284.88
484.463	1311.88
484.681	1363.88
484.9	1327.88
485.118	1327.88
485.336	1319.88
485.554	1337.88
485.772	1312.88
485.99	1344.88
486.209	1351.88
486.427	1351.88
486.645	1384.88
486.863	1351.88
487.081	1343.88
487.299	1339.88
487.517	1322.88
487.735	1380.88
487.953	1329.88
488.171	1329.88
488.389	1338.88
488.607	1331.88
488.825	1337.88
489.043	1338.88
489.261	1341.88
489.479	1301.88
489.696	1344.88
489.914	1333.88
490.132	1382.88
490.35	1375.88
490.568	1354.88
490.786	1329.88
491.003	1350.88
491.221	1381.88
491.439	1391.88
491.657	1344.88
491.874	1354.88
492.092	1407.88
492.31	1394.88
492.527	1372.88
492.745	1379.88
492.963	1409.88
493.18	1376.88
493.398	1415.88
493.615	1429.88
493.833	1444.88
494.05	1418.88
494.268	1429.88
494.485	1460.88
494.703	1437.88
494.92	1467.88
495.138	1413.88
495.355	1435.88
495.573	1413.88
495.79	1423.88
496.008	1456.88
496.225	1456.88
496.442	1475.88
496.66	1511.88
496.877	1490.88
497.094	1539.88
497.312	1585.88
497.529	1605.88
497.746	1657.88
497.963	1671.88
498.181	1766.88
498.398	1808.88
498.615	1923.88
498.832	2084.88
499.049	2203.88
499.267	2411.88
499.484	2659.88
499.701	2949.88
499.918	3297.88
500.135	3801.88
500.352	4375.88
500.569	4680.88
500.786	4613.88
501.003	4180.88
501.22	3746.88
501.437	3273.88
501.654	2837.88
501.871	2544.88
502.088	2317.88
502.305	2181.88
502.522	2070.88
502.739	1992.88
502.956	1887.88
503.172	1809.88
503.389	1722.88
503.606	1684.88
503.823	1623.88
504.04	1613.88
504.256	1659.88
504.473	1713.88
504.69	1756.88
504.907	1713.88
505.123	1616.88
505.34	1508.88
505.557	1411.88
505.773	1421.88
505.99	1374.88
506.207	1354.88
506.423	1337.88
506.64	1310.88
506.856	1297.88
507.073	1307.88
507.289	1268.88
507.506	1250.88
507.722	1279.88
507.939	1256.88
508.155	1252.88
508.372	1206.88
508.588	1223.88
508.805	1192.88
509.021	1197.88
509.238	1186.88
509.454	1172.88
509.67	1146.88
509.887	1171.88
510.103	1177.88
510.319	1148.88
510.536	1165.88
510.752	1139.88
510.968	1201.88
511.184	1131.88
511.401	1159.88
511.617	1169.88
511.833	1139.88
512.049	1114.88
512.265	1153.88
512.481	1151.88
512.698	1152.88
512.914	1163.88
513.13	1169.88
513.346	1161.88
513.562	1132.88
513.778	1147.88
513.994	1129.88
514.21	1153.88
514.426	1184.88
514.642	1169.88
514.858	1181.88
515.074	1157.88
515.29	1188.88
515.506	1219.88
515.721	1241.88
515.937	1253.88
516.153	1248.88
516.369	1248.88
516.585	1316.88
516.801	1396.88
517.016	1452.88
517.232	1492.88
517.448	1566.88
517.664	1666.88
517.879	1681.88
518.095	1659.88
518.311	1644.88
518.527	1522.88
518.742	1493.88
518.958	1419.88
519.173	1364.88
519.389	1311.88
519.605	1297.88
519.82	1289.88
520.036	1247.88
520.251	1218.88
520.467	1174.88
520.682	1163.88
520.898	1143.88
521.113	1141.88
521.329	1145.88
521.544	1160.88
521.76	1116.88
521.975	1135.88
522.19	1117.88
522.406	1118.88
522.621	1112.88
522.836	1081.88
523.052	1082.88
523.267	1081.88
523.482	1095.88
523.698	1051.88
523.913	1090.88
524.128	1071.88
524.343	1065.88
524.559	1079.88
524.774	1079.88
524.989	1058.88
525.204	1065.88
525.419	1074.88
525.634	1053.88
525.849	1051.88
526.064	1036.88
526.28	1032.88
526.495	1058.88
526.71	1033.88
526.925	1039.88
527.14	1026.88
527.355	1037.88
527.57	1055.88
527.785	1040.88
527.999	1057.88
528.214	1039.88
528.429	1047.88
528.644	1043.88
528.859	1036.88
529.074	1087.88
529.289	1060.88
529.503	1027.88
529.718	1061.88
529.933	1041.88
530.148	1045.88
530.363	1025.88
530.577	1067.88
530.792	1030.88
531.007	1051.88
531.221	1053.88
531.436	1037.88
531.651	1030.88
531.865	1024.88
532.08	1065.88
532.295	1055.88
532.509	1053.88
532.724	1025.88
532.938	1056.88
533.153	1024.88
533.367	1011.88
533.582	1030.88
533.796	1044.88
534.011	1050.88
534.225	1021.88
534.44	1026.88
534.654	1011.88
534.868	1035.88
535.083	1005.88
535.297	997.88
535.511	1016.88
535.726	1036.88
535.94	987.88
536.154	985.88
536.369	952.88
536.583	961.88
536.797	958.88
537.011	956.88
537.225	973.88
537.44	957.88
537.654	980.88
537.868	951.88
538.082	961.88
538.296	967.88
538.51	967.88
538.724	956.88
538.938	941.88
539.153	937.88
539.367	924.88
539.581	932.88
539.795	939.88
540.009	947.88
540.222	932.88
540.436	933.88
540.65	940.88
540.864	928.88
541.078	924.88
541.292	943.88
541.506	933.88
541.72	949.88
541.934	930.88
542.147	979.88
542.361	959.88
542.575	897.88
542.789	912.88
543.002	931.88
543.216	912.88
543.43	910.88
543.644	910.88
543.857	949.88
544.071	914.88
544.285	909.88
544.498	938.88
544.712	946.88
544.925	934.88
545.139	971.88
545.352	991.88
545.566	950.88
545.779	951.88
545.993	984.88
546.206	979.88
546.42	935.88
546.633	955.88
546.847	953.88
547.06	977.88
547.274	969.88
547.487	986.88
547.7	984.88
547.914	972.88
548.127	964.88
548.34	962.88
548.554	952.88
548.767	954.88
548.98	969.88
549.193	961.88
549.407	978.88
549.62	974.88
549.833	995.88
550.046	987.88
550.259	976.88
550.473	962.88
550.686	937.88
550.899	973.88
551.112	944.88
551.325	944.88
551.538	932.88
551.751	943.88
551.964	927.88
552.177	945.88
552.39	926.88
552.603	993.88
552.816	1000.88
553.029	1041.88
553.242	1050.88
553.455	1067.88
553.667	1067.88
553.88	1077.88
554.093	1042.88
554.306	1007.88
554.519	963.88
554.732	960.88
554.944	947.88
555.157	908.88
555.37	910.88
555.583	907.88
555.795	865.88
556.008	873.88
556.221	846.88
556.433	839.88
556.646	841.88
556.859	835.88
557.071	845.88
557.284	804.88
557.496	820.88
557.709	802.88
557.921	801.88
558.134	799.88
558.346	796.88
558.559	796.88
558.771	783.88
558.984	793.88
559.196	795.88
559.409	796.88
559.621	779.88
559.833	791.88
560.046	770.88
560.258	774.88
560.47	795.88
560.683	772.88
560.895	805.88
561.107	807.88
561.32	782.88
561.532	737.88
561.744	773.88
561.956	771.88
562.168	771.88
562.381	807.88
562.593	788.88
562.805	785.88
563.017	794.88
563.229	757.88
563.441	774.88
563.653	795.88
563.865	792.88
564.077	810.88
564.289	776.88
564.501	811.88
564.713	848.88
564.925	846.88
565.137	865.88
565.349	896.88
565.561	887.88
565.773	923.88
565.985	982.88
566.197	1026.88
566.408	1084.88
566.62	1195.88
566.832	1332.88
567.044	1377.88
567.255	1333.88
567.467	1346.88
567.679	1416.88
567.891	1591.88
568.102	1622.88
568.314	1511.88
568.526	1371.88
568.737	1265.88
568.949	1101.88
569.161	999.88
569.372	947.88
569.584	886.88
569.795	899.88
570.007	832.88
570.218	808.88
570.43	775.88
570.641	799.88
570.853	793.88
571.064	817.88
571.276	821.88
571.487	790.88
571.698	759.88
571.91	753.88
572.121	724.88
572.333	709.88
572.544	696.88
572.755	689.88
572.966	640.88
573.178	683.88
573.389	636.88
573.6	637.88
573.811	658.88
574.023	653.88
574.234	645.88
574.445	633.88
574.656	648.88
574.867	641.88
575.078	653.88
575.289	660.88
575.501	618.88
575.712	615.88
575.923	625.88
576.134	607.88
576.345	634.88
576.556	616.88
576.767	588.88
576.978	611.88
577.188	598.88
577.399	595.88
577.61	581.88
577.821	581.88
578.032	567.88
578.243	582.88
578.454	570.88
578.665	576.88
578.875	560.88
579.086	578.88
579.297	556.88
579.508	571.88
579.718	582.88
579.929	570.88
580.14	561.88
580.35	552.88
580.561	546.88
580.772	538.88
580.982	551.88
581.193	567.88
581.403	556.88
581.614	539.88
581.825	526.88
582.035	542.88
582.246	529.88
582.456	530.88
582.667	546.88
582.877	557.88
583.087	542.88
583.298	522.88
583.508	515.88
583.719	525.88
583.929	533.88
584.139	501.88
584.35	524.88
584.56	559.88
584.77	512.88
584.981	498.88
585.191	521.88
585.401	517.88
585.611	539.88
585.821	514.88
586.032	507.88
586.242	493.88
586.452	513.88
586.662	502.88
586.872	521.88
587.082	498.88
587.292	529.88
587.502	524.88
587.713	515.88
587.923	511.88
588.133	494.88
588.343	502.88
588.553	509.88
588.762	523.88
588.972	517.88
589.182	513.88
589.392	493.88
589.602	513.88
589.812	500.88
590.022	511.88
590.232	519.88
590.441	531.88
590.651	504.88
590.861	523.88
591.071	532.88
591.281	527.88
591.49	525.88
591.7	549.88
591.91	549.88
592.119	551.88
592.329	563.88
592.539	592.88
592.748	613.88
592.958	597.88
593.167	634.88
593.377	645.88
593.587	666.88
593.796	675.88
594.006	685.88
594.215	674.88
594.424	668.88
594.634	656.88
594.843	615.88
595.053	609.88
595.262	608.88
595.472	572.88
595.681	548.88
595.89	532.88
596.1	515.88
596.309	507.88
596.518	509.88
596.727	501.88
596.937	478.88
597.146	481.88
597.355	477.88
597.564	464.88
597.774	452.88
597.983	447.88
598.192	455.88
598.401	432.88
598.61	453.88
598.819	449.88
599.028	446.88
599.237	487.88
599.446	443.88
599.655	429.88
599.864	417.88
600.073	416.88
600.282	433.88
600.491	425.88
600.7	416.88
600.909	441.88
601.118	424.88
601.327	416.88
601.536	417.88
601.745	393.88
601.953	414.88
602.162	406.88
602.371	405.88
602.58	388.88
602.789	403.88
602.997	412.88
603.206	416.88
603.415	409.88
603.623	395.88
603.832	417.88
604.041	395.88
604.249	397.88
604.458	405.88
604.666	395.88
604.875	398.88
605.084	389.88
605.292	390.88
605.501	389.88
605.709	381.88
605.918	383.88
606.126	380.88
606.334	403.88
606.543	369.88
606.751	386.88
606.96	382.88
607.168	388.88
607.376	381.88
607.585	380.88
607.793	377.88
608.001	369.88
608.21	384.88
608.418	389.88
608.626	380.88
608.834	389.88
609.043	373.88
609.251	387.88
609.459	363.88
609.667	376.88
609.875	383.88
610.083	367.88
610.291	376.88
610.499	382.88
610.707	367.88
610.916	375.88
611.124	372.88
611.332	380.88
611.54	363.88
611.748	383.88
611.955	383.88
612.163	385.88
612.371	361.88
612.579	361.88
612.787	372.88
612.995	363.88
613.203	372.88
613.411	371.88
613.618	336.88
613.826	364.88
614.034	363.88
614.242	363.88
614.449	358.88
614.657	363.88
614.865	361.88
615.072	369.88
615.28	357.88
615.488	374.88
615.695	387.88
615.903	388.88
616.111	372.88
616.318	359.88
616.526	363.88
616.733	377.88
616.941	355.88
617.148	355.88
617.356	351.88
617.563	346.88
617.771	357.88
617.978	349.88
618.185	360.88
618.393	368.88
618.6	355.88
618.807	376.88
619.015	347.88
619.222	371.88
619.429	349.88
619.637	389.88
619.844	362.88
620.051	347.88
620.258	345.88
620.466	322.88
620.673	339.88
620.88	321.88
621.087	345.88
621.294	349.88
621.501	342.88
621.708	340.88
621.915	345.88
622.122	343.88
622.329	328.88
622.536	330.88
622.743	322.88
622.95	340.88
623.157	329.88
623.364	310.88
623.571	323.88
623.778	332.88
623.985	335.88
624.192	319.88
624.399	333.88
624.606	320.88
624.812	318.88
625.019	325.88
625.226	316.88
625.433	308.88
625.639	291.88
625.846	320.88
626.053	298.88
626.259	296.88
626.466	319.88
626.673	319.88
626.879	309.88
627.086	311.88
627.293	308.88
627.499	287.88
627.706	310.88
627.912	295.88
628.119	284.88
628.325	299.88
628.532	305.88
628.738	290.88
628.945	287.88
629.151	289.88
629.357	282.88
629.564	293.88
629.77	288.88
629.976	278.88
630.183	269.88
630.389	281.88
630.595	288.88
630.802	282.88
631.008	281.88
631.214	275.88
631.42	268.88
631.627	276.88
631.833	281.88
632.039	273.88
632.245	284.88
632.451	280.88
632.657	288.88
632.863	272.88
633.069	275.88
633.275	267.88
633.481	261.88
633.688	249.88
633.893	269.88
634.099	269.88
634.305	273.88
634.511	279.88
634.717	270.88
634.923	265.88
635.129	251.88
635.335	268.88
635.541	257.88
635.747	259.88
635.952	259.88
636.158	233.88
636.364	232.88
636.57	268.88
636.775	261.88
636.981	260.88
637.187	255.88
637.392	245.88
637.598	257.88
637.804	241.88
638.009	267.88
638.215	271.88
638.421	251.88
638.626	254.88
638.832	265.88
639.037	244.88
639.243	248.88
639.448	249.88
639.654	254.88
639.859	250.88
640.065	235.88
640.27	243.88
640.475	237.88
640.681	228.88
640.886	231.88
641.091	229.88
641.297	256.88
641.502	243.88
641.707	240.88
641.913	224.88
642.118	234.88
642.323	238.88
642.528	221.88
642.733	229.88
642.939	211.88
643.144	210.88
643.349	234.88
643.554	225.88
643.759	217.88
643.964	228.88
644.169	233.88
644.374	215.88
644.579	236.88
644.784	223.88
644.989	226.88
645.194	221.88
645.399	226.88
645.604	204.88
645.809	223.88
646.014	229.88
646.219	224.88
646.423	218.88
646.628	232.88
646.833	227.88
647.038	232.88
647.243	229.88
647.447	223.88
647.652	227.88
647.857	220.88
648.062	229.88
648.266	243.88
648.471	247.88
648.676	236.88
648.88	232.88
649.085	223.88
649.289	225.88
649.494	237.88
649.698	210.88
649.903	212.88
650.107	204.88
650.312	202.88
650.516	209.88
650.721	197.88
650.925	213.88
651.13	212.88
651.334	200.88
651.539	204.88
651.743	217.88
651.947	195.88
652.152	195.88
652.356	198.88
652.56	188.88
652.764	184.88
652.969	192.88
653.173	180.88
653.377	181.88
653.581	162.88
653.785	188.88
653.99	175.88
654.194	179.88
654.398	170.88
654.602	175.88
654.806	149.88
655.01	168.88
655.214	164.88
655.418	166.88
655.622	157.88
655.826	158.88
656.03	156.88
656.234	157.88
656.438	156.88
656.642	147.88
656.846	135.88
657.049	155.88
657.253	141.88
657.457	125.88
657.661	120.88
657.865	127.88
658.068	121.88
658.272	133.88
658.476	121.88
658.68	117.88
658.883	113.88
659.087	124.88
659.291	113.88
659.494	105.88
659.698	95.88
659.901	101.88
660.105	117.88
660.309	99.88
660.512	96.88
660.716	104.88
660.919	99.88
661.123	115.88
661.326	96.88
661.53	99.88
661.733	95.88
661.936	96.88
662.14	83.88
662.343	79.88
662.546	72.88
662.75	75.88
662.953	85.88
663.156	77.88
663.36	86.88
663.563	87.88
663.766	85.88
663.969	81.88
664.173	83.88
664.376	87.88
664.579	85.88
664.782	86.88
664.985	81.88
665.188	87.88
665.391	85.88
665.594	77.88
665.797	98.88
666	76.88
666.203	75.88
666.406	82.88
666.609	85.88
666.812	99.88
667.015	72.88
667.218	84.88
667.421	97.88
667.624	89.88
667.827	83.88
668.03	69.88
668.232	80.88
668.435	77.88
668.638	82.88
668.841	85.88
669.043	84.88
669.246	91.88
669.449	78.88
669.651	72.88
669.854	90.88
670.057	84.88
670.259	95.88
670.462	73.88
670.665	88.88
670.867	88.88
671.07	84.88
671.272	90.88
671.475	81.88
671.677	86.88
671.88	92.88
672.082	92.88
672.284	95.88
672.487	83.88
672.689	89.88
672.892	79.88
