Data from Ni(NO3)2@0.0625M.TitratingCurve.Agarose3%dH2O.NegLispCup.LampEnergy10.LIBS07252019_HRD10591_18-16-09-569.txt Node
Date: Thu Jul 25 18:16:09 EDT 2019
User: cochatt
Spectrometer: HR+D1059
Trigger mode: 1
Integration Time (sec): 1.000000E-1
Scans to average: 1
Electric dark correction enabled: true
Nonlinearity correction enabled: false
Boxcar width: 0
XAxis mode: Wavelengths
Number of Pixels in Spectrum: 2048
>>>>>Begin Spectral Data<<<<<
223.165	-21.06
223.4	-21.06
223.635	-21.06
223.869	-15.06
224.104	-25.06
224.338	-24.06
224.573	-3.06
224.808	-9.06
225.042	-6.06
225.277	-10.06
225.511	1.94
225.746	5.94
225.98	6.94
226.215	5.94
226.449	12.94
226.683	22.94
226.918	21.94
227.152	34.94
227.387	35.94
227.621	32.94
227.856	35.94
228.09	35.94
228.324	44.94
228.559	51.94
228.793	72.94
229.027	96.94
229.262	95.94
229.496	117.94
229.73	95.94
229.964	99.94
230.199	106.94
230.433	109.94
230.667	111.94
230.901	117.94
231.136	105.94
231.37	126.94
231.604	125.94
231.838	122.94
232.072	125.94
232.306	110.94
232.541	122.94
232.775	117.94
233.009	118.94
233.243	107.94
233.477	135.94
233.711	121.94
233.945	122.94
234.179	141.94
234.413	138.94
234.647	129.94
234.881	125.94
235.115	123.94
235.349	140.94
235.583	127.94
235.817	119.94
236.051	127.94
236.285	131.94
236.519	128.94
236.753	139.94
236.987	135.94
237.221	129.94
237.455	148.94
237.689	125.94
237.922	135.94
238.156	135.94
238.39	134.94
238.624	138.94
238.858	125.94
239.091	143.94
239.325	129.94
239.559	138.94
239.793	136.94
240.027	145.94
240.26	151.94
240.494	137.94
240.728	139.94
240.961	138.94
241.195	134.94
241.429	159.94
241.662	146.94
241.896	137.94
242.13	147.94
242.363	144.94
242.597	152.94
242.83	153.94
243.064	154.94
243.298	176.94
243.531	156.94
243.765	179.94
243.998	175.94
244.232	160.94
244.465	163.94
244.699	185.94
244.932	167.94
245.166	159.94
245.399	175.94
245.633	163.94
245.866	169.94
246.099	191.94
246.333	193.94
246.566	171.94
246.8	175.94
247.033	179.94
247.266	176.94
247.5	179.94
247.733	181.94
247.966	184.94
248.2	187.94
248.433	197.94
248.666	177.94
248.899	187.94
249.133	200.94
249.366	189.94
249.599	188.94
249.832	196.94
250.066	179.94
250.299	199.94
250.532	196.94
250.765	184.94
250.998	208.94
251.231	194.94
251.465	188.94
251.698	208.94
251.931	204.94
252.164	198.94
252.397	202.94
252.63	210.94
252.863	211.94
253.096	212.94
253.329	201.94
253.562	221.94
253.795	201.94
254.028	215.94
254.261	207.94
254.494	211.94
254.727	193.94
254.96	205.94
255.193	211.94
255.426	214.94
255.659	187.94
255.892	215.94
256.124	206.94
256.357	218.94
256.59	220.94
256.823	213.94
257.056	222.94
257.289	214.94
257.521	226.94
257.754	227.94
257.987	222.94
258.22	230.94
258.452	211.94
258.685	228.94
258.918	224.94
259.151	235.94
259.383	218.94
259.616	242.94
259.849	224.94
260.081	244.94
260.314	228.94
260.547	231.94
260.779	241.94
261.012	240.94
261.244	255.94
261.477	243.94
261.71	244.94
261.942	238.94
262.175	260.94
262.407	233.94
262.64	265.94
262.872	255.94
263.105	242.94
263.337	245.94
263.57	251.94
263.802	253.94
264.035	249.94
264.267	263.94
264.499	266.94
264.732	263.94
264.964	246.94
265.197	268.94
265.429	264.94
265.661	263.94
265.894	265.94
266.126	258.94
266.358	265.94
266.591	253.94
266.823	263.94
267.055	283.94
267.287	274.94
267.52	273.94
267.752	242.94
267.984	273.94
268.216	277.94
268.448	257.94
268.681	267.94
268.913	275.94
269.145	285.94
269.377	282.94
269.609	264.94
269.841	266.94
270.073	291.94
270.306	286.94
270.538	287.94
270.77	288.94
271.002	272.94
271.234	307.94
271.466	295.94
271.698	284.94
271.93	290.94
272.162	273.94
272.394	303.94
272.626	286.94
272.858	295.94
273.09	281.94
273.322	298.94
273.553	297.94
273.785	294.94
274.017	290.94
274.249	291.94
274.481	303.94
274.713	298.94
274.945	304.94
275.176	310.94
275.408	303.94
275.64	303.94
275.872	297.94
276.104	312.94
276.335	305.94
276.567	302.94
276.799	312.94
277.031	289.94
277.262	303.94
277.494	312.94
277.726	282.94
277.957	323.94
278.189	311.94
278.421	312.94
278.652	305.94
278.884	321.94
279.115	328.94
279.347	342.94
279.579	322.94
279.81	315.94
280.042	341.94
280.273	308.94
280.505	312.94
280.736	345.94
280.968	327.94
281.199	324.94
281.431	337.94
281.662	328.94
281.894	333.94
282.125	334.94
282.356	334.94
282.588	324.94
282.819	334.94
283.051	355.94
283.282	346.94
283.513	351.94
283.745	346.94
283.976	329.94
284.207	354.94
284.439	350.94
284.67	344.94
284.901	350.94
285.132	357.94
285.364	351.94
285.595	356.94
285.826	343.94
286.057	352.94
286.288	349.94
286.52	349.94
286.751	338.94
286.982	357.94
287.213	354.94
287.444	359.94
287.675	383.94
287.906	384.94
288.138	367.94
288.369	378.94
288.6	390.94
288.831	369.94
289.062	372.94
289.293	357.94
289.524	383.94
289.755	364.94
289.986	351.94
290.217	360.94
290.448	383.94
290.679	387.94
290.91	385.94
291.141	373.94
291.371	371.94
291.602	372.94
291.833	377.94
292.064	388.94
292.295	381.94
292.526	381.94
292.757	410.94
292.987	384.94
293.218	379.94
293.449	404.94
293.68	374.94
293.91	380.94
294.141	376.94
294.372	379.94
294.603	368.94
294.833	413.94
295.064	380.94
295.295	403.94
295.525	403.94
295.756	392.94
295.987	396.94
296.217	408.94
296.448	386.94
296.679	375.94
296.909	386.94
297.14	389.94
297.37	401.94
297.601	422.94
297.831	420.94
298.062	427.94
298.292	428.94
298.523	404.94
298.753	424.94
298.984	453.94
299.214	419.94
299.445	388.94
299.675	412.94
299.905	441.94
300.136	432.94
300.366	409.94
300.597	429.94
300.827	433.94
301.057	445.94
301.288	449.94
301.518	467.94
301.748	450.94
301.979	431.94
302.209	451.94
302.439	452.94
302.669	442.94
302.9	416.94
303.13	433.94
303.36	419.94
303.59	434.94
303.82	429.94
304.051	427.94
304.281	428.94
304.511	434.94
304.741	421.94
304.971	443.94
305.201	424.94
305.431	439.94
305.661	455.94
305.891	436.94
306.121	444.94
306.352	447.94
306.582	435.94
306.812	380.94
307.042	435.94
307.272	427.94
307.502	410.94
307.731	426.94
307.961	433.94
308.191	433.94
308.421	433.94
308.651	421.94
308.881	412.94
309.111	446.94
309.341	439.94
309.571	436.94
309.8	431.94
310.03	422.94
310.26	439.94
310.49	402.94
310.72	407.94
310.949	409.94
311.179	420.94
311.409	440.94
311.639	422.94
311.868	417.94
312.098	423.94
312.328	441.94
312.557	439.94
312.787	446.94
313.017	449.94
313.246	459.94
313.476	445.94
313.706	469.94
313.935	461.94
314.165	446.94
314.394	458.94
314.624	449.94
314.853	445.94
315.083	461.94
315.312	448.94
315.542	465.94
315.771	454.94
316.001	452.94
316.23	433.94
316.46	427.94
316.689	444.94
316.919	453.94
317.148	431.94
317.377	457.94
317.607	444.94
317.836	431.94
318.065	425.94
318.295	440.94
318.524	437.94
318.753	445.94
318.983	434.94
319.212	436.94
319.441	449.94
319.67	445.94
319.9	458.94
320.129	437.94
320.358	448.94
320.587	444.94
320.816	443.94
321.046	466.94
321.275	445.94
321.504	466.94
321.733	461.94
321.962	452.94
322.191	458.94
322.42	456.94
322.649	445.94
322.878	442.94
323.108	443.94
323.337	459.94
323.566	451.94
323.795	462.94
324.024	464.94
324.253	462.94
324.482	463.94
324.71	471.94
324.939	470.94
325.168	448.94
325.397	463.94
325.626	473.94
325.855	481.94
326.084	505.94
326.313	506.94
326.542	492.94
326.77	493.94
326.999	509.94
327.228	487.94
327.457	497.94
327.686	469.94
327.914	488.94
328.143	490.94
328.372	476.94
328.6	516.94
328.829	509.94
329.058	491.94
329.287	477.94
329.515	490.94
329.744	488.94
329.972	510.94
330.201	509.94
330.43	504.94
330.658	496.94
330.887	504.94
331.115	496.94
331.344	509.94
331.572	525.94
331.801	539.94
332.03	553.94
332.258	575.94
332.486	579.94
332.715	577.94
332.943	581.94
333.172	659.94
333.4	645.94
333.629	683.94
333.857	643.94
334.085	669.94
334.314	635.94
334.542	612.94
334.771	657.94
334.999	600.94
335.227	603.94
335.455	614.94
335.684	611.94
335.912	590.94
336.14	589.94
336.369	590.94
336.597	599.94
336.825	583.94
337.053	584.94
337.281	588.94
337.51	578.94
337.738	574.94
337.966	560.94
338.194	547.94
338.422	525.94
338.65	553.94
338.878	529.94
339.106	519.94
339.334	542.94
339.562	519.94
339.79	508.94
340.018	521.94
340.246	530.94
340.474	508.94
340.702	510.94
340.93	520.94
341.158	523.94
341.386	510.94
341.614	523.94
341.842	512.94
342.07	514.94
342.298	531.94
342.526	515.94
342.754	512.94
342.981	515.94
343.209	522.94
343.437	544.94
343.665	595.94
343.893	645.94
344.12	643.94
344.348	617.94
344.576	593.94
344.804	570.94
345.031	542.94
345.259	553.94
345.487	507.94
345.714	519.94
345.942	512.94
346.17	524.94
346.397	543.94
346.625	513.94
346.853	495.94
347.08	478.94
347.308	511.94
347.535	531.94
347.763	535.94
347.99	524.94
348.218	524.94
348.445	529.94
348.673	517.94
348.9	543.94
349.128	515.94
349.355	517.94
349.583	522.94
349.81	482.94
350.037	491.94
350.265	499.94
350.492	503.94
350.72	482.94
350.947	491.94
351.174	497.94
351.402	475.94
351.629	497.94
351.856	495.94
352.083	508.94
352.311	496.94
352.538	493.94
352.765	489.94
352.992	488.94
353.22	495.94
353.447	477.94
353.674	480.94
353.901	497.94
354.128	476.94
354.355	481.94
354.583	488.94
354.81	481.94
355.037	480.94
355.264	499.94
355.491	503.94
355.718	464.94
355.945	496.94
356.172	481.94
356.399	490.94
356.626	503.94
356.853	495.94
357.08	503.94
357.307	492.94
357.534	481.94
357.761	484.94
357.988	495.94
358.215	497.94
358.441	486.94
358.668	483.94
358.895	488.94
359.122	475.94
359.349	482.94
359.576	488.94
359.802	514.94
360.029	479.94
360.256	499.94
360.483	471.94
360.709	491.94
360.936	467.94
361.163	490.94
361.39	504.94
361.616	501.94
361.843	489.94
362.07	501.94
362.296	496.94
362.523	488.94
362.749	471.94
362.976	470.94
363.203	487.94
363.429	499.94
363.656	501.94
363.882	490.94
364.109	481.94
364.335	499.94
364.562	497.94
364.788	490.94
365.015	473.94
365.241	485.94
365.468	475.94
365.694	467.94
365.92	463.94
366.147	463.94
366.373	466.94
366.599	488.94
366.826	500.94
367.052	475.94
367.278	483.94
367.505	495.94
367.731	500.94
367.957	491.94
368.184	499.94
368.41	498.94
368.636	477.94
368.862	516.94
369.089	514.94
369.315	516.94
369.541	515.94
369.767	514.94
369.993	507.94
370.219	501.94
370.445	520.94
370.672	499.94
370.898	524.94
371.124	526.94
371.35	544.94
371.576	520.94
371.802	512.94
372.028	532.94
372.254	551.94
372.48	518.94
372.706	535.94
372.932	569.94
373.158	549.94
373.384	563.94
373.61	528.94
373.835	543.94
374.061	532.94
374.287	551.94
374.513	572.94
374.739	559.94
374.965	575.94
375.191	582.94
375.416	608.94
375.642	603.94
375.868	571.94
376.094	549.94
376.319	553.94
376.545	537.94
376.771	533.94
376.997	541.94
377.222	554.94
377.448	551.94
377.674	539.94
377.899	513.94
378.125	521.94
378.35	525.94
378.576	517.94
378.802	523.94
379.027	523.94
379.253	548.94
379.478	506.94
379.704	533.94
379.929	530.94
380.155	524.94
380.38	532.94
380.606	547.94
380.831	536.94
381.057	540.94
381.282	536.94
381.507	551.94
381.733	546.94
381.958	545.94
382.184	539.94
382.409	537.94
382.634	546.94
382.86	568.94
383.085	591.94
383.31	584.94
383.535	603.94
383.761	589.94
383.986	554.94
384.211	604.94
384.436	618.94
384.662	632.94
384.887	645.94
385.112	641.94
385.337	665.94
385.562	645.94
385.787	656.94
386.013	653.94
386.238	629.94
386.463	628.94
386.688	656.94
386.913	635.94
387.138	625.94
387.363	641.94
387.588	623.94
387.813	611.94
388.038	620.94
388.263	647.94
388.488	643.94
388.713	635.94
388.938	608.94
389.163	607.94
389.387	600.94
389.612	621.94
389.837	618.94
390.062	627.94
390.287	608.94
390.512	618.94
390.736	643.94
390.961	655.94
391.186	648.94
391.411	678.94
391.636	683.94
391.86	693.94
392.085	727.94
392.31	729.94
392.534	680.94
392.759	680.94
392.984	688.94
393.208	658.94
393.433	670.94
393.658	684.94
393.882	682.94
394.107	692.94
394.331	703.94
394.556	673.94
394.78	670.94
395.005	664.94
395.229	688.94
395.454	687.94
395.678	735.94
395.903	719.94
396.127	715.94
396.352	680.94
396.576	664.94
396.801	625.94
397.025	634.94
397.249	687.94
397.474	709.94
397.698	683.94
397.922	728.94
398.147	691.94
398.371	731.94
398.595	731.94
398.82	762.94
399.044	851.94
399.268	888.94
399.492	1065.94
399.717	1263.94
399.941	1217.94
400.165	1079.94
400.389	931.94
400.613	882.94
400.837	832.94
401.062	777.94
401.286	788.94
401.51	803.94
401.734	791.94
401.958	805.94
402.182	844.94
402.406	803.94
402.63	827.94
402.854	865.94
403.078	884.94
403.302	886.94
403.526	883.94
403.75	929.94
403.974	927.94
404.198	938.94
404.422	953.94
404.645	953.94
404.869	914.94
405.093	917.94
405.317	892.94
405.541	908.94
405.765	887.94
405.988	907.94
406.212	871.94
406.436	881.94
406.66	874.94
406.883	895.94
407.107	957.94
407.331	991.94
407.555	1049.94
407.778	1024.94
408.002	984.94
408.226	988.94
408.449	951.94
408.673	911.94
408.896	929.94
409.12	924.94
409.344	919.94
409.567	911.94
409.791	946.94
410.014	926.94
410.238	923.94
410.461	896.94
410.685	896.94
410.908	864.94
411.132	852.94
411.355	817.94
411.578	805.94
411.802	829.94
412.025	824.94
412.249	835.94
412.472	854.94
412.695	812.94
412.919	785.94
413.142	811.94
413.365	807.94
413.589	786.94
413.812	783.94
414.035	788.94
414.258	801.94
414.482	824.94
414.705	818.94
414.928	804.94
415.151	799.94
415.374	795.94
415.597	779.94
415.821	801.94
416.044	779.94
416.267	759.94
416.49	775.94
416.713	779.94
416.936	800.94
417.159	748.94
417.382	781.94
417.605	765.94
417.828	785.94
418.051	805.94
418.274	825.94
418.497	787.94
418.72	809.94
418.943	804.94
419.166	878.94
419.389	908.94
419.611	873.94
419.834	835.94
420.057	820.94
420.28	801.94
420.503	805.94
420.726	773.94
420.948	784.94
421.171	789.94
421.394	760.94
421.617	761.94
421.839	787.94
422.062	787.94
422.285	777.94
422.507	802.94
422.73	827.94
422.953	827.94
423.175	813.94
423.398	838.94
423.621	836.94
423.843	855.94
424.066	858.94
424.288	842.94
424.511	818.94
424.733	815.94
424.956	808.94
425.178	819.94
425.401	780.94
425.623	794.94
425.846	817.94
426.068	767.94
426.291	745.94
426.513	742.94
426.735	747.94
426.958	758.94
427.18	732.94
427.402	741.94
427.625	716.94
427.847	724.94
428.069	720.94
428.292	724.94
428.514	714.94
428.736	691.94
428.958	723.94
429.181	691.94
429.403	691.94
429.625	703.94
429.847	670.94
430.069	698.94
430.292	670.94
430.514	679.94
430.736	681.94
430.958	673.94
431.18	674.94
431.402	667.94
431.624	674.94
431.846	707.94
432.068	718.94
432.29	714.94
432.512	689.94
432.734	686.94
432.956	698.94
433.178	720.94
433.4	699.94
433.622	715.94
433.844	733.94
434.066	713.94
434.287	703.94
434.509	741.94
434.731	768.94
434.953	793.94
435.175	797.94
435.397	803.94
435.618	757.94
435.84	746.94
436.062	716.94
436.284	729.94
436.505	709.94
436.727	723.94
436.949	704.94
437.17	687.94
437.392	683.94
437.614	695.94
437.835	696.94
438.057	692.94
438.278	671.94
438.5	685.94
438.721	668.94
438.943	692.94
439.165	670.94
439.386	691.94
439.608	711.94
439.829	703.94
440.05	712.94
440.272	699.94
440.493	717.94
440.715	746.94
440.936	754.94
441.158	722.94
441.379	755.94
441.6	801.94
441.822	804.94
442.043	825.94
442.264	793.94
442.486	783.94
442.707	817.94
442.928	796.94
443.149	784.94
443.371	783.94
443.592	797.94
443.813	820.94
444.034	803.94
444.255	832.94
444.476	891.94
444.698	929.94
444.919	993.94
445.14	1033.94
445.361	923.94
445.582	808.94
445.803	785.94
446.024	753.94
446.245	753.94
446.466	725.94
446.687	727.94
446.908	736.94
447.129	720.94
447.35	695.94
447.571	685.94
447.792	681.94
448.013	668.94
448.234	666.94
448.455	670.94
448.675	648.94
448.896	668.94
449.117	635.94
449.338	667.94
449.559	658.94
449.779	660.94
450	650.94
450.221	652.94
450.442	682.94
450.662	677.94
450.883	672.94
451.104	706.94
451.324	680.94
451.545	676.94
451.766	679.94
451.986	675.94
452.207	639.94
452.428	662.94
452.648	653.94
452.869	650.94
453.089	663.94
453.31	658.94
453.53	664.94
453.751	654.94
453.971	645.94
454.192	631.94
454.412	653.94
454.633	630.94
454.853	630.94
455.073	628.94
455.294	634.94
455.514	605.94
455.734	634.94
455.955	603.94
456.175	599.94
456.395	635.94
456.616	610.94
456.836	626.94
457.056	615.94
457.276	628.94
457.497	611.94
457.717	641.94
457.937	618.94
458.157	647.94
458.377	629.94
458.598	647.94
458.818	689.94
459.038	691.94
459.258	702.94
459.478	715.94
459.698	730.94
459.918	745.94
460.138	792.94
460.358	838.94
460.578	867.94
460.798	879.94
461.018	859.94
461.238	849.94
461.458	839.94
461.678	824.94
461.898	815.94
462.118	841.94
462.338	909.94
462.558	924.94
462.777	967.94
462.997	1051.94
463.217	1161.94
463.437	1169.94
463.657	1058.94
463.876	1018.94
464.096	1005.94
464.316	1023.94
464.536	1011.94
464.755	962.94
464.975	939.94
465.195	907.94
465.414	867.94
465.634	777.94
465.854	726.94
466.073	730.94
466.293	709.94
466.512	704.94
466.732	684.94
466.951	704.94
467.171	719.94
467.391	693.94
467.61	699.94
467.829	675.94
468.049	697.94
468.268	659.94
468.488	645.94
468.707	669.94
468.927	642.94
469.146	665.94
469.365	653.94
469.585	698.94
469.804	717.94
470.023	700.94
470.243	704.94
470.462	722.94
470.681	715.94
470.901	727.94
471.12	687.94
471.339	706.94
471.558	679.94
471.777	689.94
471.997	673.94
472.216	672.94
472.435	654.94
472.654	657.94
472.873	657.94
473.092	642.94
473.311	638.94
473.53	646.94
473.749	641.94
473.968	628.94
474.187	641.94
474.406	632.94
474.625	634.94
474.844	624.94
475.063	647.94
475.282	658.94
475.501	670.94
475.72	668.94
475.939	626.94
476.158	662.94
476.377	677.94
476.596	673.94
476.814	711.94
477.033	676.94
477.252	693.94
477.471	700.94
477.69	709.94
477.908	730.94
478.127	785.94
478.346	766.94
478.564	800.94
478.783	795.94
479.002	776.94
479.22	807.94
479.439	836.94
479.658	804.94
479.876	817.94
480.095	810.94
480.313	855.94
480.532	888.94
480.751	880.94
480.969	829.94
481.188	805.94
481.406	756.94
481.624	757.94
481.843	759.94
482.061	710.94
482.28	736.94
482.498	731.94
482.717	724.94
482.935	732.94
483.153	760.94
483.372	737.94
483.59	748.94
483.808	762.94
484.027	729.94
484.245	738.94
484.463	770.94
484.681	773.94
484.9	764.94
485.118	785.94
485.336	758.94
485.554	791.94
485.772	807.94
485.99	815.94
486.209	812.94
486.427	799.94
486.645	817.94
486.863	782.94
487.081	775.94
487.299	794.94
487.517	795.94
487.735	790.94
487.953	783.94
488.171	754.94
488.389	784.94
488.607	767.94
488.825	730.94
489.043	765.94
489.261	753.94
489.479	775.94
489.696	777.94
489.914	770.94
490.132	788.94
490.35	789.94
490.568	773.94
490.786	792.94
491.003	767.94
491.221	791.94
491.439	780.94
491.657	787.94
491.874	792.94
492.092	782.94
492.31	794.94
492.527	770.94
492.745	803.94
492.963	785.94
493.18	771.94
493.398	795.94
493.615	806.94
493.833	799.94
494.05	810.94
494.268	798.94
494.485	804.94
494.703	806.94
494.92	809.94
495.138	786.94
495.355	842.94
495.573	807.94
495.79	808.94
496.008	831.94
496.225	817.94
496.442	836.94
496.66	854.94
496.877	851.94
497.094	880.94
497.312	873.94
497.529	913.94
497.746	897.94
497.963	931.94
498.181	971.94
498.398	991.94
498.615	1048.94
498.832	1139.94
499.049	1241.94
499.267	1354.94
499.484	1535.94
499.701	1645.94
499.918	1797.94
500.135	2138.94
500.352	2443.94
500.569	2557.94
500.786	2528.94
501.003	2351.94
501.22	2083.94
501.437	1828.94
501.654	1555.94
501.871	1414.94
502.088	1327.94
502.305	1226.94
502.522	1146.94
502.739	1132.94
502.956	1059.94
503.172	1021.94
503.389	972.94
503.606	939.94
503.823	914.94
504.04	900.94
504.256	917.94
504.473	962.94
504.69	956.94
504.907	931.94
505.123	891.94
505.34	851.94
505.557	805.94
505.773	791.94
505.99	809.94
506.207	767.94
506.423	772.94
506.64	761.94
506.856	736.94
507.073	734.94
507.289	717.94
507.506	744.94
507.722	743.94
507.939	715.94
508.155	711.94
508.372	696.94
508.588	694.94
508.805	701.94
509.021	680.94
509.238	692.94
509.454	703.94
509.67	691.94
509.887	672.94
510.103	684.94
510.319	658.94
510.536	681.94
510.752	677.94
510.968	674.94
511.184	658.94
511.401	673.94
511.617	662.94
511.833	675.94
512.049	648.94
512.265	651.94
512.481	663.94
512.698	663.94
512.914	678.94
513.13	677.94
513.346	666.94
513.562	672.94
513.778	651.94
513.994	677.94
514.21	655.94
514.426	667.94
514.642	674.94
514.858	673.94
515.074	680.94
515.29	682.94
515.506	719.94
515.721	712.94
515.937	709.94
516.153	719.94
516.369	736.94
516.585	741.94
516.801	782.94
517.016	823.94
517.232	842.94
517.448	899.94
517.664	923.94
517.879	951.94
518.095	929.94
518.311	927.94
518.527	847.94
518.742	860.94
518.958	803.94
519.173	791.94
519.389	717.94
519.605	722.94
519.82	707.94
520.036	716.94
520.251	703.94
520.467	677.94
520.682	643.94
520.898	682.94
521.113	680.94
521.329	666.94
521.544	656.94
521.76	661.94
521.975	665.94
522.19	632.94
522.406	615.94
522.621	626.94
522.836	658.94
523.052	649.94
523.267	626.94
523.482	612.94
523.698	631.94
523.913	609.94
524.128	635.94
524.343	615.94
524.559	609.94
524.774	629.94
524.989	603.94
525.204	597.94
525.419	630.94
525.634	610.94
525.849	615.94
526.064	621.94
526.28	606.94
526.495	608.94
526.71	612.94
526.925	591.94
527.14	608.94
527.355	604.94
527.57	617.94
527.785	607.94
527.999	628.94
528.214	595.94
528.429	593.94
528.644	601.94
528.859	630.94
529.074	610.94
529.289	600.94
529.503	615.94
529.718	615.94
529.933	607.94
530.148	626.94
530.363	608.94
530.577	611.94
530.792	620.94
531.007	614.94
531.221	603.94
531.436	605.94
531.651	611.94
531.865	606.94
532.08	635.94
532.295	623.94
532.509	615.94
532.724	603.94
532.938	631.94
533.153	619.94
533.367	609.94
533.582	614.94
533.796	615.94
534.011	628.94
534.225	618.94
534.44	612.94
534.654	582.94
534.868	587.94
535.083	593.94
535.297	582.94
535.511	591.94
535.726	577.94
535.94	580.94
536.154	589.94
536.369	574.94
536.583	572.94
536.797	570.94
537.011	563.94
537.225	562.94
537.44	567.94
537.654	560.94
537.868	554.94
538.082	572.94
538.296	561.94
538.51	553.94
538.724	562.94
538.938	533.94
539.153	575.94
539.367	563.94
539.581	547.94
539.795	546.94
540.009	555.94
540.222	561.94
540.436	575.94
540.65	533.94
540.864	507.94
541.078	565.94
541.292	572.94
541.506	553.94
541.72	541.94
541.934	543.94
542.147	552.94
542.361	556.94
542.575	545.94
542.789	539.94
543.002	538.94
543.216	545.94
543.43	542.94
543.644	555.94
543.857	522.94
544.071	526.94
544.285	522.94
544.498	523.94
544.712	544.94
544.925	538.94
545.139	544.94
545.352	541.94
545.566	573.94
545.779	561.94
545.993	566.94
546.206	565.94
546.42	540.94
546.633	541.94
546.847	560.94
547.06	537.94
547.274	559.94
547.487	572.94
547.7	537.94
547.914	592.94
548.127	565.94
548.34	559.94
548.554	538.94
548.767	551.94
548.98	563.94
549.193	568.94
549.407	564.94
549.62	573.94
549.833	563.94
550.046	568.94
550.259	550.94
550.473	544.94
550.686	555.94
550.899	537.94
551.112	553.94
551.325	551.94
551.538	531.94
551.751	537.94
551.964	540.94
552.177	554.94
552.39	565.94
552.603	583.94
552.816	579.94
553.029	599.94
553.242	631.94
553.455	600.94
553.667	631.94
553.88	625.94
554.093	596.94
554.306	561.94
554.519	577.94
554.732	578.94
554.944	541.94
555.157	534.94
555.37	546.94
555.583	531.94
555.795	533.94
556.008	499.94
556.221	488.94
556.433	503.94
556.646	487.94
556.859	484.94
557.071	488.94
557.284	481.94
557.496	501.94
557.709	466.94
557.921	489.94
558.134	487.94
558.346	486.94
558.559	469.94
558.771	466.94
558.984	475.94
559.196	473.94
559.409	463.94
559.621	465.94
559.833	461.94
560.046	468.94
560.258	472.94
560.47	462.94
560.683	441.94
560.895	466.94
561.107	467.94
561.32	476.94
561.532	469.94
561.744	467.94
561.956	459.94
562.168	454.94
562.381	472.94
562.593	447.94
562.805	467.94
563.017	451.94
563.229	465.94
563.441	475.94
563.653	453.94
563.865	473.94
564.077	467.94
564.289	492.94
564.501	482.94
564.713	493.94
564.925	479.94
565.137	494.94
565.349	523.94
565.561	539.94
565.773	534.94
565.985	569.94
566.197	589.94
566.408	635.94
566.62	701.94
566.832	748.94
567.044	776.94
567.255	769.94
567.467	796.94
567.679	835.94
567.891	943.94
568.102	949.94
568.314	891.94
568.526	767.94
568.737	721.94
568.949	647.94
569.161	589.94
569.372	577.94
569.584	545.94
569.795	515.94
570.007	481.94
570.218	492.94
570.43	471.94
570.641	456.94
570.853	456.94
571.064	482.94
571.276	490.94
571.487	473.94
571.698	447.94
571.91	447.94
572.121	434.94
572.333	407.94
572.544	413.94
572.755	409.94
572.966	428.94
573.178	406.94
573.389	415.94
573.6	396.94
573.811	415.94
574.023	393.94
574.234	388.94
574.445	400.94
574.656	401.94
574.867	380.94
575.078	396.94
575.289	382.94
575.501	392.94
575.712	379.94
575.923	373.94
576.134	368.94
576.345	379.94
576.556	375.94
576.767	383.94
576.978	365.94
577.188	363.94
577.399	347.94
577.61	362.94
577.821	354.94
578.032	348.94
578.243	364.94
578.454	355.94
578.665	343.94
578.875	355.94
579.086	351.94
579.297	354.94
579.508	335.94
579.718	343.94
579.929	345.94
580.14	338.94
580.35	336.94
580.561	347.94
580.772	362.94
580.982	338.94
581.193	337.94
581.403	338.94
581.614	356.94
581.825	338.94
582.035	325.94
582.246	349.94
582.456	364.94
582.667	324.94
582.877	333.94
583.087	323.94
583.298	339.94
583.508	339.94
583.719	321.94
583.929	338.94
584.139	332.94
584.35	330.94
584.56	317.94
584.77	309.94
584.981	323.94
585.191	310.94
585.401	320.94
585.611	347.94
585.821	313.94
586.032	313.94
586.242	331.94
586.452	324.94
586.662	330.94
586.872	329.94
587.082	342.94
587.292	311.94
587.502	323.94
587.713	325.94
587.923	324.94
588.133	306.94
588.343	331.94
588.553	333.94
588.762	324.94
588.972	313.94
589.182	321.94
589.392	323.94
589.602	316.94
589.812	323.94
590.022	320.94
590.232	340.94
590.441	339.94
590.651	323.94
590.861	326.94
591.071	330.94
591.281	322.94
591.49	342.94
591.7	348.94
591.91	348.94
592.119	346.94
592.329	355.94
592.539	360.94
592.748	375.94
592.958	378.94
593.167	400.94
593.377	403.94
593.587	405.94
593.796	411.94
594.006	413.94
594.215	417.94
594.424	434.94
594.634	395.94
594.843	373.94
595.053	356.94
595.262	365.94
595.472	351.94
595.681	336.94
595.89	347.94
596.1	319.94
596.309	317.94
596.518	316.94
596.727	307.94
596.937	287.94
597.146	308.94
597.355	305.94
597.564	298.94
597.774	287.94
597.983	311.94
598.192	298.94
598.401	272.94
598.61	277.94
598.819	296.94
599.028	280.94
599.237	282.94
599.446	263.94
599.655	281.94
599.864	296.94
600.073	292.94
600.282	270.94
600.491	278.94
600.7	287.94
600.909	262.94
601.118	272.94
601.327	253.94
601.536	288.94
601.745	284.94
601.953	277.94
602.162	274.94
602.371	257.94
602.58	257.94
602.789	275.94
602.997	265.94
603.206	277.94
603.415	286.94
603.623	278.94
603.832	286.94
604.041	251.94
604.249	258.94
604.458	255.94
604.666	244.94
604.875	268.94
605.084	263.94
605.292	256.94
605.501	255.94
605.709	255.94
605.918	259.94
606.126	260.94
606.334	255.94
606.543	240.94
606.751	241.94
606.96	255.94
607.168	256.94
607.376	244.94
607.585	273.94
607.793	251.94
608.001	241.94
608.21	246.94
608.418	242.94
608.626	244.94
608.834	244.94
609.043	251.94
609.251	257.94
609.459	259.94
609.667	267.94
609.875	261.94
610.083	250.94
610.291	234.94
610.499	243.94
610.707	236.94
610.916	261.94
611.124	259.94
611.332	265.94
611.54	232.94
611.748	233.94
611.955	260.94
612.163	226.94
612.371	239.94
612.579	227.94
612.787	233.94
612.995	258.94
613.203	232.94
613.411	229.94
613.618	241.94
613.826	246.94
614.034	235.94
614.242	255.94
614.449	231.94
614.657	235.94
614.865	241.94
615.072	229.94
615.28	228.94
615.488	224.94
615.695	243.94
615.903	233.94
616.111	229.94
616.318	242.94
616.526	253.94
616.733	247.94
616.941	243.94
617.148	233.94
617.356	247.94
617.563	251.94
617.771	260.94
617.978	239.94
618.185	252.94
618.393	215.94
618.6	227.94
618.807	245.94
619.015	232.94
619.222	237.94
619.429	226.94
619.637	244.94
619.844	236.94
620.051	248.94
620.258	226.94
620.466	231.94
620.673	215.94
620.88	230.94
621.087	209.94
621.294	219.94
621.501	220.94
621.708	217.94
621.915	224.94
622.122	218.94
622.329	225.94
622.536	216.94
622.743	204.94
622.95	215.94
623.157	225.94
623.364	202.94
623.571	218.94
623.778	212.94
623.985	223.94
624.192	204.94
624.399	208.94
624.606	211.94
624.812	217.94
625.019	212.94
625.226	220.94
625.433	218.94
625.639	219.94
625.846	216.94
626.053	204.94
626.259	219.94
626.466	200.94
626.673	189.94
626.879	196.94
627.086	188.94
627.293	203.94
627.499	218.94
627.706	203.94
627.912	195.94
628.119	214.94
628.325	209.94
628.532	204.94
628.738	195.94
628.945	209.94
629.151	201.94
629.357	205.94
629.564	192.94
629.77	200.94
629.976	194.94
630.183	205.94
630.389	184.94
630.595	191.94
630.802	206.94
631.008	199.94
631.214	183.94
631.42	186.94
631.627	190.94
631.833	191.94
632.039	181.94
632.245	182.94
632.451	191.94
632.657	191.94
632.863	193.94
633.069	183.94
633.275	186.94
633.481	191.94
633.688	183.94
633.893	193.94
634.099	177.94
634.305	188.94
634.511	191.94
634.717	189.94
634.923	196.94
635.129	186.94
635.335	184.94
635.541	191.94
635.747	196.94
635.952	186.94
636.158	179.94
636.364	172.94
636.57	185.94
636.775	176.94
636.981	174.94
637.187	169.94
637.392	181.94
637.598	192.94
637.804	188.94
638.009	172.94
638.215	165.94
638.421	202.94
638.626	185.94
638.832	175.94
639.037	188.94
639.243	175.94
639.448	164.94
639.654	194.94
639.859	180.94
640.065	174.94
640.27	183.94
640.475	182.94
640.681	181.94
640.886	176.94
641.091	176.94
641.297	178.94
641.502	179.94
641.707	172.94
641.913	173.94
642.118	172.94
642.323	172.94
642.528	177.94
642.733	177.94
642.939	168.94
643.144	176.94
643.349	157.94
643.554	177.94
643.759	169.94
643.964	155.94
644.169	151.94
644.374	136.94
644.579	176.94
644.784	171.94
644.989	161.94
645.194	168.94
645.399	175.94
645.604	155.94
645.809	170.94
646.014	181.94
646.219	160.94
646.423	165.94
646.628	169.94
646.833	178.94
647.038	183.94
647.243	171.94
647.447	182.94
647.652	167.94
647.857	188.94
648.062	179.94
648.266	174.94
648.471	189.94
648.676	183.94
648.88	181.94
649.085	178.94
649.289	183.94
649.494	169.94
649.698	163.94
649.903	172.94
650.107	173.94
650.312	158.94
650.516	160.94
650.721	168.94
650.925	144.94
651.13	162.94
651.334	147.94
651.539	159.94
651.743	157.94
651.947	161.94
652.152	150.94
652.356	166.94
652.56	153.94
652.764	137.94
652.969	144.94
653.173	141.94
653.377	123.94
653.581	153.94
653.785	137.94
653.99	119.94
654.194	140.94
654.398	144.94
654.602	134.94
654.806	141.94
655.01	142.94
655.214	125.94
655.418	137.94
655.622	139.94
655.826	155.94
656.03	147.94
656.234	140.94
656.438	133.94
656.642	150.94
656.846	147.94
657.049	142.94
657.253	137.94
657.457	124.94
657.661	117.94
657.865	103.94
658.068	109.94
658.272	106.94
658.476	105.94
658.68	109.94
658.883	105.94
659.087	118.94
659.291	105.94
659.494	104.94
659.698	98.94
659.901	104.94
660.105	90.94
660.309	95.94
660.512	94.94
660.716	99.94
660.919	101.94
661.123	99.94
661.326	88.94
661.53	82.94
661.733	85.94
661.936	102.94
662.14	91.94
662.343	88.94
662.546	84.94
662.75	73.94
662.953	115.94
663.156	73.94
663.36	84.94
663.563	97.94
663.766	72.94
663.969	81.94
664.173	92.94
664.376	80.94
664.579	65.94
664.782	95.94
664.985	78.94
665.188	105.94
665.391	65.94
665.594	79.94
665.797	90.94
666	74.94
666.203	77.94
666.406	86.94
666.609	96.94
666.812	84.94
667.015	85.94
667.218	85.94
667.421	77.94
667.624	79.94
667.827	76.94
668.03	73.94
668.232	83.94
668.435	77.94
668.638	81.94
668.841	89.94
669.043	83.94
669.246	66.94
669.449	95.94
669.651	86.94
669.854	77.94
670.057	84.94
670.259	70.94
670.462	84.94
670.665	80.94
670.867	82.94
671.07	80.94
671.272	81.94
671.475	74.94
671.677	80.94
671.88	87.94
672.082	91.94
672.284	75.94
672.487	80.94
672.689	78.94
672.892	89.94
