Data from Ni(NO3)2@0.125M.TitratingCurve.Agarose3%dH2O.NegLispCup.LampEnergy10.LIBS07252019_HRD10591_18-10-54-568.txt Node
Date: Thu Jul 25 18:10:54 EDT 2019
User: cochatt
Spectrometer: HR+D1059
Trigger mode: 1
Integration Time (sec): 1.000000E-1
Scans to average: 1
Electric dark correction enabled: true
Nonlinearity correction enabled: false
Boxcar width: 0
XAxis mode: Wavelengths
Number of Pixels in Spectrum: 2048
>>>>>Begin Spectral Data<<<<<
223.165	-4.19
223.4	-4.19
223.635	-4.19
223.869	-17.19
224.104	-31.19
224.338	-13.19
224.573	-12.19
224.808	-10.19
225.042	-24.19
225.277	-1.19
225.511	-11.19
225.746	10.81
225.98	7.81
226.215	14.81
226.449	11.81
226.683	25.81
226.918	28.81
227.152	24.81
227.387	28.81
227.621	28.81
227.856	51.81
228.09	48.81
228.324	43.81
228.559	54.81
228.793	66.81
229.027	91.81
229.262	98.81
229.496	106.81
229.73	105.81
229.964	116.81
230.199	112.81
230.433	119.81
230.667	118.81
230.901	116.81
231.136	119.81
231.37	123.81
231.604	120.81
231.838	128.81
232.072	119.81
232.306	127.81
232.541	118.81
232.775	130.81
233.009	143.81
233.243	125.81
233.477	138.81
233.711	135.81
233.945	126.81
234.179	141.81
234.413	144.81
234.647	123.81
234.881	135.81
235.115	148.81
235.349	131.81
235.583	136.81
235.817	121.81
236.051	128.81
236.285	132.81
236.519	130.81
236.753	147.81
236.987	133.81
237.221	125.81
237.455	147.81
237.689	130.81
237.922	143.81
238.156	139.81
238.39	148.81
238.624	143.81
238.858	151.81
239.091	136.81
239.325	136.81
239.559	135.81
239.793	153.81
240.027	138.81
240.26	138.81
240.494	161.81
240.728	149.81
240.961	168.81
241.195	153.81
241.429	159.81
241.662	155.81
241.896	164.81
242.13	147.81
242.363	153.81
242.597	164.81
242.83	167.81
243.064	172.81
243.298	171.81
243.531	170.81
243.765	165.81
243.998	186.81
244.232	181.81
244.465	171.81
244.699	188.81
244.932	170.81
245.166	178.81
245.399	192.81
245.633	173.81
245.866	209.81
246.099	186.81
246.333	195.81
246.566	188.81
246.8	163.81
247.033	183.81
247.266	194.81
247.5	192.81
247.733	205.81
247.966	198.81
248.2	213.81
248.433	190.81
248.666	201.81
248.899	192.81
249.133	186.81
249.366	182.81
249.599	194.81
249.832	193.81
250.066	219.81
250.299	211.81
250.532	201.81
250.765	193.81
250.998	202.81
251.231	205.81
251.465	202.81
251.698	220.81
251.931	226.81
252.164	217.81
252.397	220.81
252.63	216.81
252.863	224.81
253.096	213.81
253.329	214.81
253.562	227.81
253.795	224.81
254.028	225.81
254.261	233.81
254.494	224.81
254.727	243.81
254.96	217.81
255.193	224.81
255.426	210.81
255.659	228.81
255.892	230.81
256.124	234.81
256.357	229.81
256.59	240.81
256.823	244.81
257.056	246.81
257.289	240.81
257.521	251.81
257.754	237.81
257.987	250.81
258.22	245.81
258.452	247.81
258.685	230.81
258.918	259.81
259.151	242.81
259.383	260.81
259.616	272.81
259.849	247.81
260.081	254.81
260.314	257.81
260.547	240.81
260.779	251.81
261.012	270.81
261.244	260.81
261.477	273.81
261.71	271.81
261.942	270.81
262.175	260.81
262.407	277.81
262.64	273.81
262.872	288.81
263.105	283.81
263.337	279.81
263.57	284.81
263.802	274.81
264.035	286.81
264.267	290.81
264.499	269.81
264.732	273.81
264.964	294.81
265.197	262.81
265.429	281.81
265.661	280.81
265.894	282.81
266.126	289.81
266.358	286.81
266.591	273.81
266.823	287.81
267.055	300.81
267.287	283.81
267.52	278.81
267.752	281.81
267.984	308.81
268.216	317.81
268.448	305.81
268.681	275.81
268.913	299.81
269.145	306.81
269.377	300.81
269.609	283.81
269.841	285.81
270.073	314.81
270.306	304.81
270.538	305.81
270.77	312.81
271.002	304.81
271.234	314.81
271.466	309.81
271.698	321.81
271.93	307.81
272.162	293.81
272.394	312.81
272.626	298.81
272.858	332.81
273.09	314.81
273.322	310.81
273.553	312.81
273.785	317.81
274.017	316.81
274.249	323.81
274.481	327.81
274.713	329.81
274.945	330.81
275.176	332.81
275.408	331.81
275.64	334.81
275.872	330.81
276.104	319.81
276.335	332.81
276.567	341.81
276.799	328.81
277.031	341.81
277.262	327.81
277.494	333.81
277.726	327.81
277.957	345.81
278.189	332.81
278.421	347.81
278.652	337.81
278.884	354.81
279.115	346.81
279.347	342.81
279.579	352.81
279.81	352.81
280.042	348.81
280.273	352.81
280.505	372.81
280.736	336.81
280.968	327.81
281.199	357.81
281.431	344.81
281.662	368.81
281.894	362.81
282.125	340.81
282.356	359.81
282.588	375.81
282.819	374.81
283.051	370.81
283.282	364.81
283.513	374.81
283.745	370.81
283.976	363.81
284.207	362.81
284.439	356.81
284.67	350.81
284.901	365.81
285.132	370.81
285.364	378.81
285.595	385.81
285.826	378.81
286.057	392.81
286.288	366.81
286.52	374.81
286.751	396.81
286.982	374.81
287.213	386.81
287.444	407.81
287.675	380.81
287.906	384.81
288.138	419.81
288.369	420.81
288.6	419.81
288.831	390.81
289.062	395.81
289.293	395.81
289.524	394.81
289.755	393.81
289.986	411.81
290.217	404.81
290.448	387.81
290.679	402.81
290.91	423.81
291.141	419.81
291.371	405.81
291.602	417.81
291.833	415.81
292.064	404.81
292.295	414.81
292.526	406.81
292.757	420.81
292.987	416.81
293.218	404.81
293.449	437.81
293.68	406.81
293.91	410.81
294.141	407.81
294.372	428.81
294.603	425.81
294.833	420.81
295.064	421.81
295.295	437.81
295.525	438.81
295.756	430.81
295.987	434.81
296.217	433.81
296.448	439.81
296.679	420.81
296.909	438.81
297.14	439.81
297.37	449.81
297.601	444.81
297.831	428.81
298.062	444.81
298.292	440.81
298.523	446.81
298.753	462.81
298.984	445.81
299.214	447.81
299.445	450.81
299.675	443.81
299.905	441.81
300.136	464.81
300.366	453.81
300.597	468.81
300.827	462.81
301.057	475.81
301.288	472.81
301.518	485.81
301.748	462.81
301.979	438.81
302.209	464.81
302.439	470.81
302.669	451.81
302.9	466.81
303.13	435.81
303.36	466.81
303.59	463.81
303.82	453.81
304.051	456.81
304.281	454.81
304.511	471.81
304.741	458.81
304.971	464.81
305.201	456.81
305.431	440.81
305.661	456.81
305.891	459.81
306.121	442.81
306.352	444.81
306.582	437.81
306.812	444.81
307.042	466.81
307.272	453.81
307.502	426.81
307.731	449.81
307.961	438.81
308.191	447.81
308.421	446.81
308.651	437.81
308.881	445.81
309.111	439.81
309.341	436.81
309.571	457.81
309.8	431.81
310.03	444.81
310.26	452.81
310.49	428.81
310.72	448.81
310.949	444.81
311.179	434.81
311.409	455.81
311.639	449.81
311.868	477.81
312.098	453.81
312.328	468.81
312.557	475.81
312.787	474.81
313.017	475.81
313.246	494.81
313.476	478.81
313.706	477.81
313.935	485.81
314.165	491.81
314.394	467.81
314.624	502.81
314.853	486.81
315.083	442.81
315.312	489.81
315.542	464.81
315.771	489.81
316.001	460.81
316.23	475.81
316.46	465.81
316.689	472.81
316.919	455.81
317.148	468.81
317.377	478.81
317.607	440.81
317.836	457.81
318.065	480.81
318.295	460.81
318.524	473.81
318.753	466.81
318.983	443.81
319.212	439.81
319.441	459.81
319.67	473.81
319.9	478.81
320.129	464.81
320.358	468.81
320.587	445.81
320.816	480.81
321.046	479.81
321.275	476.81
321.504	470.81
321.733	458.81
321.962	492.81
322.191	491.81
322.42	488.81
322.649	481.81
322.878	469.81
323.108	474.81
323.337	460.81
323.566	481.81
323.795	495.81
324.024	498.81
324.253	520.81
324.482	490.81
324.71	501.81
324.939	491.81
325.168	501.81
325.397	514.81
325.626	496.81
325.855	504.81
326.084	522.81
326.313	509.81
326.542	534.81
326.77	530.81
326.999	508.81
327.228	505.81
327.457	496.81
327.686	510.81
327.914	528.81
328.143	516.81
328.372	523.81
328.6	525.81
328.829	520.81
329.058	508.81
329.287	505.81
329.515	532.81
329.744	535.81
329.972	539.81
330.201	517.81
330.43	521.81
330.658	526.81
330.887	533.81
331.115	547.81
331.344	540.81
331.572	558.81
331.801	555.81
332.03	562.81
332.258	584.81
332.486	587.81
332.715	627.81
332.943	648.81
333.172	675.81
333.4	712.81
333.629	738.81
333.857	719.81
334.085	707.81
334.314	692.81
334.542	692.81
334.771	682.81
334.999	657.81
335.227	648.81
335.455	640.81
335.684	650.81
335.912	640.81
336.14	634.81
336.369	633.81
336.597	654.81
336.825	641.81
337.053	650.81
337.281	632.81
337.51	605.81
337.738	612.81
337.966	580.81
338.194	578.81
338.422	573.81
338.65	564.81
338.878	592.81
339.106	585.81
339.334	562.81
339.562	578.81
339.79	549.81
340.018	551.81
340.246	520.81
340.474	522.81
340.702	545.81
340.93	568.81
341.158	540.81
341.386	548.81
341.614	536.81
341.842	527.81
342.07	520.81
342.298	538.81
342.526	547.81
342.754	528.81
342.981	541.81
343.209	547.81
343.437	569.81
343.665	628.81
343.893	689.81
344.12	701.81
344.348	650.81
344.576	624.81
344.804	594.81
345.031	578.81
345.259	572.81
345.487	538.81
345.714	534.81
345.942	549.81
346.17	555.81
346.397	532.81
346.625	526.81
346.853	544.81
347.08	534.81
347.308	543.81
347.535	534.81
347.763	537.81
347.99	545.81
348.218	556.81
348.445	557.81
348.673	539.81
348.9	527.81
349.128	536.81
349.355	532.81
349.583	502.81
349.81	510.81
350.037	510.81
350.265	518.81
350.492	514.81
350.72	515.81
350.947	499.81
351.174	503.81
351.402	504.81
351.629	492.81
351.856	506.81
352.083	517.81
352.311	506.81
352.538	492.81
352.765	509.81
352.992	489.81
353.22	496.81
353.447	510.81
353.674	497.81
353.901	499.81
354.128	497.81
354.355	510.81
354.583	514.81
354.81	518.81
355.037	513.81
355.264	511.81
355.491	501.81
355.718	516.81
355.945	512.81
356.172	489.81
356.399	516.81
356.626	502.81
356.853	509.81
357.08	516.81
357.307	512.81
357.534	512.81
357.761	497.81
357.988	498.81
358.215	517.81
358.441	525.81
358.668	499.81
358.895	516.81
359.122	510.81
359.349	525.81
359.576	484.81
359.802	519.81
360.029	502.81
360.256	525.81
360.483	495.81
360.709	510.81
360.936	502.81
361.163	508.81
361.39	521.81
361.616	509.81
361.843	502.81
362.07	489.81
362.296	502.81
362.523	521.81
362.749	525.81
362.976	486.81
363.203	491.81
363.429	506.81
363.656	497.81
363.882	516.81
364.109	504.81
364.335	493.81
364.562	496.81
364.788	501.81
365.015	501.81
365.241	486.81
365.468	504.81
365.694	488.81
365.92	505.81
366.147	492.81
366.373	496.81
366.599	516.81
366.826	497.81
367.052	488.81
367.278	488.81
367.505	505.81
367.731	519.81
367.957	496.81
368.184	524.81
368.41	502.81
368.636	508.81
368.862	515.81
369.089	520.81
369.315	512.81
369.541	525.81
369.767	536.81
369.993	526.81
370.219	520.81
370.445	546.81
370.672	535.81
370.898	548.81
371.124	552.81
371.35	564.81
371.576	552.81
371.802	543.81
372.028	541.81
372.254	553.81
372.48	553.81
372.706	574.81
372.932	562.81
373.158	569.81
373.384	576.81
373.61	530.81
373.835	536.81
374.061	549.81
374.287	568.81
374.513	578.81
374.739	566.81
374.965	605.81
375.191	610.81
375.416	626.81
375.642	628.81
375.868	610.81
376.094	589.81
376.319	581.81
376.545	566.81
376.771	547.81
376.997	564.81
377.222	563.81
377.448	570.81
377.674	565.81
377.899	555.81
378.125	532.81
378.35	545.81
378.576	563.81
378.802	546.81
379.027	555.81
379.253	561.81
379.478	534.81
379.704	526.81
379.929	565.81
380.155	552.81
380.38	543.81
380.606	544.81
380.831	538.81
381.057	542.81
381.282	529.81
381.507	560.81
381.733	558.81
381.958	585.81
382.184	571.81
382.409	576.81
382.634	603.81
382.86	578.81
383.085	594.81
383.31	613.81
383.535	581.81
383.761	605.81
383.986	617.81
384.211	619.81
384.436	665.81
384.662	660.81
384.887	680.81
385.112	664.81
385.337	666.81
385.562	659.81
385.787	678.81
386.013	684.81
386.238	684.81
386.463	660.81
386.688	673.81
386.913	643.81
387.138	660.81
387.363	657.81
387.588	650.81
387.813	658.81
388.038	640.81
388.263	638.81
388.488	644.81
388.713	638.81
388.938	633.81
389.163	636.81
389.387	637.81
389.612	671.81
389.837	646.81
390.062	629.81
390.287	652.81
390.512	631.81
390.736	652.81
390.961	667.81
391.186	688.81
391.411	698.81
391.636	715.81
391.86	728.81
392.085	749.81
392.31	743.81
392.534	712.81
392.759	694.81
392.984	709.81
393.208	699.81
393.433	716.81
393.658	694.81
393.882	704.81
394.107	723.81
394.331	710.81
394.556	703.81
394.78	715.81
395.005	715.81
395.229	703.81
395.454	711.81
395.678	756.81
395.903	745.81
396.127	734.81
396.352	698.81
396.576	674.81
396.801	709.81
397.025	675.81
397.249	718.81
397.474	736.81
397.698	724.81
397.922	729.81
398.147	725.81
398.371	717.81
398.595	758.81
398.82	792.81
399.044	869.81
399.268	938.81
399.492	1099.81
399.717	1317.81
399.941	1301.81
400.165	1124.81
400.389	987.81
400.613	905.81
400.837	846.81
401.062	850.81
401.286	814.81
401.51	798.81
401.734	801.81
401.958	841.81
402.182	841.81
402.406	846.81
402.63	881.81
402.854	888.81
403.078	906.81
403.302	900.81
403.526	949.81
403.75	979.81
403.974	986.81
404.198	1018.81
404.422	1000.81
404.645	970.81
404.869	951.81
405.093	973.81
405.317	928.81
405.541	922.81
405.765	899.81
405.988	896.81
406.212	904.81
406.436	915.81
406.66	915.81
406.883	941.81
407.107	1022.81
407.331	1067.81
407.555	1089.81
407.778	1067.81
408.002	1043.81
408.226	1029.81
408.449	962.81
408.673	977.81
408.896	968.81
409.12	925.81
409.344	963.81
409.567	971.81
409.791	1036.81
410.014	963.81
410.238	956.81
410.461	970.81
410.685	966.81
410.908	914.81
411.132	896.81
411.355	867.81
411.578	854.81
411.802	859.81
412.025	881.81
412.249	916.81
412.472	862.81
412.695	841.81
412.919	810.81
413.142	790.81
413.365	830.81
413.589	834.81
413.812	827.81
414.035	804.81
414.258	827.81
414.482	807.81
414.705	854.81
414.928	877.81
415.151	836.81
415.374	823.81
415.597	843.81
415.821	809.81
416.044	824.81
416.267	828.81
416.49	800.81
416.713	817.81
416.936	839.81
417.159	845.81
417.382	817.81
417.605	832.81
417.828	832.81
418.051	821.81
418.274	845.81
418.497	835.81
418.72	883.81
418.943	843.81
419.166	918.81
419.389	998.81
419.611	954.81
419.834	942.81
420.057	877.81
420.28	816.81
420.503	836.81
420.726	827.81
420.948	851.81
421.171	833.81
421.394	822.81
421.617	811.81
421.839	833.81
422.062	832.81
422.285	809.81
422.507	886.81
422.73	883.81
422.953	867.81
423.175	892.81
423.398	893.81
423.621	914.81
423.843	917.81
424.066	910.81
424.288	911.81
424.511	874.81
424.733	874.81
424.956	851.81
425.178	852.81
425.401	886.81
425.623	842.81
425.846	777.81
426.068	784.81
426.291	809.81
426.513	786.81
426.735	808.81
426.958	787.81
427.18	717.81
427.402	769.81
427.625	744.81
427.847	748.81
428.069	749.81
428.292	767.81
428.514	758.81
428.736	736.81
428.958	746.81
429.181	711.81
429.403	725.81
429.625	723.81
429.847	701.81
430.069	725.81
430.292	729.81
430.514	700.81
430.736	722.81
430.958	708.81
431.18	729.81
431.402	741.81
431.624	722.81
431.846	740.81
432.068	750.81
432.29	782.81
432.512	737.81
432.734	758.81
432.956	743.81
433.178	733.81
433.4	734.81
433.622	773.81
433.844	772.81
434.066	741.81
434.287	765.81
434.509	800.81
434.731	811.81
434.953	839.81
435.175	858.81
435.397	843.81
435.618	786.81
435.84	768.81
436.062	757.81
436.284	741.81
436.505	743.81
436.727	747.81
436.949	731.81
437.17	768.81
437.392	707.81
437.614	744.81
437.835	717.81
438.057	703.81
438.278	731.81
438.5	713.81
438.721	712.81
438.943	752.81
439.165	724.81
439.386	763.81
439.608	758.81
439.829	754.81
440.05	779.81
440.272	736.81
440.493	762.81
440.715	789.81
440.936	789.81
441.158	806.81
441.379	803.81
441.6	876.81
441.822	870.81
442.043	854.81
442.264	844.81
442.486	795.81
442.707	838.81
442.928	856.81
443.149	813.81
443.371	818.81
443.592	843.81
443.813	836.81
444.034	871.81
444.255	892.81
444.476	931.81
444.698	976.81
444.919	1045.81
445.14	1115.81
445.361	958.81
445.582	872.81
445.803	814.81
446.024	830.81
446.245	826.81
446.466	805.81
446.687	757.81
446.908	737.81
447.129	756.81
447.35	749.81
447.571	737.81
447.792	697.81
448.013	707.81
448.234	705.81
448.455	713.81
448.675	704.81
448.896	695.81
449.117	683.81
449.338	681.81
449.559	690.81
449.779	679.81
450	690.81
450.221	715.81
450.442	700.81
450.662	705.81
450.883	730.81
451.104	718.81
451.324	717.81
451.545	738.81
451.766	740.81
451.986	716.81
452.207	699.81
452.428	705.81
452.648	694.81
452.869	682.81
453.089	686.81
453.31	670.81
453.53	706.81
453.751	707.81
453.971	683.81
454.192	678.81
454.412	662.81
454.633	655.81
454.853	672.81
455.073	637.81
455.294	651.81
455.514	649.81
455.734	650.81
455.955	631.81
456.175	665.81
456.395	650.81
456.616	660.81
456.836	649.81
457.056	632.81
457.276	628.81
457.497	654.81
457.717	636.81
457.937	657.81
458.157	655.81
458.377	643.81
458.598	694.81
458.818	699.81
459.038	728.81
459.258	744.81
459.478	742.81
459.698	781.81
459.918	792.81
460.138	801.81
460.358	892.81
460.578	914.81
460.798	907.81
461.018	914.81
461.238	866.81
461.458	888.81
461.678	881.81
461.898	894.81
462.118	888.81
462.338	960.81
462.558	969.81
462.777	1002.81
462.997	1112.81
463.217	1225.81
463.437	1232.81
463.657	1110.81
463.876	1034.81
464.096	1050.81
464.316	1074.81
464.536	1087.81
464.755	1034.81
464.975	987.81
465.195	912.81
465.414	866.81
465.634	832.81
465.854	782.81
466.073	767.81
466.293	757.81
466.512	753.81
466.732	756.81
466.951	713.81
467.171	723.81
467.391	739.81
467.61	732.81
467.829	725.81
468.049	716.81
468.268	681.81
468.488	702.81
468.707	692.81
468.927	689.81
469.146	727.81
469.365	691.81
469.585	710.81
469.804	734.81
470.023	738.81
470.243	752.81
470.462	749.81
470.681	757.81
470.901	743.81
471.12	742.81
471.339	713.81
471.558	726.81
471.777	721.81
471.997	670.81
472.216	702.81
472.435	671.81
472.654	673.81
472.873	668.81
473.092	654.81
473.311	674.81
473.53	685.81
473.749	658.81
473.968	698.81
474.187	666.81
474.406	677.81
474.625	657.81
474.844	674.81
475.063	663.81
475.282	696.81
475.501	683.81
475.72	696.81
475.939	692.81
476.158	683.81
476.377	702.81
476.596	674.81
476.814	706.81
477.033	711.81
477.252	711.81
477.471	722.81
477.69	744.81
477.908	753.81
478.127	822.81
478.346	800.81
478.564	789.81
478.783	840.81
479.002	865.81
479.22	841.81
479.439	831.81
479.658	832.81
479.876	826.81
480.095	858.81
480.313	886.81
480.532	920.81
480.751	904.81
480.969	875.81
481.188	828.81
481.406	794.81
481.624	760.81
481.843	767.81
482.061	797.81
482.28	775.81
482.498	753.81
482.717	733.81
482.935	765.81
483.153	735.81
483.372	774.81
483.59	776.81
483.808	763.81
484.027	765.81
484.245	793.81
484.463	786.81
484.681	790.81
484.9	788.81
485.118	792.81
485.336	803.81
485.554	795.81
485.772	802.81
485.99	812.81
486.209	832.81
486.427	843.81
486.645	842.81
486.863	830.81
487.081	814.81
487.299	816.81
487.517	800.81
487.735	838.81
487.953	843.81
488.171	804.81
488.389	778.81
488.607	788.81
488.825	790.81
489.043	802.81
489.261	777.81
489.479	802.81
489.696	793.81
489.914	820.81
490.132	792.81
490.35	818.81
490.568	813.81
490.786	811.81
491.003	819.81
491.221	824.81
491.439	808.81
491.657	840.81
491.874	831.81
492.092	836.81
492.31	820.81
492.527	838.81
492.745	870.81
492.963	842.81
493.18	802.81
493.398	832.81
493.615	826.81
493.833	862.81
494.05	852.81
494.268	865.81
494.485	859.81
494.703	854.81
494.92	843.81
495.138	838.81
495.355	838.81
495.573	865.81
495.79	856.81
496.008	849.81
496.225	874.81
496.442	871.81
496.66	879.81
496.877	898.81
497.094	900.81
497.312	920.81
497.529	905.81
497.746	972.81
497.963	997.81
498.181	1010.81
498.398	1044.81
498.615	1113.81
498.832	1210.81
499.049	1290.81
499.267	1397.81
499.484	1514.81
499.701	1704.81
499.918	1881.81
500.135	2251.81
500.352	2616.81
500.569	2791.81
500.786	2752.81
501.003	2503.81
501.22	2240.81
501.437	1917.81
501.654	1676.81
501.871	1487.81
502.088	1369.81
502.305	1298.81
502.522	1176.81
502.739	1140.81
502.956	1103.81
503.172	1046.81
503.389	990.81
503.606	968.81
503.823	953.81
504.04	932.81
504.256	975.81
504.473	970.81
504.69	1039.81
504.907	1042.81
505.123	957.81
505.34	886.81
505.557	831.81
505.773	840.81
505.99	824.81
506.207	790.81
506.423	781.81
506.64	776.81
506.856	783.81
507.073	764.81
507.289	762.81
507.506	745.81
507.722	768.81
507.939	723.81
508.155	716.81
508.372	723.81
508.588	692.81
508.805	710.81
509.021	699.81
509.238	698.81
509.454	701.81
509.67	693.81
509.887	693.81
510.103	678.81
510.319	678.81
510.536	706.81
510.752	694.81
510.968	692.81
511.184	675.81
511.401	686.81
511.617	664.81
511.833	669.81
512.049	680.81
512.265	705.81
512.481	660.81
512.698	696.81
512.914	688.81
513.13	707.81
513.346	686.81
513.562	696.81
513.778	674.81
513.994	709.81
514.21	690.81
514.426	671.81
514.642	698.81
514.858	714.81
515.074	699.81
515.29	718.81
515.506	717.81
515.721	721.81
515.937	756.81
516.153	746.81
516.369	779.81
516.585	788.81
516.801	828.81
517.016	862.81
517.232	911.81
517.448	941.81
517.664	972.81
517.879	1015.81
518.095	1021.81
518.311	926.81
518.527	909.81
518.742	890.81
518.958	842.81
519.173	820.81
519.389	778.81
519.605	772.81
519.82	724.81
520.036	723.81
520.251	694.81
520.467	708.81
520.682	705.81
520.898	676.81
521.113	682.81
521.329	669.81
521.544	674.81
521.76	673.81
521.975	683.81
522.19	669.81
522.406	671.81
522.621	690.81
522.836	654.81
523.052	648.81
523.267	649.81
523.482	637.81
523.698	637.81
523.913	631.81
524.128	636.81
524.343	642.81
524.559	625.81
524.774	633.81
524.989	625.81
525.204	648.81
525.419	645.81
525.634	621.81
525.849	635.81
526.064	627.81
526.28	644.81
526.495	630.81
526.71	624.81
526.925	614.81
527.14	640.81
527.355	616.81
527.57	603.81
527.785	621.81
527.999	621.81
528.214	607.81
528.429	619.81
528.644	628.81
528.859	634.81
529.074	634.81
529.289	630.81
529.503	657.81
529.718	630.81
529.933	624.81
530.148	628.81
530.363	628.81
530.577	624.81
530.792	581.81
531.007	627.81
531.221	637.81
531.436	640.81
531.651	668.81
531.865	645.81
532.08	634.81
532.295	648.81
532.509	626.81
532.724	636.81
532.938	652.81
533.153	646.81
533.367	632.81
533.582	654.81
533.796	630.81
534.011	640.81
534.225	626.81
534.44	621.81
534.654	610.81
534.868	617.81
535.083	604.81
535.297	608.81
535.511	615.81
535.726	628.81
535.94	599.81
536.154	588.81
536.369	572.81
536.583	597.81
536.797	585.81
537.011	573.81
537.225	590.81
537.44	566.81
537.654	572.81
537.868	581.81
538.082	585.81
538.296	566.81
538.51	580.81
538.724	596.81
538.938	565.81
539.153	559.81
539.367	585.81
539.581	552.81
539.795	554.81
540.009	566.81
540.222	575.81
540.436	562.81
540.65	551.81
540.864	568.81
541.078	587.81
541.292	554.81
541.506	563.81
541.72	572.81
541.934	578.81
542.147	582.81
542.361	572.81
542.575	542.81
542.789	567.81
543.002	562.81
543.216	554.81
543.43	553.81
543.644	534.81
543.857	558.81
544.071	560.81
544.285	570.81
544.498	584.81
544.712	562.81
544.925	575.81
545.139	586.81
545.352	565.81
545.566	571.81
545.779	582.81
545.993	578.81
546.206	578.81
546.42	582.81
546.633	574.81
546.847	572.81
547.06	585.81
547.274	590.81
547.487	572.81
547.7	581.81
547.914	588.81
548.127	566.81
548.34	602.81
548.554	597.81
548.767	596.81
548.98	599.81
549.193	596.81
549.407	602.81
549.62	600.81
549.833	610.81
550.046	610.81
550.259	566.81
550.473	571.81
550.686	563.81
550.899	573.81
551.112	563.81
551.325	544.81
551.538	558.81
551.751	556.81
551.964	553.81
552.177	581.81
552.39	599.81
552.603	594.81
552.816	605.81
553.029	639.81
553.242	641.81
553.455	624.81
553.667	653.81
553.88	651.81
554.093	620.81
554.306	613.81
554.519	579.81
554.732	566.81
554.944	579.81
555.157	552.81
555.37	538.81
555.583	551.81
555.795	546.81
556.008	550.81
556.221	516.81
556.433	518.81
556.646	526.81
556.859	499.81
557.071	511.81
557.284	525.81
557.496	499.81
557.709	485.81
557.921	481.81
558.134	475.81
558.346	492.81
558.559	522.81
558.771	491.81
558.984	479.81
559.196	486.81
559.409	478.81
559.621	477.81
559.833	487.81
560.046	475.81
560.258	509.81
560.47	492.81
560.683	472.81
560.895	452.81
561.107	468.81
561.32	479.81
561.532	497.81
561.744	512.81
561.956	492.81
562.168	459.81
562.381	485.81
562.593	472.81
562.805	492.81
563.017	477.81
563.229	491.81
563.441	492.81
563.653	491.81
563.865	490.81
564.077	472.81
564.289	478.81
564.501	501.81
564.713	521.81
564.925	513.81
565.137	531.81
565.349	532.81
565.561	564.81
565.773	561.81
565.985	573.81
566.197	612.81
566.408	674.81
566.62	717.81
566.832	819.81
567.044	816.81
567.255	778.81
567.467	790.81
567.679	854.81
567.891	920.81
568.102	959.81
568.314	962.81
568.526	814.81
568.737	736.81
568.949	699.81
569.161	644.81
569.372	571.81
569.584	539.81
569.795	520.81
570.007	513.81
570.218	500.81
570.43	475.81
570.641	483.81
570.853	500.81
571.064	495.81
571.276	510.81
571.487	491.81
571.698	472.81
571.91	455.81
572.121	423.81
572.333	443.81
572.544	434.81
572.755	409.81
572.966	429.81
573.178	428.81
573.389	440.81
573.6	434.81
573.811	411.81
574.023	410.81
574.234	389.81
574.445	413.81
574.656	411.81
574.867	401.81
575.078	422.81
575.289	393.81
575.501	376.81
575.712	377.81
575.923	382.81
576.134	386.81
576.345	395.81
576.556	384.81
576.767	391.81
576.978	378.81
577.188	387.81
577.399	399.81
577.61	362.81
577.821	372.81
578.032	364.81
578.243	379.81
578.454	354.81
578.665	359.81
578.875	370.81
579.086	351.81
579.297	380.81
579.508	353.81
579.718	376.81
579.929	345.81
580.14	342.81
580.35	351.81
580.561	362.81
580.772	339.81
580.982	358.81
581.193	344.81
581.403	327.81
581.614	346.81
581.825	341.81
582.035	343.81
582.246	349.81
582.456	334.81
582.667	338.81
582.877	343.81
583.087	327.81
583.298	325.81
583.508	330.81
583.719	318.81
583.929	342.81
584.139	339.81
584.35	326.81
584.56	345.81
584.77	328.81
584.981	323.81
585.191	331.81
585.401	337.81
585.611	314.81
585.821	321.81
586.032	326.81
586.242	336.81
586.452	338.81
586.662	345.81
586.872	313.81
587.082	329.81
587.292	323.81
587.502	331.81
587.713	321.81
587.923	326.81
588.133	343.81
588.343	332.81
588.553	325.81
588.762	325.81
588.972	318.81
589.182	348.81
589.392	318.81
589.602	336.81
589.812	316.81
590.022	335.81
590.232	316.81
590.441	329.81
590.651	328.81
590.861	308.81
591.071	333.81
591.281	334.81
591.49	329.81
591.7	356.81
591.91	346.81
592.119	356.81
592.329	368.81
592.539	368.81
592.748	372.81
592.958	394.81
593.167	416.81
593.377	427.81
593.587	434.81
593.796	434.81
594.006	420.81
594.215	427.81
594.424	439.81
594.634	419.81
594.843	422.81
595.053	387.81
595.262	384.81
595.472	362.81
595.681	361.81
595.89	341.81
596.1	325.81
596.309	320.81
596.518	308.81
596.727	309.81
596.937	306.81
597.146	310.81
597.355	307.81
597.564	321.81
597.774	308.81
597.983	294.81
598.192	290.81
598.401	282.81
598.61	294.81
598.819	290.81
599.028	282.81
599.237	286.81
599.446	291.81
599.655	292.81
599.864	274.81
600.073	287.81
600.282	293.81
600.491	277.81
600.7	288.81
600.909	291.81
601.118	285.81
601.327	300.81
601.536	282.81
601.745	279.81
601.953	261.81
602.162	265.81
602.371	273.81
602.58	282.81
602.789	265.81
602.997	285.81
603.206	272.81
603.415	275.81
603.623	278.81
603.832	263.81
604.041	272.81
604.249	266.81
604.458	256.81
604.666	244.81
604.875	268.81
605.084	280.81
605.292	260.81
605.501	267.81
605.709	276.81
605.918	260.81
606.126	276.81
606.334	258.81
606.543	246.81
606.751	270.81
606.96	252.81
607.168	276.81
607.376	264.81
607.585	257.81
607.793	273.81
608.001	265.81
608.21	269.81
608.418	244.81
608.626	246.81
608.834	256.81
609.043	268.81
609.251	271.81
609.459	254.81
609.667	260.81
609.875	250.81
610.083	251.81
610.291	242.81
610.499	237.81
610.707	258.81
610.916	264.81
611.124	247.81
611.332	263.81
611.54	260.81
611.748	237.81
611.955	256.81
612.163	241.81
612.371	233.81
612.579	261.81
612.787	243.81
612.995	242.81
613.203	267.81
613.411	256.81
613.618	233.81
613.826	227.81
614.034	251.81
614.242	250.81
614.449	244.81
614.657	235.81
614.865	234.81
615.072	253.81
615.28	251.81
615.488	253.81
615.695	245.81
615.903	259.81
616.111	245.81
616.318	254.81
616.526	251.81
616.733	245.81
616.941	245.81
617.148	236.81
617.356	247.81
617.563	249.81
617.771	233.81
617.978	241.81
618.185	239.81
618.393	261.81
618.6	265.81
618.807	262.81
619.015	238.81
619.222	237.81
619.429	238.81
619.637	235.81
619.844	262.81
620.051	227.81
620.258	237.81
620.466	234.81
620.673	218.81
620.88	230.81
621.087	234.81
621.294	247.81
621.501	218.81
621.708	234.81
621.915	221.81
622.122	214.81
622.329	220.81
622.536	229.81
622.743	231.81
622.95	221.81
623.157	220.81
623.364	235.81
623.571	219.81
623.778	204.81
623.985	238.81
624.192	206.81
624.399	232.81
624.606	229.81
624.812	218.81
625.019	211.81
625.226	216.81
625.433	216.81
625.639	211.81
625.846	209.81
626.053	205.81
626.259	213.81
626.466	199.81
626.673	227.81
626.879	209.81
627.086	219.81
627.293	209.81
627.499	225.81
627.706	209.81
627.912	200.81
628.119	201.81
628.325	207.81
628.532	211.81
628.738	216.81
628.945	204.81
629.151	195.81
629.357	200.81
629.564	210.81
629.77	205.81
629.976	204.81
630.183	208.81
630.389	201.81
630.595	192.81
630.802	191.81
631.008	193.81
631.214	188.81
631.42	203.81
631.627	206.81
631.833	212.81
632.039	194.81
632.245	180.81
632.451	195.81
632.657	201.81
632.863	181.81
633.069	186.81
633.275	186.81
633.481	187.81
633.688	181.81
633.893	185.81
634.099	178.81
634.305	180.81
634.511	198.81
634.717	182.81
634.923	190.81
635.129	186.81
635.335	183.81
635.541	174.81
635.747	183.81
635.952	172.81
636.158	192.81
636.364	172.81
636.57	182.81
636.775	178.81
636.981	187.81
637.187	180.81
637.392	173.81
637.598	190.81
637.804	191.81
638.009	183.81
638.215	178.81
638.421	174.81
638.626	180.81
638.832	172.81
639.037	174.81
639.243	183.81
639.448	185.81
639.654	157.81
639.859	178.81
640.065	162.81
640.27	176.81
640.475	180.81
640.681	154.81
640.886	157.81
641.091	168.81
641.297	171.81
641.502	172.81
641.707	159.81
641.913	178.81
642.118	166.81
642.323	164.81
642.528	154.81
642.733	159.81
642.939	166.81
643.144	165.81
643.349	169.81
643.554	164.81
643.759	163.81
643.964	169.81
644.169	172.81
644.374	154.81
644.579	162.81
644.784	153.81
644.989	154.81
645.194	161.81
645.399	151.81
645.604	164.81
645.809	175.81
646.014	176.81
646.219	178.81
646.423	164.81
646.628	148.81
646.833	192.81
647.038	171.81
647.243	166.81
647.447	163.81
647.652	158.81
647.857	183.81
648.062	175.81
648.266	169.81
648.471	176.81
648.676	174.81
648.88	160.81
649.085	165.81
649.289	160.81
649.494	156.81
649.698	167.81
649.903	150.81
650.107	164.81
650.312	154.81
650.516	161.81
650.721	161.81
650.925	169.81
651.13	163.81
651.334	155.81
651.539	140.81
651.743	139.81
651.947	148.81
652.152	163.81
652.356	140.81
652.56	134.81
652.764	113.81
652.969	142.81
653.173	139.81
653.377	144.81
653.581	134.81
653.785	146.81
653.99	126.81
654.194	108.81
654.398	128.81
654.602	134.81
654.806	133.81
655.01	136.81
655.214	138.81
655.418	123.81
655.622	126.81
655.826	130.81
656.03	129.81
656.234	126.81
656.438	112.81
656.642	123.81
656.846	116.81
657.049	125.81
657.253	121.81
657.457	108.81
657.661	114.81
657.865	102.81
658.068	100.81
658.272	120.81
658.476	103.81
658.68	110.81
658.883	87.81
659.087	102.81
659.291	82.81
659.494	85.81
659.698	94.81
659.901	106.81
660.105	83.81
660.309	92.81
660.512	100.81
660.716	76.81
660.919	70.81
661.123	97.81
661.326	91.81
661.53	81.81
661.733	97.81
661.936	93.81
662.14	91.81
662.343	86.81
662.546	85.81
662.75	88.81
662.953	87.81
663.156	66.81
663.36	88.81
663.563	99.81
663.766	90.81
663.969	85.81
664.173	84.81
664.376	68.81
664.579	83.81
664.782	71.81
664.985	84.81
665.188	83.81
665.391	83.81
665.594	83.81
665.797	82.81
666	82.81
666.203	91.81
666.406	75.81
666.609	89.81
666.812	104.81
667.015	93.81
667.218	84.81
667.421	81.81
667.624	76.81
667.827	85.81
668.03	62.81
668.232	86.81
668.435	83.81
668.638	87.81
668.841	76.81
669.043	67.81
669.246	77.81
669.449	75.81
669.651	83.81
669.854	80.81
670.057	79.81
670.259	77.81
670.462	68.81
670.665	82.81
670.867	89.81
671.07	87.81
671.272	78.81
671.475	94.81
671.677	84.81
671.88	76.81
672.082	91.81
672.284	77.81
672.487	94.81
672.689	99.81
672.892	67.81
