Data from Ni(NO3)2@0.0625M.TitratingCurve.Agarose3%dH2O.NegLispCup.LampEnergy10.LIBS07252019_HRD10591_18-14-23-569.txt Node
Date: Thu Jul 25 18:14:23 EDT 2019
User: cochatt
Spectrometer: HR+D1059
Trigger mode: 1
Integration Time (sec): 1.000000E-1
Scans to average: 1
Electric dark correction enabled: true
Nonlinearity correction enabled: false
Boxcar width: 0
XAxis mode: Wavelengths
Number of Pixels in Spectrum: 2048
>>>>>Begin Spectral Data<<<<<
223.165	0.44
223.4	0.44
223.635	0.44
223.869	-17.56
224.104	-31.56
224.338	-6.56
224.573	-18.56
224.808	-20.56
225.042	7.44
225.277	3.44
225.511	-8.56
225.746	-8.56
225.98	0.44
226.215	10.44
226.449	16.44
226.683	29.44
226.918	17.44
227.152	26.44
227.387	49.44
227.621	46.44
227.856	56.44
228.09	65.44
228.324	53.44
228.559	46.44
228.793	79.44
229.027	98.44
229.262	114.44
229.496	126.44
229.73	124.44
229.964	127.44
230.199	149.44
230.433	133.44
230.667	133.44
230.901	157.44
231.136	136.44
231.37	151.44
231.604	137.44
231.838	156.44
232.072	155.44
232.306	138.44
232.541	146.44
232.775	140.44
233.009	153.44
233.243	165.44
233.477	145.44
233.711	166.44
233.945	147.44
234.179	161.44
234.413	164.44
234.647	155.44
234.881	166.44
235.115	153.44
235.349	158.44
235.583	142.44
235.817	157.44
236.051	155.44
236.285	159.44
236.519	148.44
236.753	174.44
236.987	156.44
237.221	151.44
237.455	159.44
237.689	164.44
237.922	186.44
238.156	167.44
238.39	163.44
238.624	174.44
238.858	188.44
239.091	172.44
239.325	189.44
239.559	184.44
239.793	181.44
240.027	170.44
240.26	190.44
240.494	185.44
240.728	169.44
240.961	170.44
241.195	190.44
241.429	201.44
241.662	212.44
241.896	191.44
242.13	195.44
242.363	206.44
242.597	189.44
242.83	216.44
243.064	198.44
243.298	211.44
243.531	225.44
243.765	219.44
243.998	235.44
244.232	233.44
244.465	229.44
244.699	222.44
244.932	231.44
245.166	221.44
245.399	234.44
245.633	226.44
245.866	225.44
246.099	253.44
246.333	240.44
246.566	227.44
246.8	231.44
247.033	237.44
247.266	241.44
247.5	254.44
247.733	255.44
247.966	258.44
248.2	254.44
248.433	249.44
248.666	245.44
248.899	249.44
249.133	272.44
249.366	259.44
249.599	259.44
249.832	265.44
250.066	265.44
250.299	281.44
250.532	258.44
250.765	264.44
250.998	277.44
251.231	261.44
251.465	285.44
251.698	292.44
251.931	282.44
252.164	286.44
252.397	294.44
252.63	303.44
252.863	290.44
253.096	294.44
253.329	286.44
253.562	289.44
253.795	293.44
254.028	309.44
254.261	312.44
254.494	300.44
254.727	296.44
254.96	307.44
255.193	299.44
255.426	302.44
255.659	319.44
255.892	310.44
256.124	307.44
256.357	311.44
256.59	314.44
256.823	310.44
257.056	292.44
257.289	302.44
257.521	315.44
257.754	327.44
257.987	322.44
258.22	313.44
258.452	321.44
258.685	324.44
258.918	311.44
259.151	345.44
259.383	337.44
259.616	330.44
259.849	330.44
260.081	330.44
260.314	325.44
260.547	325.44
260.779	342.44
261.012	332.44
261.244	334.44
261.477	342.44
261.71	332.44
261.942	363.44
262.175	329.44
262.407	350.44
262.64	333.44
262.872	375.44
263.105	358.44
263.337	337.44
263.57	354.44
263.802	366.44
264.035	357.44
264.267	364.44
264.499	349.44
264.732	363.44
264.964	375.44
265.197	370.44
265.429	381.44
265.661	381.44
265.894	369.44
266.126	376.44
266.358	394.44
266.591	373.44
266.823	402.44
267.055	383.44
267.287	381.44
267.52	372.44
267.752	387.44
267.984	390.44
268.216	409.44
268.448	393.44
268.681	383.44
268.913	395.44
269.145	395.44
269.377	386.44
269.609	391.44
269.841	403.44
270.073	401.44
270.306	411.44
270.538	382.44
270.77	398.44
271.002	410.44
271.234	406.44
271.466	422.44
271.698	390.44
271.93	416.44
272.162	413.44
272.394	425.44
272.626	417.44
272.858	415.44
273.09	419.44
273.322	414.44
273.553	417.44
273.785	421.44
274.017	416.44
274.249	440.44
274.481	437.44
274.713	433.44
274.945	420.44
275.176	447.44
275.408	453.44
275.64	441.44
275.872	440.44
276.104	476.44
276.335	457.44
276.567	439.44
276.799	451.44
277.031	462.44
277.262	467.44
277.494	454.44
277.726	444.44
277.957	439.44
278.189	441.44
278.421	461.44
278.652	458.44
278.884	458.44
279.115	439.44
279.347	474.44
279.579	463.44
279.81	480.44
280.042	484.44
280.273	482.44
280.505	505.44
280.736	482.44
280.968	481.44
281.199	488.44
281.431	493.44
281.662	488.44
281.894	478.44
282.125	499.44
282.356	489.44
282.588	497.44
282.819	514.44
283.051	515.44
283.282	500.44
283.513	517.44
283.745	502.44
283.976	499.44
284.207	515.44
284.439	523.44
284.67	526.44
284.901	533.44
285.132	519.44
285.364	524.44
285.595	537.44
285.826	514.44
286.057	516.44
286.288	519.44
286.52	503.44
286.751	535.44
286.982	549.44
287.213	552.44
287.444	535.44
287.675	539.44
287.906	530.44
288.138	568.44
288.369	555.44
288.6	527.44
288.831	543.44
289.062	536.44
289.293	553.44
289.524	547.44
289.755	563.44
289.986	557.44
290.217	555.44
290.448	578.44
290.679	577.44
290.91	564.44
291.141	567.44
291.371	547.44
291.602	568.44
291.833	543.44
292.064	541.44
292.295	583.44
292.526	569.44
292.757	579.44
292.987	543.44
293.218	574.44
293.449	554.44
293.68	576.44
293.91	560.44
294.141	558.44
294.372	563.44
294.603	561.44
294.833	561.44
295.064	566.44
295.295	571.44
295.525	599.44
295.756	587.44
295.987	583.44
296.217	592.44
296.448	587.44
296.679	577.44
296.909	586.44
297.14	600.44
297.37	599.44
297.601	625.44
297.831	613.44
298.062	597.44
298.292	604.44
298.523	623.44
298.753	631.44
298.984	631.44
299.214	611.44
299.445	598.44
299.675	598.44
299.905	626.44
300.136	623.44
300.366	611.44
300.597	633.44
300.827	625.44
301.057	651.44
301.288	630.44
301.518	618.44
301.748	651.44
301.979	653.44
302.209	636.44
302.439	660.44
302.669	672.44
302.9	640.44
303.13	643.44
303.36	642.44
303.59	645.44
303.82	655.44
304.051	662.44
304.281	631.44
304.511	656.44
304.741	615.44
304.971	625.44
305.201	614.44
305.431	636.44
305.661	620.44
305.891	638.44
306.121	623.44
306.352	639.44
306.582	628.44
306.812	612.44
307.042	615.44
307.272	625.44
307.502	613.44
307.731	621.44
307.961	622.44
308.191	618.44
308.421	636.44
308.651	630.44
308.881	615.44
309.111	630.44
309.341	613.44
309.571	631.44
309.8	608.44
310.03	621.44
310.26	615.44
310.49	620.44
310.72	640.44
310.949	601.44
311.179	625.44
311.409	639.44
311.639	631.44
311.868	643.44
312.098	644.44
312.328	638.44
312.557	628.44
312.787	641.44
313.017	646.44
313.246	671.44
313.476	633.44
313.706	703.44
313.935	649.44
314.165	693.44
314.394	666.44
314.624	655.44
314.853	674.44
315.083	626.44
315.312	675.44
315.542	663.44
315.771	644.44
316.001	643.44
316.23	659.44
316.46	638.44
316.689	636.44
316.919	647.44
317.148	641.44
317.377	649.44
317.607	665.44
317.836	665.44
318.065	623.44
318.295	627.44
318.524	614.44
318.753	643.44
318.983	655.44
319.212	654.44
319.441	633.44
319.67	648.44
319.9	668.44
320.129	633.44
320.358	650.44
320.587	629.44
320.816	661.44
321.046	658.44
321.275	651.44
321.504	660.44
321.733	645.44
321.962	681.44
322.191	669.44
322.42	659.44
322.649	629.44
322.878	678.44
323.108	662.44
323.337	654.44
323.566	667.44
323.795	683.44
324.024	669.44
324.253	663.44
324.482	680.44
324.71	651.44
324.939	685.44
325.168	691.44
325.397	666.44
325.626	690.44
325.855	683.44
326.084	709.44
326.313	710.44
326.542	717.44
326.77	727.44
326.999	697.44
327.228	698.44
327.457	690.44
327.686	719.44
327.914	694.44
328.143	721.44
328.372	702.44
328.6	713.44
328.829	708.44
329.058	696.44
329.287	737.44
329.515	721.44
329.744	706.44
329.972	725.44
330.201	737.44
330.43	718.44
330.658	739.44
330.887	729.44
331.115	735.44
331.344	753.44
331.572	769.44
331.801	770.44
332.03	790.44
332.258	782.44
332.486	844.44
332.715	869.44
332.943	899.44
333.172	911.44
333.4	974.44
333.629	987.44
333.857	1005.44
334.085	988.44
334.314	968.44
334.542	938.44
334.771	908.44
334.999	869.44
335.227	879.44
335.455	893.44
335.684	915.44
335.912	889.44
336.14	877.44
336.369	860.44
336.597	850.44
336.825	836.44
337.053	882.44
337.281	857.44
337.51	829.44
337.738	798.44
337.966	787.44
338.194	814.44
338.422	791.44
338.65	794.44
338.878	751.44
339.106	803.44
339.334	783.44
339.562	788.44
339.79	749.44
340.018	764.44
340.246	742.44
340.474	749.44
340.702	720.44
340.93	769.44
341.158	772.44
341.386	762.44
341.614	725.44
341.842	751.44
342.07	747.44
342.298	730.44
342.526	736.44
342.754	745.44
342.981	737.44
343.209	738.44
343.437	796.44
343.665	852.44
343.893	935.44
344.12	965.44
344.348	901.44
344.576	834.44
344.804	812.44
345.031	780.44
345.259	755.44
345.487	756.44
345.714	738.44
345.942	728.44
346.17	743.44
346.397	721.44
346.625	715.44
346.853	746.44
347.08	719.44
347.308	744.44
347.535	726.44
347.763	755.44
347.99	737.44
348.218	750.44
348.445	737.44
348.673	732.44
348.9	740.44
349.128	738.44
349.355	713.44
349.583	705.44
349.81	708.44
350.037	707.44
350.265	693.44
350.492	696.44
350.72	705.44
350.947	700.44
351.174	662.44
351.402	699.44
351.629	683.44
351.856	693.44
352.083	706.44
352.311	709.44
352.538	683.44
352.765	693.44
352.992	683.44
353.22	698.44
353.447	678.44
353.674	658.44
353.901	689.44
354.128	692.44
354.355	694.44
354.583	718.44
354.81	698.44
355.037	698.44
355.264	700.44
355.491	702.44
355.718	680.44
355.945	714.44
356.172	702.44
356.399	690.44
356.626	698.44
356.853	699.44
357.08	704.44
357.307	695.44
357.534	706.44
357.761	702.44
357.988	705.44
358.215	681.44
358.441	689.44
358.668	691.44
358.895	707.44
359.122	697.44
359.349	700.44
359.576	690.44
359.802	718.44
360.029	676.44
360.256	702.44
360.483	695.44
360.709	695.44
360.936	707.44
361.163	675.44
361.39	690.44
361.616	709.44
361.843	696.44
362.07	703.44
362.296	662.44
362.523	681.44
362.749	705.44
362.976	673.44
363.203	679.44
363.429	681.44
363.656	697.44
363.882	696.44
364.109	682.44
364.335	702.44
364.562	686.44
364.788	670.44
365.015	695.44
365.241	695.44
365.468	700.44
365.694	665.44
365.92	678.44
366.147	705.44
366.373	714.44
366.599	683.44
366.826	709.44
367.052	703.44
367.278	683.44
367.505	688.44
367.731	712.44
367.957	697.44
368.184	722.44
368.41	705.44
368.636	693.44
368.862	707.44
369.089	689.44
369.315	711.44
369.541	716.44
369.767	731.44
369.993	707.44
370.219	748.44
370.445	707.44
370.672	729.44
370.898	740.44
371.124	755.44
371.35	761.44
371.576	762.44
371.802	755.44
372.028	746.44
372.254	744.44
372.48	776.44
372.706	783.44
372.932	831.44
373.158	794.44
373.384	789.44
373.61	771.44
373.835	757.44
374.061	754.44
374.287	761.44
374.513	772.44
374.739	823.44
374.965	803.44
375.191	875.44
375.416	840.44
375.642	819.44
375.868	810.44
376.094	776.44
376.319	774.44
376.545	792.44
376.771	756.44
376.997	732.44
377.222	743.44
377.448	733.44
377.674	771.44
377.899	767.44
378.125	753.44
378.35	744.44
378.576	745.44
378.802	711.44
379.027	747.44
379.253	733.44
379.478	730.44
379.704	753.44
379.929	771.44
380.155	770.44
380.38	733.44
380.606	729.44
380.831	776.44
381.057	747.44
381.282	760.44
381.507	760.44
381.733	768.44
381.958	762.44
382.184	765.44
382.409	798.44
382.634	789.44
382.86	779.44
383.085	793.44
383.31	837.44
383.535	819.44
383.761	847.44
383.986	872.44
384.211	884.44
384.436	897.44
384.662	913.44
384.887	927.44
385.112	910.44
385.337	958.44
385.562	892.44
385.787	912.44
386.013	951.44
386.238	939.44
386.463	942.44
386.688	927.44
386.913	909.44
387.138	904.44
387.363	895.44
387.588	910.44
387.813	910.44
388.038	921.44
388.263	908.44
388.488	899.44
388.713	896.44
388.938	896.44
389.163	876.44
389.387	913.44
389.612	894.44
389.837	896.44
390.062	913.44
390.287	909.44
390.512	895.44
390.736	898.44
390.961	900.44
391.186	925.44
391.411	946.44
391.636	983.44
391.86	1044.44
392.085	1057.44
392.31	1075.44
392.534	1039.44
392.759	970.44
392.984	948.44
393.208	956.44
393.433	946.44
393.658	961.44
393.882	982.44
394.107	966.44
394.331	954.44
394.556	949.44
394.78	977.44
395.005	990.44
395.229	993.44
395.454	1007.44
395.678	1042.44
395.903	1026.44
396.127	995.44
396.352	965.44
396.576	941.44
396.801	933.44
397.025	954.44
397.249	1009.44
397.474	1036.44
397.698	1015.44
397.922	1028.44
398.147	993.44
398.371	1025.44
398.595	1079.44
398.82	1100.44
399.044	1185.44
399.268	1308.44
399.492	1582.44
399.717	1834.44
399.941	1819.44
400.165	1566.44
400.389	1411.44
400.613	1285.44
400.837	1188.44
401.062	1159.44
401.286	1147.44
401.51	1138.44
401.734	1115.44
401.958	1153.44
402.182	1148.44
402.406	1223.44
402.63	1201.44
402.854	1222.44
403.078	1245.44
403.302	1288.44
403.526	1324.44
403.75	1359.44
403.974	1363.44
404.198	1383.44
404.422	1379.44
404.645	1343.44
404.869	1315.44
405.093	1303.44
405.317	1302.44
405.541	1261.44
405.765	1273.44
405.988	1262.44
406.212	1272.44
406.436	1274.44
406.66	1322.44
406.883	1294.44
407.107	1399.44
407.331	1450.44
407.555	1536.44
407.778	1510.44
408.002	1473.44
408.226	1393.44
408.449	1373.44
408.673	1341.44
408.896	1313.44
409.12	1274.44
409.344	1324.44
409.567	1329.44
409.791	1332.44
410.014	1325.44
410.238	1267.44
410.461	1301.44
410.685	1281.44
410.908	1238.44
411.132	1270.44
411.355	1218.44
411.578	1211.44
411.802	1181.44
412.025	1206.44
412.249	1233.44
412.472	1209.44
412.695	1172.44
412.919	1132.44
413.142	1128.44
413.365	1134.44
413.589	1166.44
413.812	1138.44
414.035	1109.44
414.258	1117.44
414.482	1161.44
414.705	1175.44
414.928	1162.44
415.151	1153.44
415.374	1160.44
415.597	1154.44
415.821	1163.44
416.044	1150.44
416.267	1124.44
416.49	1080.44
416.713	1103.44
416.936	1120.44
417.159	1107.44
417.382	1138.44
417.605	1122.44
417.828	1109.44
418.051	1137.44
418.274	1185.44
418.497	1146.44
418.72	1185.44
418.943	1166.44
419.166	1230.44
419.389	1318.44
419.611	1313.44
419.834	1251.44
420.057	1173.44
420.28	1153.44
420.503	1151.44
420.726	1126.44
420.948	1139.44
421.171	1130.44
421.394	1128.44
421.617	1127.44
421.839	1147.44
422.062	1127.44
422.285	1120.44
422.507	1162.44
422.73	1177.44
422.953	1189.44
423.175	1186.44
423.398	1225.44
423.621	1210.44
423.843	1221.44
424.066	1274.44
424.288	1213.44
424.511	1247.44
424.733	1190.44
424.956	1193.44
425.178	1172.44
425.401	1159.44
425.623	1129.44
425.846	1101.44
426.068	1071.44
426.291	1046.44
426.513	1070.44
426.735	1040.44
426.958	1051.44
427.18	1025.44
427.402	1016.44
427.625	1029.44
427.847	1016.44
428.069	1029.44
428.292	1013.44
428.514	1012.44
428.736	1011.44
428.958	1028.44
429.181	981.44
429.403	1008.44
429.625	965.44
429.847	971.44
430.069	962.44
430.292	985.44
430.514	982.44
430.736	997.44
430.958	975.44
431.18	967.44
431.402	986.44
431.624	973.44
431.846	1000.44
432.068	1029.44
432.29	1015.44
432.512	974.44
432.734	1029.44
432.956	993.44
433.178	982.44
433.4	981.44
433.622	1011.44
433.844	1000.44
434.066	1018.44
434.287	1042.44
434.509	1057.44
434.731	1115.44
434.953	1160.44
435.175	1162.44
435.397	1157.44
435.618	1054.44
435.84	1064.44
436.062	1000.44
436.284	991.44
436.505	993.44
436.727	988.44
436.949	1021.44
437.17	1023.44
437.392	993.44
437.614	1009.44
437.835	953.44
438.057	969.44
438.278	948.44
438.5	963.44
438.721	982.44
438.943	985.44
439.165	980.44
439.386	966.44
439.608	983.44
439.829	1022.44
440.05	1004.44
440.272	990.44
440.493	1036.44
440.715	1057.44
440.936	1082.44
441.158	1057.44
441.379	1089.44
441.6	1145.44
441.822	1169.44
442.043	1175.44
442.264	1138.44
442.486	1119.44
442.707	1108.44
442.928	1118.44
443.149	1142.44
443.371	1093.44
443.592	1141.44
443.813	1132.44
444.034	1154.44
444.255	1213.44
444.476	1272.44
444.698	1311.44
444.919	1421.44
445.14	1471.44
445.361	1315.44
445.582	1195.44
445.803	1112.44
446.024	1093.44
446.245	1066.44
446.466	1041.44
446.687	1028.44
446.908	1031.44
447.129	1017.44
447.35	963.44
447.571	971.44
447.792	940.44
448.013	973.44
448.234	959.44
448.455	908.44
448.675	927.44
448.896	930.44
449.117	925.44
449.338	952.44
449.559	927.44
449.779	915.44
450	899.44
450.221	900.44
450.442	964.44
450.662	945.44
450.883	979.44
451.104	947.44
451.324	966.44
451.545	949.44
451.766	914.44
451.986	933.44
452.207	939.44
452.428	955.44
452.648	932.44
452.869	899.44
453.089	909.44
453.31	981.44
453.53	916.44
453.751	942.44
453.971	882.44
454.192	903.44
454.412	876.44
454.633	862.44
454.853	905.44
455.073	905.44
455.294	877.44
455.514	872.44
455.734	853.44
455.955	878.44
456.175	875.44
456.395	867.44
456.616	869.44
456.836	863.44
457.056	865.44
457.276	857.44
457.497	830.44
457.717	862.44
457.937	874.44
458.157	859.44
458.377	919.44
458.598	927.44
458.818	951.44
459.038	955.44
459.258	990.44
459.478	1021.44
459.698	1064.44
459.918	1075.44
460.138	1123.44
460.358	1210.44
460.578	1215.44
460.798	1222.44
461.018	1221.44
461.238	1217.44
461.458	1208.44
461.678	1171.44
461.898	1195.44
462.118	1209.44
462.338	1255.44
462.558	1301.44
462.777	1384.44
462.997	1477.44
463.217	1626.44
463.437	1698.44
463.657	1521.44
463.876	1447.44
464.096	1422.44
464.316	1434.44
464.536	1422.44
464.755	1414.44
464.975	1318.44
465.195	1246.44
465.414	1204.44
465.634	1091.44
465.854	1090.44
466.073	1045.44
466.293	1030.44
466.512	983.44
466.732	1002.44
466.951	967.44
467.171	982.44
467.391	986.44
467.61	959.44
467.829	981.44
468.049	959.44
468.268	928.44
468.488	932.44
468.707	895.44
468.927	938.44
469.146	925.44
469.365	948.44
469.585	947.44
469.804	966.44
470.023	969.44
470.243	996.44
470.462	1016.44
470.681	1024.44
470.901	1060.44
471.12	982.44
471.339	960.44
471.558	985.44
471.777	946.44
471.997	945.44
472.216	933.44
472.435	909.44
472.654	910.44
472.873	912.44
473.092	901.44
473.311	907.44
473.53	899.44
473.749	894.44
473.968	892.44
474.187	909.44
474.406	905.44
474.625	901.44
474.844	900.44
475.063	910.44
475.282	926.44
475.501	948.44
475.72	922.44
475.939	907.44
476.158	954.44
476.377	964.44
476.596	940.44
476.814	949.44
477.033	927.44
477.252	980.44
477.471	976.44
477.69	1001.44
477.908	1049.44
478.127	1065.44
478.346	1067.44
478.564	1089.44
478.783	1117.44
479.002	1172.44
479.22	1137.44
479.439	1143.44
479.658	1125.44
479.876	1124.44
480.095	1150.44
480.313	1198.44
480.532	1249.44
480.751	1257.44
480.969	1187.44
481.188	1151.44
481.406	1066.44
481.624	1064.44
481.843	1061.44
482.061	1067.44
482.28	997.44
482.498	1007.44
482.717	1005.44
482.935	1044.44
483.153	988.44
483.372	996.44
483.59	1057.44
483.808	1049.44
484.027	1011.44
484.245	1043.44
484.463	1019.44
484.681	1066.44
484.9	1051.44
485.118	1065.44
485.336	1066.44
485.554	1078.44
485.772	1081.44
485.99	1124.44
486.209	1098.44
486.427	1097.44
486.645	1131.44
486.863	1095.44
487.081	1100.44
487.299	1071.44
487.517	1066.44
487.735	1063.44
487.953	1087.44
488.171	1113.44
488.389	1074.44
488.607	1056.44
488.825	1064.44
489.043	1037.44
489.261	1040.44
489.479	1058.44
489.696	1038.44
489.914	1082.44
490.132	1070.44
490.35	1083.44
490.568	1065.44
490.786	1063.44
491.003	1061.44
491.221	1067.44
491.439	1083.44
491.657	1084.44
491.874	1105.44
492.092	1105.44
492.31	1090.44
492.527	1099.44
492.745	1114.44
492.963	1093.44
493.18	1115.44
493.398	1114.44
493.615	1134.44
493.833	1141.44
494.05	1117.44
494.268	1139.44
494.485	1171.44
494.703	1146.44
494.92	1160.44
495.138	1132.44
495.355	1145.44
495.573	1151.44
495.79	1179.44
496.008	1163.44
496.225	1149.44
496.442	1131.44
496.66	1170.44
496.877	1198.44
497.094	1208.44
497.312	1249.44
497.529	1265.44
497.746	1301.44
497.963	1324.44
498.181	1355.44
498.398	1465.44
498.615	1516.44
498.832	1635.44
499.049	1763.44
499.267	1972.44
499.484	2097.44
499.701	2347.44
499.918	2566.44
500.135	3007.44
500.352	3557.44
500.569	3752.44
500.786	3748.44
501.003	3485.44
501.22	2974.44
501.437	2625.44
501.654	2235.44
501.871	2043.44
502.088	1836.44
502.305	1756.44
502.522	1665.44
502.739	1562.44
502.956	1471.44
503.172	1457.44
503.389	1405.44
503.606	1351.44
503.823	1356.44
504.04	1326.44
504.256	1303.44
504.473	1350.44
504.69	1442.44
504.907	1416.44
505.123	1309.44
505.34	1189.44
505.557	1168.44
505.773	1154.44
505.99	1100.44
506.207	1057.44
506.423	1059.44
506.64	1092.44
506.856	1065.44
507.073	1009.44
507.289	1023.44
507.506	1038.44
507.722	1021.44
507.939	988.44
508.155	992.44
508.372	985.44
508.588	961.44
508.805	969.44
509.021	978.44
509.238	967.44
509.454	970.44
509.67	926.44
509.887	955.44
510.103	944.44
510.319	925.44
510.536	949.44
510.752	930.44
510.968	928.44
511.184	932.44
511.401	952.44
511.617	947.44
511.833	953.44
512.049	916.44
512.265	911.44
512.481	924.44
512.698	914.44
512.914	915.44
513.13	944.44
513.346	927.44
513.562	916.44
513.778	909.44
513.994	948.44
514.21	965.44
514.426	956.44
514.642	956.44
514.858	966.44
515.074	963.44
515.29	973.44
515.506	966.44
515.721	1012.44
515.937	996.44
516.153	1029.44
516.369	1006.44
516.585	1069.44
516.801	1091.44
517.016	1129.44
517.232	1226.44
517.448	1284.44
517.664	1318.44
517.879	1378.44
518.095	1346.44
518.311	1356.44
518.527	1249.44
518.742	1208.44
518.958	1113.44
519.173	1105.44
519.389	1049.44
519.605	1010.44
519.82	1013.44
520.036	995.44
520.251	976.44
520.467	950.44
520.682	923.44
520.898	955.44
521.113	921.44
521.329	898.44
521.544	915.44
521.76	917.44
521.975	910.44
522.19	881.44
522.406	879.44
522.621	883.44
522.836	882.44
523.052	875.44
523.267	857.44
523.482	860.44
523.698	848.44
523.913	862.44
524.128	871.44
524.343	863.44
524.559	882.44
524.774	878.44
524.989	844.44
525.204	847.44
525.419	886.44
525.634	833.44
525.849	835.44
526.064	845.44
526.28	842.44
526.495	841.44
526.71	832.44
526.925	827.44
527.14	847.44
527.355	834.44
527.57	827.44
527.785	823.44
527.999	837.44
528.214	828.44
528.429	831.44
528.644	835.44
528.859	851.44
529.074	832.44
529.289	849.44
529.503	832.44
529.718	809.44
529.933	844.44
530.148	817.44
530.363	835.44
530.577	828.44
530.792	839.44
531.007	843.44
531.221	832.44
531.436	842.44
531.651	861.44
531.865	866.44
532.08	825.44
532.295	871.44
532.509	858.44
532.724	833.44
532.938	836.44
533.153	869.44
533.367	837.44
533.582	842.44
533.796	828.44
534.011	827.44
534.225	844.44
534.44	840.44
534.654	826.44
534.868	812.44
535.083	850.44
535.297	814.44
535.511	833.44
535.726	829.44
535.94	819.44
536.154	815.44
536.369	803.44
536.583	773.44
536.797	773.44
537.011	779.44
537.225	793.44
537.44	785.44
537.654	808.44
537.868	758.44
538.082	766.44
538.296	760.44
538.51	760.44
538.724	788.44
538.938	755.44
539.153	751.44
539.367	769.44
539.581	769.44
539.795	754.44
540.009	756.44
540.222	756.44
540.436	773.44
540.65	733.44
540.864	746.44
541.078	754.44
541.292	770.44
541.506	765.44
541.72	745.44
541.934	750.44
542.147	759.44
542.361	740.44
542.575	702.44
542.789	763.44
543.002	741.44
543.216	742.44
543.43	714.44
543.644	717.44
543.857	746.44
544.071	729.44
544.285	760.44
544.498	747.44
544.712	737.44
544.925	769.44
545.139	764.44
545.352	779.44
545.566	772.44
545.779	779.44
545.993	764.44
546.206	746.44
546.42	783.44
546.633	786.44
546.847	753.44
547.06	762.44
547.274	727.44
547.487	763.44
547.7	773.44
547.914	755.44
548.127	782.44
548.34	783.44
548.554	770.44
548.767	772.44
548.98	761.44
549.193	763.44
549.407	771.44
549.62	794.44
549.833	801.44
550.046	779.44
550.259	783.44
550.473	770.44
550.686	776.44
550.899	759.44
551.112	742.44
551.325	748.44
551.538	765.44
551.751	745.44
551.964	750.44
552.177	771.44
552.39	775.44
552.603	774.44
552.816	799.44
553.029	817.44
553.242	841.44
553.455	839.44
553.667	859.44
553.88	856.44
554.093	840.44
554.306	787.44
554.519	778.44
554.732	778.44
554.944	758.44
555.157	736.44
555.37	744.44
555.583	702.44
555.795	720.44
556.008	691.44
556.221	679.44
556.433	704.44
556.646	700.44
556.859	673.44
557.071	677.44
557.284	669.44
557.496	635.44
557.709	655.44
557.921	650.44
558.134	648.44
558.346	642.44
558.559	676.44
558.771	641.44
558.984	639.44
559.196	640.44
559.409	627.44
559.621	621.44
559.833	641.44
560.046	645.44
560.258	634.44
560.47	605.44
560.683	625.44
560.895	613.44
561.107	614.44
561.32	630.44
561.532	623.44
561.744	621.44
561.956	643.44
562.168	639.44
562.381	635.44
562.593	623.44
562.805	639.44
563.017	627.44
563.229	631.44
563.441	652.44
563.653	641.44
563.865	645.44
564.077	634.44
564.289	657.44
564.501	682.44
564.713	673.44
564.925	700.44
565.137	699.44
565.349	702.44
565.561	725.44
565.773	753.44
565.985	788.44
566.197	820.44
566.408	865.44
566.62	970.44
566.832	1061.44
567.044	1079.44
567.255	1092.44
567.467	1115.44
567.679	1181.44
567.891	1313.44
568.102	1389.44
568.314	1297.44
568.526	1109.44
568.737	1010.44
568.949	910.44
569.161	842.44
569.372	782.44
569.584	716.44
569.795	724.44
570.007	687.44
570.218	679.44
570.43	687.44
570.641	663.44
570.853	667.44
571.064	699.44
571.276	709.44
571.487	665.44
571.698	645.44
571.91	620.44
572.121	579.44
572.333	567.44
572.544	545.44
572.755	548.44
572.966	559.44
573.178	551.44
573.389	553.44
573.6	533.44
573.811	549.44
574.023	532.44
574.234	511.44
574.445	556.44
574.656	549.44
574.867	523.44
575.078	541.44
575.289	525.44
575.501	534.44
575.712	515.44
575.923	493.44
576.134	513.44
576.345	525.44
576.556	511.44
576.767	501.44
576.978	521.44
577.188	488.44
577.399	481.44
577.61	498.44
577.821	468.44
578.032	490.44
578.243	478.44
578.454	463.44
578.665	462.44
578.875	463.44
579.086	475.44
579.297	455.44
579.508	472.44
579.718	463.44
579.929	462.44
580.14	463.44
580.35	481.44
580.561	450.44
580.772	481.44
580.982	463.44
581.193	458.44
581.403	453.44
581.614	469.44
581.825	460.44
582.035	443.44
582.246	443.44
582.456	462.44
582.667	438.44
582.877	439.44
583.087	435.44
583.298	451.44
583.508	444.44
583.719	443.44
583.929	443.44
584.139	444.44
584.35	438.44
584.56	429.44
584.77	417.44
584.981	433.44
585.191	432.44
585.401	430.44
585.611	429.44
585.821	427.44
586.032	441.44
586.242	431.44
586.452	424.44
586.662	417.44
586.872	436.44
587.082	411.44
587.292	409.44
587.502	406.44
587.713	422.44
587.923	408.44
588.133	437.44
588.343	416.44
588.553	416.44
588.762	423.44
588.972	433.44
589.182	431.44
589.392	438.44
589.602	427.44
589.812	443.44
590.022	423.44
590.232	412.44
590.441	427.44
590.651	433.44
590.861	418.44
591.071	445.44
591.281	443.44
591.49	447.44
591.7	479.44
591.91	471.44
592.119	463.44
592.329	473.44
592.539	462.44
592.748	510.44
592.958	523.44
593.167	530.44
593.377	541.44
593.587	556.44
593.796	558.44
594.006	547.44
594.215	563.44
594.424	567.44
594.634	556.44
594.843	508.44
595.053	474.44
595.262	484.44
595.472	448.44
595.681	465.44
595.89	442.44
596.1	433.44
596.309	415.44
596.518	395.44
596.727	410.44
596.937	397.44
597.146	390.44
597.355	399.44
597.564	369.44
597.774	376.44
597.983	361.44
598.192	385.44
598.401	351.44
598.61	384.44
598.819	373.44
599.028	358.44
599.237	366.44
599.446	363.44
599.655	370.44
599.864	364.44
600.073	357.44
600.282	358.44
600.491	360.44
600.7	377.44
600.909	365.44
601.118	361.44
601.327	364.44
601.536	341.44
601.745	342.44
601.953	357.44
602.162	356.44
602.371	335.44
602.58	352.44
602.789	344.44
602.997	350.44
603.206	343.44
603.415	346.44
603.623	341.44
603.832	330.44
604.041	344.44
604.249	343.44
604.458	353.44
604.666	314.44
604.875	329.44
605.084	346.44
605.292	341.44
605.501	330.44
605.709	344.44
605.918	326.44
606.126	329.44
606.334	323.44
606.543	316.44
606.751	321.44
606.96	329.44
607.168	332.44
607.376	318.44
607.585	321.44
607.793	331.44
608.001	336.44
608.21	322.44
608.418	313.44
608.626	318.44
608.834	336.44
609.043	346.44
609.251	325.44
609.459	305.44
609.667	324.44
609.875	313.44
610.083	326.44
610.291	307.44
610.499	341.44
610.707	300.44
610.916	303.44
611.124	317.44
611.332	324.44
611.54	318.44
611.748	323.44
611.955	324.44
612.163	310.44
612.371	318.44
612.579	302.44
612.787	301.44
612.995	311.44
613.203	303.44
613.411	311.44
613.618	311.44
613.826	310.44
614.034	315.44
614.242	307.44
614.449	308.44
614.657	305.44
614.865	299.44
615.072	309.44
615.28	307.44
615.488	309.44
615.695	307.44
615.903	303.44
616.111	311.44
616.318	322.44
616.526	317.44
616.733	308.44
616.941	298.44
617.148	338.44
617.356	313.44
617.563	312.44
617.771	307.44
617.978	301.44
618.185	301.44
618.393	320.44
618.6	310.44
618.807	312.44
619.015	319.44
619.222	310.44
619.429	311.44
619.637	309.44
619.844	307.44
620.051	310.44
620.258	282.44
620.466	303.44
620.673	282.44
620.88	284.44
621.087	293.44
621.294	289.44
621.501	283.44
621.708	291.44
621.915	281.44
622.122	279.44
622.329	271.44
622.536	260.44
622.743	284.44
622.95	279.44
623.157	270.44
623.364	276.44
623.571	271.44
623.778	271.44
623.985	276.44
624.192	253.44
624.399	278.44
624.606	275.44
624.812	284.44
625.019	265.44
625.226	250.44
625.433	276.44
625.639	269.44
625.846	237.44
626.053	265.44
626.259	263.44
626.466	262.44
626.673	284.44
626.879	257.44
627.086	257.44
627.293	252.44
627.499	263.44
627.706	249.44
627.912	249.44
628.119	263.44
628.325	262.44
628.532	265.44
628.738	280.44
628.945	250.44
629.151	227.44
629.357	250.44
629.564	244.44
629.77	274.44
629.976	244.44
630.183	245.44
630.389	238.44
630.595	232.44
630.802	248.44
631.008	221.44
631.214	231.44
631.42	227.44
631.627	230.44
631.833	227.44
632.039	239.44
632.245	231.44
632.451	249.44
632.657	215.44
632.863	237.44
633.069	232.44
633.275	231.44
633.481	233.44
633.688	216.44
633.893	234.44
634.099	235.44
634.305	238.44
634.511	215.44
634.717	241.44
634.923	217.44
635.129	233.44
635.335	234.44
635.541	219.44
635.747	220.44
635.952	205.44
636.158	217.44
636.364	221.44
636.57	212.44
636.775	219.44
636.981	214.44
637.187	243.44
637.392	231.44
637.598	213.44
637.804	229.44
638.009	225.44
638.215	217.44
638.421	215.44
638.626	232.44
638.832	203.44
639.037	207.44
639.243	205.44
639.448	203.44
639.654	215.44
639.859	202.44
640.065	217.44
640.27	211.44
640.475	195.44
640.681	195.44
640.886	206.44
641.091	211.44
641.297	212.44
641.502	203.44
641.707	198.44
641.913	179.44
642.118	201.44
642.323	195.44
642.528	200.44
642.733	198.44
642.939	212.44
643.144	204.44
643.349	179.44
643.554	195.44
643.759	202.44
643.964	194.44
644.169	190.44
644.374	182.44
644.579	202.44
644.784	193.44
644.989	205.44
645.194	194.44
645.399	199.44
645.604	196.44
645.809	177.44
646.014	197.44
646.219	206.44
646.423	195.44
646.628	193.44
646.833	211.44
647.038	209.44
647.243	213.44
647.447	211.44
647.652	210.44
647.857	215.44
648.062	217.44
648.266	215.44
648.471	220.44
648.676	218.44
648.88	204.44
649.085	205.44
649.289	209.44
649.494	203.44
649.698	193.44
649.903	189.44
650.107	195.44
650.312	190.44
650.516	179.44
650.721	184.44
650.925	173.44
651.13	183.44
651.334	172.44
651.539	163.44
651.743	172.44
651.947	183.44
652.152	155.44
652.356	170.44
652.56	157.44
652.764	168.44
652.969	161.44
653.173	154.44
653.377	164.44
653.581	154.44
653.785	157.44
653.99	133.44
654.194	152.44
654.398	150.44
654.602	139.44
654.806	137.44
655.01	132.44
655.214	140.44
655.418	156.44
655.622	135.44
655.826	148.44
656.03	135.44
656.234	123.44
656.438	129.44
656.642	137.44
656.846	124.44
657.049	130.44
657.253	127.44
657.457	123.44
657.661	125.44
657.865	120.44
658.068	110.44
658.272	121.44
658.476	113.44
658.68	109.44
658.883	115.44
659.087	113.44
659.291	117.44
659.494	115.44
659.698	94.44
659.901	101.44
660.105	99.44
660.309	90.44
660.512	92.44
660.716	106.44
660.919	110.44
661.123	90.44
661.326	97.44
661.53	108.44
661.733	102.44
661.936	73.44
662.14	90.44
662.343	93.44
662.546	100.44
662.75	83.44
662.953	90.44
663.156	100.44
663.36	87.44
663.563	95.44
663.766	70.44
663.969	80.44
664.173	93.44
664.376	97.44
664.579	91.44
664.782	84.44
664.985	84.44
665.188	70.44
665.391	91.44
665.594	69.44
665.797	92.44
666	80.44
666.203	86.44
666.406	76.44
666.609	67.44
666.812	85.44
667.015	85.44
667.218	96.44
667.421	91.44
667.624	81.44
667.827	64.44
668.03	94.44
668.232	89.44
668.435	82.44
668.638	85.44
668.841	87.44
669.043	87.44
669.246	86.44
669.449	100.44
669.651	91.44
669.854	97.44
670.057	91.44
670.259	89.44
670.462	84.44
670.665	75.44
670.867	76.44
671.07	80.44
671.272	73.44
671.475	80.44
671.677	79.44
671.88	75.44
672.082	86.44
672.284	86.44
672.487	73.44
672.689	74.44
672.892	85.44
