Data from Ni(NO3)2@0.125M.TitratingCurve.Agarose3%dH2O.NegLispCup.LampEnergy10.LIBS07252019_HRD10591_18-11-08-568.txt Node
Date: Thu Jul 25 18:11:08 EDT 2019
User: cochatt
Spectrometer: HR+D1059
Trigger mode: 1
Integration Time (sec): 1.000000E-1
Scans to average: 1
Electric dark correction enabled: true
Nonlinearity correction enabled: false
Boxcar width: 0
XAxis mode: Wavelengths
Number of Pixels in Spectrum: 2048
>>>>>Begin Spectral Data<<<<<
223.165	-23.62
223.4	-23.62
223.635	-23.62
223.869	-7.62
224.104	-16.62
224.338	-14.62
224.573	-12.62
224.808	-21.62
225.042	-12.62
225.277	3.38
225.511	6.38
225.746	5.38
225.98	8.38
226.215	8.38
226.449	11.38
226.683	16.38
226.918	18.38
227.152	31.38
227.387	36.38
227.621	40.38
227.856	41.38
228.09	36.38
228.324	46.38
228.559	56.38
228.793	84.38
229.027	87.38
229.262	101.38
229.496	118.38
229.73	102.38
229.964	117.38
230.199	117.38
230.433	120.38
230.667	139.38
230.901	127.38
231.136	126.38
231.37	119.38
231.604	135.38
231.838	139.38
232.072	138.38
232.306	141.38
232.541	133.38
232.775	131.38
233.009	125.38
233.243	133.38
233.477	144.38
233.711	142.38
233.945	127.38
234.179	135.38
234.413	143.38
234.647	130.38
234.881	133.38
235.115	140.38
235.349	146.38
235.583	125.38
235.817	149.38
236.051	150.38
236.285	147.38
236.519	147.38
236.753	147.38
236.987	152.38
237.221	154.38
237.455	127.38
237.689	141.38
237.922	135.38
238.156	149.38
238.39	159.38
238.624	149.38
238.858	155.38
239.091	151.38
239.325	171.38
239.559	164.38
239.793	153.38
240.027	151.38
240.26	157.38
240.494	178.38
240.728	163.38
240.961	164.38
241.195	165.38
241.429	165.38
241.662	159.38
241.896	153.38
242.13	164.38
242.363	173.38
242.597	174.38
242.83	183.38
243.064	189.38
243.298	178.38
243.531	185.38
243.765	182.38
243.998	176.38
244.232	185.38
244.465	184.38
244.699	185.38
244.932	182.38
245.166	189.38
245.399	174.38
245.633	183.38
245.866	202.38
246.099	201.38
246.333	208.38
246.566	189.38
246.8	197.38
247.033	180.38
247.266	205.38
247.5	202.38
247.733	205.38
247.966	212.38
248.2	210.38
248.433	211.38
248.666	198.38
248.899	212.38
249.133	221.38
249.366	218.38
249.599	220.38
249.832	221.38
250.066	225.38
250.299	209.38
250.532	228.38
250.765	227.38
250.998	225.38
251.231	227.38
251.465	210.38
251.698	227.38
251.931	206.38
252.164	231.38
252.397	241.38
252.63	238.38
252.863	242.38
253.096	239.38
253.329	242.38
253.562	223.38
253.795	241.38
254.028	227.38
254.261	238.38
254.494	231.38
254.727	248.38
254.96	245.38
255.193	257.38
255.426	253.38
255.659	236.38
255.892	251.38
256.124	239.38
256.357	265.38
256.59	248.38
256.823	256.38
257.056	239.38
257.289	273.38
257.521	259.38
257.754	257.38
257.987	255.38
258.22	259.38
258.452	259.38
258.685	262.38
258.918	268.38
259.151	267.38
259.383	306.38
259.616	282.38
259.849	269.38
260.081	286.38
260.314	273.38
260.547	262.38
260.779	270.38
261.012	275.38
261.244	264.38
261.477	266.38
261.71	289.38
261.942	261.38
262.175	282.38
262.407	275.38
262.64	285.38
262.872	283.38
263.105	285.38
263.337	307.38
263.57	275.38
263.802	302.38
264.035	303.38
264.267	294.38
264.499	285.38
264.732	303.38
264.964	297.38
265.197	290.38
265.429	279.38
265.661	315.38
265.894	280.38
266.126	301.38
266.358	314.38
266.591	293.38
266.823	313.38
267.055	311.38
267.287	307.38
267.52	300.38
267.752	327.38
267.984	297.38
268.216	331.38
268.448	321.38
268.681	316.38
268.913	312.38
269.145	319.38
269.377	310.38
269.609	323.38
269.841	323.38
270.073	316.38
270.306	331.38
270.538	317.38
270.77	324.38
271.002	326.38
271.234	331.38
271.466	323.38
271.698	323.38
271.93	329.38
272.162	326.38
272.394	317.38
272.626	346.38
272.858	333.38
273.09	340.38
273.322	325.38
273.553	342.38
273.785	339.38
274.017	340.38
274.249	357.38
274.481	353.38
274.713	334.38
274.945	357.38
275.176	347.38
275.408	349.38
275.64	366.38
275.872	365.38
276.104	356.38
276.335	359.38
276.567	363.38
276.799	341.38
277.031	351.38
277.262	364.38
277.494	361.38
277.726	401.38
277.957	374.38
278.189	339.38
278.421	367.38
278.652	392.38
278.884	373.38
279.115	382.38
279.347	393.38
279.579	361.38
279.81	395.38
280.042	397.38
280.273	371.38
280.505	378.38
280.736	378.38
280.968	394.38
281.199	393.38
281.431	372.38
281.662	381.38
281.894	394.38
282.125	385.38
282.356	406.38
282.588	389.38
282.819	405.38
283.051	387.38
283.282	375.38
283.513	414.38
283.745	391.38
283.976	404.38
284.207	410.38
284.439	395.38
284.67	399.38
284.901	425.38
285.132	410.38
285.364	425.38
285.595	396.38
285.826	411.38
286.057	421.38
286.288	417.38
286.52	417.38
286.751	415.38
286.982	439.38
287.213	421.38
287.444	427.38
287.675	415.38
287.906	411.38
288.138	463.38
288.369	430.38
288.6	433.38
288.831	425.38
289.062	424.38
289.293	444.38
289.524	435.38
289.755	442.38
289.986	421.38
290.217	450.38
290.448	444.38
290.679	439.38
290.91	465.38
291.141	435.38
291.371	461.38
291.602	442.38
291.833	453.38
292.064	433.38
292.295	422.38
292.526	441.38
292.757	444.38
292.987	456.38
293.218	441.38
293.449	462.38
293.68	452.38
293.91	441.38
294.141	452.38
294.372	458.38
294.603	481.38
294.833	447.38
295.064	466.38
295.295	439.38
295.525	452.38
295.756	475.38
295.987	456.38
296.217	470.38
296.448	470.38
296.679	460.38
296.909	488.38
297.14	473.38
297.37	486.38
297.601	469.38
297.831	482.38
298.062	485.38
298.292	478.38
298.523	500.38
298.753	518.38
298.984	486.38
299.214	507.38
299.445	481.38
299.675	482.38
299.905	487.38
300.136	501.38
300.366	475.38
300.597	478.38
300.827	492.38
301.057	493.38
301.288	511.38
301.518	512.38
301.748	520.38
301.979	517.38
302.209	521.38
302.439	507.38
302.669	528.38
302.9	485.38
303.13	486.38
303.36	500.38
303.59	501.38
303.82	498.38
304.051	499.38
304.281	506.38
304.511	482.38
304.741	483.38
304.971	503.38
305.201	502.38
305.431	505.38
305.661	499.38
305.891	498.38
306.121	483.38
306.352	489.38
306.582	505.38
306.812	473.38
307.042	506.38
307.272	490.38
307.502	498.38
307.731	488.38
307.961	480.38
308.191	479.38
308.421	483.38
308.651	521.38
308.881	475.38
309.111	494.38
309.341	484.38
309.571	470.38
309.8	498.38
310.03	501.38
310.26	488.38
310.49	473.38
310.72	504.38
310.949	479.38
311.179	499.38
311.409	491.38
311.639	483.38
311.868	493.38
312.098	508.38
312.328	515.38
312.557	510.38
312.787	499.38
313.017	505.38
313.246	516.38
313.476	525.38
313.706	517.38
313.935	509.38
314.165	516.38
314.394	521.38
314.624	532.38
314.853	524.38
315.083	509.38
315.312	537.38
315.542	501.38
315.771	516.38
316.001	515.38
316.23	526.38
316.46	499.38
316.689	510.38
316.919	506.38
317.148	522.38
317.377	494.38
317.607	511.38
317.836	493.38
318.065	511.38
318.295	524.38
318.524	499.38
318.753	514.38
318.983	506.38
319.212	507.38
319.441	509.38
319.67	529.38
319.9	527.38
320.129	533.38
320.358	495.38
320.587	525.38
320.816	501.38
321.046	508.38
321.275	498.38
321.504	513.38
321.733	514.38
321.962	534.38
322.191	538.38
322.42	542.38
322.649	535.38
322.878	549.38
323.108	525.38
323.337	513.38
323.566	525.38
323.795	519.38
324.024	518.38
324.253	535.38
324.482	541.38
324.71	519.38
324.939	532.38
325.168	533.38
325.397	550.38
325.626	560.38
325.855	567.38
326.084	566.38
326.313	583.38
326.542	559.38
326.77	556.38
326.999	574.38
327.228	541.38
327.457	571.38
327.686	586.38
327.914	580.38
328.143	584.38
328.372	562.38
328.6	551.38
328.829	583.38
329.058	580.38
329.287	589.38
329.515	574.38
329.744	569.38
329.972	574.38
330.201	569.38
330.43	563.38
330.658	603.38
330.887	586.38
331.115	564.38
331.344	582.38
331.572	584.38
331.801	617.38
332.03	619.38
332.258	632.38
332.486	651.38
332.715	689.38
332.943	744.38
333.172	747.38
333.4	759.38
333.629	791.38
333.857	784.38
334.085	780.38
334.314	744.38
334.542	755.38
334.771	746.38
334.999	726.38
335.227	731.38
335.455	702.38
335.684	703.38
335.912	733.38
336.14	689.38
336.369	711.38
336.597	693.38
336.825	687.38
337.053	692.38
337.281	679.38
337.51	667.38
337.738	640.38
337.966	651.38
338.194	633.38
338.422	609.38
338.65	605.38
338.878	604.38
339.106	600.38
339.334	650.38
339.562	620.38
339.79	614.38
340.018	601.38
340.246	590.38
340.474	587.38
340.702	577.38
340.93	599.38
341.158	616.38
341.386	597.38
341.614	606.38
341.842	557.38
342.07	584.38
342.298	580.38
342.526	589.38
342.754	588.38
342.981	617.38
343.209	606.38
343.437	628.38
343.665	666.38
343.893	719.38
344.12	773.38
344.348	707.38
344.576	689.38
344.804	645.38
345.031	617.38
345.259	613.38
345.487	607.38
345.714	599.38
345.942	595.38
346.17	585.38
346.397	576.38
346.625	584.38
346.853	585.38
347.08	585.38
347.308	586.38
347.535	597.38
347.763	583.38
347.99	588.38
348.218	589.38
348.445	589.38
348.673	579.38
348.9	585.38
349.128	597.38
349.355	564.38
349.583	578.38
349.81	548.38
350.037	551.38
350.265	555.38
350.492	555.38
350.72	577.38
350.947	547.38
351.174	544.38
351.402	554.38
351.629	565.38
351.856	569.38
352.083	540.38
352.311	547.38
352.538	559.38
352.765	536.38
352.992	554.38
353.22	549.38
353.447	548.38
353.674	566.38
353.901	569.38
354.128	553.38
354.355	565.38
354.583	554.38
354.81	577.38
355.037	561.38
355.264	569.38
355.491	570.38
355.718	551.38
355.945	533.38
356.172	572.38
356.399	548.38
356.626	561.38
356.853	565.38
357.08	561.38
357.307	547.38
357.534	559.38
357.761	546.38
357.988	551.38
358.215	552.38
358.441	539.38
358.668	538.38
358.895	553.38
359.122	569.38
359.349	563.38
359.576	580.38
359.802	561.38
360.029	542.38
360.256	556.38
360.483	547.38
360.709	576.38
360.936	556.38
361.163	561.38
361.39	581.38
361.616	543.38
361.843	562.38
362.07	568.38
362.296	552.38
362.523	539.38
362.749	530.38
362.976	546.38
363.203	558.38
363.429	572.38
363.656	529.38
363.882	544.38
364.109	539.38
364.335	541.38
364.562	545.38
364.788	557.38
365.015	543.38
365.241	541.38
365.468	569.38
365.694	528.38
365.92	537.38
366.147	587.38
366.373	549.38
366.599	540.38
366.826	557.38
367.052	581.38
367.278	553.38
367.505	545.38
367.731	555.38
367.957	558.38
368.184	554.38
368.41	556.38
368.636	576.38
368.862	577.38
369.089	578.38
369.315	588.38
369.541	573.38
369.767	586.38
369.993	582.38
370.219	592.38
370.445	594.38
370.672	588.38
370.898	610.38
371.124	579.38
371.35	598.38
371.576	631.38
371.802	616.38
372.028	602.38
372.254	597.38
372.48	609.38
372.706	628.38
372.932	614.38
373.158	632.38
373.384	595.38
373.61	612.38
373.835	581.38
374.061	577.38
374.287	626.38
374.513	618.38
374.739	653.38
374.965	683.38
375.191	692.38
375.416	653.38
375.642	665.38
375.868	654.38
376.094	616.38
376.319	619.38
376.545	618.38
376.771	633.38
376.997	623.38
377.222	618.38
377.448	609.38
377.674	598.38
377.899	597.38
378.125	589.38
378.35	609.38
378.576	598.38
378.802	578.38
379.027	597.38
379.253	606.38
379.478	606.38
379.704	583.38
379.929	618.38
380.155	593.38
380.38	608.38
380.606	606.38
380.831	594.38
381.057	613.38
381.282	607.38
381.507	591.38
381.733	615.38
381.958	626.38
382.184	621.38
382.409	620.38
382.634	635.38
382.86	630.38
383.085	648.38
383.31	642.38
383.535	654.38
383.761	664.38
383.986	678.38
384.211	685.38
384.436	710.38
384.662	711.38
384.887	717.38
385.112	744.38
385.337	739.38
385.562	746.38
385.787	741.38
386.013	777.38
386.238	727.38
386.463	727.38
386.688	724.38
386.913	739.38
387.138	702.38
387.363	740.38
387.588	718.38
387.813	735.38
388.038	722.38
388.263	711.38
388.488	723.38
388.713	729.38
388.938	717.38
389.163	706.38
389.387	715.38
389.612	700.38
389.837	722.38
390.062	710.38
390.287	714.38
390.512	700.38
390.736	724.38
390.961	735.38
391.186	761.38
391.411	771.38
391.636	803.38
391.86	813.38
392.085	826.38
392.31	819.38
392.534	803.38
392.759	779.38
392.984	758.38
393.208	765.38
393.433	812.38
393.658	770.38
393.882	779.38
394.107	798.38
394.331	789.38
394.556	772.38
394.78	786.38
395.005	767.38
395.229	784.38
395.454	797.38
395.678	843.38
395.903	821.38
396.127	792.38
396.352	766.38
396.576	771.38
396.801	782.38
397.025	770.38
397.249	791.38
397.474	821.38
397.698	797.38
397.922	810.38
398.147	804.38
398.371	798.38
398.595	846.38
398.82	884.38
399.044	942.38
399.268	1009.38
399.492	1208.38
399.717	1443.38
399.941	1455.38
400.165	1230.38
400.389	1089.38
400.613	996.38
400.837	936.38
401.062	949.38
401.286	918.38
401.51	905.38
401.734	915.38
401.958	928.38
402.182	922.38
402.406	911.38
402.63	955.38
402.854	977.38
403.078	994.38
403.302	1030.38
403.526	1058.38
403.75	1053.38
403.974	1076.38
404.198	1083.38
404.422	1105.38
404.645	1082.38
404.869	1059.38
405.093	1061.38
405.317	1029.38
405.541	1034.38
405.765	1026.38
405.988	1014.38
406.212	987.38
406.436	1018.38
406.66	1046.38
406.883	1021.38
407.107	1083.38
407.331	1180.38
407.555	1182.38
407.778	1185.38
408.002	1199.38
408.226	1147.38
408.449	1078.38
408.673	1055.38
408.896	1039.38
409.12	1029.38
409.344	1062.38
409.567	1078.38
409.791	1066.38
410.014	1068.38
410.238	1046.38
410.461	1035.38
410.685	1049.38
410.908	1000.38
411.132	979.38
411.355	934.38
411.578	983.38
411.802	955.38
412.025	961.38
412.249	998.38
412.472	961.38
412.695	929.38
412.919	937.38
413.142	924.38
413.365	908.38
413.589	948.38
413.812	911.38
414.035	879.38
414.258	895.38
414.482	912.38
414.705	917.38
414.928	928.38
415.151	948.38
415.374	913.38
415.597	918.38
415.821	908.38
416.044	902.38
416.267	902.38
416.49	899.38
416.713	903.38
416.936	894.38
417.159	885.38
417.382	937.38
417.605	895.38
417.828	909.38
418.051	921.38
418.274	940.38
418.497	883.38
418.72	931.38
418.943	944.38
419.166	1011.38
419.389	1085.38
419.611	1023.38
419.834	982.38
420.057	961.38
420.28	918.38
420.503	914.38
420.726	886.38
420.948	925.38
421.171	940.38
421.394	922.38
421.617	895.38
421.839	917.38
422.062	929.38
422.285	904.38
422.507	942.38
422.73	919.38
422.953	921.38
423.175	954.38
423.398	980.38
423.621	980.38
423.843	984.38
424.066	988.38
424.288	1011.38
424.511	963.38
424.733	982.38
424.956	939.38
425.178	924.38
425.401	931.38
425.623	921.38
425.846	876.38
426.068	876.38
426.291	876.38
426.513	877.38
426.735	843.38
426.958	859.38
427.18	860.38
427.402	847.38
427.625	859.38
427.847	811.38
428.069	819.38
428.292	848.38
428.514	787.38
428.736	817.38
428.958	812.38
429.181	798.38
429.403	770.38
429.625	797.38
429.847	807.38
430.069	808.38
430.292	769.38
430.514	805.38
430.736	796.38
430.958	797.38
431.18	775.38
431.402	789.38
431.624	801.38
431.846	844.38
432.068	853.38
432.29	843.38
432.512	799.38
432.734	805.38
432.956	819.38
433.178	833.38
433.4	825.38
433.622	848.38
433.844	854.38
434.066	811.38
434.287	812.38
434.509	838.38
434.731	891.38
434.953	919.38
435.175	929.38
435.397	939.38
435.618	865.38
435.84	848.38
436.062	816.38
436.284	846.38
436.505	829.38
436.727	801.38
436.949	820.38
437.17	823.38
437.392	813.38
437.614	801.38
437.835	796.38
438.057	794.38
438.278	747.38
438.5	784.38
438.721	791.38
438.943	794.38
439.165	797.38
439.386	801.38
439.608	805.38
439.829	796.38
440.05	819.38
440.272	827.38
440.493	833.38
440.715	858.38
440.936	854.38
441.158	858.38
441.379	893.38
441.6	946.38
441.822	970.38
442.043	935.38
442.264	918.38
442.486	888.38
442.707	910.38
442.928	893.38
443.149	911.38
443.371	928.38
443.592	915.38
443.813	953.38
444.034	942.38
444.255	997.38
444.476	994.38
444.698	1087.38
444.919	1145.38
445.14	1212.38
445.361	1067.38
445.582	957.38
445.803	923.38
446.024	905.38
446.245	875.38
446.466	853.38
446.687	811.38
446.908	836.38
447.129	813.38
447.35	785.38
447.571	787.38
447.792	800.38
448.013	781.38
448.234	763.38
448.455	789.38
448.675	731.38
448.896	757.38
449.117	740.38
449.338	732.38
449.559	755.38
449.779	759.38
450	771.38
450.221	764.38
450.442	756.38
450.662	774.38
450.883	777.38
451.104	789.38
451.324	797.38
451.545	771.38
451.766	775.38
451.986	772.38
452.207	776.38
452.428	786.38
452.648	769.38
452.869	761.38
453.089	789.38
453.31	740.38
453.53	737.38
453.751	749.38
453.971	728.38
454.192	715.38
454.412	703.38
454.633	725.38
454.853	705.38
455.073	726.38
455.294	714.38
455.514	702.38
455.734	716.38
455.955	657.38
456.175	727.38
456.395	723.38
456.616	716.38
456.836	717.38
457.056	729.38
457.276	692.38
457.497	709.38
457.717	706.38
457.937	698.38
458.157	699.38
458.377	728.38
458.598	716.38
458.818	768.38
459.038	755.38
459.258	795.38
459.478	817.38
459.698	850.38
459.918	873.38
460.138	904.38
460.358	947.38
460.578	977.38
460.798	967.38
461.018	988.38
461.238	983.38
461.458	946.38
461.678	969.38
461.898	965.38
462.118	990.38
462.338	1025.38
462.558	1078.38
462.777	1114.38
462.997	1210.38
463.217	1328.38
463.437	1375.38
463.657	1220.38
463.876	1169.38
464.096	1161.38
464.316	1134.38
464.536	1182.38
464.755	1090.38
464.975	1079.38
465.195	1015.38
465.414	967.38
465.634	897.38
465.854	877.38
466.073	840.38
466.293	853.38
466.512	814.38
466.732	781.38
466.951	799.38
467.171	811.38
467.391	792.38
467.61	811.38
467.829	814.38
468.049	804.38
468.268	755.38
468.488	732.38
468.707	766.38
468.927	738.38
469.146	757.38
469.365	770.38
469.585	766.38
469.804	768.38
470.023	827.38
470.243	823.38
470.462	814.38
470.681	819.38
470.901	834.38
471.12	821.38
471.339	792.38
471.558	793.38
471.777	781.38
471.997	749.38
472.216	772.38
472.435	771.38
472.654	759.38
472.873	733.38
473.092	725.38
473.311	729.38
473.53	752.38
473.749	747.38
473.968	741.38
474.187	714.38
474.406	736.38
474.625	733.38
474.844	753.38
475.063	730.38
475.282	742.38
475.501	742.38
475.72	742.38
475.939	761.38
476.158	767.38
476.377	745.38
476.596	756.38
476.814	753.38
477.033	751.38
477.252	775.38
477.471	810.38
477.69	799.38
477.908	847.38
478.127	873.38
478.346	884.38
478.564	881.38
478.783	909.38
479.002	924.38
479.22	915.38
479.439	937.38
479.658	920.38
479.876	912.38
480.095	920.38
480.313	939.38
480.532	1002.38
480.751	994.38
480.969	953.38
481.188	898.38
481.406	906.38
481.624	883.38
481.843	889.38
482.061	845.38
482.28	838.38
482.498	845.38
482.717	815.38
482.935	828.38
483.153	838.38
483.372	825.38
483.59	830.38
483.808	809.38
484.027	835.38
484.245	853.38
484.463	853.38
484.681	890.38
484.9	883.38
485.118	877.38
485.336	883.38
485.554	882.38
485.772	883.38
485.99	897.38
486.209	903.38
486.427	892.38
486.645	912.38
486.863	883.38
487.081	906.38
487.299	871.38
487.517	911.38
487.735	875.38
487.953	913.38
488.171	865.38
488.389	889.38
488.607	860.38
488.825	872.38
489.043	857.38
489.261	869.38
489.479	876.38
489.696	869.38
489.914	892.38
490.132	881.38
490.35	862.38
490.568	871.38
490.786	909.38
491.003	878.38
491.221	868.38
491.439	863.38
491.657	904.38
491.874	903.38
492.092	894.38
492.31	899.38
492.527	911.38
492.745	893.38
492.963	927.38
493.18	909.38
493.398	894.38
493.615	911.38
493.833	934.38
494.05	919.38
494.268	926.38
494.485	941.38
494.703	912.38
494.92	941.38
495.138	938.38
495.355	924.38
495.573	922.38
495.79	932.38
496.008	929.38
496.225	956.38
496.442	966.38
496.66	930.38
496.877	974.38
497.094	990.38
497.312	1004.38
497.529	1009.38
497.746	1037.38
497.963	1067.38
498.181	1114.38
498.398	1182.38
498.615	1250.38
498.832	1354.38
499.049	1409.38
499.267	1549.38
499.484	1725.38
499.701	1911.38
499.918	2091.38
500.135	2445.38
500.352	2842.38
500.569	3041.38
500.786	3016.38
501.003	2743.38
501.22	2428.38
501.437	2150.38
501.654	1846.38
501.871	1629.38
502.088	1510.38
502.305	1381.38
502.522	1358.38
502.739	1282.38
502.956	1224.38
503.172	1157.38
503.389	1092.38
503.606	1074.38
503.823	1041.38
504.04	1065.38
504.256	1058.38
504.473	1084.38
504.69	1141.38
504.907	1143.38
505.123	1036.38
505.34	963.38
505.557	919.38
505.773	903.38
505.99	868.38
506.207	854.38
506.423	875.38
506.64	831.38
506.856	839.38
507.073	827.38
507.289	836.38
507.506	838.38
507.722	821.38
507.939	810.38
508.155	801.38
508.372	798.38
508.588	788.38
508.805	796.38
509.021	793.38
509.238	776.38
509.454	757.38
509.67	773.38
509.887	755.38
510.103	791.38
510.319	760.38
510.536	764.38
510.752	763.38
510.968	761.38
511.184	747.38
511.401	777.38
511.617	748.38
511.833	775.38
512.049	761.38
512.265	747.38
512.481	755.38
512.698	738.38
512.914	758.38
513.13	783.38
513.346	763.38
513.562	756.38
513.778	737.38
513.994	734.38
514.21	769.38
514.426	767.38
514.642	758.38
514.858	773.38
515.074	769.38
515.29	781.38
515.506	782.38
515.721	781.38
515.937	803.38
516.153	823.38
516.369	833.38
516.585	860.38
516.801	914.38
517.016	917.38
517.232	992.38
517.448	1030.38
517.664	1064.38
517.879	1083.38
518.095	1099.38
518.311	1046.38
518.527	987.38
518.742	979.38
518.958	927.38
519.173	895.38
519.389	873.38
519.605	822.38
519.82	804.38
520.036	804.38
520.251	778.38
520.467	792.38
520.682	781.38
520.898	757.38
521.113	744.38
521.329	770.38
521.544	745.38
521.76	729.38
521.975	717.38
522.19	732.38
522.406	709.38
522.621	698.38
522.836	713.38
523.052	729.38
523.267	702.38
523.482	719.38
523.698	709.38
523.913	697.38
524.128	689.38
524.343	724.38
524.559	703.38
524.774	731.38
524.989	699.38
525.204	694.38
525.419	686.38
525.634	689.38
525.849	695.38
526.064	693.38
526.28	700.38
526.495	675.38
526.71	677.38
526.925	683.38
527.14	684.38
527.355	669.38
527.57	693.38
527.785	666.38
527.999	682.38
528.214	698.38
528.429	716.38
528.644	704.38
528.859	695.38
529.074	689.38
529.289	699.38
529.503	690.38
529.718	706.38
529.933	714.38
530.148	681.38
530.363	671.38
530.577	679.38
530.792	669.38
531.007	699.38
531.221	707.38
531.436	699.38
531.651	722.38
531.865	681.38
532.08	693.38
532.295	683.38
532.509	689.38
532.724	672.38
532.938	701.38
533.153	679.38
533.367	704.38
533.582	682.38
533.796	715.38
534.011	702.38
534.225	693.38
534.44	676.38
534.654	675.38
534.868	662.38
535.083	695.38
535.297	675.38
535.511	685.38
535.726	685.38
535.94	645.38
536.154	651.38
536.369	643.38
536.583	653.38
536.797	654.38
537.011	672.38
537.225	638.38
537.44	637.38
537.654	638.38
537.868	646.38
538.082	615.38
538.296	635.38
538.51	637.38
538.724	620.38
538.938	618.38
539.153	659.38
539.367	651.38
539.581	626.38
539.795	639.38
540.009	617.38
540.222	610.38
540.436	618.38
540.65	611.38
540.864	610.38
541.078	613.38
541.292	622.38
541.506	625.38
541.72	614.38
541.934	635.38
542.147	620.38
542.361	629.38
542.575	611.38
542.789	599.38
543.002	585.38
543.216	607.38
543.43	589.38
543.644	610.38
543.857	601.38
544.071	613.38
544.285	632.38
544.498	613.38
544.712	633.38
544.925	622.38
545.139	619.38
545.352	635.38
545.566	645.38
545.779	625.38
545.993	638.38
546.206	648.38
546.42	631.38
546.633	635.38
546.847	630.38
547.06	614.38
547.274	629.38
547.487	643.38
547.7	653.38
547.914	638.38
548.127	657.38
548.34	657.38
548.554	615.38
548.767	619.38
548.98	648.38
549.193	647.38
549.407	633.38
549.62	639.38
549.833	659.38
550.046	638.38
550.259	653.38
550.473	612.38
550.686	645.38
550.899	613.38
551.112	615.38
551.325	615.38
551.538	609.38
551.751	598.38
551.964	632.38
552.177	646.38
552.39	637.38
552.603	647.38
552.816	665.38
553.029	682.38
553.242	710.38
553.455	687.38
553.667	709.38
553.88	700.38
554.093	674.38
554.306	649.38
554.519	669.38
554.732	635.38
554.944	623.38
555.157	593.38
555.37	581.38
555.583	601.38
555.795	581.38
556.008	585.38
556.221	577.38
556.433	561.38
556.646	552.38
556.859	540.38
557.071	562.38
557.284	561.38
557.496	569.38
557.709	546.38
557.921	556.38
558.134	561.38
558.346	563.38
558.559	533.38
558.771	552.38
558.984	539.38
559.196	541.38
559.409	544.38
559.621	532.38
559.833	546.38
560.046	515.38
560.258	534.38
560.47	508.38
560.683	530.38
560.895	525.38
561.107	531.38
561.32	515.38
561.532	542.38
561.744	522.38
561.956	534.38
562.168	510.38
562.381	500.38
562.593	525.38
562.805	513.38
563.017	530.38
563.229	521.38
563.441	563.38
563.653	543.38
563.865	547.38
564.077	539.38
564.289	556.38
564.501	527.38
564.713	550.38
564.925	582.38
565.137	569.38
565.349	570.38
565.561	608.38
565.773	606.38
565.985	641.38
566.197	691.38
566.408	729.38
566.62	789.38
566.832	873.38
567.044	877.38
567.255	902.38
567.467	878.38
567.679	947.38
567.891	1009.38
568.102	1085.38
568.314	1001.38
568.526	888.38
568.737	819.38
568.949	741.38
569.161	687.38
569.372	625.38
569.584	600.38
569.795	571.38
570.007	549.38
570.218	583.38
570.43	519.38
570.641	525.38
570.853	532.38
571.064	537.38
571.276	548.38
571.487	548.38
571.698	524.38
571.91	501.38
572.121	471.38
572.333	470.38
572.544	454.38
572.755	461.38
572.966	459.38
573.178	469.38
573.389	447.38
573.6	465.38
573.811	438.38
574.023	437.38
574.234	435.38
574.445	444.38
574.656	436.38
574.867	453.38
575.078	454.38
575.289	460.38
575.501	441.38
575.712	436.38
575.923	424.38
576.134	428.38
576.345	407.38
576.556	439.38
576.767	431.38
576.978	412.38
577.188	421.38
577.399	419.38
577.61	378.38
577.821	414.38
578.032	400.38
578.243	386.38
578.454	404.38
578.665	391.38
578.875	390.38
579.086	356.38
579.297	370.38
579.508	412.38
579.718	387.38
579.929	393.38
580.14	374.38
580.35	374.38
580.561	378.38
580.772	399.38
580.982	380.38
581.193	361.38
581.403	381.38
581.614	377.38
581.825	382.38
582.035	366.38
582.246	380.38
582.456	363.38
582.667	369.38
582.877	379.38
583.087	371.38
583.298	375.38
583.508	385.38
583.719	371.38
583.929	363.38
584.139	377.38
584.35	372.38
584.56	369.38
584.77	374.38
584.981	351.38
585.191	356.38
585.401	373.38
585.611	360.38
585.821	357.38
586.032	366.38
586.242	337.38
586.452	353.38
586.662	356.38
586.872	358.38
587.082	346.38
587.292	357.38
587.502	358.38
587.713	357.38
587.923	350.38
588.133	360.38
588.343	358.38
588.553	358.38
588.762	361.38
588.972	347.38
589.182	345.38
589.392	332.38
589.602	353.38
589.812	373.38
590.022	342.38
590.232	364.38
590.441	374.38
590.651	362.38
590.861	363.38
591.071	358.38
591.281	356.38
591.49	370.38
591.7	383.38
591.91	387.38
592.119	365.38
592.329	394.38
592.539	408.38
592.748	413.38
592.958	434.38
593.167	443.38
593.377	456.38
593.587	470.38
593.796	441.38
594.006	442.38
594.215	469.38
594.424	503.38
594.634	467.38
594.843	426.38
595.053	428.38
595.262	409.38
595.472	394.38
595.681	372.38
595.89	372.38
596.1	361.38
596.309	350.38
596.518	350.38
596.727	316.38
596.937	351.38
597.146	335.38
597.355	349.38
597.564	334.38
597.774	330.38
597.983	321.38
598.192	319.38
598.401	297.38
598.61	327.38
598.819	323.38
599.028	316.38
599.237	317.38
599.446	313.38
599.655	307.38
599.864	322.38
600.073	325.38
600.282	295.38
600.491	271.38
600.7	291.38
600.909	285.38
601.118	318.38
601.327	319.38
601.536	297.38
601.745	283.38
601.953	306.38
602.162	290.38
602.371	270.38
602.58	285.38
602.789	296.38
602.997	305.38
603.206	289.38
603.415	284.38
603.623	278.38
603.832	296.38
604.041	279.38
604.249	293.38
604.458	295.38
604.666	292.38
604.875	279.38
605.084	283.38
605.292	290.38
605.501	295.38
605.709	277.38
605.918	282.38
606.126	271.38
606.334	261.38
606.543	283.38
606.751	282.38
606.96	284.38
607.168	270.38
607.376	287.38
607.585	260.38
607.793	265.38
608.001	270.38
608.21	273.38
608.418	297.38
608.626	266.38
608.834	277.38
609.043	275.38
609.251	279.38
609.459	268.38
609.667	295.38
609.875	262.38
610.083	252.38
610.291	269.38
610.499	274.38
610.707	277.38
610.916	263.38
611.124	268.38
611.332	254.38
611.54	274.38
611.748	253.38
611.955	277.38
612.163	277.38
612.371	272.38
612.579	249.38
612.787	272.38
612.995	283.38
613.203	278.38
613.411	265.38
613.618	257.38
613.826	250.38
614.034	269.38
614.242	273.38
614.449	254.38
614.657	256.38
614.865	263.38
615.072	263.38
615.28	261.38
615.488	260.38
615.695	255.38
615.903	270.38
616.111	279.38
616.318	307.38
616.526	272.38
616.733	283.38
616.941	281.38
617.148	273.38
617.356	265.38
617.563	287.38
617.771	271.38
617.978	279.38
618.185	275.38
618.393	279.38
618.6	251.38
618.807	231.38
619.015	253.38
619.222	262.38
619.429	259.38
619.637	271.38
619.844	263.38
620.051	266.38
620.258	247.38
620.466	232.38
620.673	248.38
620.88	237.38
621.087	243.38
621.294	245.38
621.501	257.38
621.708	237.38
621.915	241.38
622.122	231.38
622.329	220.38
622.536	231.38
622.743	241.38
622.95	245.38
623.157	251.38
623.364	246.38
623.571	235.38
623.778	237.38
623.985	238.38
624.192	231.38
624.399	237.38
624.606	235.38
624.812	229.38
625.019	231.38
625.226	246.38
625.433	233.38
625.639	230.38
625.846	219.38
626.053	215.38
626.259	222.38
626.466	228.38
626.673	223.38
626.879	230.38
627.086	216.38
627.293	221.38
627.499	214.38
627.706	220.38
627.912	235.38
628.119	216.38
628.325	206.38
628.532	202.38
628.738	230.38
628.945	231.38
629.151	222.38
629.357	213.38
629.564	213.38
629.77	205.38
629.976	211.38
630.183	202.38
630.389	205.38
630.595	208.38
630.802	212.38
631.008	206.38
631.214	201.38
631.42	206.38
631.627	197.38
631.833	207.38
632.039	206.38
632.245	193.38
632.451	199.38
632.657	190.38
632.863	213.38
633.069	198.38
633.275	204.38
633.481	188.38
633.688	201.38
633.893	201.38
634.099	217.38
634.305	194.38
634.511	178.38
634.717	190.38
634.923	199.38
635.129	185.38
635.335	194.38
635.541	194.38
635.747	185.38
635.952	181.38
636.158	192.38
636.364	193.38
636.57	190.38
636.775	186.38
636.981	196.38
637.187	199.38
637.392	199.38
637.598	187.38
637.804	172.38
638.009	171.38
638.215	193.38
638.421	191.38
638.626	187.38
638.832	173.38
639.037	182.38
639.243	172.38
639.448	185.38
639.654	185.38
639.859	177.38
640.065	171.38
640.27	182.38
640.475	174.38
640.681	185.38
640.886	168.38
641.091	178.38
641.297	190.38
641.502	180.38
641.707	177.38
641.913	179.38
642.118	181.38
642.323	167.38
642.528	159.38
642.733	189.38
642.939	175.38
643.144	189.38
643.349	161.38
643.554	157.38
643.759	184.38
643.964	171.38
644.169	162.38
644.374	186.38
644.579	189.38
644.784	181.38
644.989	182.38
645.194	171.38
645.399	179.38
645.604	168.38
645.809	177.38
646.014	169.38
646.219	174.38
646.423	152.38
646.628	166.38
646.833	172.38
647.038	171.38
647.243	178.38
647.447	177.38
647.652	186.38
647.857	167.38
648.062	184.38
648.266	185.38
648.471	194.38
648.676	189.38
648.88	187.38
649.085	179.38
649.289	173.38
649.494	185.38
649.698	174.38
649.903	158.38
650.107	158.38
650.312	170.38
650.516	158.38
650.721	146.38
650.925	157.38
651.13	168.38
651.334	168.38
651.539	156.38
651.743	148.38
651.947	153.38
652.152	137.38
652.356	150.38
652.56	153.38
652.764	141.38
652.969	142.38
653.173	133.38
653.377	138.38
653.581	143.38
653.785	141.38
653.99	143.38
654.194	132.38
654.398	144.38
654.602	132.38
654.806	147.38
655.01	125.38
655.214	125.38
655.418	126.38
655.622	124.38
655.826	114.38
656.03	140.38
656.234	138.38
656.438	124.38
656.642	127.38
656.846	131.38
657.049	122.38
657.253	133.38
657.457	112.38
657.661	103.38
657.865	110.38
658.068	120.38
658.272	103.38
658.476	94.38
658.68	106.38
658.883	93.38
659.087	112.38
659.291	94.38
659.494	104.38
659.698	96.38
659.901	103.38
660.105	98.38
660.309	95.38
660.512	93.38
660.716	101.38
660.919	95.38
661.123	99.38
661.326	75.38
661.53	97.38
661.733	76.38
661.936	81.38
662.14	85.38
662.343	98.38
662.546	80.38
662.75	88.38
662.953	76.38
663.156	81.38
663.36	73.38
663.563	90.38
663.766	90.38
663.969	78.38
664.173	73.38
664.376	59.38
664.579	74.38
664.782	85.38
664.985	75.38
665.188	77.38
665.391	75.38
665.594	64.38
665.797	80.38
666	74.38
666.203	83.38
666.406	85.38
666.609	78.38
666.812	90.38
667.015	85.38
667.218	81.38
667.421	92.38
667.624	68.38
667.827	91.38
668.03	91.38
668.232	86.38
668.435	78.38
668.638	78.38
668.841	86.38
669.043	87.38
669.246	77.38
669.449	65.38
669.651	84.38
669.854	76.38
670.057	76.38
670.259	90.38
670.462	83.38
670.665	81.38
670.867	86.38
671.07	73.38
671.272	91.38
671.475	80.38
671.677	75.38
671.88	86.38
672.082	84.38
672.284	85.38
672.487	77.38
672.689	85.38
672.892	92.38
