Data from Ni(NO3)2Standard.Agarose3%.GreenCap.LampEnergy5.5.E.O_HRD10591_14-40-08-188.txt Node
Date: Mon Jul 22 14:40:08 EDT 2019
User: cochatt
Spectrometer: HR+D1059
Trigger mode: 1
Integration Time (sec): 1.000000E-1
Scans to average: 1
Electric dark correction enabled: true
Nonlinearity correction enabled: false
Boxcar width: 0
XAxis mode: Wavelengths
Number of Pixels in Spectrum: 2048
>>>>>Begin Spectral Data<<<<<
223.165	-18.62
223.4	-18.62
223.635	-18.62
223.869	-27.62
224.104	-7.62
224.338	-13.62
224.573	-35.62
224.808	-14.62
225.042	1.38
225.277	-1.62
225.511	3.38
225.746	7.38
225.98	6.38
226.215	-8.62
226.449	32.38
226.683	21.38
226.918	20.38
227.152	35.38
227.387	34.38
227.621	39.38
227.856	40.38
228.09	47.38
228.324	39.38
228.559	81.38
228.793	59.38
229.027	66.38
229.262	66.38
229.496	70.38
229.73	55.38
229.964	73.38
230.199	61.38
230.433	53.38
230.667	60.38
230.901	59.38
231.136	76.38
231.37	71.38
231.604	73.38
231.838	72.38
232.072	83.38
232.306	83.38
232.541	87.38
232.775	81.38
233.009	89.38
233.243	69.38
233.477	70.38
233.711	76.38
233.945	88.38
234.179	89.38
234.413	83.38
234.647	60.38
234.881	63.38
235.115	72.38
235.349	75.38
235.583	86.38
235.817	65.38
236.051	69.38
236.285	96.38
236.519	89.38
236.753	78.38
236.987	85.38
237.221	79.38
237.455	66.38
237.689	72.38
237.922	75.38
238.156	74.38
238.39	60.38
238.624	81.38
238.858	81.38
239.091	80.38
239.325	79.38
239.559	74.38
239.793	73.38
240.027	79.38
240.26	81.38
240.494	84.38
240.728	61.38
240.961	58.38
241.195	81.38
241.429	88.38
241.662	87.38
241.896	81.38
242.13	69.38
242.363	75.38
242.597	66.38
242.83	88.38
243.064	88.38
243.298	86.38
243.531	79.38
243.765	63.38
243.998	84.38
244.232	85.38
244.465	79.38
244.699	79.38
244.932	72.38
245.166	66.38
245.399	70.38
245.633	69.38
245.866	73.38
246.099	67.38
246.333	87.38
246.566	83.38
246.8	78.38
247.033	69.38
247.266	81.38
247.5	73.38
247.733	85.38
247.966	87.38
248.2	78.38
248.433	87.38
248.666	70.38
248.899	80.38
249.133	82.38
249.366	88.38
249.599	77.38
249.832	79.38
250.066	78.38
250.299	75.38
250.532	93.38
250.765	70.38
250.998	84.38
251.231	67.38
251.465	94.38
251.698	69.38
251.931	69.38
252.164	71.38
252.397	73.38
252.63	77.38
252.863	77.38
253.096	78.38
253.329	81.38
253.562	72.38
253.795	87.38
254.028	83.38
254.261	82.38
254.494	85.38
254.727	82.38
254.96	96.38
255.193	82.38
255.426	73.38
255.659	80.38
255.892	89.38
256.124	73.38
256.357	83.38
256.59	90.38
256.823	86.38
257.056	75.38
257.289	74.38
257.521	79.38
257.754	80.38
257.987	79.38
258.22	74.38
258.452	80.38
258.685	85.38
258.918	81.38
259.151	83.38
259.383	77.38
259.616	77.38
259.849	73.38
260.081	67.38
260.314	83.38
260.547	73.38
260.779	91.38
261.012	83.38
261.244	75.38
261.477	75.38
261.71	61.38
261.942	80.38
262.175	95.38
262.407	80.38
262.64	64.38
262.872	81.38
263.105	85.38
263.337	86.38
263.57	82.38
263.802	81.38
264.035	83.38
264.267	74.38
264.499	87.38
264.732	70.38
264.964	85.38
265.197	76.38
265.429	94.38
265.661	66.38
265.894	82.38
266.126	77.38
266.358	84.38
266.591	73.38
266.823	79.38
267.055	68.38
267.287	95.38
267.52	90.38
267.752	79.38
267.984	67.38
268.216	79.38
268.448	81.38
268.681	86.38
268.913	86.38
269.145	96.38
269.377	100.38
269.609	87.38
269.841	82.38
270.073	69.38
270.306	86.38
270.538	79.38
270.77	87.38
271.002	66.38
271.234	82.38
271.466	84.38
271.698	95.38
271.93	69.38
272.162	75.38
272.394	92.38
272.626	94.38
272.858	84.38
273.09	86.38
273.322	83.38
273.553	70.38
273.785	72.38
274.017	73.38
274.249	83.38
274.481	91.38
274.713	68.38
274.945	89.38
275.176	80.38
275.408	65.38
275.64	74.38
275.872	86.38
276.104	75.38
276.335	75.38
276.567	82.38
276.799	75.38
277.031	84.38
277.262	92.38
277.494	78.38
277.726	81.38
277.957	81.38
278.189	68.38
278.421	81.38
278.652	71.38
278.884	73.38
279.115	83.38
279.347	90.38
279.579	86.38
279.81	82.38
280.042	76.38
280.273	75.38
280.505	78.38
280.736	72.38
280.968	85.38
281.199	77.38
281.431	85.38
281.662	79.38
281.894	90.38
282.125	80.38
282.356	84.38
282.588	99.38
282.819	86.38
283.051	91.38
283.282	89.38
283.513	91.38
283.745	85.38
283.976	78.38
284.207	86.38
284.439	82.38
284.67	88.38
284.901	84.38
285.132	79.38
285.364	77.38
285.595	93.38
285.826	83.38
286.057	75.38
286.288	80.38
286.52	79.38
286.751	89.38
286.982	91.38
287.213	82.38
287.444	87.38
287.675	81.38
287.906	85.38
288.138	94.38
288.369	75.38
288.6	73.38
288.831	72.38
289.062	103.38
289.293	86.38
289.524	76.38
289.755	75.38
289.986	85.38
290.217	89.38
290.448	70.38
290.679	76.38
290.91	93.38
291.141	83.38
291.371	90.38
291.602	87.38
291.833	74.38
292.064	70.38
292.295	75.38
292.526	83.38
292.757	71.38
292.987	76.38
293.218	79.38
293.449	92.38
293.68	82.38
293.91	83.38
294.141	75.38
294.372	70.38
294.603	90.38
294.833	89.38
295.064	90.38
295.295	97.38
295.525	84.38
295.756	88.38
295.987	94.38
296.217	83.38
296.448	74.38
296.679	86.38
296.909	82.38
297.14	87.38
297.37	88.38
297.601	79.38
297.831	75.38
298.062	82.38
298.292	76.38
298.523	82.38
298.753	82.38
298.984	86.38
299.214	82.38
299.445	92.38
299.675	90.38
299.905	85.38
300.136	78.38
300.366	81.38
300.597	75.38
300.827	81.38
301.057	71.38
301.288	74.38
301.518	79.38
301.748	69.38
301.979	80.38
302.209	89.38
302.439	97.38
302.669	82.38
302.9	77.38
303.13	72.38
303.36	90.38
303.59	98.38
303.82	80.38
304.051	79.38
304.281	82.38
304.511	90.38
304.741	86.38
304.971	72.38
305.201	70.38
305.431	82.38
305.661	105.38
305.891	79.38
306.121	73.38
306.352	86.38
306.582	95.38
306.812	86.38
307.042	76.38
307.272	82.38
307.502	88.38
307.731	93.38
307.961	85.38
308.191	71.38
308.421	93.38
308.651	94.38
308.881	86.38
309.111	82.38
309.341	79.38
309.571	93.38
309.8	95.38
310.03	88.38
310.26	71.38
310.49	90.38
310.72	73.38
310.949	90.38
311.179	82.38
311.409	80.38
311.639	82.38
311.868	95.38
312.098	79.38
312.328	79.38
312.557	77.38
312.787	82.38
313.017	90.38
313.246	77.38
313.476	75.38
313.706	76.38
313.935	86.38
314.165	98.38
314.394	89.38
314.624	85.38
314.853	88.38
315.083	86.38
315.312	86.38
315.542	88.38
315.771	86.38
316.001	86.38
316.23	79.38
316.46	84.38
316.689	87.38
316.919	82.38
317.148	85.38
317.377	75.38
317.607	75.38
317.836	95.38
318.065	85.38
318.295	85.38
318.524	97.38
318.753	84.38
318.983	85.38
319.212	79.38
319.441	86.38
319.67	75.38
319.9	83.38
320.129	79.38
320.358	86.38
320.587	89.38
320.816	89.38
321.046	83.38
321.275	94.38
321.504	65.38
321.733	86.38
321.962	92.38
322.191	93.38
322.42	87.38
322.649	75.38
322.878	86.38
323.108	104.38
323.337	63.38
323.566	85.38
323.795	77.38
324.024	82.38
324.253	78.38
324.482	85.38
324.71	97.38
324.939	82.38
325.168	89.38
325.397	74.38
325.626	81.38
325.855	78.38
326.084	81.38
326.313	90.38
326.542	87.38
326.77	90.38
326.999	87.38
327.228	88.38
327.457	88.38
327.686	78.38
327.914	84.38
328.143	87.38
328.372	88.38
328.6	88.38
328.829	84.38
329.058	85.38
329.287	81.38
329.515	97.38
329.744	73.38
329.972	80.38
330.201	86.38
330.43	95.38
330.658	87.38
330.887	85.38
331.115	80.38
331.344	79.38
331.572	73.38
331.801	88.38
332.03	75.38
332.258	89.38
332.486	78.38
332.715	92.38
332.943	82.38
333.172	83.38
333.4	91.38
333.629	82.38
333.857	88.38
334.085	100.38
334.314	95.38
334.542	82.38
334.771	95.38
334.999	87.38
335.227	74.38
335.455	80.38
335.684	88.38
335.912	86.38
336.14	94.38
336.369	86.38
336.597	73.38
336.825	92.38
337.053	86.38
337.281	86.38
337.51	79.38
337.738	82.38
337.966	78.38
338.194	93.38
338.422	84.38
338.65	91.38
338.878	74.38
339.106	94.38
339.334	81.38
339.562	94.38
339.79	88.38
340.018	70.38
340.246	85.38
340.474	88.38
340.702	81.38
340.93	98.38
341.158	95.38
341.386	79.38
341.614	91.38
341.842	78.38
342.07	84.38
342.298	96.38
342.526	90.38
342.754	92.38
342.981	85.38
343.209	74.38
343.437	81.38
343.665	107.38
343.893	93.38
344.12	98.38
344.348	95.38
344.576	98.38
344.804	94.38
345.031	78.38
345.259	91.38
345.487	95.38
345.714	100.38
345.942	76.38
346.17	93.38
346.397	99.38
346.625	80.38
346.853	74.38
347.08	62.38
347.308	85.38
347.535	71.38
347.763	83.38
347.99	78.38
348.218	104.38
348.445	82.38
348.673	83.38
348.9	95.38
349.128	89.38
349.355	88.38
349.583	84.38
349.81	91.38
350.037	84.38
350.265	90.38
350.492	76.38
350.72	95.38
350.947	75.38
351.174	74.38
351.402	67.38
351.629	99.38
351.856	75.38
352.083	85.38
352.311	90.38
352.538	92.38
352.765	81.38
352.992	90.38
353.22	73.38
353.447	77.38
353.674	83.38
353.901	99.38
354.128	76.38
354.355	81.38
354.583	80.38
354.81	97.38
355.037	98.38
355.264	94.38
355.491	79.38
355.718	82.38
355.945	90.38
356.172	86.38
356.399	84.38
356.626	90.38
356.853	94.38
357.08	77.38
357.307	85.38
357.534	77.38
357.761	79.38
357.988	85.38
358.215	88.38
358.441	90.38
358.668	73.38
358.895	74.38
359.122	78.38
359.349	78.38
359.576	90.38
359.802	93.38
360.029	84.38
360.256	93.38
360.483	79.38
360.709	75.38
360.936	97.38
361.163	73.38
361.39	75.38
361.616	76.38
361.843	74.38
362.07	87.38
362.296	96.38
362.523	96.38
362.749	88.38
362.976	88.38
363.203	88.38
363.429	83.38
363.656	77.38
363.882	82.38
364.109	75.38
364.335	86.38
364.562	78.38
364.788	86.38
365.015	76.38
365.241	102.38
365.468	78.38
365.694	75.38
365.92	83.38
366.147	94.38
366.373	80.38
366.599	65.38
366.826	84.38
367.052	89.38
367.278	71.38
367.505	77.38
367.731	84.38
367.957	88.38
368.184	88.38
368.41	91.38
368.636	83.38
368.862	85.38
369.089	85.38
369.315	79.38
369.541	69.38
369.767	87.38
369.993	83.38
370.219	78.38
370.445	76.38
370.672	79.38
370.898	81.38
371.124	79.38
371.35	95.38
371.576	82.38
371.802	85.38
372.028	82.38
372.254	90.38
372.48	81.38
372.706	79.38
372.932	83.38
373.158	82.38
373.384	69.38
373.61	84.38
373.835	88.38
374.061	67.38
374.287	78.38
374.513	88.38
374.739	82.38
374.965	73.38
375.191	82.38
375.416	90.38
375.642	83.38
375.868	75.38
376.094	82.38
376.319	74.38
376.545	87.38
376.771	91.38
376.997	88.38
377.222	79.38
377.448	80.38
377.674	74.38
377.899	90.38
378.125	88.38
378.35	83.38
378.576	84.38
378.802	71.38
379.027	78.38
379.253	88.38
379.478	96.38
379.704	96.38
379.929	93.38
380.155	86.38
380.38	69.38
380.606	79.38
380.831	89.38
381.057	95.38
381.282	85.38
381.507	83.38
381.733	77.38
381.958	75.38
382.184	94.38
382.409	80.38
382.634	78.38
382.86	79.38
383.085	91.38
383.31	91.38
383.535	84.38
383.761	74.38
383.986	83.38
384.211	75.38
384.436	73.38
384.662	79.38
384.887	90.38
385.112	89.38
385.337	71.38
385.562	73.38
385.787	87.38
386.013	80.38
386.238	80.38
386.463	74.38
386.688	74.38
386.913	94.38
387.138	78.38
387.363	99.38
387.588	85.38
387.813	87.38
388.038	87.38
388.263	79.38
388.488	74.38
388.713	86.38
388.938	91.38
389.163	71.38
389.387	87.38
389.612	81.38
389.837	78.38
390.062	75.38
390.287	83.38
390.512	92.38
390.736	77.38
390.961	80.38
391.186	80.38
391.411	67.38
391.636	80.38
391.86	78.38
392.085	83.38
392.31	89.38
392.534	85.38
392.759	73.38
392.984	83.38
393.208	94.38
393.433	82.38
393.658	73.38
393.882	73.38
394.107	81.38
394.331	89.38
394.556	97.38
394.78	88.38
395.005	83.38
395.229	71.38
395.454	76.38
395.678	87.38
395.903	77.38
396.127	86.38
396.352	88.38
396.576	84.38
396.801	93.38
397.025	85.38
397.249	72.38
397.474	92.38
397.698	85.38
397.922	94.38
398.147	88.38
398.371	85.38
398.595	82.38
398.82	81.38
399.044	86.38
399.268	85.38
399.492	86.38
399.717	77.38
399.941	79.38
400.165	101.38
400.389	90.38
400.613	76.38
400.837	93.38
401.062	76.38
401.286	79.38
401.51	81.38
401.734	76.38
401.958	72.38
402.182	77.38
402.406	80.38
402.63	89.38
402.854	87.38
403.078	83.38
403.302	88.38
403.526	76.38
403.75	102.38
403.974	85.38
404.198	84.38
404.422	75.38
404.645	79.38
404.869	76.38
405.093	90.38
405.317	87.38
405.541	83.38
405.765	84.38
405.988	84.38
406.212	75.38
406.436	98.38
406.66	95.38
406.883	111.38
407.107	87.38
407.331	86.38
407.555	82.38
407.778	84.38
408.002	88.38
408.226	80.38
408.449	89.38
408.673	85.38
408.896	92.38
409.12	97.38
409.344	94.38
409.567	66.38
409.791	89.38
410.014	84.38
410.238	90.38
410.461	91.38
410.685	78.38
410.908	84.38
411.132	87.38
411.355	84.38
411.578	78.38
411.802	90.38
412.025	78.38
412.249	84.38
412.472	84.38
412.695	78.38
412.919	79.38
413.142	80.38
413.365	63.38
413.589	86.38
413.812	85.38
414.035	72.38
414.258	65.38
414.482	67.38
414.705	86.38
414.928	88.38
415.151	89.38
415.374	94.38
415.597	74.38
415.821	87.38
416.044	77.38
416.267	99.38
416.49	90.38
416.713	90.38
416.936	81.38
417.159	78.38
417.382	82.38
417.605	82.38
417.828	87.38
418.051	79.38
418.274	86.38
418.497	75.38
418.72	73.38
418.943	84.38
419.166	82.38
419.389	89.38
419.611	89.38
419.834	84.38
420.057	72.38
420.28	85.38
420.503	75.38
420.726	78.38
420.948	85.38
421.171	85.38
421.394	87.38
421.617	88.38
421.839	86.38
422.062	86.38
422.285	82.38
422.507	93.38
422.73	80.38
422.953	90.38
423.175	73.38
423.398	80.38
423.621	98.38
423.843	101.38
424.066	91.38
424.288	86.38
424.511	98.38
424.733	85.38
424.956	86.38
425.178	91.38
425.401	95.38
425.623	88.38
425.846	86.38
426.068	84.38
426.291	81.38
426.513	72.38
426.735	90.38
426.958	88.38
427.18	79.38
427.402	74.38
427.625	90.38
427.847	73.38
428.069	74.38
428.292	84.38
428.514	104.38
428.736	77.38
428.958	87.38
429.181	103.38
429.403	85.38
429.625	74.38
429.847	85.38
430.069	86.38
430.292	75.38
430.514	78.38
430.736	102.38
430.958	77.38
431.18	93.38
431.402	79.38
431.624	80.38
431.846	72.38
432.068	79.38
432.29	80.38
432.512	72.38
432.734	91.38
432.956	87.38
433.178	85.38
433.4	83.38
433.622	86.38
433.844	71.38
434.066	83.38
434.287	88.38
434.509	80.38
434.731	87.38
434.953	77.38
435.175	93.38
435.397	85.38
435.618	87.38
435.84	71.38
436.062	92.38
436.284	76.38
436.505	90.38
436.727	85.38
436.949	93.38
437.17	85.38
437.392	94.38
437.614	83.38
437.835	103.38
438.057	86.38
438.278	68.38
438.5	91.38
438.721	79.38
438.943	77.38
439.165	74.38
439.386	97.38
439.608	90.38
439.829	90.38
440.05	95.38
440.272	94.38
440.493	82.38
440.715	78.38
440.936	85.38
441.158	81.38
441.379	85.38
441.6	88.38
441.822	90.38
442.043	87.38
442.264	81.38
442.486	98.38
442.707	91.38
442.928	94.38
443.149	83.38
443.371	93.38
443.592	82.38
443.813	81.38
444.034	82.38
444.255	87.38
444.476	86.38
444.698	70.38
444.919	83.38
445.14	218.38
445.361	134.38
445.582	79.38
445.803	72.38
446.024	82.38
446.245	77.38
446.466	83.38
446.687	79.38
446.908	81.38
447.129	86.38
447.35	74.38
447.571	83.38
447.792	98.38
448.013	79.38
448.234	80.38
448.455	89.38
448.675	81.38
448.896	75.38
449.117	73.38
449.338	74.38
449.559	84.38
449.779	87.38
450	86.38
450.221	78.38
450.442	78.38
450.662	91.38
450.883	75.38
451.104	93.38
451.324	79.38
451.545	74.38
451.766	70.38
451.986	70.38
452.207	97.38
452.428	88.38
452.648	79.38
452.869	79.38
453.089	73.38
453.31	81.38
453.53	78.38
453.751	87.38
453.971	85.38
454.192	72.38
454.412	70.38
454.633	67.38
454.853	83.38
455.073	72.38
455.294	83.38
455.514	87.38
455.734	73.38
455.955	100.38
456.175	77.38
456.395	80.38
456.616	85.38
456.836	89.38
457.056	90.38
457.276	79.38
457.497	82.38
457.717	75.38
457.937	82.38
458.157	91.38
458.377	71.38
458.598	83.38
458.818	86.38
459.038	85.38
459.258	83.38
459.478	82.38
459.698	77.38
459.918	99.38
460.138	83.38
460.358	95.38
460.578	94.38
460.798	90.38
461.018	86.38
461.238	79.38
461.458	102.38
461.678	96.38
461.898	97.38
462.118	92.38
462.338	94.38
462.558	82.38
462.777	87.38
462.997	83.38
463.217	85.38
463.437	86.38
463.657	80.38
463.876	93.38
464.096	84.38
464.316	100.38
464.536	84.38
464.755	92.38
464.975	94.38
465.195	78.38
465.414	83.38
465.634	80.38
465.854	89.38
466.073	83.38
466.293	103.38
466.512	92.38
466.732	81.38
466.951	85.38
467.171	88.38
467.391	92.38
467.61	68.38
467.829	70.38
468.049	82.38
468.268	91.38
468.488	88.38
468.707	88.38
468.927	85.38
469.146	70.38
469.365	95.38
469.585	88.38
469.804	84.38
470.023	86.38
470.243	84.38
470.462	89.38
470.681	82.38
470.901	97.38
471.12	81.38
471.339	88.38
471.558	81.38
471.777	81.38
471.997	93.38
472.216	91.38
472.435	75.38
472.654	72.38
472.873	95.38
473.092	81.38
473.311	99.38
473.53	86.38
473.749	88.38
473.968	74.38
474.187	90.38
474.406	78.38
474.625	98.38
474.844	84.38
475.063	89.38
475.282	94.38
475.501	77.38
475.72	99.38
475.939	100.38
476.158	86.38
476.377	88.38
476.596	84.38
476.814	71.38
477.033	88.38
477.252	90.38
477.471	94.38
477.69	83.38
477.908	82.38
478.127	85.38
478.346	73.38
478.564	89.38
478.783	86.38
479.002	92.38
479.22	80.38
479.439	107.38
479.658	83.38
479.876	103.38
480.095	90.38
480.313	78.38
480.532	86.38
480.751	87.38
480.969	90.38
481.188	95.38
481.406	91.38
481.624	96.38
481.843	83.38
482.061	88.38
482.28	99.38
482.498	102.38
482.717	90.38
482.935	89.38
483.153	92.38
483.372	91.38
483.59	77.38
483.808	106.38
484.027	91.38
484.245	82.38
484.463	80.38
484.681	99.38
484.9	90.38
485.118	91.38
485.336	82.38
485.554	87.38
485.772	89.38
485.99	94.38
486.209	97.38
486.427	93.38
486.645	100.38
486.863	95.38
487.081	102.38
487.299	96.38
487.517	109.38
487.735	91.38
487.953	101.38
488.171	105.38
488.389	87.38
488.607	80.38
488.825	82.38
489.043	80.38
489.261	89.38
489.479	94.38
489.696	86.38
489.914	93.38
490.132	91.38
490.35	89.38
490.568	92.38
490.786	92.38
491.003	94.38
491.221	112.38
491.439	96.38
491.657	96.38
491.874	90.38
492.092	91.38
492.31	93.38
492.527	111.38
492.745	85.38
492.963	99.38
493.18	98.38
493.398	93.38
493.615	73.38
493.833	88.38
494.05	86.38
494.268	98.38
494.485	90.38
494.703	98.38
494.92	95.38
495.138	96.38
495.355	83.38
495.573	96.38
495.79	94.38
496.008	88.38
496.225	83.38
496.442	85.38
496.66	85.38
496.877	84.38
497.094	112.38
497.312	86.38
497.529	94.38
497.746	103.38
497.963	101.38
498.181	82.38
498.398	104.38
498.615	103.38
498.832	107.38
499.049	105.38
499.267	94.38
499.484	95.38
499.701	93.38
499.918	93.38
500.135	114.38
500.352	114.38
500.569	108.38
500.786	106.38
501.003	113.38
501.22	106.38
501.437	95.38
501.654	107.38
501.871	109.38
502.088	80.38
502.305	91.38
502.522	91.38
502.739	88.38
502.956	99.38
503.172	101.38
503.389	110.38
503.606	99.38
503.823	97.38
504.04	90.38
504.256	88.38
504.473	105.38
504.69	97.38
504.907	94.38
505.123	93.38
505.34	96.38
505.557	97.38
505.773	89.38
505.99	84.38
506.207	93.38
506.423	75.38
506.64	84.38
506.856	92.38
507.073	91.38
507.289	91.38
507.506	91.38
507.722	93.38
507.939	94.38
508.155	93.38
508.372	91.38
508.588	97.38
508.805	100.38
509.021	77.38
509.238	82.38
509.454	84.38
509.67	93.38
509.887	90.38
510.103	105.38
510.319	92.38
510.536	81.38
510.752	90.38
510.968	90.38
511.184	82.38
511.401	86.38
511.617	93.38
511.833	90.38
512.049	100.38
512.265	90.38
512.481	82.38
512.698	80.38
512.914	76.38
513.13	82.38
513.346	80.38
513.562	97.38
513.778	103.38
513.994	86.38
514.21	93.38
514.426	85.38
514.642	85.38
514.858	89.38
515.074	80.38
515.29	85.38
515.506	87.38
515.721	94.38
515.937	97.38
516.153	87.38
516.369	97.38
516.585	90.38
516.801	89.38
517.016	80.38
517.232	97.38
517.448	101.38
517.664	83.38
517.879	106.38
518.095	106.38
518.311	93.38
518.527	90.38
518.742	86.38
518.958	78.38
519.173	85.38
519.389	83.38
519.605	77.38
519.82	92.38
520.036	97.38
520.251	93.38
520.467	75.38
520.682	90.38
520.898	88.38
521.113	78.38
521.329	88.38
521.544	90.38
521.76	74.38
521.975	81.38
522.19	79.38
522.406	92.38
522.621	102.38
522.836	88.38
523.052	94.38
523.267	104.38
523.482	107.38
523.698	88.38
523.913	87.38
524.128	82.38
524.343	95.38
524.559	93.38
524.774	82.38
524.989	87.38
525.204	100.38
525.419	102.38
525.634	86.38
525.849	95.38
526.064	90.38
526.28	94.38
526.495	92.38
526.71	75.38
526.925	76.38
527.14	81.38
527.355	96.38
527.57	90.38
527.785	69.38
527.999	87.38
528.214	93.38
528.429	96.38
528.644	91.38
528.859	98.38
529.074	93.38
529.289	90.38
529.503	87.38
529.718	97.38
529.933	81.38
530.148	90.38
530.363	89.38
530.577	70.38
530.792	80.38
531.007	80.38
531.221	91.38
531.436	83.38
531.651	85.38
531.865	79.38
532.08	87.38
532.295	99.38
532.509	101.38
532.724	85.38
532.938	89.38
533.153	91.38
533.367	85.38
533.582	97.38
533.796	87.38
534.011	80.38
534.225	90.38
534.44	79.38
534.654	93.38
534.868	95.38
535.083	95.38
535.297	96.38
535.511	82.38
535.726	111.38
535.94	79.38
536.154	100.38
536.369	94.38
536.583	99.38
536.797	79.38
537.011	83.38
537.225	84.38
537.44	75.38
537.654	89.38
537.868	62.38
538.082	91.38
538.296	84.38
538.51	85.38
538.724	104.38
538.938	87.38
539.153	81.38
539.367	83.38
539.581	89.38
539.795	91.38
540.009	98.38
540.222	93.38
540.436	81.38
540.65	83.38
540.864	93.38
541.078	96.38
541.292	99.38
541.506	90.38
541.72	96.38
541.934	82.38
542.147	81.38
542.361	82.38
542.575	74.38
542.789	86.38
543.002	94.38
543.216	81.38
543.43	86.38
543.644	90.38
543.857	90.38
544.071	89.38
544.285	81.38
544.498	86.38
544.712	82.38
544.925	94.38
545.139	97.38
545.352	92.38
545.566	89.38
545.779	86.38
545.993	97.38
546.206	100.38
546.42	97.38
546.633	96.38
546.847	90.38
547.06	91.38
547.274	86.38
547.487	74.38
547.7	83.38
547.914	88.38
548.127	86.38
548.34	100.38
548.554	88.38
548.767	91.38
548.98	112.38
549.193	83.38
549.407	93.38
549.62	96.38
549.833	94.38
550.046	89.38
550.259	101.38
550.473	86.38
550.686	86.38
550.899	85.38
551.112	82.38
551.325	101.38
551.538	76.38
551.751	95.38
551.964	94.38
552.177	97.38
552.39	98.38
552.603	83.38
552.816	91.38
553.029	99.38
553.242	86.38
553.455	93.38
553.667	74.38
553.88	73.38
554.093	89.38
554.306	91.38
554.519	97.38
554.732	92.38
554.944	95.38
555.157	100.38
555.37	82.38
555.583	70.38
555.795	84.38
556.008	102.38
556.221	94.38
556.433	81.38
556.646	83.38
556.859	86.38
557.071	71.38
557.284	77.38
557.496	97.38
557.709	94.38
557.921	79.38
558.134	83.38
558.346	82.38
558.559	80.38
558.771	92.38
558.984	85.38
559.196	92.38
559.409	89.38
559.621	94.38
559.833	93.38
560.046	104.38
560.258	70.38
560.47	84.38
560.683	99.38
560.895	74.38
561.107	98.38
561.32	86.38
561.532	88.38
561.744	95.38
561.956	84.38
562.168	93.38
562.381	84.38
562.593	90.38
562.805	80.38
563.017	96.38
563.229	95.38
563.441	95.38
563.653	83.38
563.865	91.38
564.077	101.38
564.289	82.38
564.501	82.38
564.713	89.38
564.925	86.38
565.137	85.38
565.349	102.38
565.561	95.38
565.773	108.38
565.985	92.38
566.197	83.38
566.408	84.38
566.62	75.38
566.832	83.38
567.044	95.38
567.255	91.38
567.467	86.38
567.679	81.38
567.891	90.38
568.102	94.38
568.314	78.38
568.526	83.38
568.737	84.38
568.949	90.38
569.161	81.38
569.372	84.38
569.584	102.38
569.795	87.38
570.007	88.38
570.218	72.38
570.43	85.38
570.641	87.38
570.853	93.38
571.064	107.38
571.276	80.38
571.487	99.38
571.698	90.38
571.91	87.38
572.121	88.38
572.333	82.38
572.544	84.38
572.755	79.38
572.966	70.38
573.178	70.38
573.389	88.38
573.6	93.38
573.811	77.38
574.023	84.38
574.234	80.38
574.445	79.38
574.656	85.38
574.867	77.38
575.078	72.38
575.289	76.38
575.501	82.38
575.712	84.38
575.923	85.38
576.134	83.38
576.345	85.38
576.556	92.38
576.767	74.38
576.978	85.38
577.188	93.38
577.399	86.38
577.61	87.38
577.821	73.38
578.032	90.38
578.243	74.38
578.454	85.38
578.665	90.38
578.875	88.38
579.086	98.38
579.297	90.38
579.508	74.38
579.718	99.38
579.929	78.38
580.14	82.38
580.35	88.38
580.561	74.38
580.772	82.38
580.982	93.38
581.193	98.38
581.403	88.38
581.614	98.38
581.825	78.38
582.035	89.38
582.246	81.38
582.456	73.38
582.667	89.38
582.877	79.38
583.087	69.38
583.298	79.38
583.508	87.38
583.719	82.38
583.929	94.38
584.139	73.38
584.35	88.38
584.56	80.38
584.77	91.38
584.981	95.38
585.191	94.38
585.401	89.38
585.611	91.38
585.821	82.38
586.032	96.38
586.242	96.38
586.452	82.38
586.662	87.38
586.872	75.38
587.082	95.38
587.292	84.38
587.502	85.38
587.713	90.38
587.923	87.38
588.133	101.38
588.343	91.38
588.553	66.38
588.762	95.38
588.972	83.38
589.182	93.38
589.392	95.38
589.602	92.38
589.812	90.38
590.022	93.38
590.232	81.38
590.441	95.38
590.651	95.38
590.861	85.38
591.071	78.38
591.281	78.38
591.49	79.38
591.7	98.38
591.91	105.38
592.119	81.38
592.329	97.38
592.539	85.38
592.748	79.38
592.958	81.38
593.167	87.38
593.377	75.38
593.587	93.38
593.796	90.38
594.006	81.38
594.215	77.38
594.424	74.38
594.634	82.38
594.843	80.38
595.053	87.38
595.262	75.38
595.472	101.38
595.681	85.38
595.89	76.38
596.1	75.38
596.309	88.38
596.518	88.38
596.727	82.38
596.937	82.38
597.146	90.38
597.355	89.38
597.564	88.38
597.774	98.38
597.983	90.38
598.192	75.38
598.401	67.38
598.61	90.38
598.819	87.38
599.028	86.38
599.237	84.38
599.446	91.38
599.655	76.38
599.864	89.38
600.073	97.38
600.282	90.38
600.491	84.38
600.7	78.38
600.909	82.38
601.118	81.38
601.327	86.38
601.536	81.38
601.745	83.38
601.953	78.38
602.162	81.38
602.371	76.38
602.58	72.38
602.789	89.38
602.997	91.38
603.206	90.38
603.415	81.38
603.623	79.38
603.832	77.38
604.041	81.38
604.249	91.38
604.458	94.38
604.666	80.38
604.875	79.38
605.084	77.38
605.292	90.38
605.501	83.38
605.709	82.38
605.918	81.38
606.126	80.38
606.334	88.38
606.543	95.38
606.751	83.38
606.96	77.38
607.168	76.38
607.376	79.38
607.585	81.38
607.793	84.38
608.001	85.38
608.21	74.38
608.418	88.38
608.626	81.38
608.834	88.38
609.043	93.38
609.251	69.38
609.459	79.38
609.667	81.38
609.875	80.38
610.083	95.38
610.291	85.38
610.499	92.38
610.707	88.38
610.916	94.38
611.124	72.38
611.332	73.38
611.54	80.38
611.748	77.38
611.955	91.38
612.163	83.38
612.371	69.38
612.579	71.38
612.787	84.38
612.995	84.38
613.203	97.38
613.411	92.38
613.618	93.38
613.826	84.38
614.034	83.38
614.242	93.38
614.449	86.38
614.657	96.38
614.865	73.38
615.072	77.38
615.28	90.38
615.488	69.38
615.695	87.38
615.903	75.38
616.111	78.38
616.318	86.38
616.526	83.38
616.733	85.38
616.941	91.38
617.148	89.38
617.356	83.38
617.563	94.38
617.771	73.38
617.978	81.38
618.185	80.38
618.393	82.38
618.6	70.38
618.807	75.38
619.015	84.38
619.222	73.38
619.429	92.38
619.637	88.38
619.844	89.38
620.051	78.38
620.258	85.38
620.466	79.38
620.673	85.38
620.88	89.38
621.087	94.38
621.294	93.38
621.501	84.38
621.708	85.38
621.915	83.38
622.122	80.38
622.329	61.38
622.536	79.38
622.743	78.38
622.95	62.38
623.157	87.38
623.364	92.38
623.571	84.38
623.778	81.38
623.985	92.38
624.192	89.38
624.399	80.38
624.606	85.38
624.812	76.38
625.019	80.38
625.226	94.38
625.433	85.38
625.639	74.38
625.846	75.38
626.053	91.38
626.259	67.38
626.466	76.38
626.673	82.38
626.879	73.38
627.086	83.38
627.293	80.38
627.499	85.38
627.706	77.38
627.912	82.38
628.119	79.38
628.325	72.38
628.532	71.38
628.738	81.38
628.945	84.38
629.151	64.38
629.357	78.38
629.564	79.38
629.77	85.38
629.976	72.38
630.183	84.38
630.389	86.38
630.595	76.38
630.802	73.38
631.008	79.38
631.214	87.38
631.42	95.38
631.627	88.38
631.833	87.38
632.039	76.38
632.245	83.38
632.451	83.38
632.657	86.38
632.863	85.38
633.069	78.38
633.275	71.38
633.481	82.38
633.688	75.38
633.893	91.38
634.099	95.38
634.305	85.38
634.511	85.38
634.717	71.38
634.923	78.38
635.129	79.38
635.335	73.38
635.541	74.38
635.747	80.38
635.952	77.38
636.158	71.38
636.364	83.38
636.57	70.38
636.775	73.38
636.981	89.38
637.187	73.38
637.392	66.38
637.598	73.38
637.804	77.38
638.009	85.38
638.215	69.38
638.421	72.38
638.626	84.38
638.832	86.38
639.037	74.38
639.243	71.38
639.448	85.38
639.654	74.38
639.859	76.38
640.065	74.38
640.27	89.38
640.475	65.38
640.681	74.38
640.886	71.38
641.091	78.38
641.297	87.38
641.502	74.38
641.707	78.38
641.913	81.38
642.118	76.38
642.323	59.38
642.528	89.38
642.733	82.38
642.939	72.38
643.144	74.38
643.349	83.38
643.554	88.38
643.759	86.38
643.964	98.38
644.169	72.38
644.374	72.38
644.579	83.38
644.784	80.38
644.989	88.38
645.194	93.38
645.399	87.38
645.604	83.38
645.809	90.38
646.014	70.38
646.219	70.38
646.423	79.38
646.628	84.38
646.833	74.38
647.038	78.38
647.243	93.38
647.447	75.38
647.652	89.38
647.857	73.38
648.062	81.38
648.266	82.38
648.471	77.38
648.676	79.38
648.88	80.38
649.085	82.38
649.289	76.38
649.494	95.38
649.698	74.38
649.903	87.38
650.107	90.38
650.312	89.38
650.516	93.38
650.721	81.38
650.925	90.38
651.13	75.38
651.334	82.38
651.539	85.38
651.743	80.38
651.947	80.38
652.152	71.38
652.356	68.38
652.56	81.38
652.764	73.38
652.969	75.38
653.173	78.38
653.377	79.38
653.581	71.38
653.785	76.38
653.99	90.38
654.194	92.38
654.398	85.38
654.602	65.38
654.806	83.38
655.01	87.38
655.214	85.38
655.418	81.38
655.622	75.38
655.826	76.38
656.03	91.38
656.234	80.38
656.438	72.38
656.642	62.38
656.846	80.38
657.049	75.38
657.253	82.38
657.457	82.38
657.661	87.38
657.865	81.38
658.068	76.38
658.272	89.38
658.476	74.38
658.68	72.38
658.883	87.38
659.087	82.38
659.291	87.38
659.494	86.38
659.698	85.38
659.901	79.38
660.105	76.38
660.309	68.38
660.512	71.38
660.716	84.38
660.919	77.38
661.123	73.38
661.326	85.38
661.53	98.38
661.733	71.38
661.936	75.38
662.14	85.38
662.343	78.38
662.546	90.38
662.75	79.38
662.953	88.38
663.156	87.38
663.36	82.38
663.563	87.38
663.766	82.38
663.969	60.38
664.173	80.38
664.376	81.38
664.579	80.38
664.782	75.38
664.985	79.38
665.188	78.38
665.391	87.38
665.594	72.38
665.797	67.38
666	72.38
666.203	68.38
666.406	92.38
666.609	83.38
666.812	68.38
667.015	90.38
667.218	81.38
667.421	88.38
667.624	73.38
667.827	82.38
668.03	75.38
668.232	79.38
668.435	82.38
668.638	79.38
668.841	79.38
669.043	71.38
669.246	80.38
669.449	69.38
669.651	69.38
669.854	69.38
670.057	81.38
670.259	78.38
670.462	85.38
670.665	78.38
670.867	70.38
671.07	81.38
671.272	81.38
671.475	82.38
671.677	74.38
671.88	74.38
672.082	82.38
672.284	92.38
672.487	80.38
672.689	73.38
672.892	72.38
