Data from Ni(NO3)2@0.0625M.TitratingCurve.Agarose3%dH2O.NegLispCup.LampEnergy10.LIBS07252019_HRD10591_18-13-57-568.txt Node
Date: Thu Jul 25 18:13:57 EDT 2019
User: cochatt
Spectrometer: HR+D1059
Trigger mode: 1
Integration Time (sec): 1.000000E-1
Scans to average: 1
Electric dark correction enabled: true
Nonlinearity correction enabled: false
Boxcar width: 0
XAxis mode: Wavelengths
Number of Pixels in Spectrum: 2048
>>>>>Begin Spectral Data<<<<<
223.165	-24.75
223.4	-24.75
223.635	-24.75
223.869	-25.75
224.104	-14.75
224.338	0.25
224.573	-10.75
224.808	-21.75
225.042	-5.75
225.277	-5.75
225.511	-6.75
225.746	-1.75
225.98	16.25
226.215	11.25
226.449	16.25
226.683	18.25
226.918	27.25
227.152	28.25
227.387	33.25
227.621	31.25
227.856	45.25
228.09	32.25
228.324	42.25
228.559	56.25
228.793	88.25
229.027	90.25
229.262	113.25
229.496	118.25
229.73	121.25
229.964	113.25
230.199	108.25
230.433	116.25
230.667	130.25
230.901	133.25
231.136	132.25
231.37	123.25
231.604	135.25
231.838	138.25
232.072	141.25
232.306	143.25
232.541	135.25
232.775	134.25
233.009	151.25
233.243	140.25
233.477	145.25
233.711	166.25
233.945	150.25
234.179	152.25
234.413	154.25
234.647	160.25
234.881	146.25
235.115	152.25
235.349	155.25
235.583	167.25
235.817	162.25
236.051	146.25
236.285	160.25
236.519	151.25
236.753	155.25
236.987	164.25
237.221	158.25
237.455	165.25
237.689	164.25
237.922	176.25
238.156	169.25
238.39	156.25
238.624	164.25
238.858	154.25
239.091	161.25
239.325	160.25
239.559	156.25
239.793	165.25
240.027	169.25
240.26	172.25
240.494	173.25
240.728	187.25
240.961	197.25
241.195	188.25
241.429	178.25
241.662	184.25
241.896	192.25
242.13	190.25
242.363	203.25
242.597	183.25
242.83	200.25
243.064	211.25
243.298	208.25
243.531	197.25
243.765	201.25
243.998	197.25
244.232	202.25
244.465	205.25
244.699	223.25
244.932	205.25
245.166	205.25
245.399	213.25
245.633	214.25
245.866	223.25
246.099	210.25
246.333	230.25
246.566	227.25
246.8	225.25
247.033	229.25
247.266	233.25
247.5	226.25
247.733	232.25
247.966	233.25
248.2	206.25
248.433	236.25
248.666	240.25
248.899	237.25
249.133	269.25
249.366	254.25
249.599	247.25
249.832	240.25
250.066	246.25
250.299	241.25
250.532	247.25
250.765	252.25
250.998	243.25
251.231	268.25
251.465	268.25
251.698	261.25
251.931	246.25
252.164	269.25
252.397	253.25
252.63	278.25
252.863	288.25
253.096	253.25
253.329	282.25
253.562	266.25
253.795	254.25
254.028	249.25
254.261	250.25
254.494	263.25
254.727	272.25
254.96	291.25
255.193	283.25
255.426	278.25
255.659	289.25
255.892	279.25
256.124	289.25
256.357	286.25
256.59	287.25
256.823	305.25
257.056	298.25
257.289	284.25
257.521	288.25
257.754	295.25
257.987	313.25
258.22	316.25
258.452	285.25
258.685	292.25
258.918	320.25
259.151	301.25
259.383	288.25
259.616	297.25
259.849	311.25
260.081	316.25
260.314	298.25
260.547	294.25
260.779	309.25
261.012	309.25
261.244	309.25
261.477	322.25
261.71	316.25
261.942	310.25
262.175	326.25
262.407	326.25
262.64	306.25
262.872	326.25
263.105	314.25
263.337	321.25
263.57	332.25
263.802	325.25
264.035	334.25
264.267	339.25
264.499	334.25
264.732	353.25
264.964	348.25
265.197	351.25
265.429	346.25
265.661	342.25
265.894	344.25
266.126	357.25
266.358	369.25
266.591	354.25
266.823	354.25
267.055	361.25
267.287	359.25
267.52	341.25
267.752	354.25
267.984	350.25
268.216	363.25
268.448	358.25
268.681	368.25
268.913	380.25
269.145	372.25
269.377	361.25
269.609	388.25
269.841	397.25
270.073	375.25
270.306	395.25
270.538	385.25
270.77	349.25
271.002	380.25
271.234	372.25
271.466	372.25
271.698	392.25
271.93	398.25
272.162	390.25
272.394	425.25
272.626	374.25
272.858	392.25
273.09	395.25
273.322	398.25
273.553	384.25
273.785	389.25
274.017	386.25
274.249	392.25
274.481	421.25
274.713	382.25
274.945	398.25
275.176	398.25
275.408	419.25
275.64	418.25
275.872	424.25
276.104	421.25
276.335	422.25
276.567	418.25
276.799	420.25
277.031	408.25
277.262	418.25
277.494	435.25
277.726	428.25
277.957	434.25
278.189	440.25
278.421	414.25
278.652	438.25
278.884	426.25
279.115	424.25
279.347	436.25
279.579	461.25
279.81	446.25
280.042	418.25
280.273	440.25
280.505	460.25
280.736	465.25
280.968	476.25
281.199	483.25
281.431	462.25
281.662	430.25
281.894	444.25
282.125	445.25
282.356	468.25
282.588	469.25
282.819	484.25
283.051	463.25
283.282	466.25
283.513	492.25
283.745	480.25
283.976	477.25
284.207	477.25
284.439	482.25
284.67	473.25
284.901	496.25
285.132	490.25
285.364	490.25
285.595	482.25
285.826	488.25
286.057	478.25
286.288	489.25
286.52	493.25
286.751	508.25
286.982	488.25
287.213	483.25
287.444	475.25
287.675	500.25
287.906	485.25
288.138	514.25
288.369	504.25
288.6	497.25
288.831	498.25
289.062	480.25
289.293	507.25
289.524	506.25
289.755	497.25
289.986	511.25
290.217	524.25
290.448	521.25
290.679	515.25
290.91	523.25
291.141	508.25
291.371	491.25
291.602	527.25
291.833	529.25
292.064	533.25
292.295	518.25
292.526	541.25
292.757	518.25
292.987	513.25
293.218	497.25
293.449	525.25
293.68	520.25
293.91	530.25
294.141	518.25
294.372	523.25
294.603	520.25
294.833	524.25
295.064	531.25
295.295	530.25
295.525	534.25
295.756	533.25
295.987	541.25
296.217	551.25
296.448	547.25
296.679	547.25
296.909	549.25
297.14	548.25
297.37	561.25
297.601	560.25
297.831	566.25
298.062	564.25
298.292	579.25
298.523	562.25
298.753	600.25
298.984	570.25
299.214	587.25
299.445	570.25
299.675	571.25
299.905	578.25
300.136	552.25
300.366	573.25
300.597	572.25
300.827	592.25
301.057	588.25
301.288	599.25
301.518	611.25
301.748	593.25
301.979	586.25
302.209	581.25
302.439	612.25
302.669	588.25
302.9	569.25
303.13	578.25
303.36	582.25
303.59	588.25
303.82	542.25
304.051	583.25
304.281	589.25
304.511	596.25
304.741	583.25
304.971	592.25
305.201	578.25
305.431	565.25
305.661	556.25
305.891	567.25
306.121	579.25
306.352	566.25
306.582	553.25
306.812	585.25
307.042	566.25
307.272	560.25
307.502	568.25
307.731	588.25
307.961	568.25
308.191	568.25
308.421	573.25
308.651	580.25
308.881	570.25
309.111	558.25
309.341	543.25
309.571	569.25
309.8	557.25
310.03	590.25
310.26	553.25
310.49	570.25
310.72	580.25
310.949	568.25
311.179	588.25
311.409	581.25
311.639	572.25
311.868	572.25
312.098	599.25
312.328	603.25
312.557	594.25
312.787	605.25
313.017	600.25
313.246	612.25
313.476	621.25
313.706	600.25
313.935	607.25
314.165	645.25
314.394	612.25
314.624	608.25
314.853	625.25
315.083	619.25
315.312	606.25
315.542	600.25
315.771	619.25
316.001	605.25
316.23	609.25
316.46	583.25
316.689	590.25
316.919	598.25
317.148	611.25
317.377	606.25
317.607	604.25
317.836	603.25
318.065	594.25
318.295	604.25
318.524	595.25
318.753	618.25
318.983	603.25
319.212	582.25
319.441	597.25
319.67	620.25
319.9	605.25
320.129	612.25
320.358	600.25
320.587	606.25
320.816	602.25
321.046	610.25
321.275	608.25
321.504	597.25
321.733	612.25
321.962	630.25
322.191	594.25
322.42	627.25
322.649	589.25
322.878	590.25
323.108	616.25
323.337	624.25
323.566	606.25
323.795	648.25
324.024	614.25
324.253	627.25
324.482	640.25
324.71	633.25
324.939	633.25
325.168	647.25
325.397	636.25
325.626	648.25
325.855	665.25
326.084	646.25
326.313	666.25
326.542	651.25
326.77	648.25
326.999	673.25
327.228	668.25
327.457	659.25
327.686	662.25
327.914	654.25
328.143	655.25
328.372	659.25
328.6	673.25
328.829	659.25
329.058	670.25
329.287	668.25
329.515	672.25
329.744	678.25
329.972	660.25
330.201	659.25
330.43	644.25
330.658	691.25
330.887	650.25
331.115	681.25
331.344	700.25
331.572	698.25
331.801	701.25
332.03	744.25
332.258	738.25
332.486	765.25
332.715	775.25
332.943	834.25
333.172	885.25
333.4	920.25
333.629	942.25
333.857	941.25
334.085	894.25
334.314	881.25
334.542	863.25
334.771	846.25
334.999	810.25
335.227	834.25
335.455	826.25
335.684	839.25
335.912	812.25
336.14	756.25
336.369	781.25
336.597	822.25
336.825	811.25
337.053	800.25
337.281	761.25
337.51	769.25
337.738	774.25
337.966	739.25
338.194	730.25
338.422	742.25
338.65	730.25
338.878	729.25
339.106	712.25
339.334	715.25
339.562	720.25
339.79	704.25
340.018	706.25
340.246	692.25
340.474	704.25
340.702	691.25
340.93	703.25
341.158	694.25
341.386	729.25
341.614	697.25
341.842	693.25
342.07	691.25
342.298	690.25
342.526	690.25
342.754	700.25
342.981	697.25
343.209	690.25
343.437	723.25
343.665	799.25
343.893	862.25
344.12	873.25
344.348	846.25
344.576	786.25
344.804	746.25
345.031	697.25
345.259	705.25
345.487	697.25
345.714	726.25
345.942	696.25
346.17	679.25
346.397	670.25
346.625	668.25
346.853	668.25
347.08	662.25
347.308	678.25
347.535	681.25
347.763	709.25
347.99	690.25
348.218	674.25
348.445	682.25
348.673	668.25
348.9	664.25
349.128	682.25
349.355	660.25
349.583	668.25
349.81	660.25
350.037	654.25
350.265	640.25
350.492	664.25
350.72	668.25
350.947	646.25
351.174	654.25
351.402	654.25
351.629	626.25
351.856	645.25
352.083	651.25
352.311	651.25
352.538	649.25
352.765	660.25
352.992	632.25
353.22	642.25
353.447	639.25
353.674	631.25
353.901	653.25
354.128	645.25
354.355	634.25
354.583	647.25
354.81	646.25
355.037	643.25
355.264	639.25
355.491	639.25
355.718	646.25
355.945	665.25
356.172	638.25
356.399	638.25
356.626	654.25
356.853	648.25
357.08	657.25
357.307	653.25
357.534	635.25
357.761	664.25
357.988	652.25
358.215	653.25
358.441	658.25
358.668	644.25
358.895	632.25
359.122	654.25
359.349	647.25
359.576	653.25
359.802	634.25
360.029	651.25
360.256	663.25
360.483	663.25
360.709	630.25
360.936	645.25
361.163	638.25
361.39	634.25
361.616	638.25
361.843	618.25
362.07	633.25
362.296	645.25
362.523	635.25
362.749	642.25
362.976	650.25
363.203	635.25
363.429	641.25
363.656	648.25
363.882	640.25
364.109	641.25
364.335	663.25
364.562	663.25
364.788	635.25
365.015	633.25
365.241	644.25
365.468	648.25
365.694	633.25
365.92	637.25
366.147	657.25
366.373	645.25
366.599	661.25
366.826	644.25
367.052	637.25
367.278	657.25
367.505	646.25
367.731	632.25
367.957	645.25
368.184	648.25
368.41	662.25
368.636	639.25
368.862	647.25
369.089	677.25
369.315	642.25
369.541	669.25
369.767	667.25
369.993	684.25
370.219	675.25
370.445	679.25
370.672	680.25
370.898	698.25
371.124	713.25
371.35	713.25
371.576	696.25
371.802	705.25
372.028	692.25
372.254	678.25
372.48	697.25
372.706	718.25
372.932	772.25
373.158	744.25
373.384	700.25
373.61	697.25
373.835	732.25
374.061	694.25
374.287	717.25
374.513	723.25
374.739	731.25
374.965	756.25
375.191	788.25
375.416	789.25
375.642	748.25
375.868	764.25
376.094	739.25
376.319	729.25
376.545	733.25
376.771	732.25
376.997	708.25
377.222	726.25
377.448	699.25
377.674	710.25
377.899	699.25
378.125	711.25
378.35	690.25
378.576	664.25
378.802	692.25
379.027	696.25
379.253	677.25
379.478	672.25
379.704	683.25
379.929	692.25
380.155	680.25
380.38	694.25
380.606	694.25
380.831	699.25
381.057	695.25
381.282	713.25
381.507	709.25
381.733	720.25
381.958	729.25
382.184	715.25
382.409	729.25
382.634	735.25
382.86	720.25
383.085	773.25
383.31	760.25
383.535	775.25
383.761	791.25
383.986	759.25
384.211	817.25
384.436	856.25
384.662	871.25
384.887	834.25
385.112	852.25
385.337	847.25
385.562	846.25
385.787	845.25
386.013	838.25
386.238	860.25
386.463	866.25
386.688	845.25
386.913	836.25
387.138	838.25
387.363	833.25
387.588	821.25
387.813	797.25
388.038	834.25
388.263	832.25
388.488	865.25
388.713	840.25
388.938	828.25
389.163	809.25
389.387	820.25
389.612	824.25
389.837	830.25
390.062	794.25
390.287	817.25
390.512	818.25
390.736	826.25
390.961	839.25
391.186	865.25
391.411	876.25
391.636	922.25
391.86	960.25
392.085	969.25
392.31	983.25
392.534	914.25
392.759	938.25
392.984	864.25
393.208	905.25
393.433	888.25
393.658	893.25
393.882	887.25
394.107	893.25
394.331	895.25
394.556	893.25
394.78	896.25
395.005	924.25
395.229	890.25
395.454	910.25
395.678	965.25
395.903	966.25
396.127	917.25
396.352	910.25
396.576	859.25
396.801	854.25
397.025	898.25
397.249	907.25
397.474	962.25
397.698	949.25
397.922	924.25
398.147	933.25
398.371	938.25
398.595	978.25
398.82	1026.25
399.044	1086.25
399.268	1239.25
399.492	1443.25
399.717	1689.25
399.941	1673.25
400.165	1413.25
400.389	1264.25
400.613	1176.25
400.837	1096.25
401.062	1052.25
401.286	1040.25
401.51	1045.25
401.734	1042.25
401.958	1074.25
402.182	1090.25
402.406	1083.25
402.63	1104.25
402.854	1132.25
403.078	1124.25
403.302	1186.25
403.526	1191.25
403.75	1224.25
403.974	1251.25
404.198	1250.25
404.422	1237.25
404.645	1255.25
404.869	1213.25
405.093	1207.25
405.317	1217.25
405.541	1177.25
405.765	1158.25
405.988	1129.25
406.212	1174.25
406.436	1171.25
406.66	1177.25
406.883	1177.25
407.107	1257.25
407.331	1347.25
407.555	1372.25
407.778	1414.25
408.002	1381.25
408.226	1257.25
408.449	1256.25
408.673	1227.25
408.896	1213.25
409.12	1187.25
409.344	1231.25
409.567	1223.25
409.791	1230.25
410.014	1192.25
410.238	1194.25
410.461	1220.25
410.685	1176.25
410.908	1144.25
411.132	1153.25
411.355	1115.25
411.578	1108.25
411.802	1112.25
412.025	1103.25
412.249	1114.25
412.472	1101.25
412.695	1068.25
412.919	1034.25
413.142	1032.25
413.365	1061.25
413.589	1060.25
413.812	1080.25
414.035	1035.25
414.258	1028.25
414.482	1029.25
414.705	1061.25
414.928	1082.25
415.151	1058.25
415.374	1064.25
415.597	1085.25
415.821	1045.25
416.044	1004.25
416.267	1018.25
416.49	1006.25
416.713	1024.25
416.936	1038.25
417.159	1015.25
417.382	1038.25
417.605	1027.25
417.828	1037.25
418.051	1044.25
418.274	1052.25
418.497	1045.25
418.72	1068.25
418.943	1069.25
419.166	1145.25
419.389	1248.25
419.611	1206.25
419.834	1129.25
420.057	1088.25
420.28	1086.25
420.503	1035.25
420.726	1037.25
420.948	1044.25
421.171	1008.25
421.394	1033.25
421.617	1040.25
421.839	1033.25
422.062	1041.25
422.285	1030.25
422.507	1083.25
422.73	1056.25
422.953	1100.25
423.175	1100.25
423.398	1120.25
423.621	1122.25
423.843	1139.25
424.066	1145.25
424.288	1089.25
424.511	1111.25
424.733	1117.25
424.956	1073.25
425.178	1080.25
425.401	1067.25
425.623	1062.25
425.846	998.25
426.068	1003.25
426.291	1007.25
426.513	967.25
426.735	978.25
426.958	998.25
427.18	968.25
427.402	949.25
427.625	939.25
427.847	963.25
428.069	936.25
428.292	938.25
428.514	932.25
428.736	920.25
428.958	938.25
429.181	892.25
429.403	881.25
429.625	900.25
429.847	893.25
430.069	910.25
430.292	905.25
430.514	894.25
430.736	904.25
430.958	892.25
431.18	902.25
431.402	904.25
431.624	907.25
431.846	926.25
432.068	956.25
432.29	953.25
432.512	914.25
432.734	941.25
432.956	901.25
433.178	918.25
433.4	924.25
433.622	978.25
433.844	950.25
434.066	958.25
434.287	963.25
434.509	979.25
434.731	1055.25
434.953	1089.25
435.175	1065.25
435.397	1058.25
435.618	991.25
435.84	956.25
436.062	966.25
436.284	943.25
436.505	941.25
436.727	926.25
436.949	962.25
437.17	949.25
437.392	912.25
437.614	912.25
437.835	928.25
438.057	910.25
438.278	920.25
438.5	898.25
438.721	893.25
438.943	912.25
439.165	879.25
439.386	907.25
439.608	945.25
439.829	932.25
440.05	896.25
440.272	936.25
440.493	952.25
440.715	970.25
440.936	948.25
441.158	992.25
441.379	1015.25
441.6	1053.25
441.822	1060.25
442.043	1080.25
442.264	1050.25
442.486	1014.25
442.707	1032.25
442.928	1016.25
443.149	1080.25
443.371	1042.25
443.592	1060.25
443.813	1093.25
444.034	1061.25
444.255	1114.25
444.476	1163.25
444.698	1267.25
444.919	1284.25
445.14	1316.25
445.361	1184.25
445.582	1127.25
445.803	1022.25
446.024	979.25
446.245	970.25
446.466	968.25
446.687	929.25
446.908	936.25
447.129	906.25
447.35	905.25
447.571	916.25
447.792	881.25
448.013	880.25
448.234	866.25
448.455	858.25
448.675	867.25
448.896	872.25
449.117	862.25
449.338	861.25
449.559	875.25
449.779	825.25
450	854.25
450.221	862.25
450.442	866.25
450.662	882.25
450.883	898.25
451.104	874.25
451.324	890.25
451.545	880.25
451.766	872.25
451.986	868.25
452.207	876.25
452.428	859.25
452.648	852.25
452.869	865.25
453.089	870.25
453.31	856.25
453.53	873.25
453.751	836.25
453.971	844.25
454.192	835.25
454.412	827.25
454.633	834.25
454.853	837.25
455.073	820.25
455.294	822.25
455.514	791.25
455.734	804.25
455.955	821.25
456.175	812.25
456.395	816.25
456.616	806.25
456.836	809.25
457.056	787.25
457.276	794.25
457.497	820.25
457.717	808.25
457.937	788.25
458.157	805.25
458.377	834.25
458.598	828.25
458.818	868.25
459.038	892.25
459.258	918.25
459.478	958.25
459.698	935.25
459.918	988.25
460.138	1038.25
460.358	1071.25
460.578	1116.25
460.798	1127.25
461.018	1138.25
461.238	1114.25
461.458	1090.25
461.678	1122.25
461.898	1111.25
462.118	1100.25
462.338	1204.25
462.558	1217.25
462.777	1254.25
462.997	1357.25
463.217	1576.25
463.437	1565.25
463.657	1416.25
463.876	1343.25
464.096	1308.25
464.316	1326.25
464.536	1333.25
464.755	1266.25
464.975	1214.25
465.195	1153.25
465.414	1098.25
465.634	1041.25
465.854	1002.25
466.073	982.25
466.293	960.25
466.512	932.25
466.732	926.25
466.951	893.25
467.171	907.25
467.391	898.25
467.61	888.25
467.829	897.25
468.049	904.25
468.268	892.25
468.488	877.25
468.707	873.25
468.927	856.25
469.146	875.25
469.365	868.25
469.585	872.25
469.804	892.25
470.023	942.25
470.243	946.25
470.462	952.25
470.681	959.25
470.901	919.25
471.12	944.25
471.339	910.25
471.558	846.25
471.777	889.25
471.997	864.25
472.216	856.25
472.435	840.25
472.654	845.25
472.873	820.25
473.092	846.25
473.311	829.25
473.53	847.25
473.749	842.25
473.968	820.25
474.187	850.25
474.406	842.25
474.625	853.25
474.844	826.25
475.063	853.25
475.282	823.25
475.501	860.25
475.72	866.25
475.939	880.25
476.158	864.25
476.377	871.25
476.596	871.25
476.814	905.25
477.033	886.25
477.252	884.25
477.471	936.25
477.69	928.25
477.908	981.25
478.127	995.25
478.346	1043.25
478.564	1039.25
478.783	1042.25
479.002	1074.25
479.22	1080.25
479.439	1056.25
479.658	1072.25
479.876	1049.25
480.095	1046.25
480.313	1120.25
480.532	1171.25
480.751	1158.25
480.969	1107.25
481.188	1045.25
481.406	988.25
481.624	939.25
481.843	981.25
482.061	959.25
482.28	968.25
482.498	957.25
482.717	923.25
482.935	968.25
483.153	964.25
483.372	971.25
483.59	958.25
483.808	932.25
484.027	977.25
484.245	951.25
484.463	972.25
484.681	996.25
484.9	1002.25
485.118	1024.25
485.336	1002.25
485.554	1011.25
485.772	1014.25
485.99	1015.25
486.209	1043.25
486.427	1038.25
486.645	1008.25
486.863	1051.25
487.081	1010.25
487.299	995.25
487.517	1012.25
487.735	999.25
487.953	1003.25
488.171	978.25
488.389	1022.25
488.607	1016.25
488.825	1000.25
489.043	969.25
489.261	1009.25
489.479	997.25
489.696	988.25
489.914	1014.25
490.132	1021.25
490.35	1009.25
490.568	996.25
490.786	1012.25
491.003	996.25
491.221	999.25
491.439	1012.25
491.657	1040.25
491.874	1012.25
492.092	1005.25
492.31	1026.25
492.527	1020.25
492.745	1028.25
492.963	1029.25
493.18	1058.25
493.398	1021.25
493.615	1056.25
493.833	1081.25
494.05	1091.25
494.268	1077.25
494.485	1073.25
494.703	1068.25
494.92	1074.25
495.138	1020.25
495.355	1043.25
495.573	1043.25
495.79	1067.25
496.008	1104.25
496.225	1084.25
496.442	1052.25
496.66	1099.25
496.877	1105.25
497.094	1136.25
497.312	1118.25
497.529	1166.25
497.746	1194.25
497.963	1243.25
498.181	1280.25
498.398	1316.25
498.615	1421.25
498.832	1496.25
499.049	1643.25
499.267	1766.25
499.484	1959.25
499.701	2188.25
499.918	2383.25
500.135	2730.25
500.352	3242.25
500.569	3449.25
500.786	3446.25
501.003	3117.25
501.22	2800.25
501.437	2423.25
501.654	2100.25
501.871	1906.25
502.088	1712.25
502.305	1633.25
502.522	1556.25
502.739	1458.25
502.956	1410.25
503.172	1318.25
503.389	1290.25
503.606	1230.25
503.823	1240.25
504.04	1233.25
504.256	1220.25
504.473	1250.25
504.69	1328.25
504.907	1310.25
505.123	1204.25
505.34	1121.25
505.557	1082.25
505.773	1046.25
505.99	1031.25
506.207	1010.25
506.423	975.25
506.64	1000.25
506.856	978.25
507.073	929.25
507.289	939.25
507.506	950.25
507.722	964.25
507.939	940.25
508.155	924.25
508.372	923.25
508.588	918.25
508.805	897.25
509.021	908.25
509.238	889.25
509.454	891.25
509.67	891.25
509.887	876.25
510.103	888.25
510.319	881.25
510.536	873.25
510.752	860.25
510.968	880.25
511.184	884.25
511.401	888.25
511.617	883.25
511.833	882.25
512.049	855.25
512.265	867.25
512.481	869.25
512.698	861.25
512.914	850.25
513.13	850.25
513.346	891.25
513.562	900.25
513.778	885.25
513.994	880.25
514.21	877.25
514.426	869.25
514.642	900.25
514.858	899.25
515.074	901.25
515.29	919.25
515.506	904.25
515.721	920.25
515.937	948.25
516.153	913.25
516.369	958.25
516.585	978.25
516.801	1024.25
517.016	1084.25
517.232	1145.25
517.448	1196.25
517.664	1261.25
517.879	1255.25
518.095	1235.25
518.311	1213.25
518.527	1160.25
518.742	1115.25
518.958	1050.25
519.173	989.25
519.389	981.25
519.605	953.25
519.82	937.25
520.036	930.25
520.251	886.25
520.467	905.25
520.682	891.25
520.898	889.25
521.113	836.25
521.329	877.25
521.544	844.25
521.76	839.25
521.975	816.25
522.19	823.25
522.406	827.25
522.621	806.25
522.836	830.25
523.052	820.25
523.267	828.25
523.482	812.25
523.698	785.25
523.913	786.25
524.128	826.25
524.343	803.25
524.559	808.25
524.774	802.25
524.989	818.25
525.204	810.25
525.419	791.25
525.634	820.25
525.849	798.25
526.064	826.25
526.28	833.25
526.495	777.25
526.71	811.25
526.925	772.25
527.14	801.25
527.355	805.25
527.57	816.25
527.785	800.25
527.999	788.25
528.214	774.25
528.429	836.25
528.644	823.25
528.859	781.25
529.074	805.25
529.289	807.25
529.503	808.25
529.718	787.25
529.933	770.25
530.148	792.25
530.363	802.25
530.577	770.25
530.792	798.25
531.007	800.25
531.221	797.25
531.436	796.25
531.651	804.25
531.865	790.25
532.08	784.25
532.295	797.25
532.509	825.25
532.724	789.25
532.938	822.25
533.153	820.25
533.367	818.25
533.582	791.25
533.796	772.25
534.011	802.25
534.225	770.25
534.44	803.25
534.654	766.25
534.868	773.25
535.083	778.25
535.297	789.25
535.511	780.25
535.726	775.25
535.94	758.25
536.154	756.25
536.369	746.25
536.583	740.25
536.797	715.25
537.011	742.25
537.225	754.25
537.44	731.25
537.654	720.25
537.868	716.25
538.082	739.25
538.296	726.25
538.51	721.25
538.724	739.25
538.938	738.25
539.153	723.25
539.367	706.25
539.581	688.25
539.795	708.25
540.009	722.25
540.222	724.25
540.436	714.25
540.65	686.25
540.864	690.25
541.078	697.25
541.292	707.25
541.506	698.25
541.72	710.25
541.934	721.25
542.147	722.25
542.361	702.25
542.575	685.25
542.789	692.25
543.002	691.25
543.216	689.25
543.43	688.25
543.644	695.25
543.857	693.25
544.071	726.25
544.285	716.25
544.498	704.25
544.712	691.25
544.925	709.25
545.139	707.25
545.352	726.25
545.566	724.25
545.779	712.25
545.993	728.25
546.206	706.25
546.42	730.25
546.633	716.25
546.847	718.25
547.06	715.25
547.274	691.25
547.487	701.25
547.7	737.25
547.914	728.25
548.127	715.25
548.34	707.25
548.554	730.25
548.767	728.25
548.98	712.25
549.193	723.25
549.407	727.25
549.62	748.25
549.833	765.25
550.046	752.25
550.259	717.25
550.473	696.25
550.686	697.25
550.899	681.25
551.112	724.25
551.325	665.25
551.538	724.25
551.751	716.25
551.964	716.25
552.177	700.25
552.39	715.25
552.603	739.25
552.816	747.25
553.029	754.25
553.242	807.25
553.455	803.25
553.667	824.25
553.88	797.25
554.093	795.25
554.306	732.25
554.519	756.25
554.732	692.25
554.944	721.25
555.157	680.25
555.37	702.25
555.583	694.25
555.795	694.25
556.008	630.25
556.221	635.25
556.433	632.25
556.646	646.25
556.859	629.25
557.071	626.25
557.284	638.25
557.496	634.25
557.709	612.25
557.921	624.25
558.134	617.25
558.346	603.25
558.559	606.25
558.771	629.25
558.984	598.25
559.196	586.25
559.409	617.25
559.621	589.25
559.833	601.25
560.046	588.25
560.258	604.25
560.47	606.25
560.683	581.25
560.895	604.25
561.107	576.25
561.32	588.25
561.532	602.25
561.744	601.25
561.956	581.25
562.168	602.25
562.381	605.25
562.593	621.25
562.805	632.25
563.017	608.25
563.229	601.25
563.441	599.25
563.653	612.25
563.865	583.25
564.077	620.25
564.289	629.25
564.501	640.25
564.713	642.25
564.925	642.25
565.137	674.25
565.349	641.25
565.561	680.25
565.773	699.25
565.985	751.25
566.197	757.25
566.408	850.25
566.62	916.25
566.832	1005.25
567.044	1013.25
567.255	1012.25
567.467	1017.25
567.679	1092.25
567.891	1207.25
568.102	1279.25
568.314	1197.25
568.526	1067.25
568.737	948.25
568.949	841.25
569.161	782.25
569.372	710.25
569.584	687.25
569.795	665.25
570.007	652.25
570.218	630.25
570.43	627.25
570.641	633.25
570.853	591.25
571.064	621.25
571.276	646.25
571.487	598.25
571.698	594.25
571.91	554.25
572.121	545.25
572.333	540.25
572.544	528.25
572.755	516.25
572.966	500.25
573.178	526.25
573.389	518.25
573.6	486.25
573.811	512.25
574.023	506.25
574.234	499.25
574.445	487.25
574.656	515.25
574.867	514.25
575.078	515.25
575.289	514.25
575.501	497.25
575.712	469.25
575.923	473.25
576.134	459.25
576.345	475.25
576.556	477.25
576.767	481.25
576.978	464.25
577.188	474.25
577.399	459.25
577.61	459.25
577.821	450.25
578.032	472.25
578.243	444.25
578.454	448.25
578.665	459.25
578.875	454.25
579.086	439.25
579.297	434.25
579.508	450.25
579.718	454.25
579.929	457.25
580.14	436.25
580.35	433.25
580.561	454.25
580.772	449.25
580.982	426.25
581.193	437.25
581.403	412.25
581.614	417.25
581.825	429.25
582.035	405.25
582.246	425.25
582.456	441.25
582.667	420.25
582.877	420.25
583.087	448.25
583.298	411.25
583.508	416.25
583.719	412.25
583.929	403.25
584.139	422.25
584.35	430.25
584.56	411.25
584.77	399.25
584.981	398.25
585.191	417.25
585.401	408.25
585.611	423.25
585.821	411.25
586.032	410.25
586.242	411.25
586.452	404.25
586.662	410.25
586.872	405.25
587.082	406.25
587.292	388.25
587.502	411.25
587.713	410.25
587.923	371.25
588.133	414.25
588.343	395.25
588.553	394.25
588.762	408.25
588.972	393.25
589.182	410.25
589.392	405.25
589.602	398.25
589.812	397.25
590.022	399.25
590.232	404.25
590.441	399.25
590.651	408.25
590.861	406.25
591.071	406.25
591.281	418.25
591.49	418.25
591.7	414.25
591.91	432.25
592.119	417.25
592.329	454.25
592.539	446.25
592.748	466.25
592.958	501.25
593.167	500.25
593.377	516.25
593.587	529.25
593.796	535.25
594.006	542.25
594.215	556.25
594.424	530.25
594.634	513.25
594.843	512.25
595.053	486.25
595.262	464.25
595.472	450.25
595.681	428.25
595.89	412.25
596.1	410.25
596.309	398.25
596.518	407.25
596.727	384.25
596.937	381.25
597.146	381.25
597.355	394.25
597.564	362.25
597.774	356.25
597.983	375.25
598.192	357.25
598.401	370.25
598.61	354.25
598.819	358.25
599.028	351.25
599.237	351.25
599.446	341.25
599.655	335.25
599.864	344.25
600.073	348.25
600.282	345.25
600.491	356.25
600.7	374.25
600.909	343.25
601.118	332.25
601.327	334.25
601.536	316.25
601.745	342.25
601.953	330.25
602.162	335.25
602.371	310.25
602.58	329.25
602.789	342.25
602.997	332.25
603.206	336.25
603.415	338.25
603.623	319.25
603.832	314.25
604.041	320.25
604.249	327.25
604.458	325.25
604.666	313.25
604.875	316.25
605.084	324.25
605.292	310.25
605.501	321.25
605.709	308.25
605.918	333.25
606.126	296.25
606.334	299.25
606.543	327.25
606.751	321.25
606.96	322.25
607.168	326.25
607.376	308.25
607.585	317.25
607.793	302.25
608.001	286.25
608.21	296.25
608.418	296.25
608.626	299.25
608.834	314.25
609.043	288.25
609.251	309.25
609.459	305.25
609.667	307.25
609.875	312.25
610.083	302.25
610.291	316.25
610.499	312.25
610.707	307.25
610.916	315.25
611.124	294.25
611.332	310.25
611.54	293.25
611.748	291.25
611.955	296.25
612.163	314.25
612.371	305.25
612.579	291.25
612.787	282.25
612.995	312.25
613.203	302.25
613.411	296.25
613.618	290.25
613.826	300.25
614.034	296.25
614.242	301.25
614.449	305.25
614.657	300.25
614.865	294.25
615.072	296.25
615.28	292.25
615.488	284.25
615.695	298.25
615.903	296.25
616.111	302.25
616.318	308.25
616.526	312.25
616.733	286.25
616.941	299.25
617.148	299.25
617.356	298.25
617.563	298.25
617.771	299.25
617.978	299.25
618.185	288.25
618.393	261.25
618.6	294.25
618.807	301.25
619.015	295.25
619.222	278.25
619.429	272.25
619.637	279.25
619.844	296.25
620.051	312.25
620.258	274.25
620.466	280.25
620.673	270.25
620.88	265.25
621.087	273.25
621.294	268.25
621.501	259.25
621.708	280.25
621.915	282.25
622.122	266.25
622.329	277.25
622.536	288.25
622.743	275.25
622.95	265.25
623.157	256.25
623.364	257.25
623.571	264.25
623.778	256.25
623.985	263.25
624.192	273.25
624.399	248.25
624.606	249.25
624.812	246.25
625.019	258.25
625.226	255.25
625.433	259.25
625.639	249.25
625.846	246.25
626.053	253.25
626.259	248.25
626.466	236.25
626.673	249.25
626.879	242.25
627.086	235.25
627.293	225.25
627.499	234.25
627.706	254.25
627.912	247.25
628.119	243.25
628.325	248.25
628.532	240.25
628.738	254.25
628.945	236.25
629.151	234.25
629.357	231.25
629.564	228.25
629.77	219.25
629.976	232.25
630.183	241.25
630.389	234.25
630.595	245.25
630.802	205.25
631.008	213.25
631.214	211.25
631.42	214.25
631.627	237.25
631.833	210.25
632.039	219.25
632.245	230.25
632.451	224.25
632.657	218.25
632.863	216.25
633.069	226.25
633.275	222.25
633.481	221.25
633.688	213.25
633.893	226.25
634.099	237.25
634.305	203.25
634.511	206.25
634.717	218.25
634.923	207.25
635.129	221.25
635.335	218.25
635.541	228.25
635.747	208.25
635.952	233.25
636.158	224.25
636.364	217.25
636.57	210.25
636.775	222.25
636.981	198.25
637.187	214.25
637.392	206.25
637.598	208.25
637.804	201.25
638.009	202.25
638.215	208.25
638.421	206.25
638.626	214.25
638.832	206.25
639.037	203.25
639.243	189.25
639.448	183.25
639.654	205.25
639.859	207.25
640.065	198.25
640.27	211.25
640.475	205.25
640.681	205.25
640.886	206.25
641.091	207.25
641.297	194.25
641.502	198.25
641.707	184.25
641.913	190.25
642.118	202.25
642.323	180.25
642.528	198.25
642.733	206.25
642.939	181.25
643.144	169.25
643.349	186.25
643.554	188.25
643.759	204.25
643.964	183.25
644.169	190.25
644.374	201.25
644.579	197.25
644.784	198.25
644.989	183.25
645.194	200.25
645.399	191.25
645.604	198.25
645.809	209.25
646.014	192.25
646.219	206.25
646.423	184.25
646.628	196.25
646.833	185.25
647.038	199.25
647.243	197.25
647.447	206.25
647.652	203.25
647.857	207.25
648.062	190.25
648.266	200.25
648.471	196.25
648.676	211.25
648.88	203.25
649.085	193.25
649.289	188.25
649.494	190.25
649.698	182.25
649.903	176.25
650.107	184.25
650.312	190.25
650.516	164.25
650.721	186.25
650.925	167.25
651.13	176.25
651.334	163.25
651.539	180.25
651.743	170.25
651.947	182.25
652.152	171.25
652.356	156.25
652.56	168.25
652.764	155.25
652.969	154.25
653.173	156.25
653.377	162.25
653.581	156.25
653.785	144.25
653.99	151.25
654.194	145.25
654.398	147.25
654.602	132.25
654.806	139.25
655.01	161.25
655.214	131.25
655.418	132.25
655.622	132.25
655.826	126.25
656.03	144.25
656.234	126.25
656.438	139.25
656.642	138.25
656.846	133.25
657.049	128.25
657.253	136.25
657.457	132.25
657.661	128.25
657.865	113.25
658.068	121.25
658.272	128.25
658.476	123.25
658.68	126.25
658.883	110.25
659.087	121.25
659.291	99.25
659.494	100.25
659.698	97.25
659.901	97.25
660.105	95.25
660.309	103.25
660.512	91.25
660.716	99.25
660.919	83.25
661.123	85.25
661.326	101.25
661.53	80.25
661.733	84.25
661.936	92.25
662.14	85.25
662.343	100.25
662.546	92.25
662.75	71.25
662.953	87.25
663.156	92.25
663.36	82.25
663.563	68.25
663.766	75.25
663.969	97.25
664.173	76.25
664.376	76.25
664.579	88.25
664.782	85.25
664.985	91.25
665.188	76.25
665.391	72.25
665.594	93.25
665.797	93.25
666	81.25
666.203	76.25
666.406	77.25
666.609	85.25
666.812	73.25
667.015	83.25
667.218	92.25
667.421	84.25
667.624	81.25
667.827	83.25
668.03	84.25
668.232	74.25
668.435	82.25
668.638	79.25
668.841	86.25
669.043	76.25
669.246	100.25
669.449	77.25
669.651	98.25
669.854	70.25
670.057	85.25
670.259	88.25
670.462	78.25
670.665	90.25
670.867	94.25
671.07	89.25
671.272	79.25
671.475	90.25
671.677	85.25
671.88	74.25
672.082	72.25
672.284	88.25
672.487	70.25
672.689	80.25
672.892	88.25
