Data from Ni(NO3)2@0.0625M.TitratingCurve.Agarose3%dH2O.NegLispCup.LampEnergy10.LIBS07252019_HRD10591_18-13-28-568.txt Node
Date: Thu Jul 25 18:13:28 EDT 2019
User: cochatt
Spectrometer: HR+D1059
Trigger mode: 1
Integration Time (sec): 1.000000E-1
Scans to average: 1
Electric dark correction enabled: true
Nonlinearity correction enabled: false
Boxcar width: 0
XAxis mode: Wavelengths
Number of Pixels in Spectrum: 2048
>>>>>Begin Spectral Data<<<<<
223.165	-15.06
223.4	-15.06
223.635	-15.06
223.869	-22.06
224.104	-17.06
224.338	-17.06
224.573	-17.06
224.808	-23.06
225.042	-10.06
225.277	-0.06
225.511	-6.06
225.746	-3.06
225.98	5.94
226.215	7.94
226.449	11.94
226.683	27.94
226.918	40.94
227.152	35.94
227.387	40.94
227.621	27.94
227.856	45.94
228.09	34.94
228.324	33.94
228.559	55.94
228.793	63.94
229.027	94.94
229.262	101.94
229.496	101.94
229.73	117.94
229.964	120.94
230.199	119.94
230.433	99.94
230.667	124.94
230.901	128.94
231.136	118.94
231.37	128.94
231.604	121.94
231.838	114.94
232.072	120.94
232.306	120.94
232.541	125.94
232.775	130.94
233.009	144.94
233.243	135.94
233.477	127.94
233.711	127.94
233.945	139.94
234.179	127.94
234.413	127.94
234.647	117.94
234.881	130.94
235.115	132.94
235.349	146.94
235.583	141.94
235.817	149.94
236.051	137.94
236.285	141.94
236.519	146.94
236.753	135.94
236.987	150.94
237.221	152.94
237.455	138.94
237.689	144.94
237.922	150.94
238.156	129.94
238.39	139.94
238.624	146.94
238.858	134.94
239.091	162.94
239.325	155.94
239.559	167.94
239.793	149.94
240.027	153.94
240.26	150.94
240.494	155.94
240.728	138.94
240.961	147.94
241.195	158.94
241.429	159.94
241.662	152.94
241.896	153.94
242.13	167.94
242.363	166.94
242.597	174.94
242.83	171.94
243.064	180.94
243.298	166.94
243.531	163.94
243.765	163.94
243.998	170.94
244.232	169.94
244.465	168.94
244.699	183.94
244.932	182.94
245.166	156.94
245.399	177.94
245.633	187.94
245.866	168.94
246.099	179.94
246.333	190.94
246.566	203.94
246.8	189.94
247.033	190.94
247.266	203.94
247.5	187.94
247.733	200.94
247.966	196.94
248.2	207.94
248.433	210.94
248.666	198.94
248.899	194.94
249.133	209.94
249.366	198.94
249.599	217.94
249.832	206.94
250.066	203.94
250.299	214.94
250.532	197.94
250.765	207.94
250.998	208.94
251.231	205.94
251.465	226.94
251.698	214.94
251.931	240.94
252.164	225.94
252.397	230.94
252.63	226.94
252.863	232.94
253.096	220.94
253.329	221.94
253.562	211.94
253.795	218.94
254.028	226.94
254.261	223.94
254.494	242.94
254.727	242.94
254.96	227.94
255.193	233.94
255.426	236.94
255.659	234.94
255.892	235.94
256.124	246.94
256.357	248.94
256.59	225.94
256.823	246.94
257.056	241.94
257.289	254.94
257.521	244.94
257.754	265.94
257.987	253.94
258.22	264.94
258.452	272.94
258.685	240.94
258.918	251.94
259.151	256.94
259.383	252.94
259.616	256.94
259.849	273.94
260.081	262.94
260.314	272.94
260.547	274.94
260.779	253.94
261.012	257.94
261.244	272.94
261.477	278.94
261.71	254.94
261.942	263.94
262.175	253.94
262.407	278.94
262.64	271.94
262.872	284.94
263.105	283.94
263.337	273.94
263.57	272.94
263.802	278.94
264.035	298.94
264.267	279.94
264.499	280.94
264.732	291.94
264.964	299.94
265.197	273.94
265.429	291.94
265.661	304.94
265.894	292.94
266.126	296.94
266.358	288.94
266.591	282.94
266.823	278.94
267.055	292.94
267.287	284.94
267.52	271.94
267.752	279.94
267.984	307.94
268.216	314.94
268.448	305.94
268.681	304.94
268.913	309.94
269.145	314.94
269.377	306.94
269.609	305.94
269.841	303.94
270.073	295.94
270.306	303.94
270.538	303.94
270.77	290.94
271.002	317.94
271.234	315.94
271.466	310.94
271.698	324.94
271.93	313.94
272.162	340.94
272.394	316.94
272.626	323.94
272.858	325.94
273.09	330.94
273.322	319.94
273.553	322.94
273.785	338.94
274.017	323.94
274.249	335.94
274.481	332.94
274.713	335.94
274.945	328.94
275.176	341.94
275.408	325.94
275.64	332.94
275.872	347.94
276.104	342.94
276.335	326.94
276.567	346.94
276.799	332.94
277.031	348.94
277.262	338.94
277.494	343.94
277.726	351.94
277.957	357.94
278.189	334.94
278.421	357.94
278.652	355.94
278.884	364.94
279.115	363.94
279.347	370.94
279.579	367.94
279.81	353.94
280.042	372.94
280.273	369.94
280.505	368.94
280.736	359.94
280.968	374.94
281.199	349.94
281.431	370.94
281.662	387.94
281.894	358.94
282.125	362.94
282.356	390.94
282.588	358.94
282.819	380.94
283.051	366.94
283.282	389.94
283.513	389.94
283.745	408.94
283.976	394.94
284.207	392.94
284.439	372.94
284.67	393.94
284.901	414.94
285.132	419.94
285.364	384.94
285.595	390.94
285.826	393.94
286.057	395.94
286.288	378.94
286.52	388.94
286.751	396.94
286.982	417.94
287.213	395.94
287.444	410.94
287.675	419.94
287.906	402.94
288.138	411.94
288.369	393.94
288.6	432.94
288.831	409.94
289.062	430.94
289.293	423.94
289.524	418.94
289.755	431.94
289.986	417.94
290.217	415.94
290.448	437.94
290.679	439.94
290.91	423.94
291.141	416.94
291.371	452.94
291.602	435.94
291.833	414.94
292.064	427.94
292.295	436.94
292.526	436.94
292.757	416.94
292.987	436.94
293.218	431.94
293.449	434.94
293.68	445.94
293.91	434.94
294.141	422.94
294.372	417.94
294.603	437.94
294.833	430.94
295.064	424.94
295.295	430.94
295.525	430.94
295.756	439.94
295.987	456.94
296.217	446.94
296.448	450.94
296.679	435.94
296.909	450.94
297.14	453.94
297.37	461.94
297.601	472.94
297.831	471.94
298.062	458.94
298.292	473.94
298.523	485.94
298.753	490.94
298.984	465.94
299.214	472.94
299.445	452.94
299.675	471.94
299.905	471.94
300.136	476.94
300.366	473.94
300.597	484.94
300.827	481.94
301.057	487.94
301.288	508.94
301.518	496.94
301.748	500.94
301.979	529.94
302.209	504.94
302.439	466.94
302.669	475.94
302.9	474.94
303.13	483.94
303.36	502.94
303.59	483.94
303.82	476.94
304.051	486.94
304.281	485.94
304.511	483.94
304.741	488.94
304.971	500.94
305.201	482.94
305.431	471.94
305.661	472.94
305.891	491.94
306.121	504.94
306.352	478.94
306.582	462.94
306.812	472.94
307.042	498.94
307.272	475.94
307.502	459.94
307.731	469.94
307.961	480.94
308.191	470.94
308.421	478.94
308.651	475.94
308.881	485.94
309.111	455.94
309.341	464.94
309.571	469.94
309.8	474.94
310.03	476.94
310.26	486.94
310.49	471.94
310.72	463.94
310.949	474.94
311.179	459.94
311.409	479.94
311.639	496.94
311.868	496.94
312.098	498.94
312.328	500.94
312.557	504.94
312.787	497.94
313.017	487.94
313.246	508.94
313.476	517.94
313.706	503.94
313.935	513.94
314.165	510.94
314.394	498.94
314.624	515.94
314.853	490.94
315.083	511.94
315.312	491.94
315.542	497.94
315.771	504.94
316.001	496.94
316.23	501.94
316.46	511.94
316.689	514.94
316.919	510.94
317.148	498.94
317.377	498.94
317.607	504.94
317.836	511.94
318.065	485.94
318.295	498.94
318.524	496.94
318.753	480.94
318.983	509.94
319.212	492.94
319.441	494.94
319.67	513.94
319.9	490.94
320.129	498.94
320.358	528.94
320.587	530.94
320.816	497.94
321.046	510.94
321.275	512.94
321.504	506.94
321.733	488.94
321.962	500.94
322.191	512.94
322.42	481.94
322.649	497.94
322.878	514.94
323.108	504.94
323.337	520.94
323.566	520.94
323.795	514.94
324.024	526.94
324.253	537.94
324.482	498.94
324.71	536.94
324.939	501.94
325.168	524.94
325.397	536.94
325.626	521.94
325.855	532.94
326.084	534.94
326.313	552.94
326.542	572.94
326.77	555.94
326.999	573.94
327.228	536.94
327.457	530.94
327.686	536.94
327.914	561.94
328.143	552.94
328.372	547.94
328.6	552.94
328.829	555.94
329.058	545.94
329.287	568.94
329.515	539.94
329.744	555.94
329.972	546.94
330.201	554.94
330.43	566.94
330.658	546.94
330.887	585.94
331.115	572.94
331.344	566.94
331.572	574.94
331.801	601.94
332.03	598.94
332.258	619.94
332.486	637.94
332.715	657.94
332.943	681.94
333.172	718.94
333.4	764.94
333.629	789.94
333.857	781.94
334.085	730.94
334.314	720.94
334.542	706.94
334.771	699.94
334.999	678.94
335.227	686.94
335.455	672.94
335.684	678.94
335.912	666.94
336.14	676.94
336.369	664.94
336.597	653.94
336.825	660.94
337.053	668.94
337.281	643.94
337.51	638.94
337.738	640.94
337.966	607.94
338.194	602.94
338.422	608.94
338.65	581.94
338.878	602.94
339.106	592.94
339.334	598.94
339.562	613.94
339.79	587.94
340.018	590.94
340.246	574.94
340.474	559.94
340.702	594.94
340.93	587.94
341.158	602.94
341.386	577.94
341.614	559.94
341.842	572.94
342.07	594.94
342.298	561.94
342.526	564.94
342.754	594.94
342.981	584.94
343.209	600.94
343.437	633.94
343.665	663.94
343.893	715.94
344.12	719.94
344.348	678.94
344.576	640.94
344.804	613.94
345.031	600.94
345.259	594.94
345.487	583.94
345.714	587.94
345.942	561.94
346.17	559.94
346.397	583.94
346.625	568.94
346.853	568.94
347.08	559.94
347.308	581.94
347.535	578.94
347.763	570.94
347.99	559.94
348.218	585.94
348.445	575.94
348.673	572.94
348.9	558.94
349.128	560.94
349.355	567.94
349.583	558.94
349.81	558.94
350.037	545.94
350.265	562.94
350.492	533.94
350.72	549.94
350.947	558.94
351.174	551.94
351.402	554.94
351.629	522.94
351.856	547.94
352.083	540.94
352.311	548.94
352.538	530.94
352.765	538.94
352.992	553.94
353.22	544.94
353.447	556.94
353.674	536.94
353.901	556.94
354.128	525.94
354.355	543.94
354.583	559.94
354.81	546.94
355.037	553.94
355.264	525.94
355.491	540.94
355.718	555.94
355.945	552.94
356.172	534.94
356.399	584.94
356.626	554.94
356.853	538.94
357.08	545.94
357.307	542.94
357.534	532.94
357.761	553.94
357.988	560.94
358.215	542.94
358.441	527.94
358.668	535.94
358.895	545.94
359.122	549.94
359.349	547.94
359.576	550.94
359.802	544.94
360.029	512.94
360.256	524.94
360.483	548.94
360.709	527.94
360.936	558.94
361.163	543.94
361.39	528.94
361.616	551.94
361.843	553.94
362.07	546.94
362.296	528.94
362.523	531.94
362.749	526.94
362.976	525.94
363.203	544.94
363.429	500.94
363.656	539.94
363.882	542.94
364.109	537.94
364.335	534.94
364.562	518.94
364.788	540.94
365.015	544.94
365.241	551.94
365.468	550.94
365.694	534.94
365.92	549.94
366.147	534.94
366.373	523.94
366.599	545.94
366.826	544.94
367.052	519.94
367.278	540.94
367.505	548.94
367.731	538.94
367.957	563.94
368.184	550.94
368.41	548.94
368.636	546.94
368.862	554.94
369.089	564.94
369.315	559.94
369.541	592.94
369.767	553.94
369.993	551.94
370.219	576.94
370.445	572.94
370.672	562.94
370.898	596.94
371.124	584.94
371.35	583.94
371.576	598.94
371.802	571.94
372.028	599.94
372.254	581.94
372.48	581.94
372.706	602.94
372.932	630.94
373.158	619.94
373.384	609.94
373.61	589.94
373.835	588.94
374.061	588.94
374.287	603.94
374.513	595.94
374.739	612.94
374.965	646.94
375.191	676.94
375.416	638.94
375.642	634.94
375.868	640.94
376.094	604.94
376.319	618.94
376.545	618.94
376.771	592.94
376.997	588.94
377.222	595.94
377.448	608.94
377.674	572.94
377.899	602.94
378.125	604.94
378.35	580.94
378.576	562.94
378.802	569.94
379.027	584.94
379.253	582.94
379.478	569.94
379.704	584.94
379.929	568.94
380.155	576.94
380.38	589.94
380.606	582.94
380.831	592.94
381.057	607.94
381.282	588.94
381.507	584.94
381.733	605.94
381.958	606.94
382.184	597.94
382.409	620.94
382.634	634.94
382.86	624.94
383.085	640.94
383.31	650.94
383.535	668.94
383.761	668.94
383.986	683.94
384.211	691.94
384.436	694.94
384.662	721.94
384.887	743.94
385.112	709.94
385.337	721.94
385.562	735.94
385.787	716.94
386.013	711.94
386.238	701.94
386.463	711.94
386.688	716.94
386.913	692.94
387.138	700.94
387.363	690.94
387.588	694.94
387.813	683.94
388.038	691.94
388.263	696.94
388.488	699.94
388.713	709.94
388.938	676.94
389.163	665.94
389.387	696.94
389.612	672.94
389.837	698.94
390.062	707.94
390.287	679.94
390.512	687.94
390.736	688.94
390.961	729.94
391.186	712.94
391.411	739.94
391.636	746.94
391.86	793.94
392.085	812.94
392.31	795.94
392.534	766.94
392.759	739.94
392.984	754.94
393.208	743.94
393.433	736.94
393.658	756.94
393.882	742.94
394.107	768.94
394.331	750.94
394.556	780.94
394.78	764.94
395.005	752.94
395.229	738.94
395.454	786.94
395.678	809.94
395.903	802.94
396.127	773.94
396.352	715.94
396.576	742.94
396.801	744.94
397.025	766.94
397.249	749.94
397.474	784.94
397.698	799.94
397.922	790.94
398.147	761.94
398.371	823.94
398.595	806.94
398.82	858.94
399.044	937.94
399.268	1015.94
399.492	1195.94
399.717	1399.94
399.941	1376.94
400.165	1181.94
400.389	1014.94
400.613	991.94
400.837	931.94
401.062	886.94
401.286	875.94
401.51	883.94
401.734	875.94
401.958	890.94
402.182	910.94
402.406	920.94
402.63	945.94
402.854	952.94
403.078	947.94
403.302	1010.94
403.526	978.94
403.75	1020.94
403.974	1052.94
404.198	1060.94
404.422	1089.94
404.645	1017.94
404.869	1025.94
405.093	1017.94
405.317	971.94
405.541	955.94
405.765	972.94
405.988	976.94
406.212	946.94
406.436	961.94
406.66	994.94
406.883	1007.94
407.107	1106.94
407.331	1107.94
407.555	1157.94
407.778	1152.94
408.002	1127.94
408.226	1056.94
408.449	1060.94
408.673	1017.94
408.896	1007.94
409.12	1003.94
409.344	1007.94
409.567	1016.94
409.791	995.94
410.014	1011.94
410.238	1019.94
410.461	991.94
410.685	978.94
410.908	976.94
411.132	958.94
411.355	907.94
411.578	929.94
411.802	919.94
412.025	929.94
412.249	964.94
412.472	939.94
412.695	904.94
412.919	891.94
413.142	914.94
413.365	889.94
413.589	912.94
413.812	883.94
414.035	858.94
414.258	891.94
414.482	902.94
414.705	904.94
414.928	940.94
415.151	887.94
415.374	902.94
415.597	885.94
415.821	842.94
416.044	861.94
416.267	866.94
416.49	873.94
416.713	876.94
416.936	889.94
417.159	875.94
417.382	857.94
417.605	886.94
417.828	902.94
418.051	890.94
418.274	878.94
418.497	861.94
418.72	896.94
418.943	904.94
419.166	944.94
419.389	1016.94
419.611	980.94
419.834	928.94
420.057	934.94
420.28	908.94
420.503	871.94
420.726	864.94
420.948	862.94
421.171	844.94
421.394	858.94
421.617	855.94
421.839	864.94
422.062	868.94
422.285	865.94
422.507	852.94
422.73	910.94
422.953	900.94
423.175	924.94
423.398	922.94
423.621	949.94
423.843	968.94
424.066	950.94
424.288	935.94
424.511	952.94
424.733	928.94
424.956	903.94
425.178	900.94
425.401	872.94
425.623	851.94
425.846	880.94
426.068	859.94
426.291	824.94
426.513	832.94
426.735	832.94
426.958	817.94
427.18	814.94
427.402	786.94
427.625	804.94
427.847	754.94
428.069	784.94
428.292	802.94
428.514	786.94
428.736	752.94
428.958	772.94
429.181	754.94
429.403	753.94
429.625	758.94
429.847	791.94
430.069	770.94
430.292	768.94
430.514	747.94
430.736	752.94
430.958	752.94
431.18	773.94
431.402	771.94
431.624	752.94
431.846	804.94
432.068	774.94
432.29	789.94
432.512	766.94
432.734	829.94
432.956	777.94
433.178	767.94
433.4	767.94
433.622	780.94
433.844	776.94
434.066	774.94
434.287	816.94
434.509	810.94
434.731	862.94
434.953	899.94
435.175	890.94
435.397	843.94
435.618	833.94
435.84	812.94
436.062	784.94
436.284	793.94
436.505	762.94
436.727	793.94
436.949	822.94
437.17	780.94
437.392	785.94
437.614	746.94
437.835	738.94
438.057	723.94
438.278	735.94
438.5	740.94
438.721	708.94
438.943	743.94
439.165	748.94
439.386	768.94
439.608	799.94
439.829	779.94
440.05	780.94
440.272	809.94
440.493	776.94
440.715	801.94
440.936	819.94
441.158	847.94
441.379	852.94
441.6	866.94
441.822	904.94
442.043	904.94
442.264	860.94
442.486	861.94
442.707	873.94
442.928	845.94
443.149	868.94
443.371	872.94
443.592	883.94
443.813	890.94
444.034	891.94
444.255	934.94
444.476	947.94
444.698	1044.94
444.919	1095.94
445.14	1107.94
445.361	1016.94
445.582	900.94
445.803	851.94
446.024	818.94
446.245	771.94
446.466	808.94
446.687	814.94
446.908	791.94
447.129	775.94
447.35	741.94
447.571	762.94
447.792	740.94
448.013	730.94
448.234	734.94
448.455	735.94
448.675	714.94
448.896	710.94
449.117	725.94
449.338	718.94
449.559	705.94
449.779	738.94
450	732.94
450.221	722.94
450.442	716.94
450.662	710.94
450.883	746.94
451.104	757.94
451.324	744.94
451.545	751.94
451.766	738.94
451.986	723.94
452.207	705.94
452.428	710.94
452.648	739.94
452.869	698.94
453.089	688.94
453.31	727.94
453.53	704.94
453.751	694.94
453.971	683.94
454.192	708.94
454.412	701.94
454.633	702.94
454.853	675.94
455.073	670.94
455.294	671.94
455.514	701.94
455.734	666.94
455.955	694.94
456.175	668.94
456.395	694.94
456.616	707.94
456.836	673.94
457.056	648.94
457.276	657.94
457.497	664.94
457.717	642.94
457.937	668.94
458.157	725.94
458.377	678.94
458.598	691.94
458.818	728.94
459.038	738.94
459.258	790.94
459.478	784.94
459.698	805.94
459.918	850.94
460.138	862.94
460.358	906.94
460.578	926.94
460.798	936.94
461.018	924.94
461.238	917.94
461.458	927.94
461.678	908.94
461.898	922.94
462.118	925.94
462.338	1008.94
462.558	1037.94
462.777	1034.94
462.997	1168.94
463.217	1280.94
463.437	1287.94
463.657	1155.94
463.876	1106.94
464.096	1095.94
464.316	1075.94
464.536	1131.94
464.755	1041.94
464.975	1013.94
465.195	956.94
465.414	939.94
465.634	855.94
465.854	819.94
466.073	807.94
466.293	801.94
466.512	778.94
466.732	774.94
466.951	751.94
467.171	770.94
467.391	774.94
467.61	734.94
467.829	758.94
468.049	745.94
468.268	731.94
468.488	718.94
468.707	705.94
468.927	716.94
469.146	709.94
469.365	733.94
469.585	748.94
469.804	761.94
470.023	756.94
470.243	773.94
470.462	786.94
470.681	800.94
470.901	786.94
471.12	783.94
471.339	753.94
471.558	745.94
471.777	746.94
471.997	711.94
472.216	706.94
472.435	708.94
472.654	728.94
472.873	690.94
473.092	706.94
473.311	688.94
473.53	720.94
473.749	707.94
473.968	699.94
474.187	704.94
474.406	713.94
474.625	700.94
474.844	723.94
475.063	717.94
475.282	686.94
475.501	713.94
475.72	718.94
475.939	717.94
476.158	736.94
476.377	728.94
476.596	705.94
476.814	722.94
477.033	740.94
477.252	757.94
477.471	798.94
477.69	788.94
477.908	815.94
478.127	827.94
478.346	838.94
478.564	854.94
478.783	870.94
479.002	882.94
479.22	884.94
479.439	865.94
479.658	863.94
479.876	881.94
480.095	889.94
480.313	916.94
480.532	963.94
480.751	949.94
480.969	904.94
481.188	859.94
481.406	855.94
481.624	843.94
481.843	807.94
482.061	792.94
482.28	797.94
482.498	801.94
482.717	776.94
482.935	799.94
483.153	812.94
483.372	790.94
483.59	786.94
483.808	831.94
484.027	788.94
484.245	800.94
484.463	836.94
484.681	822.94
484.9	855.94
485.118	835.94
485.336	825.94
485.554	860.94
485.772	854.94
485.99	848.94
486.209	847.94
486.427	876.94
486.645	870.94
486.863	847.94
487.081	856.94
487.299	846.94
487.517	821.94
487.735	835.94
487.953	828.94
488.171	859.94
488.389	857.94
488.607	834.94
488.825	810.94
489.043	807.94
489.261	794.94
489.479	837.94
489.696	824.94
489.914	831.94
490.132	862.94
490.35	839.94
490.568	844.94
490.786	819.94
491.003	826.94
491.221	842.94
491.439	830.94
491.657	850.94
491.874	820.94
492.092	832.94
492.31	822.94
492.527	859.94
492.745	880.94
492.963	878.94
493.18	851.94
493.398	853.94
493.615	887.94
493.833	890.94
494.05	893.94
494.268	900.94
494.485	879.94
494.703	875.94
494.92	847.94
495.138	847.94
495.355	895.94
495.573	884.94
495.79	908.94
496.008	906.94
496.225	895.94
496.442	906.94
496.66	915.94
496.877	926.94
497.094	923.94
497.312	946.94
497.529	966.94
497.746	975.94
497.963	1026.94
498.181	1069.94
498.398	1105.94
498.615	1152.94
498.832	1281.94
499.049	1332.94
499.267	1474.94
499.484	1605.94
499.701	1828.94
499.918	1991.94
500.135	2286.94
500.352	2658.94
500.569	2888.94
500.786	2793.94
501.003	2561.94
501.22	2275.94
501.437	1967.94
501.654	1714.94
501.871	1562.94
502.088	1427.94
502.305	1326.94
502.522	1276.94
502.739	1258.94
502.956	1152.94
503.172	1102.94
503.389	1050.94
503.606	1012.94
503.823	1009.94
504.04	1010.94
504.256	1040.94
504.473	1063.94
504.69	1065.94
504.907	1058.94
505.123	1002.94
505.34	897.94
505.557	883.94
505.773	844.94
505.99	853.94
506.207	834.94
506.423	808.94
506.64	808.94
506.856	792.94
507.073	796.94
507.289	803.94
507.506	788.94
507.722	776.94
507.939	774.94
508.155	784.94
508.372	761.94
508.588	738.94
508.805	730.94
509.021	735.94
509.238	737.94
509.454	736.94
509.67	733.94
509.887	744.94
510.103	713.94
510.319	719.94
510.536	726.94
510.752	721.94
510.968	699.94
511.184	716.94
511.401	720.94
511.617	740.94
511.833	696.94
512.049	689.94
512.265	731.94
512.481	721.94
512.698	715.94
512.914	734.94
513.13	700.94
513.346	722.94
513.562	726.94
513.778	722.94
513.994	740.94
514.21	741.94
514.426	716.94
514.642	728.94
514.858	738.94
515.074	750.94
515.29	763.94
515.506	755.94
515.721	729.94
515.937	782.94
516.153	792.94
516.369	804.94
516.585	809.94
516.801	845.94
517.016	892.94
517.232	920.94
517.448	1011.94
517.664	1018.94
517.879	1022.94
518.095	1042.94
518.311	1042.94
518.527	936.94
518.742	896.94
518.958	875.94
519.173	844.94
519.389	816.94
519.605	779.94
519.82	802.94
520.036	766.94
520.251	742.94
520.467	738.94
520.682	742.94
520.898	724.94
521.113	698.94
521.329	714.94
521.544	696.94
521.76	713.94
521.975	709.94
522.19	683.94
522.406	688.94
522.621	696.94
522.836	701.94
523.052	666.94
523.267	678.94
523.482	695.94
523.698	673.94
523.913	653.94
524.128	678.94
524.343	667.94
524.559	676.94
524.774	655.94
524.989	677.94
525.204	686.94
525.419	664.94
525.634	648.94
525.849	651.94
526.064	653.94
526.28	668.94
526.495	656.94
526.71	656.94
526.925	650.94
527.14	664.94
527.355	645.94
527.57	664.94
527.785	660.94
527.999	636.94
528.214	642.94
528.429	646.94
528.644	656.94
528.859	638.94
529.074	652.94
529.289	678.94
529.503	661.94
529.718	664.94
529.933	647.94
530.148	650.94
530.363	656.94
530.577	672.94
530.792	635.94
531.007	654.94
531.221	650.94
531.436	657.94
531.651	628.94
531.865	640.94
532.08	638.94
532.295	661.94
532.509	650.94
532.724	631.94
532.938	648.94
533.153	641.94
533.367	638.94
533.582	666.94
533.796	682.94
534.011	649.94
534.225	666.94
534.44	630.94
534.654	655.94
534.868	648.94
535.083	662.94
535.297	644.94
535.511	635.94
535.726	634.94
535.94	634.94
536.154	627.94
536.369	618.94
536.583	610.94
536.797	612.94
537.011	607.94
537.225	606.94
537.44	609.94
537.654	609.94
537.868	607.94
538.082	585.94
538.296	585.94
538.51	607.94
538.724	594.94
538.938	596.94
539.153	586.94
539.367	602.94
539.581	582.94
539.795	583.94
540.009	575.94
540.222	597.94
540.436	594.94
540.65	589.94
540.864	585.94
541.078	569.94
541.292	616.94
541.506	574.94
541.72	575.94
541.934	568.94
542.147	608.94
542.361	591.94
542.575	578.94
542.789	581.94
543.002	569.94
543.216	587.94
543.43	581.94
543.644	580.94
543.857	581.94
544.071	574.94
544.285	605.94
544.498	578.94
544.712	576.94
544.925	586.94
545.139	610.94
545.352	592.94
545.566	633.94
545.779	602.94
545.993	611.94
546.206	619.94
546.42	597.94
546.633	578.94
546.847	594.94
547.06	596.94
547.274	588.94
547.487	593.94
547.7	588.94
547.914	583.94
548.127	604.94
548.34	610.94
548.554	598.94
548.767	608.94
548.98	599.94
549.193	593.94
549.407	608.94
549.62	610.94
549.833	629.94
550.046	617.94
550.259	623.94
550.473	586.94
550.686	599.94
550.899	573.94
551.112	590.94
551.325	565.94
551.538	591.94
551.751	580.94
551.964	595.94
552.177	580.94
552.39	588.94
552.603	631.94
552.816	630.94
553.029	660.94
553.242	656.94
553.455	673.94
553.667	662.94
553.88	677.94
554.093	636.94
554.306	609.94
554.519	592.94
554.732	593.94
554.944	589.94
555.157	584.94
555.37	587.94
555.583	546.94
555.795	581.94
556.008	548.94
556.221	551.94
556.433	538.94
556.646	529.94
556.859	550.94
557.071	534.94
557.284	521.94
557.496	496.94
557.709	522.94
557.921	519.94
558.134	500.94
558.346	510.94
558.559	529.94
558.771	523.94
558.984	513.94
559.196	515.94
559.409	465.94
559.621	494.94
559.833	494.94
560.046	484.94
560.258	505.94
560.47	504.94
560.683	506.94
560.895	474.94
561.107	493.94
561.32	486.94
561.532	496.94
561.744	471.94
561.956	486.94
562.168	487.94
562.381	474.94
562.593	505.94
562.805	496.94
563.017	504.94
563.229	501.94
563.441	493.94
563.653	499.94
563.865	513.94
564.077	517.94
564.289	487.94
564.501	544.94
564.713	549.94
564.925	550.94
565.137	538.94
565.349	544.94
565.561	570.94
565.773	560.94
565.985	582.94
566.197	622.94
566.408	701.94
566.62	762.94
566.832	836.94
567.044	852.94
567.255	816.94
567.467	840.94
567.679	875.94
567.891	991.94
568.102	988.94
568.314	982.94
568.526	867.94
568.737	778.94
568.949	702.94
569.161	634.94
569.372	566.94
569.584	570.94
569.795	532.94
570.007	537.94
570.218	516.94
570.43	540.94
570.641	527.94
570.853	522.94
571.064	544.94
571.276	546.94
571.487	495.94
571.698	467.94
571.91	475.94
572.121	471.94
572.333	451.94
572.544	438.94
572.755	424.94
572.966	427.94
573.178	433.94
573.389	443.94
573.6	417.94
573.811	405.94
574.023	413.94
574.234	420.94
574.445	424.94
574.656	420.94
574.867	419.94
575.078	415.94
575.289	421.94
575.501	405.94
575.712	411.94
575.923	413.94
576.134	392.94
576.345	408.94
576.556	398.94
576.767	410.94
576.978	384.94
577.188	380.94
577.399	380.94
577.61	389.94
577.821	382.94
578.032	366.94
578.243	376.94
578.454	379.94
578.665	385.94
578.875	368.94
579.086	356.94
579.297	376.94
579.508	369.94
579.718	357.94
579.929	366.94
580.14	375.94
580.35	361.94
580.561	376.94
580.772	355.94
580.982	368.94
581.193	360.94
581.403	359.94
581.614	356.94
581.825	367.94
582.035	357.94
582.246	375.94
582.456	340.94
582.667	350.94
582.877	345.94
583.087	358.94
583.298	351.94
583.508	352.94
583.719	351.94
583.929	354.94
584.139	340.94
584.35	338.94
584.56	346.94
584.77	341.94
584.981	343.94
585.191	340.94
585.401	342.94
585.611	334.94
585.821	354.94
586.032	355.94
586.242	336.94
586.452	355.94
586.662	344.94
586.872	340.94
587.082	345.94
587.292	352.94
587.502	351.94
587.713	351.94
587.923	328.94
588.133	334.94
588.343	334.94
588.553	330.94
588.762	337.94
588.972	343.94
589.182	348.94
589.392	313.94
589.602	331.94
589.812	341.94
590.022	340.94
590.232	343.94
590.441	338.94
590.651	333.94
590.861	334.94
591.071	330.94
591.281	348.94
591.49	352.94
591.7	358.94
591.91	359.94
592.119	366.94
592.329	382.94
592.539	385.94
592.748	399.94
592.958	388.94
593.167	397.94
593.377	429.94
593.587	435.94
593.796	446.94
594.006	428.94
594.215	437.94
594.424	448.94
594.634	436.94
594.843	415.94
595.053	406.94
595.262	383.94
595.472	372.94
595.681	374.94
595.89	338.94
596.1	360.94
596.309	347.94
596.518	313.94
596.727	345.94
596.937	321.94
597.146	303.94
597.355	315.94
597.564	291.94
597.774	298.94
597.983	276.94
598.192	289.94
598.401	299.94
598.61	298.94
598.819	306.94
599.028	297.94
599.237	310.94
599.446	308.94
599.655	305.94
599.864	279.94
600.073	297.94
600.282	296.94
600.491	283.94
600.7	294.94
600.909	286.94
601.118	300.94
601.327	288.94
601.536	307.94
601.745	300.94
601.953	300.94
602.162	281.94
602.371	249.94
602.58	266.94
602.789	291.94
602.997	258.94
603.206	299.94
603.415	286.94
603.623	280.94
603.832	273.94
604.041	263.94
604.249	264.94
604.458	262.94
604.666	257.94
604.875	249.94
605.084	270.94
605.292	279.94
605.501	269.94
605.709	265.94
605.918	269.94
606.126	258.94
606.334	263.94
606.543	278.94
606.751	264.94
606.96	268.94
607.168	265.94
607.376	251.94
607.585	263.94
607.793	263.94
608.001	266.94
608.21	259.94
608.418	271.94
608.626	263.94
608.834	259.94
609.043	260.94
609.251	268.94
609.459	243.94
609.667	248.94
609.875	259.94
610.083	268.94
610.291	254.94
610.499	248.94
610.707	255.94
610.916	253.94
611.124	255.94
611.332	251.94
611.54	259.94
611.748	268.94
611.955	255.94
612.163	250.94
612.371	264.94
612.579	250.94
612.787	251.94
612.995	241.94
613.203	250.94
613.411	263.94
613.618	251.94
613.826	244.94
614.034	270.94
614.242	244.94
614.449	231.94
614.657	259.94
614.865	258.94
615.072	247.94
615.28	251.94
615.488	247.94
615.695	249.94
615.903	258.94
616.111	254.94
616.318	269.94
616.526	256.94
616.733	252.94
616.941	262.94
617.148	259.94
617.356	237.94
617.563	271.94
617.771	243.94
617.978	260.94
618.185	251.94
618.393	238.94
618.6	255.94
618.807	246.94
619.015	254.94
619.222	256.94
619.429	251.94
619.637	239.94
619.844	240.94
620.051	242.94
620.258	241.94
620.466	242.94
620.673	230.94
620.88	214.94
621.087	219.94
621.294	248.94
621.501	236.94
621.708	249.94
621.915	234.94
622.122	235.94
622.329	227.94
622.536	235.94
622.743	226.94
622.95	228.94
623.157	213.94
623.364	213.94
623.571	213.94
623.778	218.94
623.985	233.94
624.192	234.94
624.399	223.94
624.606	226.94
624.812	214.94
625.019	227.94
625.226	215.94
625.433	224.94
625.639	210.94
625.846	225.94
626.053	210.94
626.259	209.94
626.466	218.94
626.673	195.94
626.879	226.94
627.086	214.94
627.293	206.94
627.499	216.94
627.706	205.94
627.912	216.94
628.119	224.94
628.325	186.94
628.532	195.94
628.738	218.94
628.945	203.94
629.151	205.94
629.357	202.94
629.564	211.94
629.77	186.94
629.976	209.94
630.183	208.94
630.389	211.94
630.595	190.94
630.802	190.94
631.008	203.94
631.214	210.94
631.42	190.94
631.627	191.94
631.833	188.94
632.039	191.94
632.245	199.94
632.451	205.94
632.657	183.94
632.863	183.94
633.069	194.94
633.275	194.94
633.481	202.94
633.688	187.94
633.893	178.94
634.099	177.94
634.305	193.94
634.511	198.94
634.717	205.94
634.923	207.94
635.129	176.94
635.335	187.94
635.541	182.94
635.747	202.94
635.952	197.94
636.158	190.94
636.364	186.94
636.57	185.94
636.775	182.94
636.981	185.94
637.187	194.94
637.392	180.94
637.598	171.94
637.804	181.94
638.009	195.94
638.215	194.94
638.421	183.94
638.626	180.94
638.832	186.94
639.037	182.94
639.243	179.94
639.448	191.94
639.654	178.94
639.859	166.94
640.065	183.94
640.27	181.94
640.475	205.94
640.681	175.94
640.886	178.94
641.091	160.94
641.297	186.94
641.502	178.94
641.707	172.94
641.913	167.94
642.118	182.94
642.323	175.94
642.528	176.94
642.733	178.94
642.939	175.94
643.144	174.94
643.349	170.94
643.554	160.94
643.759	171.94
643.964	174.94
644.169	185.94
644.374	165.94
644.579	171.94
644.784	166.94
644.989	168.94
645.194	168.94
645.399	177.94
645.604	166.94
645.809	168.94
646.014	159.94
646.219	176.94
646.423	187.94
646.628	174.94
646.833	177.94
647.038	186.94
647.243	171.94
647.447	191.94
647.652	180.94
647.857	184.94
648.062	176.94
648.266	165.94
648.471	187.94
648.676	178.94
648.88	163.94
649.085	167.94
649.289	160.94
649.494	167.94
649.698	175.94
649.903	166.94
650.107	160.94
650.312	174.94
650.516	162.94
650.721	158.94
650.925	143.94
651.13	140.94
651.334	148.94
651.539	147.94
651.743	169.94
651.947	145.94
652.152	144.94
652.356	171.94
652.56	159.94
652.764	151.94
652.969	139.94
653.173	135.94
653.377	138.94
653.581	124.94
653.785	138.94
653.99	130.94
654.194	129.94
654.398	129.94
654.602	131.94
654.806	135.94
655.01	144.94
655.214	119.94
655.418	123.94
655.622	126.94
655.826	127.94
656.03	118.94
656.234	113.94
656.438	115.94
656.642	132.94
656.846	114.94
657.049	116.94
657.253	142.94
657.457	118.94
657.661	119.94
657.865	122.94
658.068	106.94
658.272	110.94
658.476	118.94
658.68	105.94
658.883	118.94
659.087	86.94
659.291	106.94
659.494	103.94
659.698	108.94
659.901	98.94
660.105	83.94
660.309	91.94
660.512	96.94
660.716	108.94
660.919	99.94
661.123	101.94
661.326	96.94
661.53	95.94
661.733	85.94
661.936	101.94
662.14	96.94
662.343	79.94
662.546	90.94
662.75	78.94
662.953	75.94
663.156	71.94
663.36	82.94
663.563	77.94
663.766	71.94
663.969	82.94
664.173	84.94
664.376	79.94
664.579	90.94
664.782	74.94
664.985	74.94
665.188	81.94
665.391	92.94
665.594	75.94
665.797	74.94
666	91.94
666.203	74.94
666.406	60.94
666.609	85.94
666.812	89.94
667.015	80.94
667.218	79.94
667.421	74.94
667.624	68.94
667.827	88.94
668.03	71.94
668.232	68.94
668.435	74.94
668.638	81.94
668.841	88.94
669.043	89.94
669.246	76.94
669.449	88.94
669.651	91.94
669.854	90.94
670.057	82.94
670.259	68.94
670.462	80.94
670.665	84.94
670.867	86.94
671.07	70.94
671.272	96.94
671.475	84.94
671.677	76.94
671.88	82.94
672.082	75.94
672.284	85.94
672.487	90.94
672.689	82.94
672.892	75.94
