Data from Ni(NO3)2@0.125M.TitratingCurve.Agarose3%dH2O.NegLispCup.LampEnergy10.LIBS07252019_HRD10591_18-09-54-568.txt Node
Date: Thu Jul 25 18:09:54 EDT 2019
User: cochatt
Spectrometer: HR+D1059
Trigger mode: 1
Integration Time (sec): 1.000000E-1
Scans to average: 1
Electric dark correction enabled: true
Nonlinearity correction enabled: false
Boxcar width: 0
XAxis mode: Wavelengths
Number of Pixels in Spectrum: 2048
>>>>>Begin Spectral Data<<<<<
223.165	-26.62
223.4	-26.62
223.635	-26.62
223.869	-12.62
224.104	-12.62
224.338	-9.62
224.573	-23.62
224.808	-13.62
225.042	-15.62
225.277	1.38
225.511	10.38
225.746	-8.62
225.98	9.38
226.215	13.38
226.449	14.38
226.683	32.38
226.918	12.38
227.152	29.38
227.387	26.38
227.621	44.38
227.856	54.38
228.09	55.38
228.324	44.38
228.559	59.38
228.793	58.38
229.027	102.38
229.262	101.38
229.496	114.38
229.73	121.38
229.964	117.38
230.199	120.38
230.433	116.38
230.667	122.38
230.901	110.38
231.136	114.38
231.37	122.38
231.604	110.38
231.838	123.38
232.072	126.38
232.306	122.38
232.541	143.38
232.775	137.38
233.009	155.38
233.243	133.38
233.477	136.38
233.711	146.38
233.945	128.38
234.179	131.38
234.413	150.38
234.647	129.38
234.881	142.38
235.115	144.38
235.349	129.38
235.583	133.38
235.817	146.38
236.051	153.38
236.285	139.38
236.519	138.38
236.753	163.38
236.987	139.38
237.221	155.38
237.455	154.38
237.689	156.38
237.922	140.38
238.156	160.38
238.39	158.38
238.624	148.38
238.858	145.38
239.091	169.38
239.325	152.38
239.559	160.38
239.793	159.38
240.027	160.38
240.26	154.38
240.494	175.38
240.728	151.38
240.961	148.38
241.195	168.38
241.429	173.38
241.662	167.38
241.896	156.38
242.13	158.38
242.363	164.38
242.597	162.38
242.83	181.38
243.064	194.38
243.298	167.38
243.531	182.38
243.765	183.38
243.998	170.38
244.232	177.38
244.465	177.38
244.699	190.38
244.932	192.38
245.166	192.38
245.399	173.38
245.633	188.38
245.866	191.38
246.099	182.38
246.333	201.38
246.566	201.38
246.8	206.38
247.033	204.38
247.266	204.38
247.5	216.38
247.733	209.38
247.966	218.38
248.2	204.38
248.433	205.38
248.666	206.38
248.899	210.38
249.133	204.38
249.366	206.38
249.599	216.38
249.832	198.38
250.066	231.38
250.299	223.38
250.532	221.38
250.765	221.38
250.998	213.38
251.231	210.38
251.465	239.38
251.698	236.38
251.931	226.38
252.164	227.38
252.397	228.38
252.63	228.38
252.863	241.38
253.096	231.38
253.329	260.38
253.562	251.38
253.795	240.38
254.028	228.38
254.261	242.38
254.494	237.38
254.727	241.38
254.96	250.38
255.193	266.38
255.426	251.38
255.659	236.38
255.892	244.38
256.124	242.38
256.357	269.38
256.59	270.38
256.823	267.38
257.056	265.38
257.289	257.38
257.521	263.38
257.754	274.38
257.987	252.38
258.22	271.38
258.452	272.38
258.685	278.38
258.918	275.38
259.151	259.38
259.383	264.38
259.616	262.38
259.849	277.38
260.081	282.38
260.314	264.38
260.547	282.38
260.779	284.38
261.012	266.38
261.244	279.38
261.477	297.38
261.71	287.38
261.942	284.38
262.175	278.38
262.407	279.38
262.64	280.38
262.872	271.38
263.105	293.38
263.337	309.38
263.57	306.38
263.802	298.38
264.035	306.38
264.267	284.38
264.499	292.38
264.732	317.38
264.964	320.38
265.197	305.38
265.429	309.38
265.661	307.38
265.894	301.38
266.126	312.38
266.358	292.38
266.591	327.38
266.823	325.38
267.055	306.38
267.287	310.38
267.52	316.38
267.752	318.38
267.984	334.38
268.216	337.38
268.448	298.38
268.681	331.38
268.913	323.38
269.145	317.38
269.377	313.38
269.609	315.38
269.841	321.38
270.073	317.38
270.306	318.38
270.538	314.38
270.77	322.38
271.002	338.38
271.234	333.38
271.466	347.38
271.698	322.38
271.93	339.38
272.162	331.38
272.394	346.38
272.626	334.38
272.858	345.38
273.09	354.38
273.322	356.38
273.553	360.38
273.785	360.38
274.017	352.38
274.249	365.38
274.481	353.38
274.713	346.38
274.945	347.38
275.176	373.38
275.408	365.38
275.64	354.38
275.872	354.38
276.104	375.38
276.335	358.38
276.567	352.38
276.799	376.38
277.031	370.38
277.262	369.38
277.494	365.38
277.726	370.38
277.957	362.38
278.189	377.38
278.421	372.38
278.652	370.38
278.884	372.38
279.115	386.38
279.347	379.38
279.579	373.38
279.81	379.38
280.042	396.38
280.273	386.38
280.505	389.38
280.736	387.38
280.968	387.38
281.199	381.38
281.431	393.38
281.662	385.38
281.894	393.38
282.125	390.38
282.356	420.38
282.588	404.38
282.819	411.38
283.051	401.38
283.282	393.38
283.513	403.38
283.745	392.38
283.976	405.38
284.207	408.38
284.439	425.38
284.67	408.38
284.901	412.38
285.132	412.38
285.364	391.38
285.595	419.38
285.826	400.38
286.057	427.38
286.288	419.38
286.52	420.38
286.751	433.38
286.982	437.38
287.213	421.38
287.444	421.38
287.675	445.38
287.906	432.38
288.138	449.38
288.369	439.38
288.6	448.38
288.831	450.38
289.062	425.38
289.293	428.38
289.524	438.38
289.755	464.38
289.986	439.38
290.217	463.38
290.448	443.38
290.679	453.38
290.91	426.38
291.141	438.38
291.371	468.38
291.602	437.38
291.833	444.38
292.064	432.38
292.295	443.38
292.526	468.38
292.757	455.38
292.987	452.38
293.218	432.38
293.449	460.38
293.68	462.38
293.91	456.38
294.141	449.38
294.372	454.38
294.603	469.38
294.833	456.38
295.064	436.38
295.295	454.38
295.525	457.38
295.756	459.38
295.987	481.38
296.217	461.38
296.448	464.38
296.679	463.38
296.909	472.38
297.14	471.38
297.37	486.38
297.601	480.38
297.831	477.38
298.062	496.38
298.292	493.38
298.523	485.38
298.753	536.38
298.984	498.38
299.214	504.38
299.445	484.38
299.675	482.38
299.905	490.38
300.136	505.38
300.366	498.38
300.597	484.38
300.827	493.38
301.057	500.38
301.288	532.38
301.518	523.38
301.748	526.38
301.979	534.38
302.209	519.38
302.439	515.38
302.669	514.38
302.9	521.38
303.13	482.38
303.36	500.38
303.59	511.38
303.82	520.38
304.051	493.38
304.281	494.38
304.511	494.38
304.741	493.38
304.971	518.38
305.201	502.38
305.431	477.38
305.661	499.38
305.891	523.38
306.121	486.38
306.352	489.38
306.582	487.38
306.812	497.38
307.042	514.38
307.272	509.38
307.502	484.38
307.731	495.38
307.961	499.38
308.191	499.38
308.421	493.38
308.651	496.38
308.881	508.38
309.111	499.38
309.341	481.38
309.571	498.38
309.8	469.38
310.03	499.38
310.26	508.38
310.49	489.38
310.72	481.38
310.949	512.38
311.179	502.38
311.409	495.38
311.639	504.38
311.868	507.38
312.098	498.38
312.328	525.38
312.557	508.38
312.787	510.38
313.017	510.38
313.246	535.38
313.476	546.38
313.706	536.38
313.935	558.38
314.165	555.38
314.394	534.38
314.624	540.38
314.853	533.38
315.083	530.38
315.312	524.38
315.542	539.38
315.771	513.38
316.001	528.38
316.23	531.38
316.46	516.38
316.689	527.38
316.919	544.38
317.148	519.38
317.377	518.38
317.607	514.38
317.836	480.38
318.065	521.38
318.295	523.38
318.524	522.38
318.753	510.38
318.983	534.38
319.212	497.38
319.441	516.38
319.67	525.38
319.9	515.38
320.129	527.38
320.358	511.38
320.587	537.38
320.816	524.38
321.046	512.38
321.275	513.38
321.504	504.38
321.733	517.38
321.962	526.38
322.191	537.38
322.42	524.38
322.649	516.38
322.878	524.38
323.108	532.38
323.337	534.38
323.566	546.38
323.795	526.38
324.024	547.38
324.253	544.38
324.482	539.38
324.71	540.38
324.939	523.38
325.168	556.38
325.397	549.38
325.626	546.38
325.855	560.38
326.084	581.38
326.313	575.38
326.542	590.38
326.77	596.38
326.999	561.38
327.228	577.38
327.457	560.38
327.686	566.38
327.914	588.38
328.143	571.38
328.372	582.38
328.6	572.38
328.829	586.38
329.058	575.38
329.287	557.38
329.515	585.38
329.744	569.38
329.972	574.38
330.201	597.38
330.43	599.38
330.658	593.38
330.887	586.38
331.115	586.38
331.344	600.38
331.572	595.38
331.801	638.38
332.03	612.38
332.258	652.38
332.486	668.38
332.715	704.38
332.943	725.38
333.172	754.38
333.4	821.38
333.629	819.38
333.857	801.38
334.085	774.38
334.314	752.38
334.542	734.38
334.771	741.38
334.999	719.38
335.227	722.38
335.455	740.38
335.684	699.38
335.912	702.38
336.14	704.38
336.369	696.38
336.597	693.38
336.825	701.38
337.053	674.38
337.281	694.38
337.51	676.38
337.738	662.38
337.966	641.38
338.194	654.38
338.422	638.38
338.65	643.38
338.878	624.38
339.106	620.38
339.334	628.38
339.562	618.38
339.79	618.38
340.018	625.38
340.246	616.38
340.474	604.38
340.702	616.38
340.93	609.38
341.158	611.38
341.386	613.38
341.614	624.38
341.842	599.38
342.07	614.38
342.298	603.38
342.526	581.38
342.754	589.38
342.981	600.38
343.209	595.38
343.437	644.38
343.665	694.38
343.893	739.38
344.12	778.38
344.348	728.38
344.576	690.38
344.804	671.38
345.031	656.38
345.259	641.38
345.487	598.38
345.714	611.38
345.942	597.38
346.17	595.38
346.397	618.38
346.625	614.38
346.853	613.38
347.08	611.38
347.308	609.38
347.535	607.38
347.763	618.38
347.99	611.38
348.218	612.38
348.445	617.38
348.673	592.38
348.9	612.38
349.128	573.38
349.355	597.38
349.583	599.38
349.81	582.38
350.037	573.38
350.265	567.38
350.492	551.38
350.72	587.38
350.947	581.38
351.174	572.38
351.402	572.38
351.629	551.38
351.856	555.38
352.083	576.38
352.311	570.38
352.538	564.38
352.765	563.38
352.992	573.38
353.22	563.38
353.447	547.38
353.674	569.38
353.901	582.38
354.128	577.38
354.355	573.38
354.583	574.38
354.81	579.38
355.037	553.38
355.264	566.38
355.491	579.38
355.718	569.38
355.945	577.38
356.172	576.38
356.399	555.38
356.626	581.38
356.853	570.38
357.08	579.38
357.307	572.38
357.534	585.38
357.761	582.38
357.988	576.38
358.215	570.38
358.441	582.38
358.668	575.38
358.895	560.38
359.122	586.38
359.349	574.38
359.576	592.38
359.802	560.38
360.029	588.38
360.256	573.38
360.483	582.38
360.709	584.38
360.936	582.38
361.163	576.38
361.39	573.38
361.616	558.38
361.843	568.38
362.07	567.38
362.296	579.38
362.523	553.38
362.749	573.38
362.976	563.38
363.203	568.38
363.429	554.38
363.656	554.38
363.882	556.38
364.109	569.38
364.335	554.38
364.562	565.38
364.788	550.38
365.015	570.38
365.241	554.38
365.468	565.38
365.694	568.38
365.92	564.38
366.147	564.38
366.373	558.38
366.599	541.38
366.826	574.38
367.052	556.38
367.278	577.38
367.505	580.38
367.731	571.38
367.957	562.38
368.184	560.38
368.41	596.38
368.636	569.38
368.862	598.38
369.089	569.38
369.315	567.38
369.541	587.38
369.767	605.38
369.993	587.38
370.219	587.38
370.445	585.38
370.672	591.38
370.898	601.38
371.124	609.38
371.35	602.38
371.576	632.38
371.802	615.38
372.028	619.38
372.254	617.38
372.48	615.38
372.706	602.38
372.932	617.38
373.158	625.38
373.384	619.38
373.61	640.38
373.835	605.38
374.061	616.38
374.287	615.38
374.513	629.38
374.739	633.38
374.965	655.38
375.191	693.38
375.416	690.38
375.642	655.38
375.868	692.38
376.094	646.38
376.319	642.38
376.545	620.38
376.771	634.38
376.997	634.38
377.222	611.38
377.448	636.38
377.674	643.38
377.899	606.38
378.125	618.38
378.35	596.38
378.576	602.38
378.802	600.38
379.027	595.38
379.253	602.38
379.478	625.38
379.704	617.38
379.929	594.38
380.155	602.38
380.38	612.38
380.606	595.38
380.831	592.38
381.057	614.38
381.282	634.38
381.507	626.38
381.733	604.38
381.958	613.38
382.184	599.38
382.409	645.38
382.634	674.38
382.86	667.38
383.085	645.38
383.31	671.38
383.535	687.38
383.761	678.38
383.986	710.38
384.211	723.38
384.436	732.38
384.662	713.38
384.887	741.38
385.112	755.38
385.337	724.38
385.562	745.38
385.787	733.38
386.013	736.38
386.238	731.38
386.463	753.38
386.688	740.38
386.913	725.38
387.138	724.38
387.363	735.38
387.588	742.38
387.813	717.38
388.038	720.38
388.263	731.38
388.488	738.38
388.713	757.38
388.938	715.38
389.163	720.38
389.387	706.38
389.612	715.38
389.837	718.38
390.062	721.38
390.287	696.38
390.512	700.38
390.736	726.38
390.961	710.38
391.186	733.38
391.411	753.38
391.636	811.38
391.86	817.38
392.085	847.38
392.31	822.38
392.534	792.38
392.759	770.38
392.984	769.38
393.208	779.38
393.433	771.38
393.658	811.38
393.882	776.38
394.107	786.38
394.331	795.38
394.556	790.38
394.78	788.38
395.005	787.38
395.229	793.38
395.454	810.38
395.678	845.38
395.903	830.38
396.127	818.38
396.352	783.38
396.576	756.38
396.801	790.38
397.025	797.38
397.249	805.38
397.474	812.38
397.698	822.38
397.922	836.38
398.147	810.38
398.371	829.38
398.595	858.38
398.82	900.38
399.044	946.38
399.268	1048.38
399.492	1259.38
399.717	1444.38
399.941	1468.38
400.165	1252.38
400.389	1121.38
400.613	985.38
400.837	934.38
401.062	938.38
401.286	914.38
401.51	934.38
401.734	923.38
401.958	936.38
402.182	936.38
402.406	955.38
402.63	967.38
402.854	1027.38
403.078	1016.38
403.302	1020.38
403.526	1070.38
403.75	1086.38
403.974	1120.38
404.198	1105.38
404.422	1105.38
404.645	1097.38
404.869	1078.38
405.093	1075.38
405.317	1038.38
405.541	1040.38
405.765	1033.38
405.988	996.38
406.212	1000.38
406.436	1009.38
406.66	1020.38
406.883	1046.38
407.107	1122.38
407.331	1170.38
407.555	1222.38
407.778	1215.38
408.002	1218.38
408.226	1115.38
408.449	1142.38
408.673	1083.38
408.896	1093.38
409.12	1030.38
409.344	1054.38
409.567	1064.38
409.791	1106.38
410.014	1096.38
410.238	1073.38
410.461	1082.38
410.685	1043.38
410.908	1034.38
411.132	1009.38
411.355	943.38
411.578	956.38
411.802	957.38
412.025	987.38
412.249	995.38
412.472	990.38
412.695	968.38
412.919	923.38
413.142	907.38
413.365	933.38
413.589	960.38
413.812	917.38
414.035	928.38
414.258	933.38
414.482	919.38
414.705	920.38
414.928	934.38
415.151	973.38
415.374	926.38
415.597	934.38
415.821	914.38
416.044	904.38
416.267	915.38
416.49	900.38
416.713	893.38
416.936	920.38
417.159	910.38
417.382	923.38
417.605	894.38
417.828	896.38
418.051	932.38
418.274	950.38
418.497	923.38
418.72	953.38
418.943	959.38
419.166	1030.38
419.389	1088.38
419.611	1066.38
419.834	1005.38
420.057	949.38
420.28	923.38
420.503	959.38
420.726	932.38
420.948	911.38
421.171	913.38
421.394	933.38
421.617	917.38
421.839	914.38
422.062	930.38
422.285	921.38
422.507	986.38
422.73	974.38
422.953	969.38
423.175	993.38
423.398	978.38
423.621	985.38
423.843	997.38
424.066	999.38
424.288	1005.38
424.511	997.38
424.733	974.38
424.956	985.38
425.178	961.38
425.401	945.38
425.623	940.38
425.846	903.38
426.068	909.38
426.291	883.38
426.513	855.38
426.735	867.38
426.958	878.38
427.18	871.38
427.402	857.38
427.625	865.38
427.847	830.38
428.069	840.38
428.292	837.38
428.514	825.38
428.736	846.38
428.958	843.38
429.181	825.38
429.403	804.38
429.625	804.38
429.847	834.38
430.069	804.38
430.292	793.38
430.514	802.38
430.736	818.38
430.958	826.38
431.18	784.38
431.402	793.38
431.624	830.38
431.846	837.38
432.068	855.38
432.29	844.38
432.512	840.38
432.734	821.38
432.956	831.38
433.178	860.38
433.4	809.38
433.622	834.38
433.844	828.38
434.066	853.38
434.287	866.38
434.509	876.38
434.731	946.38
434.953	984.38
435.175	965.38
435.397	940.38
435.618	895.38
435.84	865.38
436.062	868.38
436.284	820.38
436.505	843.38
436.727	842.38
436.949	867.38
437.17	836.38
437.392	830.38
437.614	812.38
437.835	811.38
438.057	816.38
438.278	812.38
438.5	816.38
438.721	798.38
438.943	826.38
439.165	789.38
439.386	800.38
439.608	846.38
439.829	844.38
440.05	841.38
440.272	842.38
440.493	854.38
440.715	854.38
440.936	876.38
441.158	872.38
441.379	922.38
441.6	946.38
441.822	978.38
442.043	960.38
442.264	936.38
442.486	911.38
442.707	944.38
442.928	931.38
443.149	948.38
443.371	939.38
443.592	930.38
443.813	947.38
444.034	950.38
444.255	958.38
444.476	1026.38
444.698	1123.38
444.919	1164.38
445.14	1205.38
445.361	1075.38
445.582	980.38
445.803	929.38
446.024	907.38
446.245	896.38
446.466	894.38
446.687	855.38
446.908	858.38
447.129	845.38
447.35	827.38
447.571	838.38
447.792	817.38
448.013	803.38
448.234	794.38
448.455	752.38
448.675	768.38
448.896	789.38
449.117	798.38
449.338	786.38
449.559	803.38
449.779	766.38
450	779.38
450.221	766.38
450.442	779.38
450.662	768.38
450.883	812.38
451.104	827.38
451.324	820.38
451.545	800.38
451.766	824.38
451.986	799.38
452.207	781.38
452.428	793.38
452.648	811.38
452.869	765.38
453.089	755.38
453.31	806.38
453.53	775.38
453.751	775.38
453.971	757.38
454.192	762.38
454.412	724.38
454.633	741.38
454.853	735.38
455.073	734.38
455.294	723.38
455.514	724.38
455.734	727.38
455.955	732.38
456.175	706.38
456.395	690.38
456.616	712.38
456.836	702.38
457.056	736.38
457.276	698.38
457.497	701.38
457.717	703.38
457.937	720.38
458.157	695.38
458.377	731.38
458.598	775.38
458.818	772.38
459.038	794.38
459.258	824.38
459.478	835.38
459.698	826.38
459.918	884.38
460.138	926.38
460.358	1002.38
460.578	1009.38
460.798	1008.38
461.018	991.38
461.238	1005.38
461.458	986.38
461.678	997.38
461.898	1008.38
462.118	1013.38
462.338	1088.38
462.558	1117.38
462.777	1113.38
462.997	1256.38
463.217	1373.38
463.437	1418.38
463.657	1224.38
463.876	1166.38
464.096	1176.38
464.316	1211.38
464.536	1204.38
464.755	1184.38
464.975	1107.38
465.195	1051.38
465.414	1013.38
465.634	914.38
465.854	878.38
466.073	858.38
466.293	863.38
466.512	873.38
466.732	851.38
466.951	852.38
467.171	837.38
467.391	833.38
467.61	835.38
467.829	840.38
468.049	806.38
468.268	782.38
468.488	806.38
468.707	788.38
468.927	774.38
469.146	779.38
469.365	800.38
469.585	796.38
469.804	808.38
470.023	824.38
470.243	837.38
470.462	846.38
470.681	867.38
470.901	833.38
471.12	846.38
471.339	842.38
471.558	786.38
471.777	800.38
471.997	788.38
472.216	782.38
472.435	770.38
472.654	763.38
472.873	754.38
473.092	758.38
473.311	726.38
473.53	738.38
473.749	768.38
473.968	761.38
474.187	738.38
474.406	749.38
474.625	752.38
474.844	764.38
475.063	788.38
475.282	776.38
475.501	755.38
475.72	770.38
475.939	757.38
476.158	773.38
476.377	787.38
476.596	787.38
476.814	778.38
477.033	785.38
477.252	804.38
477.471	822.38
477.69	856.38
477.908	879.38
478.127	910.38
478.346	909.38
478.564	918.38
478.783	917.38
479.002	954.38
479.22	973.38
479.439	956.38
479.658	933.38
479.876	950.38
480.095	964.38
480.313	1032.38
480.532	1036.38
480.751	1049.38
480.969	982.38
481.188	944.38
481.406	902.38
481.624	881.38
481.843	900.38
482.061	873.38
482.28	874.38
482.498	856.38
482.717	842.38
482.935	881.38
483.153	868.38
483.372	864.38
483.59	879.38
483.808	867.38
484.027	886.38
484.245	874.38
484.463	885.38
484.681	888.38
484.9	887.38
485.118	898.38
485.336	877.38
485.554	920.38
485.772	908.38
485.99	917.38
486.209	930.38
486.427	921.38
486.645	915.38
486.863	951.38
487.081	905.38
487.299	900.38
487.517	904.38
487.735	903.38
487.953	920.38
488.171	927.38
488.389	920.38
488.607	895.38
488.825	887.38
489.043	877.38
489.261	888.38
489.479	892.38
489.696	877.38
489.914	918.38
490.132	884.38
490.35	914.38
490.568	912.38
490.786	931.38
491.003	916.38
491.221	928.38
491.439	929.38
491.657	911.38
491.874	937.38
492.092	949.38
492.31	936.38
492.527	950.38
492.745	976.38
492.963	947.38
493.18	916.38
493.398	971.38
493.615	944.38
493.833	947.38
494.05	974.38
494.268	972.38
494.485	942.38
494.703	978.38
494.92	984.38
495.138	955.38
495.355	964.38
495.573	981.38
495.79	922.38
496.008	952.38
496.225	986.38
496.442	993.38
496.66	1006.38
496.877	1010.38
497.094	1041.38
497.312	1033.38
497.529	1048.38
497.746	1060.38
497.963	1084.38
498.181	1137.38
498.398	1178.38
498.615	1245.38
498.832	1378.38
499.049	1491.38
499.267	1557.38
499.484	1749.38
499.701	1957.38
499.918	2174.38
500.135	2509.38
500.352	2952.38
500.569	3133.38
500.786	3109.38
501.003	2869.38
501.22	2489.38
501.437	2150.38
501.654	1880.38
501.871	1712.38
502.088	1560.38
502.305	1432.38
502.522	1376.38
502.739	1358.38
502.956	1243.38
503.172	1203.38
503.389	1144.38
503.606	1134.38
503.823	1097.38
504.04	1111.38
504.256	1139.38
504.473	1124.38
504.69	1194.38
504.907	1154.38
505.123	1087.38
505.34	1024.38
505.557	972.38
505.773	959.38
505.99	905.38
506.207	899.38
506.423	896.38
506.64	901.38
506.856	869.38
507.073	869.38
507.289	877.38
507.506	856.38
507.722	865.38
507.939	854.38
508.155	859.38
508.372	818.38
508.588	810.38
508.805	813.38
509.021	808.38
509.238	823.38
509.454	805.38
509.67	800.38
509.887	796.38
510.103	791.38
510.319	773.38
510.536	779.38
510.752	796.38
510.968	777.38
511.184	779.38
511.401	779.38
511.617	780.38
511.833	790.38
512.049	795.38
512.265	783.38
512.481	801.38
512.698	791.38
512.914	783.38
513.13	787.38
513.346	798.38
513.562	790.38
513.778	811.38
513.994	790.38
514.21	774.38
514.426	766.38
514.642	776.38
514.858	788.38
515.074	787.38
515.29	803.38
515.506	805.38
515.721	843.38
515.937	861.38
516.153	867.38
516.369	854.38
516.585	890.38
516.801	908.38
517.016	996.38
517.232	1016.38
517.448	1083.38
517.664	1096.38
517.879	1142.38
518.095	1116.38
518.311	1120.38
518.527	1014.38
518.742	985.38
518.958	950.38
519.173	928.38
519.389	921.38
519.605	855.38
519.82	857.38
520.036	831.38
520.251	803.38
520.467	808.38
520.682	813.38
520.898	792.38
521.113	780.38
521.329	782.38
521.544	789.38
521.76	761.38
521.975	754.38
522.19	775.38
522.406	763.38
522.621	763.38
522.836	732.38
523.052	732.38
523.267	725.38
523.482	740.38
523.698	762.38
523.913	744.38
524.128	749.38
524.343	747.38
524.559	732.38
524.774	704.38
524.989	710.38
525.204	720.38
525.419	715.38
525.634	708.38
525.849	732.38
526.064	721.38
526.28	728.38
526.495	708.38
526.71	709.38
526.925	710.38
527.14	714.38
527.355	702.38
527.57	728.38
527.785	715.38
527.999	713.38
528.214	721.38
528.429	730.38
528.644	721.38
528.859	725.38
529.074	721.38
529.289	722.38
529.503	754.38
529.718	730.38
529.933	742.38
530.148	732.38
530.363	717.38
530.577	723.38
530.792	722.38
531.007	702.38
531.221	714.38
531.436	712.38
531.651	721.38
531.865	738.38
532.08	722.38
532.295	723.38
532.509	713.38
532.724	736.38
532.938	715.38
533.153	728.38
533.367	742.38
533.582	733.38
533.796	730.38
534.011	719.38
534.225	716.38
534.44	686.38
534.654	702.38
534.868	700.38
535.083	722.38
535.297	706.38
535.511	724.38
535.726	693.38
535.94	684.38
536.154	695.38
536.369	683.38
536.583	692.38
536.797	692.38
537.011	643.38
537.225	657.38
537.44	649.38
537.654	672.38
537.868	640.38
538.082	671.38
538.296	666.38
538.51	642.38
538.724	666.38
538.938	634.38
539.153	648.38
539.367	666.38
539.581	668.38
539.795	666.38
540.009	672.38
540.222	655.38
540.436	661.38
540.65	645.38
540.864	677.38
541.078	672.38
541.292	685.38
541.506	665.38
541.72	634.38
541.934	665.38
542.147	647.38
542.361	665.38
542.575	638.38
542.789	643.38
543.002	642.38
543.216	640.38
543.43	641.38
543.644	631.38
543.857	639.38
544.071	637.38
544.285	639.38
544.498	632.38
544.712	636.38
544.925	648.38
545.139	679.38
545.352	677.38
545.566	690.38
545.779	681.38
545.993	671.38
546.206	650.38
546.42	685.38
546.633	665.38
546.847	677.38
547.06	676.38
547.274	653.38
547.487	663.38
547.7	663.38
547.914	672.38
548.127	697.38
548.34	678.38
548.554	650.38
548.767	649.38
548.98	651.38
549.193	674.38
549.407	681.38
549.62	712.38
549.833	693.38
550.046	688.38
550.259	666.38
550.473	630.38
550.686	638.38
550.899	659.38
551.112	640.38
551.325	616.38
551.538	634.38
551.751	635.38
551.964	618.38
552.177	653.38
552.39	652.38
552.603	701.38
552.816	664.38
553.029	718.38
553.242	759.38
553.455	721.38
553.667	756.38
553.88	732.38
554.093	704.38
554.306	689.38
554.519	668.38
554.732	675.38
554.944	640.38
555.157	649.38
555.37	630.38
555.583	629.38
555.795	618.38
556.008	611.38
556.221	589.38
556.433	583.38
556.646	577.38
556.859	618.38
557.071	563.38
557.284	596.38
557.496	571.38
557.709	575.38
557.921	590.38
558.134	578.38
558.346	579.38
558.559	557.38
558.771	564.38
558.984	552.38
559.196	562.38
559.409	577.38
559.621	554.38
559.833	554.38
560.046	546.38
560.258	531.38
560.47	538.38
560.683	551.38
560.895	536.38
561.107	535.38
561.32	569.38
561.532	549.38
561.744	552.38
561.956	549.38
562.168	562.38
562.381	542.38
562.593	557.38
562.805	554.38
563.017	577.38
563.229	574.38
563.441	553.38
563.653	564.38
563.865	560.38
564.077	552.38
564.289	566.38
564.501	556.38
564.713	568.38
564.925	586.38
565.137	585.38
565.349	609.38
565.561	618.38
565.773	632.38
565.985	672.38
566.197	713.38
566.408	754.38
566.62	832.38
566.832	924.38
567.044	922.38
567.255	887.38
567.467	899.38
567.679	973.38
567.891	1078.38
568.102	1141.38
568.314	1030.38
568.526	926.38
568.737	838.38
568.949	741.38
569.161	689.38
569.372	666.38
569.584	635.38
569.795	616.38
570.007	577.38
570.218	566.38
570.43	565.38
570.641	543.38
570.853	551.38
571.064	573.38
571.276	584.38
571.487	557.38
571.698	534.38
571.91	531.38
572.121	489.38
572.333	502.38
572.544	492.38
572.755	482.38
572.966	482.38
573.178	478.38
573.389	464.38
573.6	462.38
573.811	464.38
574.023	442.38
574.234	459.38
574.445	464.38
574.656	461.38
574.867	451.38
575.078	481.38
575.289	466.38
575.501	454.38
575.712	451.38
575.923	452.38
576.134	428.38
576.345	440.38
576.556	443.38
576.767	422.38
576.978	435.38
577.188	433.38
577.399	434.38
577.61	422.38
577.821	410.38
578.032	408.38
578.243	409.38
578.454	418.38
578.665	429.38
578.875	406.38
579.086	408.38
579.297	414.38
579.508	410.38
579.718	416.38
579.929	391.38
580.14	404.38
580.35	391.38
580.561	399.38
580.772	384.38
580.982	412.38
581.193	399.38
581.403	394.38
581.614	376.38
581.825	374.38
582.035	388.38
582.246	391.38
582.456	390.38
582.667	394.38
582.877	411.38
583.087	397.38
583.298	378.38
583.508	378.38
583.719	381.38
583.929	376.38
584.139	410.38
584.35	367.38
584.56	381.38
584.77	389.38
584.981	381.38
585.191	387.38
585.401	368.38
585.611	380.38
585.821	373.38
586.032	386.38
586.242	364.38
586.452	388.38
586.662	378.38
586.872	380.38
587.082	378.38
587.292	379.38
587.502	380.38
587.713	381.38
587.923	369.38
588.133	357.38
588.343	370.38
588.553	375.38
588.762	376.38
588.972	392.38
589.182	388.38
589.392	362.38
589.602	365.38
589.812	369.38
590.022	380.38
590.232	361.38
590.441	380.38
590.651	377.38
590.861	379.38
591.071	389.38
591.281	394.38
591.49	394.38
591.7	375.38
591.91	392.38
592.119	400.38
592.329	412.38
592.539	414.38
592.748	435.38
592.958	441.38
593.167	460.38
593.377	464.38
593.587	489.38
593.796	475.38
594.006	480.38
594.215	475.38
594.424	492.38
594.634	475.38
594.843	472.38
595.053	426.38
595.262	399.38
595.472	410.38
595.681	404.38
595.89	379.38
596.1	390.38
596.309	368.38
596.518	366.38
596.727	359.38
596.937	361.38
597.146	370.38
597.355	358.38
597.564	354.38
597.774	344.38
597.983	332.38
598.192	328.38
598.401	324.38
598.61	323.38
598.819	340.38
599.028	323.38
599.237	329.38
599.446	313.38
599.655	303.38
599.864	318.38
600.073	324.38
600.282	331.38
600.491	316.38
600.7	313.38
600.909	312.38
601.118	313.38
601.327	310.38
601.536	326.38
601.745	315.38
601.953	306.38
602.162	313.38
602.371	303.38
602.58	322.38
602.789	323.38
602.997	304.38
603.206	305.38
603.415	308.38
603.623	299.38
603.832	297.38
604.041	294.38
604.249	308.38
604.458	297.38
604.666	300.38
604.875	292.38
605.084	305.38
605.292	301.38
605.501	285.38
605.709	316.38
605.918	283.38
606.126	292.38
606.334	291.38
606.543	293.38
606.751	303.38
606.96	295.38
607.168	286.38
607.376	294.38
607.585	288.38
607.793	293.38
608.001	295.38
608.21	292.38
608.418	275.38
608.626	282.38
608.834	295.38
609.043	296.38
609.251	288.38
609.459	282.38
609.667	276.38
609.875	275.38
610.083	296.38
610.291	283.38
610.499	281.38
610.707	284.38
610.916	271.38
611.124	285.38
611.332	276.38
611.54	287.38
611.748	259.38
611.955	284.38
612.163	280.38
612.371	277.38
612.579	277.38
612.787	294.38
612.995	297.38
613.203	276.38
613.411	262.38
613.618	278.38
613.826	257.38
614.034	268.38
614.242	287.38
614.449	274.38
614.657	282.38
614.865	261.38
615.072	269.38
615.28	273.38
615.488	296.38
615.695	288.38
615.903	262.38
616.111	262.38
616.318	281.38
616.526	294.38
616.733	308.38
616.941	268.38
617.148	275.38
617.356	279.38
617.563	288.38
617.771	285.38
617.978	278.38
618.185	274.38
618.393	267.38
618.6	270.38
618.807	294.38
619.015	290.38
619.222	277.38
619.429	264.38
619.637	272.38
619.844	271.38
620.051	274.38
620.258	270.38
620.466	279.38
620.673	266.38
620.88	245.38
621.087	242.38
621.294	250.38
621.501	240.38
621.708	225.38
621.915	234.38
622.122	243.38
622.329	249.38
622.536	247.38
622.743	237.38
622.95	252.38
623.157	261.38
623.364	256.38
623.571	266.38
623.778	242.38
623.985	246.38
624.192	241.38
624.399	231.38
624.606	242.38
624.812	237.38
625.019	252.38
625.226	240.38
625.433	241.38
625.639	235.38
625.846	241.38
626.053	244.38
626.259	230.38
626.466	247.38
626.673	237.38
626.879	236.38
627.086	217.38
627.293	233.38
627.499	225.38
627.706	228.38
627.912	228.38
628.119	232.38
628.325	224.38
628.532	217.38
628.738	227.38
628.945	208.38
629.151	210.38
629.357	231.38
629.564	209.38
629.77	216.38
629.976	209.38
630.183	220.38
630.389	207.38
630.595	215.38
630.802	210.38
631.008	214.38
631.214	212.38
631.42	232.38
631.627	215.38
631.833	221.38
632.039	211.38
632.245	206.38
632.451	215.38
632.657	215.38
632.863	209.38
633.069	212.38
633.275	202.38
633.481	208.38
633.688	204.38
633.893	212.38
634.099	203.38
634.305	196.38
634.511	203.38
634.717	200.38
634.923	213.38
635.129	207.38
635.335	201.38
635.541	194.38
635.747	197.38
635.952	212.38
636.158	201.38
636.364	205.38
636.57	195.38
636.775	200.38
636.981	206.38
637.187	209.38
637.392	198.38
637.598	196.38
637.804	191.38
638.009	191.38
638.215	204.38
638.421	207.38
638.626	194.38
638.832	197.38
639.037	185.38
639.243	200.38
639.448	187.38
639.654	188.38
639.859	191.38
640.065	187.38
640.27	203.38
640.475	210.38
640.681	185.38
640.886	196.38
641.091	184.38
641.297	174.38
641.502	170.38
641.707	197.38
641.913	177.38
642.118	177.38
642.323	176.38
642.528	209.38
642.733	185.38
642.939	184.38
643.144	185.38
643.349	170.38
643.554	185.38
643.759	180.38
643.964	183.38
644.169	183.38
644.374	183.38
644.579	187.38
644.784	193.38
644.989	178.38
645.194	180.38
645.399	184.38
645.604	180.38
645.809	196.38
646.014	187.38
646.219	196.38
646.423	176.38
646.628	185.38
646.833	186.38
647.038	178.38
647.243	162.38
647.447	181.38
647.652	186.38
647.857	181.38
648.062	186.38
648.266	190.38
648.471	198.38
648.676	198.38
648.88	185.38
649.085	205.38
649.289	180.38
649.494	180.38
649.698	176.38
649.903	176.38
650.107	167.38
650.312	195.38
650.516	169.38
650.721	180.38
650.925	173.38
651.13	169.38
651.334	149.38
651.539	161.38
651.743	162.38
651.947	176.38
652.152	158.38
652.356	158.38
652.56	151.38
652.764	160.38
652.969	141.38
653.173	148.38
653.377	162.38
653.581	150.38
653.785	146.38
653.99	136.38
654.194	140.38
654.398	149.38
654.602	121.38
654.806	134.38
655.01	149.38
655.214	120.38
655.418	124.38
655.622	133.38
655.826	138.38
656.03	130.38
656.234	128.38
656.438	123.38
656.642	144.38
656.846	133.38
657.049	115.38
657.253	127.38
657.457	133.38
657.661	122.38
657.865	112.38
658.068	119.38
658.272	107.38
658.476	106.38
658.68	98.38
658.883	96.38
659.087	99.38
659.291	103.38
659.494	96.38
659.698	91.38
659.901	92.38
660.105	93.38
660.309	102.38
660.512	101.38
660.716	85.38
660.919	93.38
661.123	102.38
661.326	87.38
661.53	96.38
661.733	104.38
661.936	77.38
662.14	74.38
662.343	87.38
662.546	84.38
662.75	82.38
662.953	91.38
663.156	87.38
663.36	74.38
663.563	70.38
663.766	84.38
663.969	84.38
664.173	82.38
664.376	93.38
664.579	86.38
664.782	92.38
664.985	78.38
665.188	89.38
665.391	88.38
665.594	81.38
665.797	88.38
666	77.38
666.203	97.38
666.406	77.38
666.609	90.38
666.812	99.38
667.015	94.38
667.218	72.38
667.421	73.38
667.624	83.38
667.827	80.38
668.03	76.38
668.232	75.38
668.435	88.38
668.638	89.38
668.841	80.38
669.043	81.38
669.246	91.38
669.449	90.38
669.651	74.38
669.854	84.38
670.057	70.38
670.259	81.38
670.462	72.38
670.665	69.38
670.867	93.38
671.07	79.38
671.272	85.38
671.475	87.38
671.677	69.38
671.88	77.38
672.082	78.38
672.284	83.38
672.487	90.38
672.689	84.38
672.892	94.38
