Data from Ni(NO3)2@0.0625M.TitratingCurve.Agarose3%dH2O.NegLispCup.LampEnergy10.LIBS07252019_HRD10591_18-15-30-569.txt Node
Date: Thu Jul 25 18:15:30 EDT 2019
User: cochatt
Spectrometer: HR+D1059
Trigger mode: 1
Integration Time (sec): 1.000000E-1
Scans to average: 1
Electric dark correction enabled: true
Nonlinearity correction enabled: false
Boxcar width: 0
XAxis mode: Wavelengths
Number of Pixels in Spectrum: 2048
>>>>>Begin Spectral Data<<<<<
223.165	-16.5
223.4	-16.5
223.635	-16.5
223.869	-22.5
224.104	-25.5
224.338	-10.5
224.573	-15.5
224.808	3.5
225.042	-15.5
225.277	-12.5
225.511	-9.5
225.746	-5.5
225.98	10.5
226.215	16.5
226.449	12.5
226.683	22.5
226.918	26.5
227.152	41.5
227.387	36.5
227.621	47.5
227.856	63.5
228.09	64.5
228.324	52.5
228.559	49.5
228.793	90.5
229.027	92.5
229.262	84.5
229.496	99.5
229.73	109.5
229.964	133.5
230.199	127.5
230.433	134.5
230.667	125.5
230.901	127.5
231.136	132.5
231.37	127.5
231.604	123.5
231.838	121.5
232.072	132.5
232.306	136.5
232.541	144.5
232.775	132.5
233.009	132.5
233.243	132.5
233.477	136.5
233.711	143.5
233.945	136.5
234.179	136.5
234.413	137.5
234.647	148.5
234.881	135.5
235.115	119.5
235.349	131.5
235.583	131.5
235.817	139.5
236.051	120.5
236.285	135.5
236.519	125.5
236.753	137.5
236.987	142.5
237.221	141.5
237.455	151.5
237.689	134.5
237.922	131.5
238.156	134.5
238.39	137.5
238.624	134.5
238.858	144.5
239.091	144.5
239.325	149.5
239.559	157.5
239.793	149.5
240.027	156.5
240.26	146.5
240.494	142.5
240.728	154.5
240.961	156.5
241.195	159.5
241.429	163.5
241.662	185.5
241.896	159.5
242.13	159.5
242.363	173.5
242.597	155.5
242.83	174.5
243.064	166.5
243.298	173.5
243.531	164.5
243.765	161.5
243.998	169.5
244.232	182.5
244.465	171.5
244.699	168.5
244.932	181.5
245.166	176.5
245.399	172.5
245.633	179.5
245.866	188.5
246.099	170.5
246.333	181.5
246.566	187.5
246.8	176.5
247.033	204.5
247.266	187.5
247.5	165.5
247.733	195.5
247.966	190.5
248.2	195.5
248.433	183.5
248.666	188.5
248.899	196.5
249.133	190.5
249.366	202.5
249.599	207.5
249.832	193.5
250.066	206.5
250.299	204.5
250.532	203.5
250.765	202.5
250.998	202.5
251.231	212.5
251.465	210.5
251.698	216.5
251.931	200.5
252.164	209.5
252.397	218.5
252.63	208.5
252.863	217.5
253.096	211.5
253.329	219.5
253.562	217.5
253.795	216.5
254.028	231.5
254.261	224.5
254.494	214.5
254.727	210.5
254.96	223.5
255.193	236.5
255.426	210.5
255.659	227.5
255.892	227.5
256.124	243.5
256.357	235.5
256.59	246.5
256.823	231.5
257.056	240.5
257.289	231.5
257.521	233.5
257.754	239.5
257.987	254.5
258.22	240.5
258.452	237.5
258.685	244.5
258.918	224.5
259.151	231.5
259.383	246.5
259.616	250.5
259.849	263.5
260.081	258.5
260.314	255.5
260.547	246.5
260.779	235.5
261.012	243.5
261.244	253.5
261.477	263.5
261.71	259.5
261.942	266.5
262.175	255.5
262.407	237.5
262.64	263.5
262.872	267.5
263.105	265.5
263.337	264.5
263.57	280.5
263.802	267.5
264.035	265.5
264.267	263.5
264.499	277.5
264.732	262.5
264.964	269.5
265.197	276.5
265.429	278.5
265.661	297.5
265.894	287.5
266.126	295.5
266.358	286.5
266.591	296.5
266.823	271.5
267.055	277.5
267.287	282.5
267.52	270.5
267.752	296.5
267.984	299.5
268.216	266.5
268.448	299.5
268.681	292.5
268.913	316.5
269.145	269.5
269.377	298.5
269.609	286.5
269.841	301.5
270.073	281.5
270.306	294.5
270.538	300.5
270.77	299.5
271.002	297.5
271.234	308.5
271.466	281.5
271.698	285.5
271.93	309.5
272.162	285.5
272.394	292.5
272.626	307.5
272.858	291.5
273.09	296.5
273.322	327.5
273.553	291.5
273.785	304.5
274.017	288.5
274.249	325.5
274.481	299.5
274.713	304.5
274.945	319.5
275.176	323.5
275.408	319.5
275.64	301.5
275.872	325.5
276.104	326.5
276.335	332.5
276.567	333.5
276.799	338.5
277.031	326.5
277.262	332.5
277.494	332.5
277.726	337.5
277.957	321.5
278.189	336.5
278.421	355.5
278.652	346.5
278.884	362.5
279.115	344.5
279.347	350.5
279.579	343.5
279.81	342.5
280.042	328.5
280.273	332.5
280.505	342.5
280.736	350.5
280.968	368.5
281.199	353.5
281.431	354.5
281.662	348.5
281.894	349.5
282.125	353.5
282.356	346.5
282.588	367.5
282.819	376.5
283.051	363.5
283.282	339.5
283.513	366.5
283.745	372.5
283.976	362.5
284.207	385.5
284.439	385.5
284.67	379.5
284.901	381.5
285.132	389.5
285.364	383.5
285.595	368.5
285.826	378.5
286.057	393.5
286.288	383.5
286.52	398.5
286.751	381.5
286.982	403.5
287.213	372.5
287.444	372.5
287.675	406.5
287.906	390.5
288.138	399.5
288.369	405.5
288.6	382.5
288.831	409.5
289.062	397.5
289.293	393.5
289.524	401.5
289.755	399.5
289.986	398.5
290.217	396.5
290.448	382.5
290.679	410.5
290.91	413.5
291.141	388.5
291.371	418.5
291.602	405.5
291.833	392.5
292.064	391.5
292.295	419.5
292.526	427.5
292.757	388.5
292.987	395.5
293.218	405.5
293.449	417.5
293.68	402.5
293.91	387.5
294.141	416.5
294.372	415.5
294.603	427.5
294.833	417.5
295.064	395.5
295.295	429.5
295.525	414.5
295.756	420.5
295.987	417.5
296.217	416.5
296.448	435.5
296.679	393.5
296.909	408.5
297.14	416.5
297.37	446.5
297.601	430.5
297.831	448.5
298.062	427.5
298.292	433.5
298.523	453.5
298.753	469.5
298.984	444.5
299.214	433.5
299.445	436.5
299.675	428.5
299.905	451.5
300.136	433.5
300.366	461.5
300.597	465.5
300.827	484.5
301.057	467.5
301.288	477.5
301.518	473.5
301.748	459.5
301.979	476.5
302.209	458.5
302.439	478.5
302.669	447.5
302.9	457.5
303.13	446.5
303.36	465.5
303.59	449.5
303.82	443.5
304.051	470.5
304.281	451.5
304.511	465.5
304.741	440.5
304.971	471.5
305.201	461.5
305.431	458.5
305.661	457.5
305.891	454.5
306.121	432.5
306.352	447.5
306.582	450.5
306.812	453.5
307.042	448.5
307.272	431.5
307.502	459.5
307.731	449.5
307.961	456.5
308.191	451.5
308.421	447.5
308.651	436.5
308.881	443.5
309.111	454.5
309.341	440.5
309.571	433.5
309.8	454.5
310.03	436.5
310.26	463.5
310.49	464.5
310.72	458.5
310.949	455.5
311.179	458.5
311.409	468.5
311.639	445.5
311.868	452.5
312.098	456.5
312.328	479.5
312.557	481.5
312.787	481.5
313.017	482.5
313.246	474.5
313.476	479.5
313.706	479.5
313.935	484.5
314.165	488.5
314.394	468.5
314.624	489.5
314.853	482.5
315.083	464.5
315.312	473.5
315.542	476.5
315.771	466.5
316.001	474.5
316.23	470.5
316.46	478.5
316.689	477.5
316.919	462.5
317.148	461.5
317.377	488.5
317.607	473.5
317.836	460.5
318.065	471.5
318.295	471.5
318.524	478.5
318.753	486.5
318.983	468.5
319.212	468.5
319.441	460.5
319.67	446.5
319.9	469.5
320.129	485.5
320.358	461.5
320.587	486.5
320.816	481.5
321.046	471.5
321.275	467.5
321.504	480.5
321.733	479.5
321.962	463.5
322.191	494.5
322.42	447.5
322.649	470.5
322.878	483.5
323.108	476.5
323.337	486.5
323.566	488.5
323.795	489.5
324.024	472.5
324.253	501.5
324.482	507.5
324.71	472.5
324.939	483.5
325.168	495.5
325.397	485.5
325.626	522.5
325.855	512.5
326.084	502.5
326.313	523.5
326.542	521.5
326.77	528.5
326.999	534.5
327.228	517.5
327.457	517.5
327.686	523.5
327.914	524.5
328.143	542.5
328.372	517.5
328.6	519.5
328.829	534.5
329.058	517.5
329.287	544.5
329.515	523.5
329.744	541.5
329.972	525.5
330.201	536.5
330.43	541.5
330.658	543.5
330.887	543.5
331.115	520.5
331.344	555.5
331.572	555.5
331.801	569.5
332.03	575.5
332.258	573.5
332.486	580.5
332.715	631.5
332.943	649.5
333.172	677.5
333.4	719.5
333.629	712.5
333.857	716.5
334.085	688.5
334.314	693.5
334.542	680.5
334.771	674.5
334.999	663.5
335.227	639.5
335.455	647.5
335.684	641.5
335.912	656.5
336.14	639.5
336.369	638.5
336.597	617.5
336.825	638.5
337.053	637.5
337.281	644.5
337.51	596.5
337.738	592.5
337.966	594.5
338.194	587.5
338.422	575.5
338.65	562.5
338.878	581.5
339.106	573.5
339.334	584.5
339.562	570.5
339.79	570.5
340.018	569.5
340.246	533.5
340.474	545.5
340.702	552.5
340.93	552.5
341.158	551.5
341.386	540.5
341.614	545.5
341.842	559.5
342.07	551.5
342.298	532.5
342.526	553.5
342.754	537.5
342.981	548.5
343.209	541.5
343.437	589.5
343.665	623.5
343.893	653.5
344.12	682.5
344.348	658.5
344.576	643.5
344.804	608.5
345.031	563.5
345.259	600.5
345.487	571.5
345.714	560.5
345.942	565.5
346.17	573.5
346.397	556.5
346.625	541.5
346.853	558.5
347.08	542.5
347.308	549.5
347.535	545.5
347.763	563.5
347.99	567.5
348.218	540.5
348.445	539.5
348.673	516.5
348.9	535.5
349.128	535.5
349.355	541.5
349.583	539.5
349.81	541.5
350.037	512.5
350.265	503.5
350.492	510.5
350.72	526.5
350.947	517.5
351.174	512.5
351.402	520.5
351.629	519.5
351.856	512.5
352.083	528.5
352.311	534.5
352.538	542.5
352.765	536.5
352.992	508.5
353.22	523.5
353.447	499.5
353.674	513.5
353.901	543.5
354.128	502.5
354.355	530.5
354.583	537.5
354.81	527.5
355.037	508.5
355.264	517.5
355.491	534.5
355.718	517.5
355.945	517.5
356.172	525.5
356.399	524.5
356.626	520.5
356.853	523.5
357.08	528.5
357.307	516.5
357.534	536.5
357.761	525.5
357.988	547.5
358.215	526.5
358.441	518.5
358.668	516.5
358.895	529.5
359.122	525.5
359.349	531.5
359.576	504.5
359.802	525.5
360.029	548.5
360.256	520.5
360.483	527.5
360.709	528.5
360.936	528.5
361.163	513.5
361.39	522.5
361.616	533.5
361.843	549.5
362.07	515.5
362.296	525.5
362.523	511.5
362.749	516.5
362.976	503.5
363.203	522.5
363.429	499.5
363.656	503.5
363.882	520.5
364.109	526.5
364.335	527.5
364.562	526.5
364.788	511.5
365.015	512.5
365.241	524.5
365.468	520.5
365.694	511.5
365.92	526.5
366.147	499.5
366.373	520.5
366.599	520.5
366.826	519.5
367.052	528.5
367.278	511.5
367.505	506.5
367.731	522.5
367.957	515.5
368.184	509.5
368.41	547.5
368.636	526.5
368.862	543.5
369.089	547.5
369.315	536.5
369.541	540.5
369.767	540.5
369.993	526.5
370.219	544.5
370.445	566.5
370.672	555.5
370.898	567.5
371.124	569.5
371.35	580.5
371.576	586.5
371.802	575.5
372.028	557.5
372.254	577.5
372.48	573.5
372.706	575.5
372.932	610.5
373.158	590.5
373.384	595.5
373.61	578.5
373.835	571.5
374.061	546.5
374.287	568.5
374.513	575.5
374.739	606.5
374.965	620.5
375.191	611.5
375.416	626.5
375.642	618.5
375.868	603.5
376.094	608.5
376.319	583.5
376.545	583.5
376.771	583.5
376.997	564.5
377.222	571.5
377.448	577.5
377.674	571.5
377.899	556.5
378.125	566.5
378.35	566.5
378.576	556.5
378.802	565.5
379.027	570.5
379.253	553.5
379.478	547.5
379.704	547.5
379.929	543.5
380.155	552.5
380.38	567.5
380.606	571.5
380.831	583.5
381.057	583.5
381.282	551.5
381.507	567.5
381.733	552.5
381.958	560.5
382.184	580.5
382.409	602.5
382.634	587.5
382.86	594.5
383.085	594.5
383.31	620.5
383.535	619.5
383.761	633.5
383.986	649.5
384.211	653.5
384.436	668.5
384.662	669.5
384.887	653.5
385.112	643.5
385.337	682.5
385.562	671.5
385.787	663.5
386.013	698.5
386.238	712.5
386.463	694.5
386.688	683.5
386.913	634.5
387.138	678.5
387.363	630.5
387.588	665.5
387.813	646.5
388.038	657.5
388.263	653.5
388.488	689.5
388.713	644.5
388.938	665.5
389.163	677.5
389.387	672.5
389.612	665.5
389.837	637.5
390.062	658.5
390.287	659.5
390.512	654.5
390.736	671.5
390.961	668.5
391.186	702.5
391.411	709.5
391.636	730.5
391.86	734.5
392.085	759.5
392.31	725.5
392.534	705.5
392.759	718.5
392.984	711.5
393.208	684.5
393.433	719.5
393.658	726.5
393.882	701.5
394.107	707.5
394.331	736.5
394.556	711.5
394.78	720.5
395.005	748.5
395.229	725.5
395.454	740.5
395.678	761.5
395.903	749.5
396.127	738.5
396.352	735.5
396.576	702.5
396.801	682.5
397.025	711.5
397.249	707.5
397.474	735.5
397.698	731.5
397.922	728.5
398.147	738.5
398.371	767.5
398.595	796.5
398.82	824.5
399.044	886.5
399.268	979.5
399.492	1115.5
399.717	1259.5
399.941	1258.5
400.165	1094.5
400.389	986.5
400.613	934.5
400.837	881.5
401.062	839.5
401.286	824.5
401.51	827.5
401.734	836.5
401.958	844.5
402.182	852.5
402.406	874.5
402.63	851.5
402.854	876.5
403.078	920.5
403.302	901.5
403.526	938.5
403.75	961.5
403.974	979.5
404.198	980.5
404.422	983.5
404.645	971.5
404.869	979.5
405.093	947.5
405.317	920.5
405.541	910.5
405.765	913.5
405.988	917.5
406.212	906.5
406.436	909.5
406.66	931.5
406.883	974.5
407.107	999.5
407.331	1063.5
407.555	1108.5
407.778	1110.5
408.002	1079.5
408.226	1052.5
408.449	990.5
408.673	967.5
408.896	966.5
409.12	962.5
409.344	965.5
409.567	948.5
409.791	967.5
410.014	957.5
410.238	939.5
410.461	951.5
410.685	932.5
410.908	885.5
411.132	878.5
411.355	870.5
411.578	856.5
411.802	853.5
412.025	847.5
412.249	875.5
412.472	875.5
412.695	820.5
412.919	836.5
413.142	853.5
413.365	836.5
413.589	840.5
413.812	835.5
414.035	820.5
414.258	830.5
414.482	841.5
414.705	841.5
414.928	863.5
415.151	848.5
415.374	843.5
415.597	835.5
415.821	843.5
416.044	835.5
416.267	836.5
416.49	794.5
416.713	805.5
416.936	835.5
417.159	842.5
417.382	836.5
417.605	811.5
417.828	816.5
418.051	847.5
418.274	805.5
418.497	819.5
418.72	851.5
418.943	856.5
419.166	907.5
419.389	930.5
419.611	936.5
419.834	891.5
420.057	870.5
420.28	854.5
420.503	851.5
420.726	807.5
420.948	842.5
421.171	825.5
421.394	810.5
421.617	814.5
421.839	837.5
422.062	844.5
422.285	819.5
422.507	856.5
422.73	853.5
422.953	855.5
423.175	848.5
423.398	880.5
423.621	883.5
423.843	905.5
424.066	917.5
424.288	903.5
424.511	885.5
424.733	864.5
424.956	841.5
425.178	853.5
425.401	821.5
425.623	820.5
425.846	809.5
426.068	806.5
426.291	814.5
426.513	823.5
426.735	801.5
426.958	792.5
427.18	779.5
427.402	762.5
427.625	771.5
427.847	764.5
428.069	755.5
428.292	759.5
428.514	720.5
428.736	726.5
428.958	746.5
429.181	726.5
429.403	718.5
429.625	733.5
429.847	714.5
430.069	713.5
430.292	715.5
430.514	706.5
430.736	711.5
430.958	719.5
431.18	730.5
431.402	740.5
431.624	741.5
431.846	732.5
432.068	763.5
432.29	758.5
432.512	755.5
432.734	760.5
432.956	724.5
433.178	755.5
433.4	763.5
433.622	731.5
433.844	749.5
434.066	740.5
434.287	751.5
434.509	791.5
434.731	812.5
434.953	823.5
435.175	848.5
435.397	828.5
435.618	802.5
435.84	784.5
436.062	742.5
436.284	738.5
436.505	725.5
436.727	756.5
436.949	743.5
437.17	732.5
437.392	736.5
437.614	731.5
437.835	698.5
438.057	728.5
438.278	699.5
438.5	701.5
438.721	713.5
438.943	723.5
439.165	701.5
439.386	719.5
439.608	733.5
439.829	756.5
440.05	732.5
440.272	755.5
440.493	758.5
440.715	765.5
440.936	773.5
441.158	781.5
441.379	820.5
441.6	839.5
441.822	851.5
442.043	842.5
442.264	815.5
442.486	801.5
442.707	786.5
442.928	824.5
443.149	843.5
443.371	843.5
443.592	829.5
443.813	824.5
444.034	843.5
444.255	851.5
444.476	885.5
444.698	983.5
444.919	1044.5
445.14	1085.5
445.361	937.5
445.582	871.5
445.803	789.5
446.024	779.5
446.245	783.5
446.466	765.5
446.687	749.5
446.908	752.5
447.129	745.5
447.35	737.5
447.571	709.5
447.792	677.5
448.013	691.5
448.234	684.5
448.455	685.5
448.675	688.5
448.896	698.5
449.117	691.5
449.338	693.5
449.559	684.5
449.779	661.5
450	676.5
450.221	699.5
450.442	694.5
450.662	700.5
450.883	725.5
451.104	701.5
451.324	678.5
451.545	707.5
451.766	696.5
451.986	704.5
452.207	697.5
452.428	703.5
452.648	680.5
452.869	675.5
453.089	672.5
453.31	684.5
453.53	655.5
453.751	652.5
453.971	652.5
454.192	676.5
454.412	651.5
454.633	652.5
454.853	656.5
455.073	645.5
455.294	652.5
455.514	639.5
455.734	663.5
455.955	637.5
456.175	659.5
456.395	634.5
456.616	679.5
456.836	645.5
457.056	650.5
457.276	626.5
457.497	640.5
457.717	632.5
457.937	648.5
458.157	660.5
458.377	661.5
458.598	686.5
458.818	676.5
459.038	686.5
459.258	705.5
459.478	773.5
459.698	783.5
459.918	816.5
460.138	837.5
460.358	871.5
460.578	853.5
460.798	894.5
461.018	899.5
461.238	877.5
461.458	871.5
461.678	889.5
461.898	896.5
462.118	903.5
462.338	951.5
462.558	937.5
462.777	995.5
462.997	1100.5
463.217	1215.5
463.437	1211.5
463.657	1102.5
463.876	1020.5
464.096	1040.5
464.316	1022.5
464.536	1064.5
464.755	1035.5
464.975	947.5
465.195	899.5
465.414	876.5
465.634	778.5
465.854	792.5
466.073	772.5
466.293	771.5
466.512	751.5
466.732	735.5
466.951	732.5
467.171	707.5
467.391	719.5
467.61	714.5
467.829	696.5
468.049	702.5
468.268	698.5
468.488	689.5
468.707	662.5
468.927	728.5
469.146	694.5
469.365	712.5
469.585	702.5
469.804	720.5
470.023	708.5
470.243	726.5
470.462	750.5
470.681	729.5
470.901	732.5
471.12	745.5
471.339	713.5
471.558	716.5
471.777	708.5
471.997	697.5
472.216	671.5
472.435	709.5
472.654	659.5
472.873	678.5
473.092	672.5
473.311	692.5
473.53	678.5
473.749	679.5
473.968	637.5
474.187	651.5
474.406	659.5
474.625	669.5
474.844	679.5
475.063	685.5
475.282	681.5
475.501	686.5
475.72	704.5
475.939	694.5
476.158	688.5
476.377	694.5
476.596	695.5
476.814	698.5
477.033	713.5
477.252	733.5
477.471	742.5
477.69	739.5
477.908	762.5
478.127	807.5
478.346	795.5
478.564	809.5
478.783	832.5
479.002	867.5
479.22	874.5
479.439	841.5
479.658	828.5
479.876	857.5
480.095	845.5
480.313	876.5
480.532	919.5
480.751	915.5
480.969	864.5
481.188	822.5
481.406	811.5
481.624	792.5
481.843	793.5
482.061	786.5
482.28	761.5
482.498	780.5
482.717	767.5
482.935	774.5
483.153	779.5
483.372	785.5
483.59	784.5
483.808	773.5
484.027	752.5
484.245	787.5
484.463	801.5
484.681	817.5
484.9	843.5
485.118	842.5
485.336	825.5
485.554	820.5
485.772	825.5
485.99	824.5
486.209	845.5
486.427	816.5
486.645	822.5
486.863	826.5
487.081	837.5
487.299	801.5
487.517	793.5
487.735	823.5
487.953	837.5
488.171	848.5
488.389	814.5
488.607	793.5
488.825	781.5
489.043	790.5
489.261	803.5
489.479	789.5
489.696	820.5
489.914	825.5
490.132	835.5
490.35	825.5
490.568	811.5
490.786	817.5
491.003	808.5
491.221	802.5
491.439	792.5
491.657	791.5
491.874	800.5
492.092	797.5
492.31	806.5
492.527	840.5
492.745	812.5
492.963	822.5
493.18	833.5
493.398	802.5
493.615	875.5
493.833	841.5
494.05	855.5
494.268	861.5
494.485	863.5
494.703	830.5
494.92	872.5
495.138	852.5
495.355	847.5
495.573	846.5
495.79	839.5
496.008	838.5
496.225	847.5
496.442	878.5
496.66	864.5
496.877	904.5
497.094	856.5
497.312	891.5
497.529	911.5
497.746	926.5
497.963	975.5
498.181	1000.5
498.398	1051.5
498.615	1115.5
498.832	1189.5
499.049	1287.5
499.267	1388.5
499.484	1481.5
499.701	1643.5
499.918	1832.5
500.135	2143.5
500.352	2493.5
500.569	2595.5
500.786	2536.5
501.003	2363.5
501.22	2040.5
501.437	1816.5
501.654	1597.5
501.871	1426.5
502.088	1331.5
502.305	1217.5
502.522	1175.5
502.739	1132.5
502.956	1095.5
503.172	1022.5
503.389	997.5
503.606	987.5
503.823	947.5
504.04	955.5
504.256	978.5
504.473	980.5
504.69	1021.5
504.907	994.5
505.123	942.5
505.34	889.5
505.557	832.5
505.773	824.5
505.99	790.5
506.207	806.5
506.423	762.5
506.64	775.5
506.856	754.5
507.073	770.5
507.289	756.5
507.506	782.5
507.722	759.5
507.939	739.5
508.155	703.5
508.372	725.5
508.588	706.5
508.805	744.5
509.021	709.5
509.238	722.5
509.454	692.5
509.67	687.5
509.887	682.5
510.103	701.5
510.319	708.5
510.536	681.5
510.752	689.5
510.968	683.5
511.184	702.5
511.401	688.5
511.617	675.5
511.833	676.5
512.049	684.5
512.265	673.5
512.481	714.5
512.698	685.5
512.914	681.5
513.13	669.5
513.346	697.5
513.562	667.5
513.778	675.5
513.994	697.5
514.21	695.5
514.426	685.5
514.642	718.5
514.858	688.5
515.074	709.5
515.29	732.5
515.506	692.5
515.721	730.5
515.937	732.5
516.153	732.5
516.369	744.5
516.585	753.5
516.801	799.5
517.016	835.5
517.232	876.5
517.448	925.5
517.664	925.5
517.879	967.5
518.095	942.5
518.311	929.5
518.527	878.5
518.742	856.5
518.958	793.5
519.173	785.5
519.389	765.5
519.605	757.5
519.82	716.5
520.036	726.5
520.251	717.5
520.467	712.5
520.682	700.5
520.898	692.5
521.113	698.5
521.329	673.5
521.544	663.5
521.76	666.5
521.975	674.5
522.19	649.5
522.406	667.5
522.621	666.5
522.836	641.5
523.052	653.5
523.267	646.5
523.482	659.5
523.698	621.5
523.913	646.5
524.128	632.5
524.343	617.5
524.559	655.5
524.774	631.5
524.989	640.5
525.204	640.5
525.419	647.5
525.634	629.5
525.849	631.5
526.064	636.5
526.28	618.5
526.495	626.5
526.71	643.5
526.925	629.5
527.14	616.5
527.355	609.5
527.57	631.5
527.785	636.5
527.999	605.5
528.214	611.5
528.429	615.5
528.644	605.5
528.859	624.5
529.074	632.5
529.289	627.5
529.503	627.5
529.718	631.5
529.933	606.5
530.148	647.5
530.363	619.5
530.577	598.5
530.792	621.5
531.007	628.5
531.221	622.5
531.436	629.5
531.651	632.5
531.865	643.5
532.08	600.5
532.295	620.5
532.509	610.5
532.724	618.5
532.938	600.5
533.153	624.5
533.367	621.5
533.582	598.5
533.796	600.5
534.011	623.5
534.225	622.5
534.44	605.5
534.654	609.5
534.868	616.5
535.083	606.5
535.297	618.5
535.511	595.5
535.726	603.5
535.94	616.5
536.154	599.5
536.369	571.5
536.583	600.5
536.797	575.5
537.011	592.5
537.225	587.5
537.44	590.5
537.654	571.5
537.868	571.5
538.082	568.5
538.296	563.5
538.51	561.5
538.724	569.5
538.938	555.5
539.153	561.5
539.367	554.5
539.581	560.5
539.795	550.5
540.009	561.5
540.222	579.5
540.436	557.5
540.65	563.5
540.864	568.5
541.078	547.5
541.292	573.5
541.506	566.5
541.72	547.5
541.934	557.5
542.147	554.5
542.361	573.5
542.575	553.5
542.789	558.5
543.002	554.5
543.216	530.5
543.43	538.5
543.644	556.5
543.857	565.5
544.071	560.5
544.285	554.5
544.498	534.5
544.712	551.5
544.925	560.5
545.139	561.5
545.352	580.5
545.566	549.5
545.779	565.5
545.993	565.5
546.206	575.5
546.42	563.5
546.633	553.5
546.847	555.5
547.06	568.5
547.274	584.5
547.487	567.5
547.7	555.5
547.914	579.5
548.127	583.5
548.34	595.5
548.554	565.5
548.767	607.5
548.98	588.5
549.193	567.5
549.407	561.5
549.62	591.5
549.833	584.5
550.046	602.5
550.259	584.5
550.473	539.5
550.686	561.5
550.899	537.5
551.112	567.5
551.325	568.5
551.538	538.5
551.751	551.5
551.964	573.5
552.177	563.5
552.39	567.5
552.603	563.5
552.816	611.5
553.029	614.5
553.242	636.5
553.455	615.5
553.667	657.5
553.88	612.5
554.093	599.5
554.306	592.5
554.519	567.5
554.732	571.5
554.944	558.5
555.157	549.5
555.37	534.5
555.583	558.5
555.795	527.5
556.008	526.5
556.221	520.5
556.433	504.5
556.646	515.5
556.859	495.5
557.071	492.5
557.284	485.5
557.496	496.5
557.709	485.5
557.921	486.5
558.134	488.5
558.346	487.5
558.559	496.5
558.771	486.5
558.984	471.5
559.196	475.5
559.409	485.5
559.621	469.5
559.833	455.5
560.046	452.5
560.258	463.5
560.47	467.5
560.683	483.5
560.895	452.5
561.107	460.5
561.32	470.5
561.532	461.5
561.744	456.5
561.956	475.5
562.168	467.5
562.381	464.5
562.593	456.5
562.805	475.5
563.017	479.5
563.229	474.5
563.441	472.5
563.653	472.5
563.865	497.5
564.077	486.5
564.289	479.5
564.501	496.5
564.713	510.5
564.925	499.5
565.137	524.5
565.349	540.5
565.561	561.5
565.773	555.5
565.985	543.5
566.197	618.5
566.408	664.5
566.62	705.5
566.832	763.5
567.044	783.5
567.255	769.5
567.467	798.5
567.679	837.5
567.891	892.5
568.102	948.5
568.314	899.5
568.526	769.5
568.737	717.5
568.949	667.5
569.161	593.5
569.372	541.5
569.584	539.5
569.795	536.5
570.007	495.5
570.218	501.5
570.43	494.5
570.641	494.5
570.853	484.5
571.064	536.5
571.276	497.5
571.487	472.5
571.698	458.5
571.91	455.5
572.121	447.5
572.333	455.5
572.544	437.5
572.755	420.5
572.966	399.5
573.178	413.5
573.389	415.5
573.6	409.5
573.811	399.5
574.023	398.5
574.234	397.5
574.445	391.5
574.656	399.5
574.867	400.5
575.078	404.5
575.289	405.5
575.501	402.5
575.712	385.5
575.923	378.5
576.134	389.5
576.345	376.5
576.556	377.5
576.767	364.5
576.978	377.5
577.188	379.5
577.399	365.5
577.61	383.5
577.821	383.5
578.032	350.5
578.243	363.5
578.454	365.5
578.665	372.5
578.875	360.5
579.086	339.5
579.297	350.5
579.508	357.5
579.718	358.5
579.929	331.5
580.14	341.5
580.35	344.5
580.561	362.5
580.772	373.5
580.982	351.5
581.193	345.5
581.403	339.5
581.614	358.5
581.825	337.5
582.035	348.5
582.246	346.5
582.456	333.5
582.667	354.5
582.877	352.5
583.087	331.5
583.298	333.5
583.508	345.5
583.719	342.5
583.929	337.5
584.139	345.5
584.35	335.5
584.56	320.5
584.77	328.5
584.981	329.5
585.191	336.5
585.401	329.5
585.611	328.5
585.821	331.5
586.032	332.5
586.242	317.5
586.452	327.5
586.662	325.5
586.872	333.5
587.082	324.5
587.292	291.5
587.502	332.5
587.713	332.5
587.923	304.5
588.133	327.5
588.343	328.5
588.553	318.5
588.762	343.5
588.972	323.5
589.182	319.5
589.392	340.5
589.602	312.5
589.812	314.5
590.022	336.5
590.232	325.5
590.441	313.5
590.651	324.5
590.861	323.5
591.071	348.5
591.281	347.5
591.49	343.5
591.7	336.5
591.91	334.5
592.119	350.5
592.329	381.5
592.539	358.5
592.748	367.5
592.958	382.5
593.167	417.5
593.377	397.5
593.587	398.5
593.796	399.5
594.006	422.5
594.215	411.5
594.424	444.5
594.634	413.5
594.843	381.5
595.053	368.5
595.262	377.5
595.472	344.5
595.681	349.5
595.89	340.5
596.1	328.5
596.309	332.5
596.518	320.5
596.727	337.5
596.937	316.5
597.146	298.5
597.355	290.5
597.564	305.5
597.774	303.5
597.983	304.5
598.192	292.5
598.401	286.5
598.61	270.5
598.819	293.5
599.028	277.5
599.237	294.5
599.446	285.5
599.655	289.5
599.864	280.5
600.073	266.5
600.282	278.5
600.491	269.5
600.7	291.5
600.909	285.5
601.118	249.5
601.327	264.5
601.536	270.5
601.745	263.5
601.953	272.5
602.162	277.5
602.371	261.5
602.58	273.5
602.789	271.5
602.997	270.5
603.206	278.5
603.415	259.5
603.623	260.5
603.832	265.5
604.041	270.5
604.249	259.5
604.458	262.5
604.666	243.5
604.875	251.5
605.084	268.5
605.292	261.5
605.501	259.5
605.709	253.5
605.918	264.5
606.126	253.5
606.334	246.5
606.543	259.5
606.751	259.5
606.96	248.5
607.168	259.5
607.376	252.5
607.585	250.5
607.793	241.5
608.001	236.5
608.21	270.5
608.418	256.5
608.626	260.5
608.834	234.5
609.043	266.5
609.251	279.5
609.459	254.5
609.667	251.5
609.875	248.5
610.083	247.5
610.291	252.5
610.499	263.5
610.707	252.5
610.916	240.5
611.124	258.5
611.332	266.5
611.54	233.5
611.748	244.5
611.955	235.5
612.163	238.5
612.371	254.5
612.579	230.5
612.787	246.5
612.995	239.5
613.203	251.5
613.411	241.5
613.618	237.5
613.826	230.5
614.034	249.5
614.242	238.5
614.449	259.5
614.657	251.5
614.865	244.5
615.072	253.5
615.28	246.5
615.488	243.5
615.695	243.5
615.903	251.5
616.111	239.5
616.318	261.5
616.526	276.5
616.733	245.5
616.941	228.5
617.148	228.5
617.356	247.5
617.563	235.5
617.771	251.5
617.978	245.5
618.185	260.5
618.393	258.5
618.6	259.5
618.807	239.5
619.015	230.5
619.222	246.5
619.429	232.5
619.637	242.5
619.844	233.5
620.051	228.5
620.258	248.5
620.466	220.5
620.673	209.5
620.88	214.5
621.087	214.5
621.294	206.5
621.501	225.5
621.708	207.5
621.915	222.5
622.122	219.5
622.329	219.5
622.536	229.5
622.743	230.5
622.95	226.5
623.157	221.5
623.364	209.5
623.571	225.5
623.778	233.5
623.985	212.5
624.192	230.5
624.399	215.5
624.606	221.5
624.812	199.5
625.019	205.5
625.226	224.5
625.433	219.5
625.639	206.5
625.846	200.5
626.053	217.5
626.259	209.5
626.466	226.5
626.673	202.5
626.879	201.5
627.086	200.5
627.293	210.5
627.499	217.5
627.706	198.5
627.912	199.5
628.119	208.5
628.325	213.5
628.532	204.5
628.738	201.5
628.945	211.5
629.151	212.5
629.357	203.5
629.564	208.5
629.77	214.5
629.976	197.5
630.183	200.5
630.389	211.5
630.595	207.5
630.802	185.5
631.008	202.5
631.214	204.5
631.42	192.5
631.627	192.5
631.833	194.5
632.039	199.5
632.245	206.5
632.451	199.5
632.657	181.5
632.863	186.5
633.069	214.5
633.275	193.5
633.481	194.5
633.688	173.5
633.893	183.5
634.099	197.5
634.305	195.5
634.511	193.5
634.717	195.5
634.923	202.5
635.129	192.5
635.335	178.5
635.541	180.5
635.747	195.5
635.952	193.5
636.158	191.5
636.364	180.5
636.57	190.5
636.775	192.5
636.981	185.5
637.187	192.5
637.392	172.5
637.598	181.5
637.804	191.5
638.009	174.5
638.215	185.5
638.421	185.5
638.626	178.5
638.832	176.5
639.037	191.5
639.243	175.5
639.448	202.5
639.654	191.5
639.859	160.5
640.065	161.5
640.27	190.5
640.475	175.5
640.681	161.5
640.886	171.5
641.091	165.5
641.297	156.5
641.502	166.5
641.707	173.5
641.913	175.5
642.118	182.5
642.323	183.5
642.528	174.5
642.733	182.5
642.939	176.5
643.144	158.5
643.349	177.5
643.554	182.5
643.759	189.5
643.964	169.5
644.169	168.5
644.374	156.5
644.579	165.5
644.784	176.5
644.989	175.5
645.194	168.5
645.399	183.5
645.604	186.5
645.809	175.5
646.014	174.5
646.219	167.5
646.423	161.5
646.628	165.5
646.833	176.5
647.038	170.5
647.243	182.5
647.447	157.5
647.652	171.5
647.857	189.5
648.062	172.5
648.266	181.5
648.471	177.5
648.676	195.5
648.88	175.5
649.085	178.5
649.289	180.5
649.494	166.5
649.698	180.5
649.903	159.5
650.107	164.5
650.312	172.5
650.516	163.5
650.721	164.5
650.925	169.5
651.13	153.5
651.334	152.5
651.539	164.5
651.743	156.5
651.947	156.5
652.152	161.5
652.356	147.5
652.56	159.5
652.764	165.5
652.969	156.5
653.173	156.5
653.377	155.5
653.581	148.5
653.785	143.5
653.99	140.5
654.194	140.5
654.398	153.5
654.602	149.5
654.806	153.5
655.01	149.5
655.214	133.5
655.418	160.5
655.622	141.5
655.826	167.5
656.03	165.5
656.234	172.5
656.438	162.5
656.642	144.5
656.846	159.5
657.049	152.5
657.253	143.5
657.457	128.5
657.661	135.5
657.865	113.5
658.068	122.5
658.272	119.5
658.476	120.5
658.68	111.5
658.883	128.5
659.087	117.5
659.291	96.5
659.494	112.5
659.698	109.5
659.901	97.5
660.105	106.5
660.309	108.5
660.512	106.5
660.716	107.5
660.919	101.5
661.123	91.5
661.326	103.5
661.53	104.5
661.733	97.5
661.936	96.5
662.14	84.5
662.343	85.5
662.546	89.5
662.75	83.5
662.953	92.5
663.156	89.5
663.36	98.5
663.563	84.5
663.766	80.5
663.969	79.5
664.173	88.5
664.376	81.5
664.579	82.5
664.782	84.5
664.985	92.5
665.188	89.5
665.391	84.5
665.594	89.5
665.797	90.5
666	77.5
666.203	86.5
666.406	86.5
666.609	86.5
666.812	97.5
667.015	77.5
667.218	92.5
667.421	87.5
667.624	74.5
667.827	87.5
668.03	84.5
668.232	93.5
668.435	84.5
668.638	77.5
668.841	71.5
669.043	87.5
669.246	78.5
669.449	88.5
669.651	87.5
669.854	78.5
670.057	93.5
670.259	91.5
670.462	87.5
670.665	83.5
670.867	84.5
671.07	88.5
671.272	80.5
671.475	87.5
671.677	88.5
671.88	95.5
672.082	76.5
672.284	85.5
672.487	85.5
672.689	81.5
672.892	81.5
