Data from Ni(NO3)2@0.0625M.TitratingCurve.Agarose3%dH2O.NegLispCup.LampEnergy10.LIBS07252019_HRD10591_18-15-26-569.txt Node
Date: Thu Jul 25 18:15:26 EDT 2019
User: cochatt
Spectrometer: HR+D1059
Trigger mode: 1
Integration Time (sec): 1.000000E-1
Scans to average: 1
Electric dark correction enabled: true
Nonlinearity correction enabled: false
Boxcar width: 0
XAxis mode: Wavelengths
Number of Pixels in Spectrum: 2048
>>>>>Begin Spectral Data<<<<<
223.165	-15.38
223.4	-15.38
223.635	-15.38
223.869	-18.38
224.104	-20.38
224.338	-15.38
224.573	-20.38
224.808	-7.38
225.042	-25.38
225.277	-9.38
225.511	-6.38
225.746	8.62
225.98	14.62
226.215	15.62
226.449	15.62
226.683	25.62
226.918	24.62
227.152	33.62
227.387	43.62
227.621	56.62
227.856	44.62
228.09	46.62
228.324	37.62
228.559	57.62
228.793	75.62
229.027	120.62
229.262	119.62
229.496	118.62
229.73	129.62
229.964	138.62
230.199	127.62
230.433	121.62
230.667	152.62
230.901	148.62
231.136	145.62
231.37	138.62
231.604	146.62
231.838	136.62
232.072	143.62
232.306	163.62
232.541	156.62
232.775	148.62
233.009	153.62
233.243	145.62
233.477	158.62
233.711	156.62
233.945	150.62
234.179	156.62
234.413	161.62
234.647	156.62
234.881	162.62
235.115	167.62
235.349	153.62
235.583	151.62
235.817	160.62
236.051	154.62
236.285	152.62
236.519	171.62
236.753	160.62
236.987	150.62
237.221	158.62
237.455	163.62
237.689	161.62
237.922	155.62
238.156	167.62
238.39	179.62
238.624	166.62
238.858	166.62
239.091	175.62
239.325	182.62
239.559	179.62
239.793	180.62
240.027	190.62
240.26	173.62
240.494	179.62
240.728	182.62
240.961	171.62
241.195	175.62
241.429	179.62
241.662	187.62
241.896	204.62
242.13	198.62
242.363	192.62
242.597	194.62
242.83	202.62
243.064	206.62
243.298	199.62
243.531	224.62
243.765	189.62
243.998	204.62
244.232	211.62
244.465	220.62
244.699	207.62
244.932	206.62
245.166	206.62
245.399	208.62
245.633	205.62
245.866	205.62
246.099	204.62
246.333	209.62
246.566	229.62
246.8	215.62
247.033	239.62
247.266	256.62
247.5	231.62
247.733	244.62
247.966	234.62
248.2	221.62
248.433	233.62
248.666	242.62
248.899	234.62
249.133	244.62
249.366	248.62
249.599	252.62
249.832	261.62
250.066	242.62
250.299	268.62
250.532	240.62
250.765	250.62
250.998	273.62
251.231	268.62
251.465	276.62
251.698	274.62
251.931	255.62
252.164	266.62
252.397	261.62
252.63	271.62
252.863	272.62
253.096	277.62
253.329	291.62
253.562	286.62
253.795	278.62
254.028	275.62
254.261	267.62
254.494	286.62
254.727	285.62
254.96	289.62
255.193	286.62
255.426	281.62
255.659	278.62
255.892	286.62
256.124	272.62
256.357	289.62
256.59	298.62
256.823	284.62
257.056	294.62
257.289	311.62
257.521	310.62
257.754	298.62
257.987	296.62
258.22	317.62
258.452	311.62
258.685	310.62
258.918	294.62
259.151	316.62
259.383	315.62
259.616	305.62
259.849	310.62
260.081	310.62
260.314	300.62
260.547	323.62
260.779	309.62
261.012	326.62
261.244	317.62
261.477	316.62
261.71	312.62
261.942	325.62
262.175	332.62
262.407	325.62
262.64	328.62
262.872	346.62
263.105	344.62
263.337	354.62
263.57	347.62
263.802	319.62
264.035	347.62
264.267	351.62
264.499	335.62
264.732	357.62
264.964	361.62
265.197	361.62
265.429	360.62
265.661	361.62
265.894	365.62
266.126	339.62
266.358	351.62
266.591	354.62
266.823	367.62
267.055	360.62
267.287	372.62
267.52	362.62
267.752	363.62
267.984	367.62
268.216	381.62
268.448	367.62
268.681	366.62
268.913	356.62
269.145	370.62
269.377	379.62
269.609	380.62
269.841	367.62
270.073	388.62
270.306	392.62
270.538	390.62
270.77	380.62
271.002	375.62
271.234	388.62
271.466	391.62
271.698	371.62
271.93	386.62
272.162	397.62
272.394	394.62
272.626	407.62
272.858	388.62
273.09	382.62
273.322	400.62
273.553	379.62
273.785	400.62
274.017	400.62
274.249	422.62
274.481	410.62
274.713	404.62
274.945	420.62
275.176	406.62
275.408	439.62
275.64	408.62
275.872	419.62
276.104	423.62
276.335	399.62
276.567	413.62
276.799	412.62
277.031	434.62
277.262	413.62
277.494	424.62
277.726	431.62
277.957	419.62
278.189	410.62
278.421	426.62
278.652	414.62
278.884	451.62
279.115	445.62
279.347	440.62
279.579	446.62
279.81	435.62
280.042	431.62
280.273	443.62
280.505	454.62
280.736	446.62
280.968	461.62
281.199	445.62
281.431	447.62
281.662	442.62
281.894	462.62
282.125	473.62
282.356	451.62
282.588	470.62
282.819	438.62
283.051	470.62
283.282	472.62
283.513	464.62
283.745	492.62
283.976	485.62
284.207	476.62
284.439	477.62
284.67	479.62
284.901	482.62
285.132	483.62
285.364	481.62
285.595	482.62
285.826	480.62
286.057	495.62
286.288	494.62
286.52	485.62
286.751	492.62
286.982	490.62
287.213	511.62
287.444	496.62
287.675	506.62
287.906	526.62
288.138	506.62
288.369	500.62
288.6	498.62
288.831	500.62
289.062	499.62
289.293	529.62
289.524	511.62
289.755	502.62
289.986	496.62
290.217	527.62
290.448	517.62
290.679	530.62
290.91	528.62
291.141	531.62
291.371	518.62
291.602	548.62
291.833	515.62
292.064	542.62
292.295	551.62
292.526	500.62
292.757	532.62
292.987	518.62
293.218	531.62
293.449	520.62
293.68	522.62
293.91	543.62
294.141	509.62
294.372	509.62
294.603	524.62
294.833	528.62
295.064	533.62
295.295	526.62
295.525	550.62
295.756	544.62
295.987	554.62
296.217	526.62
296.448	556.62
296.679	555.62
296.909	541.62
297.14	552.62
297.37	585.62
297.601	567.62
297.831	559.62
298.062	556.62
298.292	555.62
298.523	581.62
298.753	620.62
298.984	586.62
299.214	591.62
299.445	582.62
299.675	558.62
299.905	567.62
300.136	555.62
300.366	573.62
300.597	578.62
300.827	598.62
301.057	603.62
301.288	608.62
301.518	605.62
301.748	628.62
301.979	614.62
302.209	604.62
302.439	591.62
302.669	595.62
302.9	593.62
303.13	579.62
303.36	595.62
303.59	588.62
303.82	582.62
304.051	600.62
304.281	600.62
304.511	593.62
304.741	603.62
304.971	588.62
305.201	568.62
305.431	599.62
305.661	573.62
305.891	578.62
306.121	593.62
306.352	591.62
306.582	572.62
306.812	566.62
307.042	559.62
307.272	590.62
307.502	559.62
307.731	586.62
307.961	564.62
308.191	590.62
308.421	585.62
308.651	576.62
308.881	583.62
309.111	570.62
309.341	567.62
309.571	588.62
309.8	564.62
310.03	566.62
310.26	580.62
310.49	602.62
310.72	594.62
310.949	558.62
311.179	588.62
311.409	579.62
311.639	576.62
311.868	599.62
312.098	586.62
312.328	566.62
312.557	611.62
312.787	606.62
313.017	591.62
313.246	606.62
313.476	590.62
313.706	617.62
313.935	600.62
314.165	617.62
314.394	644.62
314.624	643.62
314.853	595.62
315.083	618.62
315.312	624.62
315.542	617.62
315.771	607.62
316.001	606.62
316.23	595.62
316.46	575.62
316.689	612.62
316.919	628.62
317.148	604.62
317.377	600.62
317.607	587.62
317.836	615.62
318.065	599.62
318.295	623.62
318.524	619.62
318.753	609.62
318.983	619.62
319.212	594.62
319.441	589.62
319.67	580.62
319.9	599.62
320.129	601.62
320.358	587.62
320.587	602.62
320.816	609.62
321.046	608.62
321.275	626.62
321.504	623.62
321.733	590.62
321.962	619.62
322.191	606.62
322.42	623.62
322.649	625.62
322.878	614.62
323.108	591.62
323.337	611.62
323.566	622.62
323.795	611.62
324.024	640.62
324.253	587.62
324.482	636.62
324.71	619.62
324.939	629.62
325.168	630.62
325.397	610.62
325.626	639.62
325.855	641.62
326.084	652.62
326.313	666.62
326.542	664.62
326.77	704.62
326.999	647.62
327.228	649.62
327.457	647.62
327.686	662.62
327.914	662.62
328.143	678.62
328.372	671.62
328.6	671.62
328.829	644.62
329.058	646.62
329.287	665.62
329.515	632.62
329.744	655.62
329.972	663.62
330.201	692.62
330.43	661.62
330.658	675.62
330.887	683.62
331.115	701.62
331.344	684.62
331.572	711.62
331.801	708.62
332.03	744.62
332.258	750.62
332.486	787.62
332.715	812.62
332.943	832.62
333.172	878.62
333.4	899.62
333.629	902.62
333.857	909.62
334.085	877.62
334.314	871.62
334.542	840.62
334.771	844.62
334.999	828.62
335.227	832.62
335.455	826.62
335.684	846.62
335.912	807.62
336.14	785.62
336.369	805.62
336.597	807.62
336.825	836.62
337.053	812.62
337.281	776.62
337.51	770.62
337.738	763.62
337.966	727.62
338.194	735.62
338.422	739.62
338.65	718.62
338.878	730.62
339.106	730.62
339.334	717.62
339.562	731.62
339.79	715.62
340.018	694.62
340.246	698.62
340.474	673.62
340.702	687.62
340.93	702.62
341.158	688.62
341.386	697.62
341.614	705.62
341.842	675.62
342.07	679.62
342.298	682.62
342.526	691.62
342.754	688.62
342.981	697.62
343.209	698.62
343.437	736.62
343.665	771.62
343.893	818.62
344.12	882.62
344.348	852.62
344.576	790.62
344.804	771.62
345.031	736.62
345.259	710.62
345.487	693.62
345.714	707.62
345.942	683.62
346.17	672.62
346.397	693.62
346.625	682.62
346.853	673.62
347.08	667.62
347.308	676.62
347.535	686.62
347.763	698.62
347.99	722.62
348.218	699.62
348.445	676.62
348.673	690.62
348.9	677.62
349.128	645.62
349.355	687.62
349.583	663.62
349.81	658.62
350.037	643.62
350.265	648.62
350.492	665.62
350.72	630.62
350.947	635.62
351.174	649.62
351.402	658.62
351.629	648.62
351.856	662.62
352.083	661.62
352.311	656.62
352.538	655.62
352.765	666.62
352.992	650.62
353.22	653.62
353.447	632.62
353.674	652.62
353.901	644.62
354.128	647.62
354.355	650.62
354.583	634.62
354.81	642.62
355.037	660.62
355.264	657.62
355.491	640.62
355.718	669.62
355.945	651.62
356.172	665.62
356.399	653.62
356.626	659.62
356.853	664.62
357.08	647.62
357.307	669.62
357.534	650.62
357.761	649.62
357.988	672.62
358.215	655.62
358.441	662.62
358.668	684.62
358.895	652.62
359.122	660.62
359.349	636.62
359.576	652.62
359.802	647.62
360.029	661.62
360.256	653.62
360.483	648.62
360.709	626.62
360.936	679.62
361.163	633.62
361.39	664.62
361.616	660.62
361.843	652.62
362.07	644.62
362.296	655.62
362.523	649.62
362.749	637.62
362.976	652.62
363.203	648.62
363.429	630.62
363.656	638.62
363.882	673.62
364.109	644.62
364.335	645.62
364.562	648.62
364.788	634.62
365.015	660.62
365.241	639.62
365.468	635.62
365.694	647.62
365.92	664.62
366.147	639.62
366.373	657.62
366.599	646.62
366.826	642.62
367.052	630.62
367.278	644.62
367.505	636.62
367.731	647.62
367.957	685.62
368.184	662.62
368.41	684.62
368.636	646.62
368.862	643.62
369.089	668.62
369.315	676.62
369.541	669.62
369.767	696.62
369.993	667.62
370.219	663.62
370.445	681.62
370.672	681.62
370.898	659.62
371.124	708.62
371.35	698.62
371.576	698.62
371.802	710.62
372.028	710.62
372.254	703.62
372.48	709.62
372.706	724.62
372.932	735.62
373.158	742.62
373.384	705.62
373.61	703.62
373.835	696.62
374.061	708.62
374.287	760.62
374.513	712.62
374.739	741.62
374.965	784.62
375.191	779.62
375.416	781.62
375.642	772.62
375.868	758.62
376.094	735.62
376.319	732.62
376.545	712.62
376.771	743.62
376.997	728.62
377.222	714.62
377.448	723.62
377.674	707.62
377.899	717.62
378.125	698.62
378.35	692.62
378.576	691.62
378.802	685.62
379.027	702.62
379.253	684.62
379.478	699.62
379.704	690.62
379.929	674.62
380.155	686.62
380.38	731.62
380.606	705.62
380.831	696.62
381.057	704.62
381.282	738.62
381.507	711.62
381.733	714.62
381.958	711.62
382.184	714.62
382.409	734.62
382.634	748.62
382.86	746.62
383.085	767.62
383.31	756.62
383.535	782.62
383.761	792.62
383.986	812.62
384.211	819.62
384.436	838.62
384.662	847.62
384.887	863.62
385.112	875.62
385.337	856.62
385.562	863.62
385.787	859.62
386.013	875.62
386.238	872.62
386.463	877.62
386.688	863.62
386.913	837.62
387.138	841.62
387.363	828.62
387.588	796.62
387.813	864.62
388.038	809.62
388.263	848.62
388.488	873.62
388.713	839.62
388.938	808.62
389.163	854.62
389.387	839.62
389.612	827.62
389.837	829.62
390.062	806.62
390.287	856.62
390.512	818.62
390.736	823.62
390.961	866.62
391.186	857.62
391.411	901.62
391.636	918.62
391.86	949.62
392.085	1003.62
392.31	978.62
392.534	932.62
392.759	910.62
392.984	894.62
393.208	899.62
393.433	891.62
393.658	893.62
393.882	895.62
394.107	909.62
394.331	909.62
394.556	923.62
394.78	918.62
395.005	940.62
395.229	917.62
395.454	904.62
395.678	943.62
395.903	972.62
396.127	965.62
396.352	917.62
396.576	880.62
396.801	880.62
397.025	912.62
397.249	930.62
397.474	943.62
397.698	944.62
397.922	960.62
398.147	953.62
398.371	966.62
398.595	992.62
398.82	1036.62
399.044	1094.62
399.268	1230.62
399.492	1477.62
399.717	1668.62
399.941	1680.62
400.165	1450.62
400.389	1290.62
400.613	1156.62
400.837	1131.62
401.062	1084.62
401.286	1050.62
401.51	1074.62
401.734	1058.62
401.958	1082.62
402.182	1084.62
402.406	1107.62
402.63	1128.62
402.854	1137.62
403.078	1158.62
403.302	1207.62
403.526	1243.62
403.75	1256.62
403.974	1262.62
404.198	1278.62
404.422	1254.62
404.645	1262.62
404.869	1205.62
405.093	1222.62
405.317	1223.62
405.541	1191.62
405.765	1187.62
405.988	1155.62
406.212	1192.62
406.436	1153.62
406.66	1215.62
406.883	1235.62
407.107	1304.62
407.331	1359.62
407.555	1381.62
407.778	1415.62
408.002	1390.62
408.226	1332.62
408.449	1279.62
408.673	1274.62
408.896	1218.62
409.12	1204.62
409.344	1255.62
409.567	1212.62
409.791	1246.62
410.014	1241.62
410.238	1232.62
410.461	1247.62
410.685	1216.62
410.908	1173.62
411.132	1145.62
411.355	1109.62
411.578	1124.62
411.802	1112.62
412.025	1134.62
412.249	1115.62
412.472	1152.62
412.695	1065.62
412.919	1060.62
413.142	1047.62
413.365	1051.62
413.589	1086.62
413.812	1083.62
414.035	1063.62
414.258	1047.62
414.482	1040.62
414.705	1112.62
414.928	1094.62
415.151	1059.62
415.374	1078.62
415.597	1052.62
415.821	1053.62
416.044	1059.62
416.267	1051.62
416.49	1040.62
416.713	1054.62
416.936	1054.62
417.159	1027.62
417.382	1080.62
417.605	1050.62
417.828	1042.62
418.051	1074.62
418.274	1080.62
418.497	1051.62
418.72	1069.62
418.943	1088.62
419.166	1143.62
419.389	1236.62
419.611	1196.62
419.834	1176.62
420.057	1117.62
420.28	1074.62
420.503	1046.62
420.726	1055.62
420.948	1067.62
421.171	1068.62
421.394	1080.62
421.617	1044.62
421.839	1080.62
422.062	1069.62
422.285	1047.62
422.507	1077.62
422.73	1082.62
422.953	1085.62
423.175	1125.62
423.398	1152.62
423.621	1133.62
423.843	1144.62
424.066	1166.62
424.288	1147.62
424.511	1115.62
424.733	1115.62
424.956	1101.62
425.178	1098.62
425.401	1081.62
425.623	1047.62
425.846	1015.62
426.068	1017.62
426.291	1019.62
426.513	1016.62
426.735	1000.62
426.958	988.62
427.18	946.62
427.402	934.62
427.625	957.62
427.847	932.62
428.069	929.62
428.292	968.62
428.514	924.62
428.736	934.62
428.958	994.62
429.181	932.62
429.403	912.62
429.625	923.62
429.847	910.62
430.069	911.62
430.292	951.62
430.514	942.62
430.736	902.62
430.958	878.62
431.18	939.62
431.402	924.62
431.624	940.62
431.846	934.62
432.068	941.62
432.29	956.62
432.512	926.62
432.734	935.62
432.956	935.62
433.178	924.62
433.4	954.62
433.622	948.62
433.844	997.62
434.066	966.62
434.287	960.62
434.509	1002.62
434.731	1039.62
434.953	1083.62
435.175	1103.62
435.397	1093.62
435.618	1048.62
435.84	994.62
436.062	984.62
436.284	938.62
436.505	945.62
436.727	959.62
436.949	994.62
437.17	970.62
437.392	927.62
437.614	946.62
437.835	909.62
438.057	885.62
438.278	892.62
438.5	899.62
438.721	887.62
438.943	902.62
439.165	901.62
439.386	895.62
439.608	936.62
439.829	953.62
440.05	943.62
440.272	967.62
440.493	946.62
440.715	956.62
440.936	956.62
441.158	979.62
441.379	1016.62
441.6	1068.62
441.822	1114.62
442.043	1091.62
442.264	1067.62
442.486	1038.62
442.707	1049.62
442.928	1043.62
443.149	1030.62
443.371	1027.62
443.592	1074.62
443.813	1068.62
444.034	1084.62
444.255	1098.62
444.476	1178.62
444.698	1237.62
444.919	1334.62
445.14	1388.62
445.361	1225.62
445.582	1088.62
445.803	1047.62
446.024	1027.62
446.245	982.62
446.466	989.62
446.687	965.62
446.908	960.62
447.129	915.62
447.35	916.62
447.571	902.62
447.792	900.62
448.013	895.62
448.234	873.62
448.455	869.62
448.675	907.62
448.896	882.62
449.117	878.62
449.338	853.62
449.559	868.62
449.779	872.62
450	861.62
450.221	863.62
450.442	873.62
450.662	857.62
450.883	888.62
451.104	913.62
451.324	900.62
451.545	895.62
451.766	911.62
451.986	864.62
452.207	862.62
452.428	861.62
452.648	884.62
452.869	846.62
453.089	862.62
453.31	863.62
453.53	852.62
453.751	868.62
453.971	871.62
454.192	859.62
454.412	833.62
454.633	835.62
454.853	838.62
455.073	836.62
455.294	856.62
455.514	811.62
455.734	830.62
455.955	812.62
456.175	830.62
456.395	827.62
456.616	796.62
456.836	812.62
457.056	809.62
457.276	783.62
457.497	828.62
457.717	815.62
457.937	812.62
458.157	838.62
458.377	836.62
458.598	859.62
458.818	898.62
459.038	890.62
459.258	930.62
459.478	941.62
459.698	990.62
459.918	1013.62
460.138	1060.62
460.358	1159.62
460.578	1140.62
460.798	1154.62
461.018	1192.62
461.238	1135.62
461.458	1110.62
461.678	1122.62
461.898	1144.62
462.118	1140.62
462.338	1215.62
462.558	1219.62
462.777	1271.62
462.997	1378.62
463.217	1574.62
463.437	1596.62
463.657	1410.62
463.876	1304.62
464.096	1314.62
464.316	1313.62
464.536	1342.62
464.755	1316.62
464.975	1234.62
465.195	1184.62
465.414	1117.62
465.634	1036.62
465.854	982.62
466.073	974.62
466.293	966.62
466.512	951.62
466.732	934.62
466.951	922.62
467.171	939.62
467.391	936.62
467.61	932.62
467.829	920.62
468.049	886.62
468.268	887.62
468.488	891.62
468.707	889.62
468.927	873.62
469.146	863.62
469.365	883.62
469.585	900.62
469.804	900.62
470.023	928.62
470.243	924.62
470.462	942.62
470.681	960.62
470.901	927.62
471.12	938.62
471.339	902.62
471.558	913.62
471.777	922.62
471.997	876.62
472.216	873.62
472.435	860.62
472.654	867.62
472.873	851.62
473.092	876.62
473.311	847.62
473.53	860.62
473.749	833.62
473.968	844.62
474.187	861.62
474.406	849.62
474.625	869.62
474.844	879.62
475.063	875.62
475.282	870.62
475.501	862.62
475.72	893.62
475.939	833.62
476.158	888.62
476.377	902.62
476.596	878.62
476.814	898.62
477.033	916.62
477.252	934.62
477.471	935.62
477.69	963.62
477.908	979.62
478.127	1005.62
478.346	1027.62
478.564	1037.62
478.783	1065.62
479.002	1092.62
479.22	1109.62
479.439	1085.62
479.658	1081.62
479.876	1051.62
480.095	1052.62
480.313	1116.62
480.532	1159.62
480.751	1143.62
480.969	1107.62
481.188	1074.62
481.406	1046.62
481.624	1023.62
481.843	979.62
482.061	1015.62
482.28	994.62
482.498	975.62
482.717	969.62
482.935	976.62
483.153	1005.62
483.372	964.62
483.59	981.62
483.808	950.62
484.027	994.62
484.245	969.62
484.463	979.62
484.681	998.62
484.9	1024.62
485.118	1035.62
485.336	1017.62
485.554	979.62
485.772	1012.62
485.99	1048.62
486.209	1069.62
486.427	1067.62
486.645	1049.62
486.863	1083.62
487.081	1055.62
487.299	1028.62
487.517	1076.62
487.735	1040.62
487.953	1048.62
488.171	1048.62
488.389	1005.62
488.607	982.62
488.825	993.62
489.043	995.62
489.261	996.62
489.479	1031.62
489.696	1025.62
489.914	1039.62
490.132	1050.62
490.35	1040.62
490.568	1031.62
490.786	1003.62
491.003	1003.62
491.221	1041.62
491.439	1019.62
491.657	1012.62
491.874	983.62
492.092	1063.62
492.31	1024.62
492.527	1038.62
492.745	1059.62
492.963	1034.62
493.18	1050.62
493.398	1064.62
493.615	1061.62
493.833	1082.62
494.05	1082.62
494.268	1098.62
494.485	1097.62
494.703	1097.62
494.92	1097.62
495.138	1069.62
495.355	1052.62
495.573	1076.62
495.79	1089.62
496.008	1109.62
496.225	1113.62
496.442	1074.62
496.66	1122.62
496.877	1147.62
497.094	1161.62
497.312	1160.62
497.529	1190.62
497.746	1203.62
497.963	1257.62
498.181	1320.62
498.398	1373.62
498.615	1438.62
498.832	1525.62
499.049	1658.62
499.267	1791.62
499.484	1987.62
499.701	2176.62
499.918	2448.62
500.135	2813.62
500.352	3270.62
500.569	3565.62
500.786	3434.62
501.003	3179.62
501.22	2821.62
501.437	2440.62
501.654	2112.62
501.871	1897.62
502.088	1750.62
502.305	1626.62
502.522	1553.62
502.739	1513.62
502.956	1436.62
503.172	1336.62
503.389	1282.62
503.606	1257.62
503.823	1242.62
504.04	1228.62
504.256	1212.62
504.473	1283.62
504.69	1293.62
504.907	1324.62
505.123	1212.62
505.34	1130.62
505.557	1097.62
505.773	1038.62
505.99	1031.62
506.207	1038.62
506.423	1008.62
506.64	994.62
506.856	992.62
507.073	979.62
507.289	964.62
507.506	951.62
507.722	972.62
507.939	964.62
508.155	939.62
508.372	917.62
508.588	904.62
508.805	918.62
509.021	888.62
509.238	910.62
509.454	884.62
509.67	907.62
509.887	902.62
510.103	902.62
510.319	867.62
510.536	911.62
510.752	882.62
510.968	867.62
511.184	881.62
511.401	876.62
511.617	901.62
511.833	854.62
512.049	847.62
512.265	875.62
512.481	874.62
512.698	880.62
512.914	886.62
513.13	882.62
513.346	881.62
513.562	902.62
513.778	911.62
513.994	915.62
514.21	905.62
514.426	886.62
514.642	900.62
514.858	890.62
515.074	890.62
515.29	895.62
515.506	911.62
515.721	940.62
515.937	934.62
516.153	958.62
516.369	968.62
516.585	1016.62
516.801	1022.62
517.016	1096.62
517.232	1173.62
517.448	1197.62
517.664	1237.62
517.879	1231.62
518.095	1238.62
518.311	1229.62
518.527	1169.62
518.742	1163.62
518.958	1112.62
519.173	1073.62
519.389	988.62
519.605	967.62
519.82	959.62
520.036	934.62
520.251	912.62
520.467	913.62
520.682	912.62
520.898	918.62
521.113	892.62
521.329	868.62
521.544	846.62
521.76	874.62
521.975	820.62
522.19	829.62
522.406	859.62
522.621	847.62
522.836	833.62
523.052	848.62
523.267	847.62
523.482	816.62
523.698	831.62
523.913	802.62
524.128	829.62
524.343	856.62
524.559	788.62
524.774	813.62
524.989	802.62
525.204	820.62
525.419	808.62
525.634	779.62
525.849	810.62
526.064	792.62
526.28	812.62
526.495	805.62
526.71	789.62
526.925	811.62
527.14	796.62
527.355	788.62
527.57	803.62
527.785	812.62
527.999	820.62
528.214	792.62
528.429	820.62
528.644	813.62
528.859	814.62
529.074	781.62
529.289	821.62
529.503	821.62
529.718	810.62
529.933	801.62
530.148	795.62
530.363	822.62
530.577	804.62
530.792	809.62
531.007	780.62
531.221	815.62
531.436	792.62
531.651	821.62
531.865	792.62
532.08	805.62
532.295	798.62
532.509	792.62
532.724	795.62
532.938	803.62
533.153	807.62
533.367	800.62
533.582	805.62
533.796	795.62
534.011	814.62
534.225	797.62
534.44	805.62
534.654	788.62
534.868	793.62
535.083	772.62
535.297	764.62
535.511	790.62
535.726	794.62
535.94	761.62
536.154	760.62
536.369	766.62
536.583	759.62
536.797	755.62
537.011	755.62
537.225	749.62
537.44	722.62
537.654	740.62
537.868	751.62
538.082	739.62
538.296	727.62
538.51	738.62
538.724	747.62
538.938	731.62
539.153	737.62
539.367	739.62
539.581	714.62
539.795	726.62
540.009	723.62
540.222	727.62
540.436	714.62
540.65	722.62
540.864	708.62
541.078	725.62
541.292	713.62
541.506	716.62
541.72	731.62
541.934	689.62
542.147	695.62
542.361	702.62
542.575	692.62
542.789	698.62
543.002	702.62
543.216	695.62
543.43	708.62
543.644	691.62
543.857	712.62
544.071	695.62
544.285	710.62
544.498	684.62
544.712	695.62
544.925	717.62
545.139	708.62
545.352	719.62
545.566	713.62
545.779	724.62
545.993	722.62
546.206	705.62
546.42	729.62
546.633	711.62
546.847	732.62
547.06	722.62
547.274	718.62
547.487	734.62
547.7	739.62
547.914	740.62
548.127	720.62
548.34	759.62
548.554	727.62
548.767	728.62
548.98	751.62
549.193	726.62
549.407	720.62
549.62	747.62
549.833	758.62
550.046	757.62
550.259	747.62
550.473	714.62
550.686	713.62
550.899	715.62
551.112	704.62
551.325	693.62
551.538	718.62
551.751	707.62
551.964	696.62
552.177	734.62
552.39	702.62
552.603	741.62
552.816	772.62
553.029	780.62
553.242	809.62
553.455	797.62
553.667	816.62
553.88	784.62
554.093	762.62
554.306	751.62
554.519	719.62
554.732	734.62
554.944	709.62
555.157	712.62
555.37	697.62
555.583	679.62
555.795	672.62
556.008	666.62
556.221	667.62
556.433	638.62
556.646	645.62
556.859	634.62
557.071	623.62
557.284	628.62
557.496	638.62
557.709	636.62
557.921	629.62
558.134	647.62
558.346	643.62
558.559	618.62
558.771	620.62
558.984	618.62
559.196	624.62
559.409	581.62
559.621	600.62
559.833	605.62
560.046	612.62
560.258	596.62
560.47	612.62
560.683	601.62
560.895	616.62
561.107	607.62
561.32	592.62
561.532	625.62
561.744	608.62
561.956	594.62
562.168	598.62
562.381	607.62
562.593	613.62
562.805	606.62
563.017	594.62
563.229	614.62
563.441	602.62
563.653	621.62
563.865	622.62
564.077	631.62
564.289	637.62
564.501	621.62
564.713	653.62
564.925	652.62
565.137	667.62
565.349	693.62
565.561	687.62
565.773	723.62
565.985	747.62
566.197	778.62
566.408	847.62
566.62	942.62
566.832	998.62
567.044	1052.62
567.255	1010.62
567.467	1029.62
567.679	1128.62
567.891	1202.62
568.102	1269.62
568.314	1215.62
568.526	1025.62
568.737	944.62
568.949	879.62
569.161	771.62
569.372	760.62
569.584	702.62
569.795	654.62
570.007	659.62
570.218	636.62
570.43	627.62
570.641	607.62
570.853	623.62
571.064	657.62
571.276	656.62
571.487	645.62
571.698	619.62
571.91	570.62
572.121	579.62
572.333	562.62
572.544	540.62
572.755	539.62
572.966	517.62
573.178	522.62
573.389	543.62
573.6	509.62
573.811	519.62
574.023	531.62
574.234	522.62
574.445	483.62
574.656	500.62
574.867	510.62
575.078	522.62
575.289	516.62
575.501	508.62
575.712	498.62
575.923	498.62
576.134	482.62
576.345	485.62
576.556	479.62
576.767	486.62
576.978	463.62
577.188	472.62
577.399	459.62
577.61	472.62
577.821	457.62
578.032	474.62
578.243	454.62
578.454	448.62
578.665	440.62
578.875	455.62
579.086	471.62
579.297	445.62
579.508	448.62
579.718	460.62
579.929	438.62
580.14	444.62
580.35	431.62
580.561	430.62
580.772	445.62
580.982	452.62
581.193	422.62
581.403	446.62
581.614	432.62
581.825	420.62
582.035	431.62
582.246	424.62
582.456	431.62
582.667	438.62
582.877	431.62
583.087	442.62
583.298	444.62
583.508	423.62
583.719	428.62
583.929	430.62
584.139	428.62
584.35	409.62
584.56	409.62
584.77	426.62
584.981	431.62
585.191	427.62
585.401	431.62
585.611	413.62
585.821	425.62
586.032	416.62
586.242	408.62
586.452	409.62
586.662	407.62
586.872	407.62
587.082	411.62
587.292	406.62
587.502	421.62
587.713	400.62
587.923	410.62
588.133	410.62
588.343	408.62
588.553	401.62
588.762	404.62
588.972	388.62
589.182	404.62
589.392	420.62
589.602	402.62
589.812	390.62
590.022	395.62
590.232	421.62
590.441	412.62
590.651	406.62
590.861	412.62
591.071	396.62
591.281	421.62
591.49	404.62
591.7	435.62
591.91	440.62
592.119	429.62
592.329	433.62
592.539	460.62
592.748	475.62
592.958	479.62
593.167	494.62
593.377	529.62
593.587	542.62
593.796	542.62
594.006	527.62
594.215	515.62
594.424	562.62
594.634	520.62
594.843	499.62
595.053	465.62
595.262	451.62
595.472	452.62
595.681	436.62
595.89	427.62
596.1	420.62
596.309	410.62
596.518	411.62
596.727	398.62
596.937	387.62
597.146	375.62
597.355	387.62
597.564	371.62
597.774	361.62
597.983	386.62
598.192	360.62
598.401	370.62
598.61	373.62
598.819	362.62
599.028	354.62
599.237	375.62
599.446	377.62
599.655	354.62
599.864	351.62
600.073	343.62
600.282	356.62
600.491	357.62
600.7	362.62
600.909	346.62
601.118	344.62
601.327	332.62
601.536	343.62
601.745	338.62
601.953	330.62
602.162	335.62
602.371	327.62
602.58	332.62
602.789	333.62
602.997	331.62
603.206	352.62
603.415	342.62
603.623	311.62
603.832	326.62
604.041	316.62
604.249	308.62
604.458	326.62
604.666	348.62
604.875	304.62
605.084	321.62
605.292	322.62
605.501	345.62
605.709	336.62
605.918	328.62
606.126	325.62
606.334	333.62
606.543	309.62
606.751	328.62
606.96	319.62
607.168	325.62
607.376	301.62
607.585	334.62
607.793	317.62
608.001	323.62
608.21	320.62
608.418	328.62
608.626	300.62
608.834	297.62
609.043	305.62
609.251	318.62
609.459	299.62
609.667	313.62
609.875	294.62
610.083	290.62
610.291	317.62
610.499	317.62
610.707	310.62
610.916	294.62
611.124	289.62
611.332	316.62
611.54	315.62
611.748	297.62
611.955	312.62
612.163	298.62
612.371	306.62
612.579	308.62
612.787	298.62
612.995	295.62
613.203	307.62
613.411	287.62
613.618	314.62
613.826	283.62
614.034	317.62
614.242	306.62
614.449	311.62
614.657	290.62
614.865	325.62
615.072	304.62
615.28	308.62
615.488	307.62
615.695	279.62
615.903	292.62
616.111	318.62
616.318	313.62
616.526	302.62
616.733	310.62
616.941	312.62
617.148	315.62
617.356	298.62
617.563	306.62
617.771	315.62
617.978	302.62
618.185	301.62
618.393	313.62
618.6	301.62
618.807	308.62
619.015	298.62
619.222	297.62
619.429	313.62
619.637	313.62
619.844	292.62
620.051	278.62
620.258	275.62
620.466	275.62
620.673	280.62
620.88	282.62
621.087	283.62
621.294	280.62
621.501	292.62
621.708	297.62
621.915	268.62
622.122	276.62
622.329	287.62
622.536	273.62
622.743	286.62
622.95	277.62
623.157	274.62
623.364	268.62
623.571	269.62
623.778	270.62
623.985	282.62
624.192	252.62
624.399	262.62
624.606	276.62
624.812	258.62
625.019	269.62
625.226	251.62
625.433	250.62
625.639	252.62
625.846	262.62
626.053	267.62
626.259	266.62
626.466	251.62
626.673	239.62
626.879	243.62
627.086	258.62
627.293	249.62
627.499	250.62
627.706	248.62
627.912	245.62
628.119	250.62
628.325	252.62
628.532	265.62
628.738	236.62
628.945	231.62
629.151	242.62
629.357	237.62
629.564	234.62
629.77	231.62
629.976	237.62
630.183	235.62
630.389	243.62
630.595	235.62
630.802	238.62
631.008	229.62
631.214	222.62
631.42	232.62
631.627	241.62
631.833	220.62
632.039	222.62
632.245	221.62
632.451	227.62
632.657	222.62
632.863	218.62
633.069	232.62
633.275	249.62
633.481	226.62
633.688	225.62
633.893	227.62
634.099	221.62
634.305	226.62
634.511	240.62
634.717	234.62
634.923	221.62
635.129	218.62
635.335	220.62
635.541	223.62
635.747	223.62
635.952	219.62
636.158	197.62
636.364	221.62
636.57	207.62
636.775	219.62
636.981	222.62
637.187	204.62
637.392	215.62
637.598	200.62
637.804	208.62
638.009	217.62
638.215	206.62
638.421	212.62
638.626	196.62
638.832	213.62
639.037	200.62
639.243	211.62
639.448	214.62
639.654	212.62
639.859	222.62
640.065	208.62
640.27	220.62
640.475	197.62
640.681	208.62
640.886	209.62
641.091	213.62
641.297	216.62
641.502	186.62
641.707	197.62
641.913	195.62
642.118	197.62
642.323	175.62
642.528	199.62
642.733	205.62
642.939	200.62
643.144	195.62
643.349	203.62
643.554	209.62
643.759	199.62
643.964	198.62
644.169	188.62
644.374	183.62
644.579	184.62
644.784	207.62
644.989	198.62
645.194	200.62
645.399	200.62
645.604	207.62
645.809	199.62
646.014	200.62
646.219	199.62
646.423	202.62
646.628	198.62
646.833	222.62
647.038	208.62
647.243	217.62
647.447	204.62
647.652	222.62
647.857	219.62
648.062	190.62
648.266	214.62
648.471	210.62
648.676	208.62
648.88	215.62
649.085	203.62
649.289	221.62
649.494	203.62
649.698	208.62
649.903	195.62
650.107	188.62
650.312	202.62
650.516	195.62
650.721	196.62
650.925	183.62
651.13	183.62
651.334	178.62
651.539	187.62
651.743	175.62
651.947	169.62
652.152	174.62
652.356	175.62
652.56	171.62
652.764	170.62
652.969	168.62
653.173	153.62
653.377	166.62
653.581	156.62
653.785	163.62
653.99	161.62
654.194	155.62
654.398	149.62
654.602	155.62
654.806	151.62
655.01	162.62
655.214	150.62
655.418	134.62
655.622	157.62
655.826	145.62
656.03	143.62
656.234	143.62
656.438	156.62
656.642	151.62
656.846	155.62
657.049	147.62
657.253	144.62
657.457	127.62
657.661	124.62
657.865	122.62
658.068	125.62
658.272	109.62
658.476	128.62
658.68	117.62
658.883	103.62
659.087	106.62
659.291	116.62
659.494	103.62
659.698	105.62
659.901	100.62
660.105	94.62
660.309	94.62
660.512	104.62
660.716	101.62
660.919	104.62
661.123	99.62
661.326	104.62
661.53	104.62
661.733	75.62
661.936	73.62
662.14	86.62
662.343	95.62
662.546	95.62
662.75	93.62
662.953	85.62
663.156	80.62
663.36	97.62
663.563	89.62
663.766	79.62
663.969	79.62
664.173	101.62
664.376	79.62
664.579	93.62
664.782	96.62
664.985	74.62
665.188	78.62
665.391	88.62
665.594	86.62
665.797	95.62
666	87.62
666.203	66.62
666.406	81.62
666.609	90.62
666.812	92.62
667.015	95.62
667.218	78.62
667.421	78.62
667.624	73.62
667.827	71.62
668.03	87.62
668.232	85.62
668.435	92.62
668.638	80.62
668.841	80.62
669.043	76.62
669.246	93.62
669.449	95.62
669.651	98.62
669.854	82.62
670.057	83.62
670.259	90.62
670.462	82.62
670.665	85.62
670.867	77.62
671.07	81.62
671.272	74.62
671.475	89.62
671.677	82.62
671.88	88.62
672.082	75.62
672.284	82.62
672.487	87.62
672.689	88.62
672.892	89.62
