Data from Ni(NO3)2@0.0625M.TitratingCurve.Agarose3%dH2O.NegLispCup.LampEnergy10.LIBS07252019_HRD10591_18-14-27-570.txt Node
Date: Thu Jul 25 18:14:27 EDT 2019
User: cochatt
Spectrometer: HR+D1059
Trigger mode: 1
Integration Time (sec): 1.000000E-1
Scans to average: 1
Electric dark correction enabled: true
Nonlinearity correction enabled: false
Boxcar width: 0
XAxis mode: Wavelengths
Number of Pixels in Spectrum: 2048
>>>>>Begin Spectral Data<<<<<
223.165	-12.31
223.4	-12.31
223.635	-12.31
223.869	-4.31
224.104	-29.31
224.338	-6.31
224.573	-17.31
224.808	-17.31
225.042	1.69
225.277	-7.31
225.511	-22.31
225.746	7.69
225.98	5.69
226.215	14.69
226.449	12.69
226.683	22.69
226.918	27.69
227.152	23.69
227.387	26.69
227.621	44.69
227.856	52.69
228.09	30.69
228.324	54.69
228.559	45.69
228.793	74.69
229.027	104.69
229.262	102.69
229.496	89.69
229.73	89.69
229.964	105.69
230.199	103.69
230.433	130.69
230.667	93.69
230.901	129.69
231.136	116.69
231.37	119.69
231.604	131.69
231.838	127.69
232.072	124.69
232.306	130.69
232.541	110.69
232.775	129.69
233.009	126.69
233.243	127.69
233.477	127.69
233.711	116.69
233.945	127.69
234.179	129.69
234.413	126.69
234.647	122.69
234.881	122.69
235.115	131.69
235.349	134.69
235.583	126.69
235.817	123.69
236.051	123.69
236.285	126.69
236.519	128.69
236.753	129.69
236.987	132.69
237.221	137.69
237.455	137.69
237.689	132.69
237.922	129.69
238.156	109.69
238.39	138.69
238.624	127.69
238.858	132.69
239.091	140.69
239.325	129.69
239.559	161.69
239.793	149.69
240.027	140.69
240.26	141.69
240.494	152.69
240.728	155.69
240.961	157.69
241.195	157.69
241.429	148.69
241.662	143.69
241.896	156.69
242.13	150.69
242.363	149.69
242.597	153.69
242.83	158.69
243.064	157.69
243.298	161.69
243.531	162.69
243.765	149.69
243.998	153.69
244.232	173.69
244.465	163.69
244.699	156.69
244.932	179.69
245.166	185.69
245.399	170.69
245.633	174.69
245.866	164.69
246.099	170.69
246.333	171.69
246.566	172.69
246.8	170.69
247.033	165.69
247.266	182.69
247.5	169.69
247.733	187.69
247.966	179.69
248.2	164.69
248.433	188.69
248.666	158.69
248.899	185.69
249.133	201.69
249.366	181.69
249.599	206.69
249.832	187.69
250.066	187.69
250.299	190.69
250.532	198.69
250.765	206.69
250.998	198.69
251.231	195.69
251.465	190.69
251.698	199.69
251.931	201.69
252.164	200.69
252.397	204.69
252.63	205.69
252.863	216.69
253.096	215.69
253.329	226.69
253.562	205.69
253.795	215.69
254.028	206.69
254.261	207.69
254.494	212.69
254.727	210.69
254.96	212.69
255.193	195.69
255.426	208.69
255.659	217.69
255.892	203.69
256.124	231.69
256.357	207.69
256.59	204.69
256.823	221.69
257.056	226.69
257.289	228.69
257.521	235.69
257.754	228.69
257.987	227.69
258.22	234.69
258.452	236.69
258.685	237.69
258.918	230.69
259.151	223.69
259.383	229.69
259.616	226.69
259.849	243.69
260.081	238.69
260.314	246.69
260.547	240.69
260.779	219.69
261.012	229.69
261.244	260.69
261.477	248.69
261.71	273.69
261.942	236.69
262.175	238.69
262.407	237.69
262.64	236.69
262.872	245.69
263.105	254.69
263.337	263.69
263.57	257.69
263.802	253.69
264.035	239.69
264.267	255.69
264.499	255.69
264.732	271.69
264.964	250.69
265.197	238.69
265.429	259.69
265.661	261.69
265.894	262.69
266.126	260.69
266.358	256.69
266.591	260.69
266.823	276.69
267.055	265.69
267.287	279.69
267.52	268.69
267.752	267.69
267.984	261.69
268.216	281.69
268.448	274.69
268.681	279.69
268.913	260.69
269.145	265.69
269.377	284.69
269.609	266.69
269.841	284.69
270.073	270.69
270.306	290.69
270.538	279.69
270.77	291.69
271.002	283.69
271.234	284.69
271.466	283.69
271.698	298.69
271.93	292.69
272.162	273.69
272.394	297.69
272.626	265.69
272.858	287.69
273.09	292.69
273.322	269.69
273.553	282.69
273.785	294.69
274.017	293.69
274.249	298.69
274.481	301.69
274.713	297.69
274.945	313.69
275.176	308.69
275.408	298.69
275.64	312.69
275.872	298.69
276.104	305.69
276.335	318.69
276.567	297.69
276.799	296.69
277.031	317.69
277.262	314.69
277.494	302.69
277.726	313.69
277.957	321.69
278.189	314.69
278.421	327.69
278.652	327.69
278.884	318.69
279.115	313.69
279.347	321.69
279.579	317.69
279.81	338.69
280.042	338.69
280.273	329.69
280.505	334.69
280.736	333.69
280.968	350.69
281.199	338.69
281.431	328.69
281.662	334.69
281.894	346.69
282.125	327.69
282.356	348.69
282.588	345.69
282.819	354.69
283.051	339.69
283.282	333.69
283.513	363.69
283.745	346.69
283.976	340.69
284.207	349.69
284.439	356.69
284.67	349.69
284.901	348.69
285.132	337.69
285.364	361.69
285.595	352.69
285.826	346.69
286.057	357.69
286.288	351.69
286.52	371.69
286.751	341.69
286.982	377.69
287.213	353.69
287.444	366.69
287.675	377.69
287.906	399.69
288.138	362.69
288.369	377.69
288.6	378.69
288.831	364.69
289.062	395.69
289.293	375.69
289.524	375.69
289.755	366.69
289.986	370.69
290.217	363.69
290.448	383.69
290.679	371.69
290.91	388.69
291.141	385.69
291.371	394.69
291.602	378.69
291.833	371.69
292.064	385.69
292.295	375.69
292.526	396.69
292.757	399.69
292.987	385.69
293.218	389.69
293.449	383.69
293.68	399.69
293.91	387.69
294.141	400.69
294.372	381.69
294.603	384.69
294.833	388.69
295.064	380.69
295.295	381.69
295.525	391.69
295.756	389.69
295.987	396.69
296.217	413.69
296.448	394.69
296.679	399.69
296.909	406.69
297.14	381.69
297.37	421.69
297.601	414.69
297.831	409.69
298.062	400.69
298.292	438.69
298.523	420.69
298.753	431.69
298.984	429.69
299.214	424.69
299.445	441.69
299.675	439.69
299.905	433.69
300.136	414.69
300.366	405.69
300.597	442.69
300.827	441.69
301.057	435.69
301.288	449.69
301.518	457.69
301.748	435.69
301.979	462.69
302.209	452.69
302.439	445.69
302.669	433.69
302.9	462.69
303.13	412.69
303.36	458.69
303.59	448.69
303.82	445.69
304.051	433.69
304.281	431.69
304.511	428.69
304.741	423.69
304.971	444.69
305.201	441.69
305.431	437.69
305.661	450.69
305.891	427.69
306.121	419.69
306.352	456.69
306.582	457.69
306.812	424.69
307.042	414.69
307.272	412.69
307.502	421.69
307.731	443.69
307.961	411.69
308.191	401.69
308.421	397.69
308.651	396.69
308.881	437.69
309.111	416.69
309.341	417.69
309.571	438.69
309.8	429.69
310.03	429.69
310.26	426.69
310.49	437.69
310.72	433.69
310.949	428.69
311.179	451.69
311.409	452.69
311.639	434.69
311.868	429.69
312.098	432.69
312.328	437.69
312.557	446.69
312.787	455.69
313.017	427.69
313.246	453.69
313.476	451.69
313.706	446.69
313.935	458.69
314.165	475.69
314.394	465.69
314.624	460.69
314.853	454.69
315.083	451.69
315.312	453.69
315.542	463.69
315.771	460.69
316.001	459.69
316.23	447.69
316.46	419.69
316.689	443.69
316.919	445.69
317.148	447.69
317.377	451.69
317.607	446.69
317.836	446.69
318.065	447.69
318.295	460.69
318.524	453.69
318.753	429.69
318.983	462.69
319.212	443.69
319.441	459.69
319.67	444.69
319.9	458.69
320.129	441.69
320.358	455.69
320.587	441.69
320.816	462.69
321.046	437.69
321.275	455.69
321.504	447.69
321.733	443.69
321.962	433.69
322.191	457.69
322.42	459.69
322.649	454.69
322.878	454.69
323.108	466.69
323.337	484.69
323.566	477.69
323.795	471.69
324.024	454.69
324.253	474.69
324.482	483.69
324.71	461.69
324.939	463.69
325.168	475.69
325.397	460.69
325.626	474.69
325.855	482.69
326.084	507.69
326.313	504.69
326.542	490.69
326.77	499.69
326.999	500.69
327.228	484.69
327.457	491.69
327.686	486.69
327.914	497.69
328.143	493.69
328.372	499.69
328.6	482.69
328.829	474.69
329.058	485.69
329.287	483.69
329.515	505.69
329.744	521.69
329.972	525.69
330.201	501.69
330.43	514.69
330.658	493.69
330.887	497.69
331.115	529.69
331.344	534.69
331.572	540.69
331.801	536.69
332.03	559.69
332.258	581.69
332.486	573.69
332.715	588.69
332.943	600.69
333.172	634.69
333.4	658.69
333.629	683.69
333.857	675.69
334.085	650.69
334.314	653.69
334.542	627.69
334.771	622.69
334.999	647.69
335.227	614.69
335.455	631.69
335.684	625.69
335.912	606.69
336.14	605.69
336.369	590.69
336.597	597.69
336.825	616.69
337.053	595.69
337.281	575.69
337.51	582.69
337.738	552.69
337.966	550.69
338.194	559.69
338.422	561.69
338.65	539.69
338.878	534.69
339.106	538.69
339.334	573.69
339.562	545.69
339.79	498.69
340.018	518.69
340.246	527.69
340.474	538.69
340.702	513.69
340.93	538.69
341.158	514.69
341.386	539.69
341.614	526.69
341.842	519.69
342.07	508.69
342.298	515.69
342.526	537.69
342.754	499.69
342.981	514.69
343.209	542.69
343.437	545.69
343.665	596.69
343.893	653.69
344.12	643.69
344.348	629.69
344.576	602.69
344.804	566.69
345.031	545.69
345.259	549.69
345.487	543.69
345.714	531.69
345.942	530.69
346.17	516.69
346.397	514.69
346.625	521.69
346.853	511.69
347.08	522.69
347.308	532.69
347.535	536.69
347.763	522.69
347.99	523.69
348.218	512.69
348.445	519.69
348.673	486.69
348.9	498.69
349.128	522.69
349.355	515.69
349.583	501.69
349.81	471.69
350.037	515.69
350.265	478.69
350.492	525.69
350.72	474.69
350.947	499.69
351.174	520.69
351.402	482.69
351.629	505.69
351.856	488.69
352.083	475.69
352.311	499.69
352.538	500.69
352.765	519.69
352.992	501.69
353.22	478.69
353.447	493.69
353.674	499.69
353.901	490.69
354.128	493.69
354.355	478.69
354.583	491.69
354.81	516.69
355.037	495.69
355.264	493.69
355.491	497.69
355.718	484.69
355.945	505.69
356.172	517.69
356.399	495.69
356.626	511.69
356.853	516.69
357.08	487.69
357.307	497.69
357.534	501.69
357.761	487.69
357.988	495.69
358.215	472.69
358.441	480.69
358.668	487.69
358.895	521.69
359.122	490.69
359.349	493.69
359.576	502.69
359.802	502.69
360.029	482.69
360.256	502.69
360.483	505.69
360.709	498.69
360.936	483.69
361.163	499.69
361.39	501.69
361.616	520.69
361.843	513.69
362.07	511.69
362.296	500.69
362.523	496.69
362.749	506.69
362.976	499.69
363.203	478.69
363.429	476.69
363.656	480.69
363.882	507.69
364.109	479.69
364.335	486.69
364.562	482.69
364.788	498.69
365.015	483.69
365.241	477.69
365.468	494.69
365.694	476.69
365.92	470.69
366.147	457.69
366.373	482.69
366.599	501.69
366.826	480.69
367.052	509.69
367.278	494.69
367.505	486.69
367.731	487.69
367.957	486.69
368.184	500.69
368.41	497.69
368.636	502.69
368.862	477.69
369.089	490.69
369.315	506.69
369.541	507.69
369.767	514.69
369.993	509.69
370.219	522.69
370.445	517.69
370.672	519.69
370.898	524.69
371.124	531.69
371.35	531.69
371.576	514.69
371.802	538.69
372.028	526.69
372.254	526.69
372.48	550.69
372.706	559.69
372.932	577.69
373.158	554.69
373.384	561.69
373.61	535.69
373.835	525.69
374.061	561.69
374.287	536.69
374.513	554.69
374.739	583.69
374.965	593.69
375.191	583.69
375.416	593.69
375.642	570.69
375.868	567.69
376.094	595.69
376.319	590.69
376.545	549.69
376.771	556.69
376.997	543.69
377.222	518.69
377.448	534.69
377.674	552.69
377.899	544.69
378.125	547.69
378.35	550.69
378.576	519.69
378.802	521.69
379.027	511.69
379.253	539.69
379.478	522.69
379.704	521.69
379.929	540.69
380.155	527.69
380.38	526.69
380.606	523.69
380.831	555.69
381.057	535.69
381.282	537.69
381.507	541.69
381.733	554.69
381.958	543.69
382.184	545.69
382.409	555.69
382.634	547.69
382.86	555.69
383.085	581.69
383.31	588.69
383.535	594.69
383.761	582.69
383.986	611.69
384.211	599.69
384.436	637.69
384.662	641.69
384.887	641.69
385.112	630.69
385.337	650.69
385.562	635.69
385.787	666.69
386.013	663.69
386.238	644.69
386.463	652.69
386.688	636.69
386.913	628.69
387.138	631.69
387.363	622.69
387.588	623.69
387.813	630.69
388.038	633.69
388.263	651.69
388.488	633.69
388.713	648.69
388.938	625.69
389.163	617.69
389.387	625.69
389.612	627.69
389.837	614.69
390.062	614.69
390.287	655.69
390.512	629.69
390.736	623.69
390.961	648.69
391.186	667.69
391.411	655.69
391.636	677.69
391.86	712.69
392.085	758.69
392.31	730.69
392.534	710.69
392.759	698.69
392.984	692.69
393.208	694.69
393.433	680.69
393.658	682.69
393.882	674.69
394.107	697.69
394.331	726.69
394.556	695.69
394.78	697.69
395.005	695.69
395.229	722.69
395.454	715.69
395.678	727.69
395.903	707.69
396.127	719.69
396.352	675.69
396.576	661.69
396.801	667.69
397.025	713.69
397.249	686.69
397.474	707.69
397.698	702.69
397.922	705.69
398.147	713.69
398.371	735.69
398.595	744.69
398.82	771.69
399.044	838.69
399.268	926.69
399.492	1044.69
399.717	1243.69
399.941	1243.69
400.165	1060.69
400.389	952.69
400.613	868.69
400.837	810.69
401.062	807.69
401.286	792.69
401.51	765.69
401.734	784.69
401.958	807.69
402.182	813.69
402.406	794.69
402.63	843.69
402.854	861.69
403.078	862.69
403.302	895.69
403.526	907.69
403.75	936.69
403.974	947.69
404.198	922.69
404.422	959.69
404.645	926.69
404.869	907.69
405.093	907.69
405.317	884.69
405.541	894.69
405.765	894.69
405.988	876.69
406.212	856.69
406.436	877.69
406.66	901.69
406.883	917.69
407.107	983.69
407.331	985.69
407.555	1054.69
407.778	1055.69
408.002	1028.69
408.226	967.69
408.449	944.69
408.673	917.69
408.896	907.69
409.12	890.69
409.344	909.69
409.567	908.69
409.791	935.69
410.014	941.69
410.238	939.69
410.461	903.69
410.685	902.69
410.908	872.69
411.132	860.69
411.355	843.69
411.578	839.69
411.802	835.69
412.025	860.69
412.249	825.69
412.472	878.69
412.695	809.69
412.919	804.69
413.142	777.69
413.365	793.69
413.589	803.69
413.812	791.69
414.035	782.69
414.258	804.69
414.482	821.69
414.705	830.69
414.928	803.69
415.151	811.69
415.374	821.69
415.597	802.69
415.821	771.69
416.044	762.69
416.267	760.69
416.49	757.69
416.713	781.69
416.936	790.69
417.159	805.69
417.382	757.69
417.605	775.69
417.828	794.69
418.051	797.69
418.274	784.69
418.497	805.69
418.72	826.69
418.943	825.69
419.166	853.69
419.389	923.69
419.611	901.69
419.834	838.69
420.057	847.69
420.28	808.69
420.503	778.69
420.726	808.69
420.948	802.69
421.171	789.69
421.394	789.69
421.617	781.69
421.839	786.69
422.062	834.69
422.285	792.69
422.507	815.69
422.73	818.69
422.953	810.69
423.175	844.69
423.398	869.69
423.621	840.69
423.843	865.69
424.066	858.69
424.288	854.69
424.511	855.69
424.733	824.69
424.956	832.69
425.178	866.69
425.401	816.69
425.623	797.69
425.846	776.69
426.068	771.69
426.291	729.69
426.513	770.69
426.735	761.69
426.958	763.69
427.18	743.69
427.402	732.69
427.625	701.69
427.847	716.69
428.069	707.69
428.292	725.69
428.514	708.69
428.736	686.69
428.958	701.69
429.181	738.69
429.403	705.69
429.625	678.69
429.847	706.69
430.069	683.69
430.292	711.69
430.514	683.69
430.736	685.69
430.958	701.69
431.18	679.69
431.402	714.69
431.624	703.69
431.846	710.69
432.068	722.69
432.29	738.69
432.512	731.69
432.734	710.69
432.956	681.69
433.178	735.69
433.4	701.69
433.622	716.69
433.844	739.69
434.066	742.69
434.287	731.69
434.509	756.69
434.731	822.69
434.953	826.69
435.175	820.69
435.397	821.69
435.618	761.69
435.84	745.69
436.062	723.69
436.284	727.69
436.505	723.69
436.727	717.69
436.949	715.69
437.17	702.69
437.392	685.69
437.614	727.69
437.835	691.69
438.057	704.69
438.278	681.69
438.5	670.69
438.721	677.69
438.943	708.69
439.165	694.69
439.386	704.69
439.608	692.69
439.829	704.69
440.05	716.69
440.272	731.69
440.493	746.69
440.715	755.69
440.936	749.69
441.158	763.69
441.379	756.69
441.6	823.69
441.822	839.69
442.043	816.69
442.264	801.69
442.486	763.69
442.707	786.69
442.928	781.69
443.149	795.69
443.371	805.69
443.592	810.69
443.813	850.69
444.034	818.69
444.255	837.69
444.476	876.69
444.698	962.69
444.919	979.69
445.14	1037.69
445.361	928.69
445.582	852.69
445.803	792.69
446.024	763.69
446.245	771.69
446.466	742.69
446.687	746.69
446.908	734.69
447.129	701.69
447.35	719.69
447.571	685.69
447.792	693.69
448.013	700.69
448.234	673.69
448.455	660.69
448.675	652.69
448.896	661.69
449.117	674.69
449.338	663.69
449.559	679.69
449.779	673.69
450	659.69
450.221	673.69
450.442	670.69
450.662	675.69
450.883	697.69
451.104	671.69
451.324	695.69
451.545	710.69
451.766	673.69
451.986	668.69
452.207	666.69
452.428	689.69
452.648	679.69
452.869	659.69
453.089	664.69
453.31	673.69
453.53	653.69
453.751	655.69
453.971	653.69
454.192	683.69
454.412	627.69
454.633	638.69
454.853	635.69
455.073	607.69
455.294	612.69
455.514	626.69
455.734	629.69
455.955	633.69
456.175	649.69
456.395	636.69
456.616	620.69
456.836	637.69
457.056	644.69
457.276	592.69
457.497	623.69
457.717	605.69
457.937	618.69
458.157	629.69
458.377	642.69
458.598	638.69
458.818	680.69
459.038	689.69
459.258	699.69
459.478	715.69
459.698	747.69
459.918	793.69
460.138	777.69
460.358	836.69
460.578	860.69
460.798	864.69
461.018	892.69
461.238	844.69
461.458	838.69
461.678	857.69
461.898	830.69
462.118	864.69
462.338	906.69
462.558	957.69
462.777	959.69
462.997	1064.69
463.217	1198.69
463.437	1219.69
463.657	1123.69
463.876	1004.69
464.096	1009.69
464.316	1025.69
464.536	1032.69
464.755	983.69
464.975	941.69
465.195	917.69
465.414	852.69
465.634	771.69
465.854	734.69
466.073	766.69
466.293	741.69
466.512	725.69
466.732	719.69
466.951	722.69
467.171	684.69
467.391	714.69
467.61	705.69
467.829	707.69
468.049	680.69
468.268	678.69
468.488	669.69
468.707	661.69
468.927	693.69
469.146	666.69
469.365	705.69
469.585	702.69
469.804	699.69
470.023	717.69
470.243	732.69
470.462	722.69
470.681	734.69
470.901	706.69
471.12	716.69
471.339	695.69
471.558	691.69
471.777	686.69
471.997	666.69
472.216	656.69
472.435	671.69
472.654	660.69
472.873	654.69
473.092	649.69
473.311	635.69
473.53	641.69
473.749	650.69
473.968	658.69
474.187	661.69
474.406	654.69
474.625	642.69
474.844	691.69
475.063	644.69
475.282	645.69
475.501	664.69
475.72	686.69
475.939	691.69
476.158	685.69
476.377	705.69
476.596	677.69
476.814	719.69
477.033	704.69
477.252	707.69
477.471	723.69
477.69	714.69
477.908	738.69
478.127	769.69
478.346	804.69
478.564	807.69
478.783	813.69
479.002	821.69
479.22	821.69
479.439	813.69
479.658	798.69
479.876	828.69
480.095	845.69
480.313	889.69
480.532	910.69
480.751	904.69
480.969	856.69
481.188	815.69
481.406	799.69
481.624	755.69
481.843	768.69
482.061	739.69
482.28	756.69
482.498	772.69
482.717	736.69
482.935	746.69
483.153	768.69
483.372	759.69
483.59	731.69
483.808	775.69
484.027	775.69
484.245	746.69
484.463	759.69
484.681	787.69
484.9	809.69
485.118	795.69
485.336	820.69
485.554	801.69
485.772	822.69
485.99	802.69
486.209	815.69
486.427	802.69
486.645	835.69
486.863	814.69
487.081	807.69
487.299	832.69
487.517	808.69
487.735	803.69
487.953	819.69
488.171	801.69
488.389	796.69
488.607	795.69
488.825	757.69
489.043	777.69
489.261	807.69
489.479	782.69
489.696	799.69
489.914	802.69
490.132	806.69
490.35	807.69
490.568	778.69
490.786	814.69
491.003	822.69
491.221	791.69
491.439	794.69
491.657	799.69
491.874	824.69
492.092	795.69
492.31	814.69
492.527	824.69
492.745	810.69
492.963	823.69
493.18	815.69
493.398	826.69
493.615	814.69
493.833	836.69
494.05	805.69
494.268	828.69
494.485	821.69
494.703	851.69
494.92	853.69
495.138	830.69
495.355	810.69
495.573	823.69
495.79	840.69
496.008	843.69
496.225	821.69
496.442	881.69
496.66	875.69
496.877	866.69
497.094	872.69
497.312	882.69
497.529	913.69
497.746	917.69
497.963	954.69
498.181	980.69
498.398	1030.69
498.615	1085.69
498.832	1165.69
499.049	1228.69
499.267	1334.69
499.484	1465.69
499.701	1657.69
499.918	1799.69
500.135	2138.69
500.352	2439.69
500.569	2603.69
500.786	2563.69
501.003	2289.69
501.22	2074.69
501.437	1786.69
501.654	1613.69
501.871	1411.69
502.088	1309.69
502.305	1208.69
502.522	1167.69
502.739	1143.69
502.956	1061.69
503.172	1009.69
503.389	981.69
503.606	927.69
503.823	941.69
504.04	955.69
504.256	951.69
504.473	975.69
504.69	1015.69
504.907	975.69
505.123	924.69
505.34	862.69
505.557	839.69
505.773	807.69
505.99	786.69
506.207	781.69
506.423	783.69
506.64	754.69
506.856	753.69
507.073	755.69
507.289	745.69
507.506	726.69
507.722	756.69
507.939	735.69
508.155	700.69
508.372	711.69
508.588	705.69
508.805	708.69
509.021	726.69
509.238	703.69
509.454	712.69
509.67	675.69
509.887	690.69
510.103	703.69
510.319	680.69
510.536	689.69
510.752	655.69
510.968	682.69
511.184	676.69
511.401	671.69
511.617	693.69
511.833	651.69
512.049	670.69
512.265	684.69
512.481	682.69
512.698	669.69
512.914	695.69
513.13	661.69
513.346	713.69
513.562	669.69
513.778	693.69
513.994	683.69
514.21	667.69
514.426	633.69
514.642	696.69
514.858	695.69
515.074	681.69
515.29	701.69
515.506	680.69
515.721	716.69
515.937	731.69
516.153	729.69
516.369	740.69
516.585	748.69
516.801	784.69
517.016	838.69
517.232	867.69
517.448	926.69
517.664	951.69
517.879	963.69
518.095	959.69
518.311	921.69
518.527	889.69
518.742	843.69
518.958	832.69
519.173	772.69
519.389	767.69
519.605	730.69
519.82	728.69
520.036	710.69
520.251	705.69
520.467	681.69
520.682	678.69
520.898	699.69
521.113	678.69
521.329	673.69
521.544	653.69
521.76	649.69
521.975	672.69
522.19	635.69
522.406	641.69
522.621	640.69
522.836	641.69
523.052	626.69
523.267	651.69
523.482	643.69
523.698	642.69
523.913	615.69
524.128	633.69
524.343	615.69
524.559	618.69
524.774	618.69
524.989	626.69
525.204	645.69
525.419	642.69
525.634	613.69
525.849	630.69
526.064	621.69
526.28	627.69
526.495	607.69
526.71	604.69
526.925	626.69
527.14	622.69
527.355	608.69
527.57	618.69
527.785	639.69
527.999	638.69
528.214	619.69
528.429	643.69
528.644	648.69
528.859	646.69
529.074	631.69
529.289	613.69
529.503	625.69
529.718	615.69
529.933	619.69
530.148	632.69
530.363	611.69
530.577	618.69
530.792	606.69
531.007	630.69
531.221	636.69
531.436	630.69
531.651	626.69
531.865	622.69
532.08	618.69
532.295	646.69
532.509	625.69
532.724	629.69
532.938	635.69
533.153	620.69
533.367	619.69
533.582	639.69
533.796	604.69
534.011	635.69
534.225	615.69
534.44	617.69
534.654	597.69
534.868	613.69
535.083	598.69
535.297	609.69
535.511	614.69
535.726	599.69
535.94	609.69
536.154	600.69
536.369	556.69
536.583	603.69
536.797	598.69
537.011	595.69
537.225	556.69
537.44	579.69
537.654	561.69
537.868	584.69
538.082	570.69
538.296	583.69
538.51	581.69
538.724	577.69
538.938	586.69
539.153	556.69
539.367	565.69
539.581	567.69
539.795	570.69
540.009	566.69
540.222	556.69
540.436	569.69
540.65	570.69
540.864	550.69
541.078	563.69
541.292	570.69
541.506	571.69
541.72	554.69
541.934	581.69
542.147	550.69
542.361	578.69
542.575	531.69
542.789	542.69
543.002	522.69
543.216	531.69
543.43	548.69
543.644	546.69
543.857	546.69
544.071	556.69
544.285	559.69
544.498	574.69
544.712	554.69
544.925	556.69
545.139	591.69
545.352	567.69
545.566	554.69
545.779	566.69
545.993	585.69
546.206	555.69
546.42	567.69
546.633	598.69
546.847	556.69
547.06	551.69
547.274	554.69
547.487	583.69
547.7	561.69
547.914	566.69
548.127	569.69
548.34	567.69
548.554	573.69
548.767	570.69
548.98	561.69
549.193	558.69
549.407	566.69
549.62	599.69
549.833	582.69
550.046	566.69
550.259	569.69
550.473	570.69
550.686	544.69
550.899	546.69
551.112	551.69
551.325	568.69
551.538	537.69
551.751	538.69
551.964	567.69
552.177	555.69
552.39	575.69
552.603	601.69
552.816	598.69
553.029	615.69
553.242	624.69
553.455	638.69
553.667	646.69
553.88	625.69
554.093	599.69
554.306	594.69
554.519	557.69
554.732	537.69
554.944	572.69
555.157	532.69
555.37	533.69
555.583	550.69
555.795	535.69
556.008	489.69
556.221	508.69
556.433	515.69
556.646	496.69
556.859	513.69
557.071	503.69
557.284	503.69
557.496	503.69
557.709	494.69
557.921	497.69
558.134	470.69
558.346	478.69
558.559	487.69
558.771	488.69
558.984	481.69
559.196	491.69
559.409	491.69
559.621	482.69
559.833	474.69
560.046	479.69
560.258	476.69
560.47	469.69
560.683	470.69
560.895	475.69
561.107	470.69
561.32	465.69
561.532	486.69
561.744	465.69
561.956	499.69
562.168	470.69
562.381	458.69
562.593	471.69
562.805	470.69
563.017	469.69
563.229	481.69
563.441	482.69
563.653	463.69
563.865	481.69
564.077	471.69
564.289	476.69
564.501	506.69
564.713	481.69
564.925	509.69
565.137	504.69
565.349	527.69
565.561	539.69
565.773	561.69
565.985	579.69
566.197	604.69
566.408	635.69
566.62	699.69
566.832	791.69
567.044	770.69
567.255	784.69
567.467	797.69
567.679	846.69
567.891	910.69
568.102	925.69
568.314	925.69
568.526	790.69
568.737	709.69
568.949	676.69
569.161	584.69
569.372	557.69
569.584	523.69
569.795	510.69
570.007	501.69
570.218	484.69
570.43	483.69
570.641	478.69
570.853	480.69
571.064	510.69
571.276	501.69
571.487	468.69
571.698	452.69
571.91	457.69
572.121	451.69
572.333	438.69
572.544	427.69
572.755	413.69
572.966	416.69
573.178	413.69
573.389	426.69
573.6	411.69
573.811	405.69
574.023	423.69
574.234	393.69
574.445	400.69
574.656	395.69
574.867	396.69
575.078	397.69
575.289	405.69
575.501	406.69
575.712	379.69
575.923	391.69
576.134	373.69
576.345	378.69
576.556	378.69
576.767	376.69
576.978	379.69
577.188	379.69
577.399	362.69
577.61	372.69
577.821	371.69
578.032	371.69
578.243	364.69
578.454	376.69
578.665	373.69
578.875	341.69
579.086	358.69
579.297	362.69
579.508	350.69
579.718	367.69
579.929	362.69
580.14	351.69
580.35	358.69
580.561	333.69
580.772	349.69
580.982	353.69
581.193	341.69
581.403	357.69
581.614	354.69
581.825	344.69
582.035	346.69
582.246	339.69
582.456	321.69
582.667	337.69
582.877	346.69
583.087	364.69
583.298	335.69
583.508	340.69
583.719	341.69
583.929	323.69
584.139	339.69
584.35	342.69
584.56	341.69
584.77	337.69
584.981	342.69
585.191	322.69
585.401	331.69
585.611	341.69
585.821	345.69
586.032	313.69
586.242	330.69
586.452	313.69
586.662	318.69
586.872	336.69
587.082	334.69
587.292	319.69
587.502	328.69
587.713	315.69
587.923	341.69
588.133	323.69
588.343	313.69
588.553	327.69
588.762	335.69
588.972	297.69
589.182	314.69
589.392	313.69
589.602	323.69
589.812	305.69
590.022	324.69
590.232	331.69
590.441	325.69
590.651	326.69
590.861	341.69
591.071	333.69
591.281	332.69
591.49	328.69
591.7	339.69
591.91	341.69
592.119	340.69
592.329	349.69
592.539	394.69
592.748	366.69
592.958	389.69
593.167	409.69
593.377	405.69
593.587	400.69
593.796	412.69
594.006	417.69
594.215	400.69
594.424	424.69
594.634	421.69
594.843	378.69
595.053	353.69
595.262	353.69
595.472	372.69
595.681	332.69
595.89	325.69
596.1	320.69
596.309	332.69
596.518	325.69
596.727	290.69
596.937	326.69
597.146	314.69
597.355	307.69
597.564	303.69
597.774	293.69
597.983	294.69
598.192	281.69
598.401	285.69
598.61	295.69
598.819	293.69
599.028	284.69
599.237	294.69
599.446	294.69
599.655	268.69
599.864	272.69
600.073	281.69
600.282	290.69
600.491	266.69
600.7	286.69
600.909	269.69
601.118	287.69
601.327	261.69
601.536	273.69
601.745	279.69
601.953	265.69
602.162	281.69
602.371	272.69
602.58	250.69
602.789	270.69
602.997	273.69
603.206	277.69
603.415	254.69
603.623	286.69
603.832	267.69
604.041	281.69
604.249	285.69
604.458	280.69
604.666	262.69
604.875	261.69
605.084	268.69
605.292	265.69
605.501	265.69
605.709	248.69
605.918	251.69
606.126	269.69
606.334	271.69
606.543	263.69
606.751	271.69
606.96	244.69
607.168	260.69
607.376	268.69
607.585	252.69
607.793	247.69
608.001	247.69
608.21	265.69
608.418	268.69
608.626	232.69
608.834	254.69
609.043	265.69
609.251	271.69
609.459	259.69
609.667	265.69
609.875	251.69
610.083	252.69
610.291	247.69
610.499	250.69
610.707	269.69
610.916	237.69
611.124	245.69
611.332	228.69
611.54	245.69
611.748	253.69
611.955	272.69
612.163	244.69
612.371	262.69
612.579	230.69
612.787	247.69
612.995	247.69
613.203	263.69
613.411	249.69
613.618	235.69
613.826	225.69
614.034	253.69
614.242	238.69
614.449	257.69
614.657	236.69
614.865	232.69
615.072	243.69
615.28	238.69
615.488	227.69
615.695	239.69
615.903	246.69
616.111	243.69
616.318	253.69
616.526	250.69
616.733	256.69
616.941	247.69
617.148	243.69
617.356	257.69
617.563	250.69
617.771	269.69
617.978	241.69
618.185	245.69
618.393	258.69
618.6	245.69
618.807	244.69
619.015	238.69
619.222	244.69
619.429	232.69
619.637	243.69
619.844	256.69
620.051	238.69
620.258	236.69
620.466	235.69
620.673	226.69
620.88	245.69
621.087	238.69
621.294	229.69
621.501	228.69
621.708	242.69
621.915	227.69
622.122	235.69
622.329	235.69
622.536	221.69
622.743	230.69
622.95	235.69
623.157	231.69
623.364	225.69
623.571	216.69
623.778	231.69
623.985	239.69
624.192	217.69
624.399	222.69
624.606	222.69
624.812	219.69
625.019	214.69
625.226	219.69
625.433	225.69
625.639	220.69
625.846	221.69
626.053	225.69
626.259	199.69
626.466	219.69
626.673	197.69
626.879	204.69
627.086	217.69
627.293	220.69
627.499	220.69
627.706	205.69
627.912	196.69
628.119	205.69
628.325	220.69
628.532	186.69
628.738	214.69
628.945	206.69
629.151	212.69
629.357	204.69
629.564	206.69
629.77	206.69
629.976	197.69
630.183	203.69
630.389	197.69
630.595	197.69
630.802	198.69
631.008	193.69
631.214	188.69
631.42	188.69
631.627	199.69
631.833	185.69
632.039	190.69
632.245	203.69
632.451	183.69
632.657	203.69
632.863	185.69
633.069	189.69
633.275	189.69
633.481	174.69
633.688	188.69
633.893	193.69
634.099	206.69
634.305	187.69
634.511	177.69
634.717	193.69
634.923	184.69
635.129	201.69
635.335	191.69
635.541	182.69
635.747	190.69
635.952	186.69
636.158	183.69
636.364	199.69
636.57	190.69
636.775	181.69
636.981	181.69
637.187	182.69
637.392	190.69
637.598	169.69
637.804	178.69
638.009	184.69
638.215	185.69
638.421	194.69
638.626	186.69
638.832	183.69
639.037	169.69
639.243	181.69
639.448	199.69
639.654	179.69
639.859	171.69
640.065	183.69
640.27	202.69
640.475	164.69
640.681	164.69
640.886	182.69
641.091	171.69
641.297	179.69
641.502	174.69
641.707	169.69
641.913	185.69
642.118	185.69
642.323	163.69
642.528	188.69
642.733	171.69
642.939	161.69
643.144	184.69
643.349	165.69
643.554	181.69
643.759	189.69
643.964	183.69
644.169	183.69
644.374	170.69
644.579	172.69
644.784	181.69
644.989	174.69
645.194	177.69
645.399	166.69
645.604	171.69
645.809	165.69
646.014	192.69
646.219	171.69
646.423	183.69
646.628	190.69
646.833	178.69
647.038	183.69
647.243	195.69
647.447	174.69
647.652	177.69
647.857	185.69
648.062	196.69
648.266	191.69
648.471	186.69
648.676	173.69
648.88	187.69
649.085	177.69
649.289	177.69
649.494	175.69
649.698	167.69
649.903	182.69
650.107	171.69
650.312	182.69
650.516	171.69
650.721	155.69
650.925	170.69
651.13	166.69
651.334	175.69
651.539	151.69
651.743	158.69
651.947	150.69
652.152	160.69
652.356	150.69
652.56	148.69
652.764	139.69
652.969	142.69
653.173	138.69
653.377	147.69
653.581	145.69
653.785	143.69
653.99	161.69
654.194	138.69
654.398	151.69
654.602	152.69
654.806	148.69
655.01	149.69
655.214	142.69
655.418	147.69
655.622	140.69
655.826	139.69
656.03	146.69
656.234	143.69
656.438	157.69
656.642	153.69
656.846	159.69
657.049	150.69
657.253	137.69
657.457	131.69
657.661	129.69
657.865	108.69
658.068	114.69
658.272	113.69
658.476	96.69
658.68	113.69
658.883	113.69
659.087	107.69
659.291	116.69
659.494	104.69
659.698	105.69
659.901	99.69
660.105	88.69
660.309	98.69
660.512	92.69
660.716	94.69
660.919	101.69
661.123	104.69
661.326	92.69
661.53	91.69
661.733	81.69
661.936	89.69
662.14	86.69
662.343	87.69
662.546	83.69
662.75	85.69
662.953	99.69
663.156	74.69
663.36	85.69
663.563	83.69
663.766	82.69
663.969	79.69
664.173	73.69
664.376	93.69
664.579	82.69
664.782	79.69
664.985	91.69
665.188	83.69
665.391	78.69
665.594	74.69
665.797	90.69
666	84.69
666.203	94.69
666.406	90.69
666.609	87.69
666.812	91.69
667.015	85.69
667.218	77.69
667.421	79.69
667.624	79.69
667.827	74.69
668.03	74.69
668.232	90.69
668.435	87.69
668.638	84.69
668.841	84.69
669.043	93.69
669.246	67.69
669.449	85.69
669.651	86.69
669.854	83.69
670.057	76.69
670.259	84.69
670.462	69.69
670.665	90.69
670.867	80.69
671.07	91.69
671.272	88.69
671.475	81.69
671.677	85.69
671.88	85.69
672.082	78.69
672.284	87.69
672.487	77.69
672.689	82.69
672.892	73.69
