Data from Ni(NO3)2@0.5M.TitratingCurve.Agarose3%dH2O.NegLispCup.LampEnergy10.LIBS07252019_HRD10591_17-58-12-564.txt Node
Date: Thu Jul 25 17:58:12 EDT 2019
User: cochatt
Spectrometer: HR+D1059
Trigger mode: 1
Integration Time (sec): 1.000000E-1
Scans to average: 1
Electric dark correction enabled: true
Nonlinearity correction enabled: false
Boxcar width: 0
XAxis mode: Wavelengths
Number of Pixels in Spectrum: 2048
>>>>>Begin Spectral Data<<<<<
223.165	-15.62
223.4	-15.62
223.635	-15.62
223.869	-15.62
224.104	-18.62
224.338	-18.62
224.573	-25.62
224.808	-7.62
225.042	-5.62
225.277	-5.62
225.511	6.38
225.746	-3.62
225.98	16.38
226.215	2.38
226.449	22.38
226.683	22.38
226.918	15.38
227.152	31.38
227.387	29.38
227.621	40.38
227.856	41.38
228.09	47.38
228.324	61.38
228.559	60.38
228.793	84.38
229.027	128.38
229.262	121.38
229.496	134.38
229.73	156.38
229.964	158.38
230.199	204.38
230.433	198.38
230.667	182.38
230.901	188.38
231.136	185.38
231.37	177.38
231.604	203.38
231.838	208.38
232.072	217.38
232.306	186.38
232.541	193.38
232.775	184.38
233.009	190.38
233.243	176.38
233.477	172.38
233.711	186.38
233.945	182.38
234.179	174.38
234.413	178.38
234.647	183.38
234.881	186.38
235.115	185.38
235.349	167.38
235.583	160.38
235.817	175.38
236.051	184.38
236.285	180.38
236.519	177.38
236.753	168.38
236.987	191.38
237.221	180.38
237.455	180.38
237.689	173.38
237.922	179.38
238.156	189.38
238.39	191.38
238.624	182.38
238.858	188.38
239.091	205.38
239.325	202.38
239.559	233.38
239.793	239.38
240.027	245.38
240.26	196.38
240.494	192.38
240.728	215.38
240.961	208.38
241.195	224.38
241.429	186.38
241.662	213.38
241.896	248.38
242.13	244.38
242.363	237.38
242.597	230.38
242.83	229.38
243.064	209.38
243.298	217.38
243.531	226.38
243.765	247.38
243.998	251.38
244.232	250.38
244.465	254.38
244.699	215.38
244.932	237.38
245.166	254.38
245.399	250.38
245.633	240.38
245.866	250.38
246.099	236.38
246.333	270.38
246.566	267.38
246.8	246.38
247.033	272.38
247.266	265.38
247.5	281.38
247.733	277.38
247.966	265.38
248.2	302.38
248.433	282.38
248.666	284.38
248.899	287.38
249.133	290.38
249.366	305.38
249.599	289.38
249.832	306.38
250.066	291.38
250.299	288.38
250.532	291.38
250.765	306.38
250.998	326.38
251.231	336.38
251.465	346.38
251.698	343.38
251.931	344.38
252.164	318.38
252.397	336.38
252.63	337.38
252.863	341.38
253.096	346.38
253.329	330.38
253.562	328.38
253.795	356.38
254.028	357.38
254.261	337.38
254.494	349.38
254.727	361.38
254.96	367.38
255.193	366.38
255.426	360.38
255.659	374.38
255.892	377.38
256.124	375.38
256.357	384.38
256.59	372.38
256.823	387.38
257.056	375.38
257.289	392.38
257.521	392.38
257.754	378.38
257.987	397.38
258.22	398.38
258.452	404.38
258.685	395.38
258.918	404.38
259.151	390.38
259.383	405.38
259.616	394.38
259.849	418.38
260.081	409.38
260.314	406.38
260.547	411.38
260.779	427.38
261.012	423.38
261.244	419.38
261.477	442.38
261.71	429.38
261.942	434.38
262.175	441.38
262.407	431.38
262.64	437.38
262.872	450.38
263.105	445.38
263.337	458.38
263.57	456.38
263.802	457.38
264.035	463.38
264.267	453.38
264.499	464.38
264.732	467.38
264.964	458.38
265.197	460.38
265.429	460.38
265.661	474.38
265.894	454.38
266.126	480.38
266.358	472.38
266.591	491.38
266.823	462.38
267.055	473.38
267.287	474.38
267.52	497.38
267.752	490.38
267.984	491.38
268.216	472.38
268.448	481.38
268.681	495.38
268.913	479.38
269.145	513.38
269.377	518.38
269.609	519.38
269.841	508.38
270.073	503.38
270.306	524.38
270.538	512.38
270.77	526.38
271.002	518.38
271.234	502.38
271.466	528.38
271.698	510.38
271.93	530.38
272.162	514.38
272.394	521.38
272.626	527.38
272.858	525.38
273.09	550.38
273.322	542.38
273.553	562.38
273.785	538.38
274.017	539.38
274.249	558.38
274.481	556.38
274.713	543.38
274.945	569.38
275.176	536.38
275.408	539.38
275.64	529.38
275.872	560.38
276.104	554.38
276.335	558.38
276.567	564.38
276.799	556.38
277.031	570.38
277.262	557.38
277.494	590.38
277.726	565.38
277.957	594.38
278.189	593.38
278.421	585.38
278.652	582.38
278.884	567.38
279.115	598.38
279.347	587.38
279.579	588.38
279.81	600.38
280.042	584.38
280.273	574.38
280.505	580.38
280.736	600.38
280.968	575.38
281.199	608.38
281.431	630.38
281.662	606.38
281.894	609.38
282.125	614.38
282.356	612.38
282.588	614.38
282.819	602.38
283.051	614.38
283.282	608.38
283.513	605.38
283.745	648.38
283.976	628.38
284.207	618.38
284.439	629.38
284.67	616.38
284.901	614.38
285.132	642.38
285.364	648.38
285.595	640.38
285.826	638.38
286.057	617.38
286.288	638.38
286.52	652.38
286.751	626.38
286.982	642.38
287.213	665.38
287.444	664.38
287.675	650.38
287.906	644.38
288.138	650.38
288.369	650.38
288.6	656.38
288.831	645.38
289.062	689.38
289.293	642.38
289.524	641.38
289.755	654.38
289.986	680.38
290.217	670.38
290.448	670.38
290.679	674.38
290.91	655.38
291.141	646.38
291.371	670.38
291.602	679.38
291.833	674.38
292.064	683.38
292.295	680.38
292.526	664.38
292.757	669.38
292.987	652.38
293.218	673.38
293.449	672.38
293.68	678.38
293.91	680.38
294.141	666.38
294.372	653.38
294.603	679.38
294.833	660.38
295.064	659.38
295.295	702.38
295.525	663.38
295.756	694.38
295.987	667.38
296.217	715.38
296.448	703.38
296.679	685.38
296.909	679.38
297.14	711.38
297.37	709.38
297.601	705.38
297.831	692.38
298.062	699.38
298.292	703.38
298.523	704.38
298.753	756.38
298.984	727.38
299.214	708.38
299.445	753.38
299.675	757.38
299.905	745.38
300.136	748.38
300.366	743.38
300.597	747.38
300.827	754.38
301.057	784.38
301.288	761.38
301.518	740.38
301.748	746.38
301.979	770.38
302.209	744.38
302.439	756.38
302.669	732.38
302.9	756.38
303.13	762.38
303.36	760.38
303.59	761.38
303.82	795.38
304.051	772.38
304.281	772.38
304.511	775.38
304.741	788.38
304.971	792.38
305.201	798.38
305.431	803.38
305.661	784.38
305.891	797.38
306.121	783.38
306.352	808.38
306.582	768.38
306.812	764.38
307.042	787.38
307.272	770.38
307.502	760.38
307.731	807.38
307.961	780.38
308.191	783.38
308.421	797.38
308.651	799.38
308.881	810.38
309.111	802.38
309.341	790.38
309.571	814.38
309.8	804.38
310.03	822.38
310.26	809.38
310.49	868.38
310.72	831.38
310.949	805.38
311.179	801.38
311.409	806.38
311.639	826.38
311.868	805.38
312.098	818.38
312.328	840.38
312.557	861.38
312.787	840.38
313.017	874.38
313.246	847.38
313.476	869.38
313.706	902.38
313.935	866.38
314.165	869.38
314.394	858.38
314.624	871.38
314.853	862.38
315.083	861.38
315.312	873.38
315.542	889.38
315.771	870.38
316.001	888.38
316.23	870.38
316.46	868.38
316.689	914.38
316.919	895.38
317.148	887.38
317.377	894.38
317.607	890.38
317.836	929.38
318.065	891.38
318.295	921.38
318.524	917.38
318.753	908.38
318.983	955.38
319.212	916.38
319.441	914.38
319.67	952.38
319.9	932.38
320.129	914.38
320.358	935.38
320.587	945.38
320.816	939.38
321.046	951.38
321.275	988.38
321.504	945.38
321.733	981.38
321.962	960.38
322.191	964.38
322.42	973.38
322.649	985.38
322.878	965.38
323.108	984.38
323.337	983.38
323.566	1009.38
323.795	1015.38
324.024	982.38
324.253	1001.38
324.482	1003.38
324.71	984.38
324.939	1003.38
325.168	1025.38
325.397	995.38
325.626	999.38
325.855	1021.38
326.084	1034.38
326.313	1012.38
326.542	995.38
326.77	1049.38
326.999	1025.38
327.228	1022.38
327.457	1057.38
327.686	1037.38
327.914	1020.38
328.143	1070.38
328.372	1067.38
328.6	1050.38
328.829	1045.38
329.058	1073.38
329.287	1041.38
329.515	1072.38
329.744	1065.38
329.972	1083.38
330.201	1068.38
330.43	1063.38
330.658	1077.38
330.887	1064.38
331.115	1080.38
331.344	1071.38
331.572	1092.38
331.801	1070.38
332.03	1128.38
332.258	1121.38
332.486	1102.38
332.715	1108.38
332.943	1123.38
333.172	1158.38
333.4	1137.38
333.629	1158.38
333.857	1142.38
334.085	1146.38
334.314	1160.38
334.542	1154.38
334.771	1160.38
334.999	1177.38
335.227	1186.38
335.455	1171.38
335.684	1186.38
335.912	1176.38
336.14	1213.38
336.369	1185.38
336.597	1238.38
336.825	1220.38
337.053	1226.38
337.281	1213.38
337.51	1193.38
337.738	1201.38
337.966	1195.38
338.194	1216.38
338.422	1165.38
338.65	1124.38
338.878	1169.38
339.106	1185.38
339.334	1234.38
339.562	1189.38
339.79	1142.38
340.018	1144.38
340.246	1156.38
340.474	1176.38
340.702	1142.38
340.93	1154.38
341.158	1161.38
341.386	1184.38
341.614	1214.38
341.842	1215.38
342.07	1157.38
342.298	1166.38
342.526	1180.38
342.754	1170.38
342.981	1166.38
343.209	1173.38
343.437	1173.38
343.665	1196.38
343.893	1223.38
344.12	1199.38
344.348	1186.38
344.576	1233.38
344.804	1196.38
345.031	1220.38
345.259	1182.38
345.487	1184.38
345.714	1195.38
345.942	1191.38
346.17	1235.38
346.397	1188.38
346.625	1166.38
346.853	1117.38
347.08	1148.38
347.308	1163.38
347.535	1151.38
347.763	1142.38
347.99	1124.38
348.218	1124.38
348.445	1157.38
348.673	1124.38
348.9	1118.38
349.128	1110.38
349.355	1148.38
349.583	1163.38
349.81	1103.38
350.037	1125.38
350.265	1138.38
350.492	1117.38
350.72	1110.38
350.947	1111.38
351.174	1160.38
351.402	1186.38
351.629	1165.38
351.856	1178.38
352.083	1116.38
352.311	1174.38
352.538	1180.38
352.765	1154.38
352.992	1116.38
353.22	1084.38
353.447	1092.38
353.674	1092.38
353.901	1094.38
354.128	1091.38
354.355	1084.38
354.583	1091.38
354.81	1129.38
355.037	1096.38
355.264	1096.38
355.491	1113.38
355.718	1120.38
355.945	1145.38
356.172	1090.38
356.399	1111.38
356.626	1160.38
356.853	1154.38
357.08	1082.38
357.307	1086.38
357.534	1110.38
357.761	1111.38
357.988	1112.38
358.215	1105.38
358.441	1112.38
358.668	1111.38
358.895	1099.38
359.122	1118.38
359.349	1089.38
359.576	1114.38
359.802	1110.38
360.029	1099.38
360.256	1118.38
360.483	1123.38
360.709	1110.38
360.936	1113.38
361.163	1110.38
361.39	1141.38
361.616	1138.38
361.843	1186.38
362.07	1182.38
362.296	1200.38
362.523	1120.38
362.749	1104.38
362.976	1123.38
363.203	1108.38
363.429	1117.38
363.656	1117.38
363.882	1096.38
364.109	1110.38
364.335	1092.38
364.562	1136.38
364.788	1115.38
365.015	1095.38
365.241	1103.38
365.468	1123.38
365.694	1124.38
365.92	1132.38
366.147	1104.38
366.373	1084.38
366.599	1137.38
366.826	1131.38
367.052	1104.38
367.278	1134.38
367.505	1118.38
367.731	1140.38
367.957	1139.38
368.184	1150.38
368.41	1128.38
368.636	1129.38
368.862	1157.38
369.089	1126.38
369.315	1137.38
369.541	1148.38
369.767	1156.38
369.993	1164.38
370.219	1131.38
370.445	1168.38
370.672	1161.38
370.898	1141.38
371.124	1127.38
371.35	1162.38
371.576	1160.38
371.802	1165.38
372.028	1156.38
372.254	1182.38
372.48	1163.38
372.706	1170.38
372.932	1164.38
373.158	1147.38
373.384	1160.38
373.61	1150.38
373.835	1175.38
374.061	1164.38
374.287	1137.38
374.513	1196.38
374.739	1170.38
374.965	1185.38
375.191	1186.38
375.416	1163.38
375.642	1145.38
375.868	1150.38
376.094	1182.38
376.319	1131.38
376.545	1167.38
376.771	1168.38
376.997	1155.38
377.222	1153.38
377.448	1181.38
377.674	1148.38
377.899	1158.38
378.125	1159.38
378.35	1106.38
378.576	1114.38
378.802	1140.38
379.027	1118.38
379.253	1134.38
379.478	1145.38
379.704	1111.38
379.929	1118.38
380.155	1158.38
380.38	1134.38
380.606	1158.38
380.831	1155.38
381.057	1128.38
381.282	1116.38
381.507	1134.38
381.733	1131.38
381.958	1144.38
382.184	1156.38
382.409	1161.38
382.634	1153.38
382.86	1130.38
383.085	1140.38
383.31	1156.38
383.535	1169.38
383.761	1167.38
383.986	1154.38
384.211	1151.38
384.436	1172.38
384.662	1205.38
384.887	1211.38
385.112	1182.38
385.337	1194.38
385.562	1230.38
385.787	1211.38
386.013	1259.38
386.238	1222.38
386.463	1213.38
386.688	1192.38
386.913	1219.38
387.138	1234.38
387.363	1243.38
387.588	1225.38
387.813	1228.38
388.038	1273.38
388.263	1243.38
388.488	1233.38
388.713	1251.38
388.938	1264.38
389.163	1224.38
389.387	1230.38
389.612	1236.38
389.837	1222.38
390.062	1247.38
390.287	1254.38
390.512	1247.38
390.736	1253.38
390.961	1258.38
391.186	1263.38
391.411	1237.38
391.636	1238.38
391.86	1239.38
392.085	1272.38
392.31	1254.38
392.534	1263.38
392.759	1252.38
392.984	1274.38
393.208	1264.38
393.433	1290.38
393.658	1273.38
393.882	1259.38
394.107	1261.38
394.331	1280.38
394.556	1257.38
394.78	1274.38
395.005	1273.38
395.229	1258.38
395.454	1280.38
395.678	1297.38
395.903	1260.38
396.127	1273.38
396.352	1301.38
396.576	1290.38
396.801	1292.38
397.025	1318.38
397.249	1272.38
397.474	1293.38
397.698	1318.38
397.922	1330.38
398.147	1306.38
398.371	1351.38
398.595	1352.38
398.82	1367.38
399.044	1380.38
399.268	1422.38
399.492	1461.38
399.717	1432.38
399.941	1467.38
400.165	1476.38
400.389	1421.38
400.613	1451.38
400.837	1436.38
401.062	1402.38
401.286	1397.38
401.51	1405.38
401.734	1370.38
401.958	1370.38
402.182	1390.38
402.406	1336.38
402.63	1375.38
402.854	1376.38
403.078	1384.38
403.302	1362.38
403.526	1405.38
403.75	1387.38
403.974	1373.38
404.198	1362.38
404.422	1377.38
404.645	1411.38
404.869	1442.38
405.093	1424.38
405.317	1396.38
405.541	1381.38
405.765	1399.38
405.988	1410.38
406.212	1409.38
406.436	1449.38
406.66	1503.38
406.883	1469.38
407.107	1510.38
407.331	1474.38
407.555	1508.38
407.778	1478.38
408.002	1481.38
408.226	1498.38
408.449	1529.38
408.673	1500.38
408.896	1470.38
409.12	1469.38
409.344	1489.38
409.567	1408.38
409.791	1472.38
410.014	1465.38
410.238	1414.38
410.461	1461.38
410.685	1457.38
410.908	1454.38
411.132	1445.38
411.355	1438.38
411.578	1413.38
411.802	1414.38
412.025	1416.38
412.249	1420.38
412.472	1414.38
412.695	1407.38
412.919	1396.38
413.142	1360.38
413.365	1391.38
413.589	1430.38
413.812	1381.38
414.035	1374.38
414.258	1412.38
414.482	1400.38
414.705	1377.38
414.928	1398.38
415.151	1374.38
415.374	1366.38
415.597	1381.38
415.821	1383.38
416.044	1356.38
416.267	1368.38
416.49	1358.38
416.713	1309.38
416.936	1349.38
417.159	1375.38
417.382	1323.38
417.605	1351.38
417.828	1314.38
418.051	1347.38
418.274	1319.38
418.497	1285.38
418.72	1375.38
418.943	1325.38
419.166	1388.38
419.389	1478.38
419.611	1448.38
419.834	1403.38
420.057	1372.38
420.28	1336.38
420.503	1296.38
420.726	1314.38
420.948	1318.38
421.171	1325.38
421.394	1343.38
421.617	1299.38
421.839	1301.38
422.062	1366.38
422.285	1324.38
422.507	1319.38
422.73	1324.38
422.953	1328.38
423.175	1349.38
423.398	1333.38
423.621	1305.38
423.843	1334.38
424.066	1350.38
424.288	1351.38
424.511	1322.38
424.733	1345.38
424.956	1332.38
425.178	1366.38
425.401	1320.38
425.623	1352.38
425.846	1311.38
426.068	1324.38
426.291	1348.38
426.513	1324.38
426.735	1310.38
426.958	1340.38
427.18	1313.38
427.402	1313.38
427.625	1311.38
427.847	1299.38
428.069	1304.38
428.292	1336.38
428.514	1376.38
428.736	1341.38
428.958	1353.38
429.181	1322.38
429.403	1320.38
429.625	1340.38
429.847	1325.38
430.069	1330.38
430.292	1335.38
430.514	1306.38
430.736	1327.38
430.958	1313.38
431.18	1336.38
431.402	1306.38
431.624	1284.38
431.846	1350.38
432.068	1280.38
432.29	1327.38
432.512	1292.38
432.734	1361.38
432.956	1353.38
433.178	1354.38
433.4	1403.38
433.622	1392.38
433.844	1348.38
434.066	1343.38
434.287	1342.38
434.509	1342.38
434.731	1350.38
434.953	1346.38
435.175	1373.38
435.397	1413.38
435.618	1368.38
435.84	1328.38
436.062	1344.38
436.284	1316.38
436.505	1325.38
436.727	1359.38
436.949	1341.38
437.17	1316.38
437.392	1351.38
437.614	1332.38
437.835	1308.38
438.057	1296.38
438.278	1282.38
438.5	1264.38
438.721	1272.38
438.943	1277.38
439.165	1252.38
439.386	1284.38
439.608	1297.38
439.829	1281.38
440.05	1347.38
440.272	1326.38
440.493	1322.38
440.715	1336.38
440.936	1348.38
441.158	1312.38
441.379	1313.38
441.6	1383.38
441.822	1340.38
442.043	1343.38
442.264	1316.38
442.486	1332.38
442.707	1375.38
442.928	1340.38
443.149	1362.38
443.371	1367.38
443.592	1429.38
443.813	1403.38
444.034	1400.38
444.255	1379.38
444.476	1358.38
444.698	1398.38
444.919	1376.38
445.14	1478.38
445.361	1412.38
445.582	1379.38
445.803	1340.38
446.024	1334.38
446.245	1368.38
446.466	1329.38
446.687	1285.38
446.908	1334.38
447.129	1294.38
447.35	1264.38
447.571	1290.38
447.792	1237.38
448.013	1264.38
448.234	1251.38
448.455	1272.38
448.675	1264.38
448.896	1270.38
449.117	1226.38
449.338	1223.38
449.559	1210.38
449.779	1203.38
450	1211.38
450.221	1256.38
450.442	1218.38
450.662	1232.38
450.883	1223.38
451.104	1268.38
451.324	1208.38
451.545	1223.38
451.766	1193.38
451.986	1204.38
452.207	1188.38
452.428	1233.38
452.648	1207.38
452.869	1192.38
453.089	1208.38
453.31	1216.38
453.53	1183.38
453.751	1186.38
453.971	1197.38
454.192	1222.38
454.412	1220.38
454.633	1210.38
454.853	1191.38
455.073	1193.38
455.294	1236.38
455.514	1214.38
455.734	1206.38
455.955	1243.38
456.175	1213.38
456.395	1154.38
456.616	1191.38
456.836	1183.38
457.056	1178.38
457.276	1167.38
457.497	1228.38
457.717	1239.38
457.937	1212.38
458.157	1240.38
458.377	1239.38
458.598	1224.38
458.818	1223.38
459.038	1219.38
459.258	1270.38
459.478	1304.38
459.698	1398.38
459.918	1379.38
460.138	1374.38
460.358	1318.38
460.578	1375.38
460.798	1396.38
461.018	1398.38
461.238	1363.38
461.458	1366.38
461.678	1326.38
461.898	1347.38
462.118	1361.38
462.338	1405.38
462.558	1426.38
462.777	1443.38
462.997	1460.38
463.217	1457.38
463.437	1528.38
463.657	1503.38
463.876	1464.38
464.096	1427.38
464.316	1457.38
464.536	1403.38
464.755	1414.38
464.975	1426.38
465.195	1369.38
465.414	1354.38
465.634	1359.38
465.854	1335.38
466.073	1310.38
466.293	1292.38
466.512	1265.38
466.732	1314.38
466.951	1338.38
467.171	1262.38
467.391	1304.38
467.61	1295.38
467.829	1258.38
468.049	1281.38
468.268	1273.38
468.488	1268.38
468.707	1255.38
468.927	1270.38
469.146	1281.38
469.365	1290.38
469.585	1316.38
469.804	1296.38
470.023	1266.38
470.243	1276.38
470.462	1294.38
470.681	1299.38
470.901	1257.38
471.12	1265.38
471.339	1310.38
471.558	1280.38
471.777	1303.38
471.997	1294.38
472.216	1310.38
472.435	1296.38
472.654	1222.38
472.873	1318.38
473.092	1289.38
473.311	1288.38
473.53	1316.38
473.749	1280.38
473.968	1298.38
474.187	1304.38
474.406	1263.38
474.625	1313.38
474.844	1339.38
475.063	1385.38
475.282	1341.38
475.501	1339.38
475.72	1356.38
475.939	1377.38
476.158	1348.38
476.377	1423.38
476.596	1352.38
476.814	1362.38
477.033	1344.38
477.252	1386.38
477.471	1408.38
477.69	1408.38
477.908	1433.38
478.127	1459.38
478.346	1437.38
478.564	1439.38
478.783	1512.38
479.002	1543.38
479.22	1568.38
479.439	1510.38
479.658	1469.38
479.876	1511.38
480.095	1502.38
480.313	1524.38
480.532	1519.38
480.751	1488.38
480.969	1481.38
481.188	1505.38
481.406	1516.38
481.624	1494.38
481.843	1529.38
482.061	1519.38
482.28	1516.38
482.498	1550.38
482.717	1533.38
482.935	1583.38
483.153	1569.38
483.372	1574.38
483.59	1616.38
483.808	1599.38
484.027	1593.38
484.245	1551.38
484.463	1549.38
484.681	1593.38
484.9	1575.38
485.118	1611.38
485.336	1588.38
485.554	1573.38
485.772	1544.38
485.99	1573.38
486.209	1575.38
486.427	1558.38
486.645	1588.38
486.863	1613.38
487.081	1584.38
487.299	1600.38
487.517	1612.38
487.735	1608.38
487.953	1613.38
488.171	1629.38
488.389	1627.38
488.607	1617.38
488.825	1608.38
489.043	1612.38
489.261	1615.38
489.479	1615.38
489.696	1606.38
489.914	1605.38
490.132	1612.38
490.35	1584.38
490.568	1600.38
490.786	1626.38
491.003	1596.38
491.221	1669.38
491.439	1644.38
491.657	1616.38
491.874	1651.38
492.092	1679.38
492.31	1654.38
492.527	1646.38
492.745	1653.38
492.963	1640.38
493.18	1672.38
493.398	1649.38
493.615	1669.38
493.833	1662.38
494.05	1671.38
494.268	1682.38
494.485	1637.38
494.703	1638.38
494.92	1654.38
495.138	1684.38
495.355	1690.38
495.573	1687.38
495.79	1706.38
496.008	1674.38
496.225	1670.38
496.442	1720.38
496.66	1714.38
496.877	1729.38
497.094	1745.38
497.312	1761.38
497.529	1756.38
497.746	1771.38
497.963	1780.38
498.181	1822.38
498.398	1841.38
498.615	1853.38
498.832	1938.38
499.049	1922.38
499.267	1967.38
499.484	2000.38
499.701	2033.38
499.918	2092.38
500.135	2136.38
500.352	2186.38
500.569	2150.38
500.786	2190.38
501.003	2180.38
501.22	2177.38
501.437	2089.38
501.654	2015.38
501.871	1990.38
502.088	1994.38
502.305	1921.38
502.522	1908.38
502.739	1894.38
502.956	1821.38
503.172	1804.38
503.389	1784.38
503.606	1792.38
503.823	1742.38
504.04	1702.38
504.256	1690.38
504.473	1712.38
504.69	1612.38
504.907	1689.38
505.123	1642.38
505.34	1619.38
505.557	1588.38
505.773	1603.38
505.99	1605.38
506.207	1566.38
506.423	1523.38
506.64	1519.38
506.856	1506.38
507.073	1505.38
507.289	1501.38
507.506	1509.38
507.722	1476.38
507.939	1466.38
508.155	1493.38
508.372	1472.38
508.588	1507.38
508.805	1444.38
509.021	1439.38
509.238	1392.38
509.454	1420.38
509.67	1407.38
509.887	1400.38
510.103	1418.38
510.319	1425.38
510.536	1396.38
510.752	1378.38
510.968	1336.38
511.184	1369.38
511.401	1358.38
511.617	1341.38
511.833	1398.38
512.049	1387.38
512.265	1395.38
512.481	1385.38
512.698	1344.38
512.914	1366.38
513.13	1368.38
513.346	1387.38
513.562	1371.38
513.778	1364.38
513.994	1357.38
514.21	1376.38
514.426	1335.38
514.642	1345.38
514.858	1361.38
515.074	1363.38
515.29	1354.38
515.506	1352.38
515.721	1397.38
515.937	1414.38
516.153	1372.38
516.369	1388.38
516.585	1378.38
516.801	1386.38
517.016	1409.38
517.232	1393.38
517.448	1398.38
517.664	1400.38
517.879	1401.38
518.095	1413.38
518.311	1420.38
518.527	1389.38
518.742	1409.38
518.958	1388.38
519.173	1358.38
519.389	1341.38
519.605	1358.38
519.82	1354.38
520.036	1375.38
520.251	1311.38
520.467	1320.38
520.682	1291.38
520.898	1291.38
521.113	1296.38
521.329	1258.38
521.544	1290.38
521.76	1262.38
521.975	1288.38
522.19	1268.38
522.406	1275.38
522.621	1279.38
522.836	1259.38
523.052	1277.38
523.267	1273.38
523.482	1248.38
523.698	1246.38
523.913	1248.38
524.128	1263.38
524.343	1264.38
524.559	1246.38
524.774	1241.38
524.989	1241.38
525.204	1231.38
525.419	1231.38
525.634	1206.38
525.849	1225.38
526.064	1233.38
526.28	1182.38
526.495	1195.38
526.71	1206.38
526.925	1180.38
527.14	1216.38
527.355	1201.38
527.57	1196.38
527.785	1228.38
527.999	1196.38
528.214	1178.38
528.429	1222.38
528.644	1201.38
528.859	1189.38
529.074	1191.38
529.289	1190.38
529.503	1208.38
529.718	1209.38
529.933	1158.38
530.148	1162.38
530.363	1157.38
530.577	1187.38
530.792	1177.38
531.007	1140.38
531.221	1153.38
531.436	1170.38
531.651	1166.38
531.865	1133.38
532.08	1143.38
532.295	1158.38
532.509	1153.38
532.724	1131.38
532.938	1170.38
533.153	1158.38
533.367	1159.38
533.582	1131.38
533.796	1135.38
534.011	1176.38
534.225	1143.38
534.44	1150.38
534.654	1136.38
534.868	1127.38
535.083	1118.38
535.297	1120.38
535.511	1110.38
535.726	1125.38
535.94	1083.38
536.154	1133.38
536.369	1112.38
536.583	1087.38
536.797	1109.38
537.011	1094.38
537.225	1073.38
537.44	1091.38
537.654	1087.38
537.868	1064.38
538.082	1063.38
538.296	1085.38
538.51	1099.38
538.724	1095.38
538.938	1097.38
539.153	1066.38
539.367	1060.38
539.581	1043.38
539.795	1064.38
540.009	1050.38
540.222	1090.38
540.436	1063.38
540.65	1096.38
540.864	1062.38
541.078	1069.38
541.292	1078.38
541.506	1072.38
541.72	1078.38
541.934	1055.38
542.147	1069.38
542.361	1083.38
542.575	1049.38
542.789	1049.38
543.002	1029.38
543.216	1046.38
543.43	1045.38
543.644	1032.38
543.857	1017.38
544.071	1020.38
544.285	1072.38
544.498	1046.38
544.712	1032.38
544.925	1062.38
545.139	1040.38
545.352	1022.38
545.566	1024.38
545.779	1033.38
545.993	1069.38
546.206	1057.38
546.42	1008.38
546.633	1020.38
546.847	1036.38
547.06	1030.38
547.274	1052.38
547.487	1029.38
547.7	1066.38
547.914	1063.38
548.127	1057.38
548.34	1049.38
548.554	1037.38
548.767	1016.38
548.98	998.38
549.193	1040.38
549.407	1036.38
549.62	1001.38
549.833	1040.38
550.046	1010.38
550.259	1009.38
550.473	985.38
550.686	1003.38
550.899	1006.38
551.112	993.38
551.325	986.38
551.538	993.38
551.751	1024.38
551.964	984.38
552.177	998.38
552.39	974.38
552.603	978.38
552.816	982.38
553.029	985.38
553.242	1032.38
553.455	1012.38
553.667	999.38
553.88	1018.38
554.093	972.38
554.306	972.38
554.519	962.38
554.732	941.38
554.944	937.38
555.157	924.38
555.37	944.38
555.583	932.38
555.795	945.38
556.008	900.38
556.221	920.38
556.433	896.38
556.646	927.38
556.859	902.38
557.071	899.38
557.284	892.38
557.496	916.38
557.709	905.38
557.921	921.38
558.134	885.38
558.346	890.38
558.559	899.38
558.771	895.38
558.984	887.38
559.196	894.38
559.409	888.38
559.621	908.38
559.833	873.38
560.046	850.38
560.258	864.38
560.47	862.38
560.683	887.38
560.895	880.38
561.107	854.38
561.32	837.38
561.532	866.38
561.744	859.38
561.956	880.38
562.168	884.38
562.381	876.38
562.593	850.38
562.805	864.38
563.017	875.38
563.229	842.38
563.441	839.38
563.653	858.38
563.865	852.38
564.077	871.38
564.289	856.38
564.501	896.38
564.713	876.38
564.925	876.38
565.137	877.38
565.349	877.38
565.561	893.38
565.773	913.38
565.985	916.38
566.197	877.38
566.408	902.38
566.62	952.38
566.832	920.38
567.044	939.38
567.255	940.38
567.467	936.38
567.679	901.38
567.891	943.38
568.102	913.38
568.314	912.38
568.526	893.38
568.737	915.38
568.949	865.38
569.161	829.38
569.372	802.38
569.584	843.38
569.795	830.38
570.007	827.38
570.218	825.38
570.43	786.38
570.641	773.38
570.853	785.38
571.064	764.38
571.276	760.38
571.487	770.38
571.698	775.38
571.91	740.38
572.121	761.38
572.333	749.38
572.544	747.38
572.755	710.38
572.966	730.38
573.178	733.38
573.389	709.38
573.6	701.38
573.811	714.38
574.023	680.38
574.234	696.38
574.445	704.38
574.656	661.38
574.867	666.38
575.078	670.38
575.289	666.38
575.501	672.38
575.712	653.38
575.923	664.38
576.134	660.38
576.345	680.38
576.556	636.38
576.767	642.38
576.978	639.38
577.188	648.38
577.399	636.38
577.61	625.38
577.821	641.38
578.032	646.38
578.243	630.38
578.454	649.38
578.665	661.38
578.875	626.38
579.086	622.38
579.297	641.38
579.508	622.38
579.718	638.38
579.929	612.38
580.14	611.38
580.35	606.38
580.561	597.38
580.772	602.38
580.982	599.38
581.193	614.38
581.403	601.38
581.614	560.38
581.825	602.38
582.035	607.38
582.246	590.38
582.456	598.38
582.667	585.38
582.877	599.38
583.087	582.38
583.298	583.38
583.508	619.38
583.719	557.38
583.929	591.38
584.139	569.38
584.35	576.38
584.56	575.38
584.77	577.38
584.981	579.38
585.191	573.38
585.401	572.38
585.611	565.38
585.821	562.38
586.032	559.38
586.242	575.38
586.452	553.38
586.662	568.38
586.872	543.38
587.082	553.38
587.292	521.38
587.502	564.38
587.713	549.38
587.923	547.38
588.133	558.38
588.343	567.38
588.553	550.38
588.762	552.38
588.972	564.38
589.182	614.38
589.392	619.38
589.602	566.38
589.812	594.38
590.022	576.38
590.232	554.38
590.441	540.38
590.651	545.38
590.861	575.38
591.071	545.38
591.281	530.38
591.49	538.38
591.7	548.38
591.91	525.38
592.119	530.38
592.329	535.38
592.539	552.38
592.748	531.38
592.958	556.38
593.167	553.38
593.377	540.38
593.587	541.38
593.796	535.38
594.006	511.38
594.215	552.38
594.424	542.38
594.634	536.38
594.843	544.38
595.053	521.38
595.262	526.38
595.472	524.38
595.681	509.38
595.89	524.38
596.1	520.38
596.309	504.38
596.518	493.38
596.727	507.38
596.937	488.38
597.146	498.38
597.355	462.38
597.564	470.38
597.774	479.38
597.983	485.38
598.192	490.38
598.401	500.38
598.61	475.38
598.819	472.38
599.028	482.38
599.237	484.38
599.446	442.38
599.655	446.38
599.864	456.38
600.073	458.38
600.282	452.38
600.491	450.38
600.7	470.38
600.909	463.38
601.118	463.38
601.327	442.38
601.536	449.38
601.745	433.38
601.953	457.38
602.162	464.38
602.371	449.38
602.58	433.38
602.789	433.38
602.997	441.38
603.206	436.38
603.415	429.38
603.623	422.38
603.832	443.38
604.041	428.38
604.249	443.38
604.458	416.38
604.666	440.38
604.875	429.38
605.084	429.38
605.292	437.38
605.501	432.38
605.709	424.38
605.918	422.38
606.126	424.38
606.334	424.38
606.543	429.38
606.751	426.38
606.96	412.38
607.168	400.38
607.376	414.38
607.585	435.38
607.793	420.38
608.001	413.38
608.21	403.38
608.418	411.38
608.626	412.38
608.834	414.38
609.043	403.38
609.251	399.38
609.459	420.38
609.667	388.38
609.875	407.38
610.083	408.38
610.291	394.38
610.499	385.38
610.707	395.38
610.916	404.38
611.124	396.38
611.332	392.38
611.54	417.38
611.748	390.38
611.955	392.38
612.163	390.38
612.371	397.38
612.579	397.38
612.787	389.38
612.995	404.38
613.203	397.38
613.411	398.38
613.618	414.38
613.826	395.38
614.034	397.38
614.242	397.38
614.449	401.38
614.657	394.38
614.865	393.38
615.072	395.38
615.28	390.38
615.488	375.38
615.695	397.38
615.903	383.38
616.111	384.38
616.318	375.38
616.526	385.38
616.733	384.38
616.941	377.38
617.148	370.38
617.356	391.38
617.563	398.38
617.771	369.38
617.978	397.38
618.185	374.38
618.393	370.38
618.6	382.38
618.807	370.38
619.015	388.38
619.222	362.38
619.429	374.38
619.637	369.38
619.844	373.38
620.051	358.38
620.258	354.38
620.466	352.38
620.673	341.38
620.88	367.38
621.087	342.38
621.294	353.38
621.501	378.38
621.708	360.38
621.915	354.38
622.122	365.38
622.329	344.38
622.536	384.38
622.743	352.38
622.95	346.38
623.157	364.38
623.364	345.38
623.571	351.38
623.778	354.38
623.985	341.38
624.192	335.38
624.399	331.38
624.606	357.38
624.812	342.38
625.019	353.38
625.226	351.38
625.433	345.38
625.639	327.38
625.846	330.38
626.053	355.38
626.259	331.38
626.466	313.38
626.673	326.38
626.879	326.38
627.086	339.38
627.293	332.38
627.499	316.38
627.706	315.38
627.912	333.38
628.119	320.38
628.325	325.38
628.532	327.38
628.738	307.38
628.945	319.38
629.151	318.38
629.357	324.38
629.564	333.38
629.77	318.38
629.976	309.38
630.183	332.38
630.389	318.38
630.595	310.38
630.802	308.38
631.008	319.38
631.214	319.38
631.42	315.38
631.627	318.38
631.833	310.38
632.039	302.38
632.245	317.38
632.451	302.38
632.657	318.38
632.863	307.38
633.069	315.38
633.275	288.38
633.481	320.38
633.688	316.38
633.893	283.38
634.099	309.38
634.305	316.38
634.511	308.38
634.717	281.38
634.923	274.38
635.129	300.38
635.335	307.38
635.541	287.38
635.747	304.38
635.952	281.38
636.158	293.38
636.364	294.38
636.57	278.38
636.775	293.38
636.981	297.38
637.187	289.38
637.392	298.38
637.598	286.38
637.804	293.38
638.009	275.38
638.215	285.38
638.421	314.38
638.626	266.38
638.832	267.38
639.037	274.38
639.243	283.38
639.448	274.38
639.654	284.38
639.859	273.38
640.065	280.38
640.27	282.38
640.475	283.38
640.681	292.38
640.886	277.38
641.091	274.38
641.297	264.38
641.502	261.38
641.707	281.38
641.913	279.38
642.118	291.38
642.323	279.38
642.528	288.38
642.733	293.38
642.939	280.38
643.144	272.38
643.349	276.38
643.554	284.38
643.759	257.38
643.964	268.38
644.169	281.38
644.374	268.38
644.579	280.38
644.784	283.38
644.989	268.38
645.194	272.38
645.399	289.38
645.604	266.38
645.809	271.38
646.014	267.38
646.219	272.38
646.423	273.38
646.628	274.38
646.833	276.38
647.038	281.38
647.243	298.38
647.447	278.38
647.652	293.38
647.857	284.38
648.062	274.38
648.266	278.38
648.471	259.38
648.676	273.38
648.88	244.38
649.085	273.38
649.289	282.38
649.494	287.38
649.698	285.38
649.903	267.38
650.107	265.38
650.312	267.38
650.516	286.38
650.721	277.38
650.925	243.38
651.13	261.38
651.334	265.38
651.539	268.38
651.743	258.38
651.947	260.38
652.152	245.38
652.356	233.38
652.56	265.38
652.764	249.38
652.969	262.38
653.173	269.38
653.377	256.38
653.581	241.38
653.785	238.38
653.99	245.38
654.194	245.38
654.398	241.38
654.602	242.38
654.806	256.38
655.01	239.38
655.214	245.38
655.418	242.38
655.622	246.38
655.826	224.38
656.03	237.38
656.234	251.38
656.438	241.38
656.642	245.38
656.846	218.38
657.049	213.38
657.253	220.38
657.457	205.38
657.661	188.38
657.865	201.38
658.068	184.38
658.272	175.38
658.476	183.38
658.68	180.38
658.883	154.38
659.087	156.38
659.291	144.38
659.494	157.38
659.698	129.38
659.901	136.38
660.105	138.38
660.309	129.38
660.512	111.38
660.716	133.38
660.919	124.38
661.123	111.38
661.326	112.38
661.53	117.38
661.733	103.38
661.936	116.38
662.14	100.38
662.343	88.38
662.546	100.38
662.75	120.38
662.953	88.38
663.156	98.38
663.36	87.38
663.563	81.38
663.766	98.38
663.969	86.38
664.173	88.38
664.376	90.38
664.579	89.38
664.782	81.38
664.985	112.38
665.188	80.38
665.391	75.38
665.594	89.38
665.797	79.38
666	85.38
666.203	81.38
666.406	80.38
666.609	90.38
666.812	79.38
667.015	72.38
667.218	86.38
667.421	78.38
667.624	71.38
667.827	78.38
668.03	70.38
668.232	82.38
668.435	90.38
668.638	69.38
668.841	87.38
669.043	88.38
669.246	92.38
669.449	78.38
669.651	85.38
669.854	88.38
670.057	91.38
670.259	93.38
670.462	82.38
670.665	76.38
670.867	73.38
671.07	74.38
671.272	81.38
671.475	80.38
671.677	81.38
671.88	82.38
672.082	76.38
672.284	81.38
672.487	86.38
672.689	82.38
672.892	80.38
