Data from Ni(NO3)2Standard.Agarose3%.GreenCap.LampEnergy5.5.E.O_HRD10591_14-39-55-187.txt Node
Date: Mon Jul 22 14:39:55 EDT 2019
User: cochatt
Spectrometer: HR+D1059
Trigger mode: 1
Integration Time (sec): 1.000000E-1
Scans to average: 1
Electric dark correction enabled: true
Nonlinearity correction enabled: false
Boxcar width: 0
XAxis mode: Wavelengths
Number of Pixels in Spectrum: 2048
>>>>>Begin Spectral Data<<<<<
223.165	-25.25
223.4	-25.25
223.635	-25.25
223.869	-21.25
224.104	-16.25
224.338	-15.25
224.573	-12.25
224.808	1.75
225.042	-1.25
225.277	6.75
225.511	5.75
225.746	-3.25
225.98	-0.25
226.215	4.75
226.449	6.75
226.683	20.75
226.918	23.75
227.152	24.75
227.387	28.75
227.621	31.75
227.856	42.75
228.09	30.75
228.324	51.75
228.559	47.75
228.793	54.75
229.027	56.75
229.262	67.75
229.496	64.75
229.73	69.75
229.964	88.75
230.199	66.75
230.433	72.75
230.667	73.75
230.901	88.75
231.136	80.75
231.37	77.75
231.604	70.75
231.838	67.75
232.072	77.75
232.306	74.75
232.541	75.75
232.775	76.75
233.009	93.75
233.243	67.75
233.477	83.75
233.711	71.75
233.945	88.75
234.179	78.75
234.413	83.75
234.647	70.75
234.881	77.75
235.115	76.75
235.349	70.75
235.583	81.75
235.817	71.75
236.051	64.75
236.285	78.75
236.519	73.75
236.753	69.75
236.987	85.75
237.221	75.75
237.455	70.75
237.689	92.75
237.922	81.75
238.156	89.75
238.39	68.75
238.624	65.75
238.858	76.75
239.091	88.75
239.325	78.75
239.559	69.75
239.793	81.75
240.027	78.75
240.26	63.75
240.494	69.75
240.728	66.75
240.961	83.75
241.195	72.75
241.429	77.75
241.662	69.75
241.896	78.75
242.13	78.75
242.363	70.75
242.597	74.75
242.83	67.75
243.064	71.75
243.298	74.75
243.531	74.75
243.765	65.75
243.998	82.75
244.232	69.75
244.465	66.75
244.699	74.75
244.932	71.75
245.166	84.75
245.399	81.75
245.633	68.75
245.866	83.75
246.099	84.75
246.333	85.75
246.566	80.75
246.8	76.75
247.033	52.75
247.266	80.75
247.5	85.75
247.733	70.75
247.966	78.75
248.2	63.75
248.433	75.75
248.666	78.75
248.899	80.75
249.133	64.75
249.366	67.75
249.599	62.75
249.832	66.75
250.066	70.75
250.299	57.75
250.532	83.75
250.765	69.75
250.998	81.75
251.231	62.75
251.465	79.75
251.698	80.75
251.931	87.75
252.164	84.75
252.397	81.75
252.63	73.75
252.863	81.75
253.096	80.75
253.329	85.75
253.562	78.75
253.795	77.75
254.028	71.75
254.261	72.75
254.494	82.75
254.727	63.75
254.96	82.75
255.193	75.75
255.426	78.75
255.659	80.75
255.892	80.75
256.124	66.75
256.357	80.75
256.59	89.75
256.823	69.75
257.056	69.75
257.289	79.75
257.521	79.75
257.754	79.75
257.987	68.75
258.22	71.75
258.452	76.75
258.685	73.75
258.918	79.75
259.151	75.75
259.383	87.75
259.616	69.75
259.849	77.75
260.081	78.75
260.314	82.75
260.547	84.75
260.779	67.75
261.012	82.75
261.244	79.75
261.477	83.75
261.71	80.75
261.942	82.75
262.175	70.75
262.407	76.75
262.64	71.75
262.872	78.75
263.105	78.75
263.337	80.75
263.57	86.75
263.802	76.75
264.035	81.75
264.267	75.75
264.499	86.75
264.732	79.75
264.964	74.75
265.197	64.75
265.429	78.75
265.661	79.75
265.894	69.75
266.126	93.75
266.358	78.75
266.591	81.75
266.823	78.75
267.055	89.75
267.287	80.75
267.52	80.75
267.752	96.75
267.984	81.75
268.216	84.75
268.448	77.75
268.681	72.75
268.913	75.75
269.145	72.75
269.377	74.75
269.609	92.75
269.841	83.75
270.073	83.75
270.306	78.75
270.538	87.75
270.77	78.75
271.002	79.75
271.234	80.75
271.466	77.75
271.698	76.75
271.93	94.75
272.162	79.75
272.394	78.75
272.626	80.75
272.858	72.75
273.09	69.75
273.322	75.75
273.553	86.75
273.785	77.75
274.017	82.75
274.249	70.75
274.481	83.75
274.713	80.75
274.945	84.75
275.176	79.75
275.408	95.75
275.64	78.75
275.872	81.75
276.104	72.75
276.335	83.75
276.567	81.75
276.799	76.75
277.031	87.75
277.262	97.75
277.494	104.75
277.726	82.75
277.957	81.75
278.189	75.75
278.421	87.75
278.652	74.75
278.884	86.75
279.115	71.75
279.347	76.75
279.579	93.75
279.81	95.75
280.042	70.75
280.273	71.75
280.505	102.75
280.736	87.75
280.968	78.75
281.199	67.75
281.431	86.75
281.662	80.75
281.894	90.75
282.125	77.75
282.356	63.75
282.588	85.75
282.819	86.75
283.051	80.75
283.282	79.75
283.513	75.75
283.745	85.75
283.976	74.75
284.207	68.75
284.439	86.75
284.67	88.75
284.901	78.75
285.132	73.75
285.364	76.75
285.595	86.75
285.826	68.75
286.057	83.75
286.288	52.75
286.52	75.75
286.751	78.75
286.982	79.75
287.213	70.75
287.444	85.75
287.675	70.75
287.906	86.75
288.138	79.75
288.369	74.75
288.6	77.75
288.831	87.75
289.062	81.75
289.293	72.75
289.524	80.75
289.755	68.75
289.986	83.75
290.217	79.75
290.448	83.75
290.679	88.75
290.91	85.75
291.141	89.75
291.371	88.75
291.602	86.75
291.833	75.75
292.064	85.75
292.295	83.75
292.526	72.75
292.757	94.75
292.987	80.75
293.218	77.75
293.449	80.75
293.68	89.75
293.91	84.75
294.141	82.75
294.372	63.75
294.603	88.75
294.833	85.75
295.064	92.75
295.295	88.75
295.525	78.75
295.756	84.75
295.987	79.75
296.217	73.75
296.448	72.75
296.679	83.75
296.909	92.75
297.14	92.75
297.37	101.75
297.601	81.75
297.831	81.75
298.062	89.75
298.292	70.75
298.523	74.75
298.753	83.75
298.984	78.75
299.214	78.75
299.445	80.75
299.675	72.75
299.905	86.75
300.136	78.75
300.366	86.75
300.597	85.75
300.827	89.75
301.057	85.75
301.288	88.75
301.518	73.75
301.748	82.75
301.979	82.75
302.209	84.75
302.439	69.75
302.669	74.75
302.9	76.75
303.13	70.75
303.36	89.75
303.59	78.75
303.82	84.75
304.051	92.75
304.281	75.75
304.511	75.75
304.741	98.75
304.971	81.75
305.201	85.75
305.431	94.75
305.661	83.75
305.891	75.75
306.121	86.75
306.352	95.75
306.582	86.75
306.812	82.75
307.042	89.75
307.272	79.75
307.502	80.75
307.731	87.75
307.961	90.75
308.191	84.75
308.421	84.75
308.651	95.75
308.881	90.75
309.111	83.75
309.341	85.75
309.571	82.75
309.8	84.75
310.03	77.75
310.26	82.75
310.49	83.75
310.72	82.75
310.949	72.75
311.179	73.75
311.409	77.75
311.639	103.75
311.868	97.75
312.098	78.75
312.328	80.75
312.557	90.75
312.787	77.75
313.017	71.75
313.246	93.75
313.476	90.75
313.706	89.75
313.935	96.75
314.165	76.75
314.394	95.75
314.624	82.75
314.853	85.75
315.083	78.75
315.312	80.75
315.542	82.75
315.771	77.75
316.001	79.75
316.23	100.75
316.46	83.75
316.689	92.75
316.919	85.75
317.148	93.75
317.377	85.75
317.607	95.75
317.836	78.75
318.065	85.75
318.295	89.75
318.524	86.75
318.753	74.75
318.983	73.75
319.212	85.75
319.441	83.75
319.67	90.75
319.9	72.75
320.129	67.75
320.358	96.75
320.587	81.75
320.816	93.75
321.046	82.75
321.275	77.75
321.504	76.75
321.733	79.75
321.962	80.75
322.191	89.75
322.42	88.75
322.649	83.75
322.878	84.75
323.108	77.75
323.337	93.75
323.566	71.75
323.795	85.75
324.024	82.75
324.253	83.75
324.482	87.75
324.71	69.75
324.939	81.75
325.168	71.75
325.397	79.75
325.626	77.75
325.855	73.75
326.084	92.75
326.313	76.75
326.542	85.75
326.77	78.75
326.999	75.75
327.228	89.75
327.457	89.75
327.686	97.75
327.914	79.75
328.143	77.75
328.372	83.75
328.6	64.75
328.829	88.75
329.058	80.75
329.287	72.75
329.515	82.75
329.744	71.75
329.972	92.75
330.201	80.75
330.43	84.75
330.658	71.75
330.887	81.75
331.115	80.75
331.344	82.75
331.572	85.75
331.801	85.75
332.03	85.75
332.258	79.75
332.486	80.75
332.715	83.75
332.943	82.75
333.172	96.75
333.4	79.75
333.629	89.75
333.857	84.75
334.085	79.75
334.314	86.75
334.542	89.75
334.771	89.75
334.999	80.75
335.227	90.75
335.455	89.75
335.684	78.75
335.912	89.75
336.14	85.75
336.369	87.75
336.597	94.75
336.825	89.75
337.053	81.75
337.281	78.75
337.51	81.75
337.738	76.75
337.966	73.75
338.194	81.75
338.422	87.75
338.65	87.75
338.878	109.75
339.106	82.75
339.334	70.75
339.562	72.75
339.79	95.75
340.018	90.75
340.246	84.75
340.474	74.75
340.702	77.75
340.93	95.75
341.158	71.75
341.386	87.75
341.614	86.75
341.842	80.75
342.07	95.75
342.298	92.75
342.526	84.75
342.754	77.75
342.981	88.75
343.209	65.75
343.437	87.75
343.665	69.75
343.893	76.75
344.12	93.75
344.348	80.75
344.576	82.75
344.804	87.75
345.031	81.75
345.259	88.75
345.487	96.75
345.714	79.75
345.942	82.75
346.17	89.75
346.397	85.75
346.625	81.75
346.853	89.75
347.08	78.75
347.308	76.75
347.535	76.75
347.763	84.75
347.99	93.75
348.218	94.75
348.445	85.75
348.673	84.75
348.9	81.75
349.128	87.75
349.355	81.75
349.583	81.75
349.81	86.75
350.037	83.75
350.265	82.75
350.492	74.75
350.72	89.75
350.947	79.75
351.174	89.75
351.402	83.75
351.629	84.75
351.856	85.75
352.083	93.75
352.311	92.75
352.538	78.75
352.765	83.75
352.992	92.75
353.22	84.75
353.447	58.75
353.674	81.75
353.901	76.75
354.128	79.75
354.355	92.75
354.583	89.75
354.81	78.75
355.037	73.75
355.264	77.75
355.491	72.75
355.718	94.75
355.945	89.75
356.172	95.75
356.399	87.75
356.626	81.75
356.853	90.75
357.08	78.75
357.307	93.75
357.534	86.75
357.761	70.75
357.988	75.75
358.215	80.75
358.441	81.75
358.668	87.75
358.895	71.75
359.122	89.75
359.349	86.75
359.576	80.75
359.802	73.75
360.029	85.75
360.256	84.75
360.483	81.75
360.709	79.75
360.936	92.75
361.163	73.75
361.39	80.75
361.616	74.75
361.843	80.75
362.07	87.75
362.296	68.75
362.523	89.75
362.749	78.75
362.976	78.75
363.203	87.75
363.429	78.75
363.656	94.75
363.882	75.75
364.109	84.75
364.335	93.75
364.562	84.75
364.788	84.75
365.015	68.75
365.241	84.75
365.468	84.75
365.694	80.75
365.92	78.75
366.147	77.75
366.373	82.75
366.599	82.75
366.826	86.75
367.052	77.75
367.278	64.75
367.505	78.75
367.731	97.75
367.957	79.75
368.184	81.75
368.41	79.75
368.636	90.75
368.862	93.75
369.089	77.75
369.315	87.75
369.541	82.75
369.767	84.75
369.993	77.75
370.219	77.75
370.445	84.75
370.672	77.75
370.898	75.75
371.124	88.75
371.35	78.75
371.576	81.75
371.802	82.75
372.028	87.75
372.254	79.75
372.48	79.75
372.706	84.75
372.932	76.75
373.158	82.75
373.384	77.75
373.61	73.75
373.835	74.75
374.061	95.75
374.287	86.75
374.513	72.75
374.739	86.75
374.965	85.75
375.191	88.75
375.416	99.75
375.642	86.75
375.868	95.75
376.094	89.75
376.319	78.75
376.545	79.75
376.771	93.75
376.997	80.75
377.222	82.75
377.448	85.75
377.674	83.75
377.899	83.75
378.125	93.75
378.35	86.75
378.576	73.75
378.802	77.75
379.027	86.75
379.253	87.75
379.478	92.75
379.704	86.75
379.929	91.75
380.155	81.75
380.38	78.75
380.606	75.75
380.831	84.75
381.057	105.75
381.282	86.75
381.507	77.75
381.733	67.75
381.958	92.75
382.184	84.75
382.409	85.75
382.634	82.75
382.86	69.75
383.085	86.75
383.31	81.75
383.535	81.75
383.761	85.75
383.986	99.75
384.211	86.75
384.436	92.75
384.662	85.75
384.887	95.75
385.112	89.75
385.337	87.75
385.562	76.75
385.787	90.75
386.013	91.75
386.238	78.75
386.463	90.75
386.688	74.75
386.913	89.75
387.138	85.75
387.363	85.75
387.588	85.75
387.813	82.75
388.038	92.75
388.263	81.75
388.488	83.75
388.713	85.75
388.938	77.75
389.163	77.75
389.387	84.75
389.612	76.75
389.837	78.75
390.062	98.75
390.287	88.75
390.512	95.75
390.736	70.75
390.961	67.75
391.186	80.75
391.411	60.75
391.636	74.75
391.86	88.75
392.085	89.75
392.31	83.75
392.534	79.75
392.759	90.75
392.984	93.75
393.208	72.75
393.433	71.75
393.658	82.75
393.882	78.75
394.107	93.75
394.331	85.75
394.556	86.75
394.78	93.75
395.005	81.75
395.229	90.75
395.454	74.75
395.678	80.75
395.903	84.75
396.127	80.75
396.352	95.75
396.576	80.75
396.801	78.75
397.025	74.75
397.249	79.75
397.474	73.75
397.698	72.75
397.922	76.75
398.147	67.75
398.371	94.75
398.595	84.75
398.82	78.75
399.044	94.75
399.268	84.75
399.492	85.75
399.717	81.75
399.941	95.75
400.165	85.75
400.389	69.75
400.613	72.75
400.837	88.75
401.062	79.75
401.286	86.75
401.51	84.75
401.734	78.75
401.958	88.75
402.182	97.75
402.406	76.75
402.63	93.75
402.854	78.75
403.078	80.75
403.302	71.75
403.526	88.75
403.75	71.75
403.974	75.75
404.198	86.75
404.422	88.75
404.645	78.75
404.869	81.75
405.093	71.75
405.317	92.75
405.541	70.75
405.765	81.75
405.988	75.75
406.212	101.75
406.436	94.75
406.66	91.75
406.883	80.75
407.107	83.75
407.331	83.75
407.555	89.75
407.778	81.75
408.002	85.75
408.226	82.75
408.449	81.75
408.673	92.75
408.896	85.75
409.12	81.75
409.344	88.75
409.567	77.75
409.791	77.75
410.014	87.75
410.238	92.75
410.461	88.75
410.685	87.75
410.908	81.75
411.132	82.75
411.355	68.75
411.578	86.75
411.802	78.75
412.025	83.75
412.249	95.75
412.472	80.75
412.695	86.75
412.919	70.75
413.142	87.75
413.365	73.75
413.589	81.75
413.812	81.75
414.035	77.75
414.258	87.75
414.482	89.75
414.705	87.75
414.928	89.75
415.151	83.75
415.374	76.75
415.597	84.75
415.821	76.75
416.044	80.75
416.267	79.75
416.49	92.75
416.713	74.75
416.936	92.75
417.159	89.75
417.382	76.75
417.605	72.75
417.828	80.75
418.051	92.75
418.274	75.75
418.497	81.75
418.72	72.75
418.943	72.75
419.166	93.75
419.389	87.75
419.611	98.75
419.834	84.75
420.057	73.75
420.28	88.75
420.503	77.75
420.726	70.75
420.948	66.75
421.171	82.75
421.394	95.75
421.617	83.75
421.839	68.75
422.062	88.75
422.285	82.75
422.507	72.75
422.73	84.75
422.953	88.75
423.175	71.75
423.398	77.75
423.621	85.75
423.843	81.75
424.066	84.75
424.288	84.75
424.511	97.75
424.733	90.75
424.956	88.75
425.178	81.75
425.401	100.75
425.623	94.75
425.846	89.75
426.068	87.75
426.291	72.75
426.513	89.75
426.735	82.75
426.958	85.75
427.18	62.75
427.402	77.75
427.625	79.75
427.847	74.75
428.069	78.75
428.292	75.75
428.514	88.75
428.736	86.75
428.958	84.75
429.181	86.75
429.403	74.75
429.625	85.75
429.847	85.75
430.069	81.75
430.292	83.75
430.514	79.75
430.736	81.75
430.958	82.75
431.18	99.75
431.402	88.75
431.624	87.75
431.846	64.75
432.068	91.75
432.29	84.75
432.512	77.75
432.734	74.75
432.956	97.75
433.178	83.75
433.4	80.75
433.622	73.75
433.844	86.75
434.066	74.75
434.287	91.75
434.509	97.75
434.731	77.75
434.953	77.75
435.175	68.75
435.397	73.75
435.618	81.75
435.84	85.75
436.062	86.75
436.284	85.75
436.505	82.75
436.727	75.75
436.949	80.75
437.17	90.75
437.392	94.75
437.614	76.75
437.835	79.75
438.057	83.75
438.278	73.75
438.5	83.75
438.721	86.75
438.943	75.75
439.165	80.75
439.386	86.75
439.608	89.75
439.829	89.75
440.05	96.75
440.272	85.75
440.493	83.75
440.715	79.75
440.936	80.75
441.158	81.75
441.379	71.75
441.6	85.75
441.822	94.75
442.043	89.75
442.264	78.75
442.486	81.75
442.707	94.75
442.928	92.75
443.149	92.75
443.371	86.75
443.592	87.75
443.813	85.75
444.034	100.75
444.255	91.75
444.476	80.75
444.698	75.75
444.919	88.75
445.14	193.75
445.361	130.75
445.582	96.75
445.803	96.75
446.024	86.75
446.245	78.75
446.466	92.75
446.687	81.75
446.908	93.75
447.129	78.75
447.35	84.75
447.571	70.75
447.792	89.75
448.013	72.75
448.234	81.75
448.455	84.75
448.675	87.75
448.896	93.75
449.117	71.75
449.338	85.75
449.559	79.75
449.779	86.75
450	72.75
450.221	71.75
450.442	80.75
450.662	80.75
450.883	81.75
451.104	72.75
451.324	71.75
451.545	80.75
451.766	99.75
451.986	99.75
452.207	90.75
452.428	84.75
452.648	86.75
452.869	64.75
453.089	79.75
453.31	85.75
453.53	81.75
453.751	73.75
453.971	68.75
454.192	78.75
454.412	88.75
454.633	88.75
454.853	70.75
455.073	74.75
455.294	77.75
455.514	82.75
455.734	82.75
455.955	99.75
456.175	68.75
456.395	82.75
456.616	80.75
456.836	66.75
457.056	88.75
457.276	89.75
457.497	84.75
457.717	90.75
457.937	66.75
458.157	77.75
458.377	76.75
458.598	81.75
458.818	90.75
459.038	83.75
459.258	87.75
459.478	79.75
459.698	96.75
459.918	76.75
460.138	83.75
460.358	90.75
460.578	85.75
460.798	78.75
461.018	82.75
461.238	87.75
461.458	93.75
461.678	76.75
461.898	80.75
462.118	93.75
462.338	87.75
462.558	100.75
462.777	89.75
462.997	80.75
463.217	84.75
463.437	90.75
463.657	96.75
463.876	85.75
464.096	86.75
464.316	77.75
464.536	101.75
464.755	81.75
464.975	78.75
465.195	92.75
465.414	87.75
465.634	85.75
465.854	92.75
466.073	85.75
466.293	73.75
466.512	85.75
466.732	74.75
466.951	78.75
467.171	82.75
467.391	72.75
467.61	82.75
467.829	77.75
468.049	93.75
468.268	80.75
468.488	87.75
468.707	60.75
468.927	94.75
469.146	83.75
469.365	87.75
469.585	84.75
469.804	83.75
470.023	78.75
470.243	94.75
470.462	75.75
470.681	72.75
470.901	83.75
471.12	82.75
471.339	74.75
471.558	76.75
471.777	84.75
471.997	93.75
472.216	86.75
472.435	69.75
472.654	77.75
472.873	89.75
473.092	90.75
473.311	88.75
473.53	91.75
473.749	85.75
473.968	66.75
474.187	81.75
474.406	88.75
474.625	85.75
474.844	89.75
475.063	90.75
475.282	85.75
475.501	87.75
475.72	91.75
475.939	90.75
476.158	80.75
476.377	65.75
476.596	93.75
476.814	66.75
477.033	105.75
477.252	90.75
477.471	84.75
477.69	89.75
477.908	87.75
478.127	86.75
478.346	86.75
478.564	87.75
478.783	82.75
479.002	80.75
479.22	89.75
479.439	89.75
479.658	82.75
479.876	86.75
480.095	88.75
480.313	78.75
480.532	93.75
480.751	88.75
480.969	96.75
481.188	91.75
481.406	87.75
481.624	87.75
481.843	85.75
482.061	75.75
482.28	72.75
482.498	83.75
482.717	89.75
482.935	75.75
483.153	86.75
483.372	97.75
483.59	101.75
483.808	76.75
484.027	85.75
484.245	89.75
484.463	82.75
484.681	98.75
484.9	90.75
485.118	94.75
485.336	94.75
485.554	82.75
485.772	82.75
485.99	84.75
486.209	83.75
486.427	84.75
486.645	92.75
486.863	95.75
487.081	86.75
487.299	82.75
487.517	82.75
487.735	92.75
487.953	86.75
488.171	99.75
488.389	84.75
488.607	87.75
488.825	85.75
489.043	84.75
489.261	88.75
489.479	87.75
489.696	99.75
489.914	100.75
490.132	101.75
490.35	92.75
490.568	84.75
490.786	102.75
491.003	99.75
491.221	98.75
491.439	90.75
491.657	96.75
491.874	93.75
492.092	93.75
492.31	102.75
492.527	92.75
492.745	83.75
492.963	92.75
493.18	89.75
493.398	108.75
493.615	89.75
493.833	91.75
494.05	85.75
494.268	99.75
494.485	87.75
494.703	103.75
494.92	89.75
495.138	88.75
495.355	102.75
495.573	96.75
495.79	91.75
496.008	99.75
496.225	85.75
496.442	90.75
496.66	95.75
496.877	99.75
497.094	103.75
497.312	98.75
497.529	100.75
497.746	94.75
497.963	86.75
498.181	97.75
498.398	91.75
498.615	97.75
498.832	91.75
499.049	92.75
499.267	102.75
499.484	103.75
499.701	89.75
499.918	103.75
500.135	95.75
500.352	106.75
500.569	101.75
500.786	102.75
501.003	110.75
501.22	108.75
501.437	90.75
501.654	97.75
501.871	93.75
502.088	102.75
502.305	105.75
502.522	94.75
502.739	92.75
502.956	98.75
503.172	103.75
503.389	82.75
503.606	98.75
503.823	96.75
504.04	88.75
504.256	84.75
504.473	94.75
504.69	103.75
504.907	96.75
505.123	92.75
505.34	83.75
505.557	86.75
505.773	84.75
505.99	91.75
506.207	111.75
506.423	105.75
506.64	97.75
506.856	92.75
507.073	89.75
507.289	87.75
507.506	74.75
507.722	71.75
507.939	85.75
508.155	94.75
508.372	86.75
508.588	87.75
508.805	96.75
509.021	97.75
509.238	92.75
509.454	89.75
509.67	91.75
509.887	92.75
510.103	95.75
510.319	86.75
510.536	89.75
510.752	78.75
510.968	80.75
511.184	84.75
511.401	76.75
511.617	84.75
511.833	96.75
512.049	84.75
512.265	93.75
512.481	101.75
512.698	98.75
512.914	80.75
513.13	104.75
513.346	94.75
513.562	84.75
513.778	85.75
513.994	92.75
514.21	90.75
514.426	94.75
514.642	88.75
514.858	78.75
515.074	94.75
515.29	87.75
515.506	109.75
515.721	103.75
515.937	101.75
516.153	83.75
516.369	82.75
516.585	89.75
516.801	83.75
517.016	95.75
517.232	90.75
517.448	99.75
517.664	99.75
517.879	90.75
518.095	94.75
518.311	96.75
518.527	96.75
518.742	88.75
518.958	84.75
519.173	90.75
519.389	90.75
519.605	93.75
519.82	104.75
520.036	90.75
520.251	101.75
520.467	89.75
520.682	80.75
520.898	83.75
521.113	91.75
521.329	104.75
521.544	87.75
521.76	89.75
521.975	91.75
522.19	97.75
522.406	90.75
522.621	76.75
522.836	80.75
523.052	87.75
523.267	78.75
523.482	89.75
523.698	77.75
523.913	83.75
524.128	87.75
524.343	89.75
524.559	76.75
524.774	72.75
524.989	101.75
525.204	80.75
525.419	89.75
525.634	86.75
525.849	98.75
526.064	96.75
526.28	91.75
526.495	96.75
526.71	99.75
526.925	91.75
527.14	93.75
527.355	82.75
527.57	93.75
527.785	94.75
527.999	81.75
528.214	86.75
528.429	83.75
528.644	93.75
528.859	93.75
529.074	94.75
529.289	102.75
529.503	83.75
529.718	92.75
529.933	85.75
530.148	82.75
530.363	71.75
530.577	79.75
530.792	81.75
531.007	95.75
531.221	89.75
531.436	77.75
531.651	88.75
531.865	82.75
532.08	86.75
532.295	89.75
532.509	83.75
532.724	74.75
532.938	88.75
533.153	80.75
533.367	79.75
533.582	88.75
533.796	79.75
534.011	89.75
534.225	83.75
534.44	93.75
534.654	92.75
534.868	95.75
535.083	93.75
535.297	91.75
535.511	80.75
535.726	86.75
535.94	78.75
536.154	85.75
536.369	86.75
536.583	91.75
536.797	96.75
537.011	82.75
537.225	95.75
537.44	104.75
537.654	78.75
537.868	82.75
538.082	85.75
538.296	88.75
538.51	103.75
538.724	86.75
538.938	87.75
539.153	92.75
539.367	93.75
539.581	91.75
539.795	83.75
540.009	93.75
540.222	81.75
540.436	72.75
540.65	82.75
540.864	88.75
541.078	74.75
541.292	85.75
541.506	94.75
541.72	87.75
541.934	94.75
542.147	88.75
542.361	77.75
542.575	73.75
542.789	72.75
543.002	84.75
543.216	85.75
543.43	86.75
543.644	94.75
543.857	82.75
544.071	90.75
544.285	87.75
544.498	99.75
544.712	85.75
544.925	91.75
545.139	93.75
545.352	86.75
545.566	93.75
545.779	90.75
545.993	81.75
546.206	66.75
546.42	97.75
546.633	101.75
546.847	89.75
547.06	84.75
547.274	80.75
547.487	80.75
547.7	96.75
547.914	91.75
548.127	82.75
548.34	91.75
548.554	81.75
548.767	85.75
548.98	89.75
549.193	88.75
549.407	104.75
549.62	92.75
549.833	75.75
550.046	91.75
550.259	81.75
550.473	93.75
550.686	70.75
550.899	89.75
551.112	92.75
551.325	81.75
551.538	93.75
551.751	90.75
551.964	89.75
552.177	93.75
552.39	91.75
552.603	89.75
552.816	85.75
553.029	78.75
553.242	90.75
553.455	90.75
553.667	91.75
553.88	93.75
554.093	82.75
554.306	104.75
554.519	88.75
554.732	94.75
554.944	91.75
555.157	84.75
555.37	90.75
555.583	106.75
555.795	97.75
556.008	89.75
556.221	76.75
556.433	95.75
556.646	98.75
556.859	81.75
557.071	82.75
557.284	88.75
557.496	82.75
557.709	86.75
557.921	88.75
558.134	81.75
558.346	77.75
558.559	86.75
558.771	81.75
558.984	71.75
559.196	89.75
559.409	73.75
559.621	94.75
559.833	87.75
560.046	86.75
560.258	90.75
560.47	86.75
560.683	81.75
560.895	80.75
561.107	85.75
561.32	73.75
561.532	85.75
561.744	93.75
561.956	104.75
562.168	88.75
562.381	89.75
562.593	81.75
562.805	84.75
563.017	89.75
563.229	109.75
563.441	74.75
563.653	77.75
563.865	89.75
564.077	82.75
564.289	98.75
564.501	84.75
564.713	82.75
564.925	93.75
565.137	85.75
565.349	93.75
565.561	92.75
565.773	86.75
565.985	84.75
566.197	88.75
566.408	84.75
566.62	82.75
566.832	78.75
567.044	96.75
567.255	89.75
567.467	91.75
567.679	88.75
567.891	70.75
568.102	92.75
568.314	72.75
568.526	92.75
568.737	89.75
568.949	87.75
569.161	92.75
569.372	98.75
569.584	90.75
569.795	84.75
570.007	98.75
570.218	76.75
570.43	82.75
570.641	77.75
570.853	91.75
571.064	81.75
571.276	83.75
571.487	88.75
571.698	77.75
571.91	88.75
572.121	87.75
572.333	84.75
572.544	83.75
572.755	84.75
572.966	85.75
573.178	97.75
573.389	82.75
573.6	80.75
573.811	81.75
574.023	72.75
574.234	77.75
574.445	85.75
574.656	83.75
574.867	78.75
575.078	85.75
575.289	73.75
575.501	69.75
575.712	72.75
575.923	96.75
576.134	79.75
576.345	87.75
576.556	87.75
576.767	81.75
576.978	86.75
577.188	86.75
577.399	97.75
577.61	81.75
577.821	80.75
578.032	85.75
578.243	89.75
578.454	80.75
578.665	81.75
578.875	89.75
579.086	80.75
579.297	73.75
579.508	79.75
579.718	92.75
579.929	78.75
580.14	85.75
580.35	80.75
580.561	89.75
580.772	97.75
580.982	86.75
581.193	79.75
581.403	89.75
581.614	89.75
581.825	99.75
582.035	72.75
582.246	79.75
582.456	82.75
582.667	79.75
582.877	86.75
583.087	88.75
583.298	84.75
583.508	81.75
583.719	91.75
583.929	100.75
584.139	87.75
584.35	80.75
584.56	95.75
584.77	87.75
584.981	81.75
585.191	90.75
585.401	89.75
585.611	82.75
585.821	69.75
586.032	99.75
586.242	78.75
586.452	86.75
586.662	86.75
586.872	86.75
587.082	83.75
587.292	86.75
587.502	94.75
587.713	81.75
587.923	92.75
588.133	77.75
588.343	79.75
588.553	82.75
588.762	97.75
588.972	95.75
589.182	82.75
589.392	76.75
589.602	93.75
589.812	82.75
590.022	81.75
590.232	87.75
590.441	77.75
590.651	68.75
590.861	85.75
591.071	89.75
591.281	88.75
591.49	77.75
591.7	78.75
591.91	86.75
592.119	68.75
592.329	78.75
592.539	86.75
592.748	93.75
592.958	76.75
593.167	73.75
593.377	98.75
593.587	87.75
593.796	77.75
594.006	86.75
594.215	86.75
594.424	72.75
594.634	64.75
594.843	71.75
595.053	76.75
595.262	91.75
595.472	80.75
595.681	82.75
595.89	83.75
596.1	94.75
596.309	77.75
596.518	81.75
596.727	89.75
596.937	78.75
597.146	86.75
597.355	80.75
597.564	85.75
597.774	84.75
597.983	81.75
598.192	85.75
598.401	81.75
598.61	80.75
598.819	80.75
599.028	80.75
599.237	89.75
599.446	88.75
599.655	74.75
599.864	83.75
600.073	86.75
600.282	80.75
600.491	85.75
600.7	92.75
600.909	91.75
601.118	92.75
601.327	74.75
601.536	76.75
601.745	87.75
601.953	86.75
602.162	83.75
602.371	95.75
602.58	86.75
602.789	93.75
602.997	71.75
603.206	88.75
603.415	93.75
603.623	85.75
603.832	86.75
604.041	78.75
604.249	86.75
604.458	79.75
604.666	85.75
604.875	77.75
605.084	86.75
605.292	83.75
605.501	99.75
605.709	94.75
605.918	69.75
606.126	81.75
606.334	85.75
606.543	74.75
606.751	78.75
606.96	78.75
607.168	77.75
607.376	92.75
607.585	83.75
607.793	72.75
608.001	72.75
608.21	70.75
608.418	73.75
608.626	81.75
608.834	93.75
609.043	87.75
609.251	81.75
609.459	77.75
609.667	80.75
609.875	80.75
610.083	82.75
610.291	81.75
610.499	78.75
610.707	76.75
610.916	67.75
611.124	88.75
611.332	79.75
611.54	73.75
611.748	90.75
611.955	87.75
612.163	86.75
612.371	81.75
612.579	83.75
612.787	72.75
612.995	89.75
613.203	81.75
613.411	86.75
613.618	74.75
613.826	84.75
614.034	73.75
614.242	95.75
614.449	83.75
614.657	68.75
614.865	80.75
615.072	84.75
615.28	89.75
615.488	78.75
615.695	87.75
615.903	81.75
616.111	78.75
616.318	97.75
616.526	81.75
616.733	70.75
616.941	83.75
617.148	86.75
617.356	85.75
617.563	85.75
617.771	83.75
617.978	78.75
618.185	84.75
618.393	75.75
618.6	75.75
618.807	97.75
619.015	86.75
619.222	80.75
619.429	77.75
619.637	92.75
619.844	85.75
620.051	84.75
620.258	85.75
620.466	68.75
620.673	76.75
620.88	64.75
621.087	86.75
621.294	94.75
621.501	78.75
621.708	71.75
621.915	86.75
622.122	88.75
622.329	89.75
622.536	72.75
622.743	81.75
622.95	85.75
623.157	80.75
623.364	81.75
623.571	82.75
623.778	77.75
623.985	90.75
624.192	79.75
624.399	76.75
624.606	82.75
624.812	72.75
625.019	65.75
625.226	67.75
625.433	74.75
625.639	94.75
625.846	79.75
626.053	81.75
626.259	93.75
626.466	77.75
626.673	86.75
626.879	77.75
627.086	86.75
627.293	77.75
627.499	88.75
627.706	82.75
627.912	72.75
628.119	83.75
628.325	84.75
628.532	62.75
628.738	83.75
628.945	92.75
629.151	82.75
629.357	82.75
629.564	85.75
629.77	69.75
629.976	84.75
630.183	80.75
630.389	77.75
630.595	69.75
630.802	78.75
631.008	81.75
631.214	96.75
631.42	70.75
631.627	83.75
631.833	77.75
632.039	88.75
632.245	76.75
632.451	69.75
632.657	88.75
632.863	86.75
633.069	80.75
633.275	78.75
633.481	83.75
633.688	80.75
633.893	84.75
634.099	75.75
634.305	78.75
634.511	86.75
634.717	88.75
634.923	70.75
635.129	89.75
635.335	81.75
635.541	71.75
635.747	76.75
635.952	87.75
636.158	81.75
636.364	88.75
636.57	88.75
636.775	78.75
636.981	80.75
637.187	87.75
637.392	87.75
637.598	80.75
637.804	78.75
638.009	65.75
638.215	78.75
638.421	81.75
638.626	87.75
638.832	70.75
639.037	67.75
639.243	82.75
639.448	84.75
639.654	88.75
639.859	86.75
640.065	76.75
640.27	91.75
640.475	89.75
640.681	86.75
640.886	83.75
641.091	92.75
641.297	90.75
641.502	77.75
641.707	80.75
641.913	78.75
642.118	80.75
642.323	82.75
642.528	78.75
642.733	76.75
642.939	77.75
643.144	80.75
643.349	99.75
643.554	73.75
643.759	84.75
643.964	85.75
644.169	82.75
644.374	73.75
644.579	76.75
644.784	80.75
644.989	85.75
645.194	78.75
645.399	93.75
645.604	85.75
645.809	69.75
646.014	79.75
646.219	85.75
646.423	70.75
646.628	85.75
646.833	74.75
647.038	74.75
647.243	91.75
647.447	83.75
647.652	87.75
647.857	94.75
648.062	88.75
648.266	79.75
648.471	80.75
648.676	78.75
648.88	78.75
649.085	66.75
649.289	77.75
649.494	82.75
649.698	78.75
649.903	81.75
650.107	77.75
650.312	87.75
650.516	74.75
650.721	90.75
650.925	79.75
651.13	78.75
651.334	85.75
651.539	79.75
651.743	76.75
651.947	80.75
652.152	91.75
652.356	86.75
652.56	75.75
652.764	78.75
652.969	80.75
653.173	74.75
653.377	64.75
653.581	69.75
653.785	83.75
653.99	76.75
654.194	87.75
654.398	81.75
654.602	80.75
654.806	78.75
655.01	85.75
655.214	75.75
655.418	84.75
655.622	86.75
655.826	84.75
656.03	83.75
656.234	78.75
656.438	92.75
656.642	86.75
656.846	77.75
657.049	68.75
657.253	76.75
657.457	78.75
657.661	74.75
657.865	71.75
658.068	78.75
658.272	80.75
658.476	75.75
658.68	75.75
658.883	88.75
659.087	85.75
659.291	82.75
659.494	80.75
659.698	71.75
659.901	87.75
660.105	74.75
660.309	81.75
660.512	67.75
660.716	91.75
660.919	80.75
661.123	87.75
661.326	90.75
661.53	91.75
661.733	90.75
661.936	70.75
662.14	93.75
662.343	84.75
662.546	74.75
662.75	71.75
662.953	89.75
663.156	74.75
663.36	88.75
663.563	74.75
663.766	88.75
663.969	78.75
664.173	70.75
664.376	80.75
664.579	77.75
664.782	68.75
664.985	87.75
665.188	74.75
665.391	84.75
665.594	59.75
665.797	74.75
666	88.75
666.203	79.75
666.406	76.75
666.609	69.75
666.812	75.75
667.015	83.75
667.218	85.75
667.421	82.75
667.624	68.75
667.827	84.75
668.03	98.75
668.232	88.75
668.435	71.75
668.638	74.75
668.841	80.75
669.043	75.75
669.246	84.75
669.449	100.75
669.651	78.75
669.854	84.75
670.057	96.75
670.259	87.75
670.462	81.75
670.665	93.75
670.867	102.75
671.07	77.75
671.272	65.75
671.475	79.75
671.677	73.75
671.88	86.75
672.082	94.75
672.284	72.75
672.487	81.75
672.689	71.75
672.892	70.75
