Data from Ni(NO3)2@0.5M.TitratingCurve.Agarose3%dH2O.NegLispCup.LampEnergy10.LIBS07252019_HRD10591_17-58-09-564.txt Node
Date: Thu Jul 25 17:58:09 EDT 2019
User: cochatt
Spectrometer: HR+D1059
Trigger mode: 1
Integration Time (sec): 1.000000E-1
Scans to average: 1
Electric dark correction enabled: true
Nonlinearity correction enabled: false
Boxcar width: 0
XAxis mode: Wavelengths
Number of Pixels in Spectrum: 2048
>>>>>Begin Spectral Data<<<<<
223.165	-11.44
223.4	-11.44
223.635	-11.44
223.869	-21.44
224.104	-15.44
224.338	-5.44
224.573	-13.44
224.808	-19.44
225.042	-14.44
225.277	-16.44
225.511	-1.44
225.746	-0.44
225.98	-0.44
226.215	0.56
226.449	35.56
226.683	31.56
226.918	22.56
227.152	29.56
227.387	13.56
227.621	30.56
227.856	36.56
228.09	43.56
228.324	41.56
228.559	38.56
228.793	77.56
229.027	120.56
229.262	127.56
229.496	136.56
229.73	136.56
229.964	178.56
230.199	177.56
230.433	187.56
230.667	181.56
230.901	180.56
231.136	167.56
231.37	172.56
231.604	189.56
231.838	200.56
232.072	195.56
232.306	186.56
232.541	179.56
232.775	191.56
233.009	172.56
233.243	170.56
233.477	170.56
233.711	164.56
233.945	174.56
234.179	188.56
234.413	164.56
234.647	168.56
234.881	171.56
235.115	177.56
235.349	156.56
235.583	171.56
235.817	166.56
236.051	169.56
236.285	169.56
236.519	167.56
236.753	172.56
236.987	179.56
237.221	181.56
237.455	182.56
237.689	163.56
237.922	177.56
238.156	189.56
238.39	180.56
238.624	181.56
238.858	176.56
239.091	181.56
239.325	186.56
239.559	194.56
239.793	239.56
240.027	221.56
240.26	216.56
240.494	193.56
240.728	179.56
240.961	211.56
241.195	191.56
241.429	208.56
241.662	207.56
241.896	244.56
242.13	237.56
242.363	211.56
242.597	216.56
242.83	228.56
243.064	217.56
243.298	216.56
243.531	217.56
243.765	239.56
243.998	221.56
244.232	234.56
244.465	236.56
244.699	234.56
244.932	225.56
245.166	245.56
245.399	232.56
245.633	224.56
245.866	241.56
246.099	247.56
246.333	251.56
246.566	258.56
246.8	240.56
247.033	258.56
247.266	239.56
247.5	267.56
247.733	263.56
247.966	271.56
248.2	280.56
248.433	270.56
248.666	261.56
248.899	259.56
249.133	298.56
249.366	295.56
249.599	263.56
249.832	272.56
250.066	299.56
250.299	296.56
250.532	296.56
250.765	288.56
250.998	308.56
251.231	304.56
251.465	328.56
251.698	320.56
251.931	324.56
252.164	310.56
252.397	316.56
252.63	315.56
252.863	339.56
253.096	306.56
253.329	338.56
253.562	326.56
253.795	323.56
254.028	337.56
254.261	342.56
254.494	331.56
254.727	350.56
254.96	343.56
255.193	366.56
255.426	354.56
255.659	369.56
255.892	348.56
256.124	355.56
256.357	356.56
256.59	368.56
256.823	371.56
257.056	371.56
257.289	389.56
257.521	376.56
257.754	373.56
257.987	378.56
258.22	398.56
258.452	391.56
258.685	377.56
258.918	373.56
259.151	379.56
259.383	361.56
259.616	395.56
259.849	389.56
260.081	395.56
260.314	403.56
260.547	392.56
260.779	404.56
261.012	414.56
261.244	436.56
261.477	405.56
261.71	435.56
261.942	419.56
262.175	419.56
262.407	409.56
262.64	420.56
262.872	432.56
263.105	444.56
263.337	445.56
263.57	442.56
263.802	447.56
264.035	440.56
264.267	425.56
264.499	435.56
264.732	448.56
264.964	448.56
265.197	454.56
265.429	444.56
265.661	465.56
265.894	437.56
266.126	473.56
266.358	468.56
266.591	452.56
266.823	480.56
267.055	475.56
267.287	480.56
267.52	443.56
267.752	474.56
267.984	475.56
268.216	482.56
268.448	458.56
268.681	457.56
268.913	475.56
269.145	484.56
269.377	489.56
269.609	489.56
269.841	471.56
270.073	479.56
270.306	484.56
270.538	484.56
270.77	491.56
271.002	474.56
271.234	491.56
271.466	505.56
271.698	493.56
271.93	508.56
272.162	507.56
272.394	515.56
272.626	493.56
272.858	492.56
273.09	532.56
273.322	551.56
273.553	535.56
273.785	536.56
274.017	510.56
274.249	519.56
274.481	526.56
274.713	550.56
274.945	534.56
275.176	555.56
275.408	546.56
275.64	525.56
275.872	526.56
276.104	551.56
276.335	538.56
276.567	538.56
276.799	566.56
277.031	575.56
277.262	576.56
277.494	566.56
277.726	555.56
277.957	555.56
278.189	565.56
278.421	540.56
278.652	556.56
278.884	548.56
279.115	569.56
279.347	567.56
279.579	578.56
279.81	579.56
280.042	593.56
280.273	588.56
280.505	578.56
280.736	562.56
280.968	563.56
281.199	594.56
281.431	574.56
281.662	593.56
281.894	586.56
282.125	579.56
282.356	612.56
282.588	602.56
282.819	595.56
283.051	599.56
283.282	605.56
283.513	614.56
283.745	605.56
283.976	609.56
284.207	611.56
284.439	605.56
284.67	618.56
284.901	636.56
285.132	615.56
285.364	603.56
285.595	611.56
285.826	624.56
286.057	607.56
286.288	643.56
286.52	611.56
286.751	596.56
286.982	631.56
287.213	611.56
287.444	634.56
287.675	627.56
287.906	619.56
288.138	642.56
288.369	635.56
288.6	615.56
288.831	614.56
289.062	632.56
289.293	629.56
289.524	639.56
289.755	659.56
289.986	649.56
290.217	623.56
290.448	636.56
290.679	673.56
290.91	643.56
291.141	648.56
291.371	657.56
291.602	652.56
291.833	653.56
292.064	664.56
292.295	651.56
292.526	654.56
292.757	661.56
292.987	644.56
293.218	663.56
293.449	663.56
293.68	652.56
293.91	653.56
294.141	661.56
294.372	647.56
294.603	683.56
294.833	676.56
295.064	645.56
295.295	679.56
295.525	685.56
295.756	667.56
295.987	666.56
296.217	674.56
296.448	688.56
296.679	701.56
296.909	702.56
297.14	691.56
297.37	682.56
297.601	690.56
297.831	695.56
298.062	693.56
298.292	668.56
298.523	685.56
298.753	694.56
298.984	677.56
299.214	704.56
299.445	701.56
299.675	699.56
299.905	715.56
300.136	724.56
300.366	732.56
300.597	755.56
300.827	743.56
301.057	737.56
301.288	758.56
301.518	761.56
301.748	720.56
301.979	737.56
302.209	728.56
302.439	755.56
302.669	742.56
302.9	735.56
303.13	715.56
303.36	743.56
303.59	747.56
303.82	745.56
304.051	768.56
304.281	784.56
304.511	747.56
304.741	740.56
304.971	752.56
305.201	788.56
305.431	808.56
305.661	799.56
305.891	763.56
306.121	777.56
306.352	771.56
306.582	776.56
306.812	789.56
307.042	771.56
307.272	772.56
307.502	754.56
307.731	770.56
307.961	765.56
308.191	751.56
308.421	778.56
308.651	786.56
308.881	780.56
309.111	757.56
309.341	790.56
309.571	778.56
309.8	793.56
310.03	795.56
310.26	833.56
310.49	825.56
310.72	836.56
310.949	781.56
311.179	810.56
311.409	806.56
311.639	809.56
311.868	817.56
312.098	840.56
312.328	845.56
312.557	833.56
312.787	841.56
313.017	832.56
313.246	844.56
313.476	820.56
313.706	890.56
313.935	842.56
314.165	831.56
314.394	817.56
314.624	848.56
314.853	832.56
315.083	831.56
315.312	872.56
315.542	869.56
315.771	833.56
316.001	843.56
316.23	881.56
316.46	868.56
316.689	874.56
316.919	859.56
317.148	881.56
317.377	855.56
317.607	866.56
317.836	897.56
318.065	893.56
318.295	894.56
318.524	896.56
318.753	880.56
318.983	904.56
319.212	904.56
319.441	902.56
319.67	895.56
319.9	933.56
320.129	909.56
320.358	932.56
320.587	920.56
320.816	927.56
321.046	914.56
321.275	947.56
321.504	902.56
321.733	946.56
321.962	924.56
322.191	935.56
322.42	932.56
322.649	930.56
322.878	925.56
323.108	916.56
323.337	943.56
323.566	951.56
323.795	973.56
324.024	961.56
324.253	948.56
324.482	945.56
324.71	966.56
324.939	961.56
325.168	980.56
325.397	978.56
325.626	940.56
325.855	1021.56
326.084	986.56
326.313	1008.56
326.542	1014.56
326.77	1019.56
326.999	1007.56
327.228	986.56
327.457	1009.56
327.686	992.56
327.914	1016.56
328.143	1015.56
328.372	1023.56
328.6	997.56
328.829	1000.56
329.058	989.56
329.287	1038.56
329.515	1015.56
329.744	1028.56
329.972	1027.56
330.201	1053.56
330.43	1074.56
330.658	1021.56
330.887	1020.56
331.115	1056.56
331.344	1055.56
331.572	1078.56
331.801	1058.56
332.03	1090.56
332.258	1085.56
332.486	1066.56
332.715	1089.56
332.943	1093.56
333.172	1108.56
333.4	1115.56
333.629	1124.56
333.857	1113.56
334.085	1165.56
334.314	1167.56
334.542	1168.56
334.771	1177.56
334.999	1164.56
335.227	1160.56
335.455	1144.56
335.684	1167.56
335.912	1173.56
336.14	1160.56
336.369	1219.56
336.597	1221.56
336.825	1229.56
337.053	1174.56
337.281	1230.56
337.51	1188.56
337.738	1179.56
337.966	1167.56
338.194	1179.56
338.422	1168.56
338.65	1163.56
338.878	1170.56
339.106	1153.56
339.334	1183.56
339.562	1150.56
339.79	1153.56
340.018	1110.56
340.246	1137.56
340.474	1144.56
340.702	1136.56
340.93	1142.56
341.158	1152.56
341.386	1186.56
341.614	1205.56
341.842	1187.56
342.07	1127.56
342.298	1146.56
342.526	1138.56
342.754	1139.56
342.981	1111.56
343.209	1127.56
343.437	1195.56
343.665	1168.56
343.893	1183.56
344.12	1147.56
344.348	1162.56
344.576	1240.56
344.804	1209.56
345.031	1151.56
345.259	1191.56
345.487	1166.56
345.714	1180.56
345.942	1176.56
346.17	1163.56
346.397	1175.56
346.625	1123.56
346.853	1108.56
347.08	1116.56
347.308	1132.56
347.535	1137.56
347.763	1091.56
347.99	1115.56
348.218	1134.56
348.445	1101.56
348.673	1113.56
348.9	1094.56
349.128	1108.56
349.355	1169.56
349.583	1163.56
349.81	1101.56
350.037	1069.56
350.265	1067.56
350.492	1111.56
350.72	1087.56
350.947	1081.56
351.174	1137.56
351.402	1164.56
351.629	1141.56
351.856	1121.56
352.083	1120.56
352.311	1105.56
352.538	1141.56
352.765	1164.56
352.992	1091.56
353.22	1055.56
353.447	1079.56
353.674	1073.56
353.901	1065.56
354.128	1068.56
354.355	1069.56
354.583	1056.56
354.81	1043.56
355.037	1096.56
355.264	1081.56
355.491	1066.56
355.718	1083.56
355.945	1048.56
356.172	1033.56
356.399	1057.56
356.626	1076.56
356.853	1132.56
357.08	1093.56
357.307	1087.56
357.534	1069.56
357.761	1083.56
357.988	1057.56
358.215	1075.56
358.441	1072.56
358.668	1041.56
358.895	1065.56
359.122	1064.56
359.349	1056.56
359.576	1062.56
359.802	1095.56
360.029	1054.56
360.256	1063.56
360.483	1076.56
360.709	1077.56
360.936	1095.56
361.163	1100.56
361.39	1092.56
361.616	1123.56
361.843	1168.56
362.07	1186.56
362.296	1128.56
362.523	1090.56
362.749	1041.56
362.976	1095.56
363.203	1092.56
363.429	1064.56
363.656	1081.56
363.882	1095.56
364.109	1083.56
364.335	1076.56
364.562	1072.56
364.788	1092.56
365.015	1064.56
365.241	1091.56
365.468	1090.56
365.694	1100.56
365.92	1082.56
366.147	1088.56
366.373	1120.56
366.599	1076.56
366.826	1100.56
367.052	1107.56
367.278	1097.56
367.505	1141.56
367.731	1132.56
367.957	1081.56
368.184	1093.56
368.41	1120.56
368.636	1122.56
368.862	1092.56
369.089	1141.56
369.315	1122.56
369.541	1127.56
369.767	1106.56
369.993	1107.56
370.219	1110.56
370.445	1133.56
370.672	1155.56
370.898	1125.56
371.124	1131.56
371.35	1143.56
371.576	1151.56
371.802	1156.56
372.028	1129.56
372.254	1145.56
372.48	1127.56
372.706	1129.56
372.932	1175.56
373.158	1138.56
373.384	1153.56
373.61	1145.56
373.835	1132.56
374.061	1128.56
374.287	1144.56
374.513	1145.56
374.739	1207.56
374.965	1164.56
375.191	1165.56
375.416	1177.56
375.642	1132.56
375.868	1140.56
376.094	1163.56
376.319	1139.56
376.545	1091.56
376.771	1161.56
376.997	1132.56
377.222	1109.56
377.448	1111.56
377.674	1127.56
377.899	1135.56
378.125	1124.56
378.35	1131.56
378.576	1119.56
378.802	1121.56
379.027	1132.56
379.253	1129.56
379.478	1107.56
379.704	1108.56
379.929	1121.56
380.155	1140.56
380.38	1108.56
380.606	1123.56
380.831	1099.56
381.057	1122.56
381.282	1105.56
381.507	1111.56
381.733	1138.56
381.958	1143.56
382.184	1143.56
382.409	1125.56
382.634	1156.56
382.86	1138.56
383.085	1126.56
383.31	1143.56
383.535	1147.56
383.761	1141.56
383.986	1146.56
384.211	1159.56
384.436	1177.56
384.662	1200.56
384.887	1177.56
385.112	1205.56
385.337	1203.56
385.562	1207.56
385.787	1216.56
386.013	1255.56
386.238	1221.56
386.463	1245.56
386.688	1256.56
386.913	1228.56
387.138	1219.56
387.363	1221.56
387.588	1242.56
387.813	1234.56
388.038	1253.56
388.263	1218.56
388.488	1244.56
388.713	1252.56
388.938	1222.56
389.163	1211.56
389.387	1204.56
389.612	1249.56
389.837	1239.56
390.062	1263.56
390.287	1272.56
390.512	1277.56
390.736	1276.56
390.961	1261.56
391.186	1249.56
391.411	1259.56
391.636	1237.56
391.86	1292.56
392.085	1301.56
392.31	1287.56
392.534	1292.56
392.759	1281.56
392.984	1303.56
393.208	1322.56
393.433	1323.56
393.658	1282.56
393.882	1284.56
394.107	1270.56
394.331	1288.56
394.556	1285.56
394.78	1293.56
395.005	1290.56
395.229	1295.56
395.454	1316.56
395.678	1314.56
395.903	1303.56
396.127	1334.56
396.352	1332.56
396.576	1304.56
396.801	1333.56
397.025	1314.56
397.249	1301.56
397.474	1322.56
397.698	1320.56
397.922	1368.56
398.147	1340.56
398.371	1395.56
398.595	1373.56
398.82	1400.56
399.044	1431.56
399.268	1491.56
399.492	1513.56
399.717	1540.56
399.941	1547.56
400.165	1537.56
400.389	1535.56
400.613	1496.56
400.837	1467.56
401.062	1458.56
401.286	1414.56
401.51	1401.56
401.734	1411.56
401.958	1441.56
402.182	1430.56
402.406	1399.56
402.63	1411.56
402.854	1424.56
403.078	1409.56
403.302	1405.56
403.526	1412.56
403.75	1420.56
403.974	1401.56
404.198	1443.56
404.422	1412.56
404.645	1412.56
404.869	1416.56
405.093	1435.56
405.317	1465.56
405.541	1451.56
405.765	1431.56
405.988	1468.56
406.212	1455.56
406.436	1448.56
406.66	1511.56
406.883	1507.56
407.107	1515.56
407.331	1540.56
407.555	1573.56
407.778	1584.56
408.002	1535.56
408.226	1555.56
408.449	1576.56
408.673	1550.56
408.896	1530.56
409.12	1523.56
409.344	1557.56
409.567	1498.56
409.791	1501.56
410.014	1498.56
410.238	1489.56
410.461	1513.56
410.685	1481.56
410.908	1472.56
411.132	1471.56
411.355	1461.56
411.578	1472.56
411.802	1444.56
412.025	1482.56
412.249	1446.56
412.472	1480.56
412.695	1405.56
412.919	1454.56
413.142	1443.56
413.365	1416.56
413.589	1448.56
413.812	1456.56
414.035	1443.56
414.258	1403.56
414.482	1412.56
414.705	1445.56
414.928	1409.56
415.151	1416.56
415.374	1418.56
415.597	1401.56
415.821	1422.56
416.044	1395.56
416.267	1364.56
416.49	1381.56
416.713	1382.56
416.936	1364.56
417.159	1387.56
417.382	1370.56
417.605	1355.56
417.828	1352.56
418.051	1392.56
418.274	1337.56
418.497	1380.56
418.72	1389.56
418.943	1350.56
419.166	1381.56
419.389	1493.56
419.611	1429.56
419.834	1434.56
420.057	1432.56
420.28	1360.56
420.503	1371.56
420.726	1343.56
420.948	1354.56
421.171	1338.56
421.394	1365.56
421.617	1352.56
421.839	1386.56
422.062	1408.56
422.285	1329.56
422.507	1385.56
422.73	1362.56
422.953	1347.56
423.175	1384.56
423.398	1381.56
423.621	1352.56
423.843	1372.56
424.066	1372.56
424.288	1371.56
424.511	1385.56
424.733	1353.56
424.956	1355.56
425.178	1370.56
425.401	1331.56
425.623	1347.56
425.846	1357.56
426.068	1347.56
426.291	1356.56
426.513	1361.56
426.735	1327.56
426.958	1351.56
427.18	1323.56
427.402	1346.56
427.625	1367.56
427.847	1345.56
428.069	1315.56
428.292	1377.56
428.514	1341.56
428.736	1325.56
428.958	1341.56
429.181	1336.56
429.403	1307.56
429.625	1324.56
429.847	1328.56
430.069	1326.56
430.292	1362.56
430.514	1322.56
430.736	1319.56
430.958	1332.56
431.18	1357.56
431.402	1347.56
431.624	1332.56
431.846	1337.56
432.068	1307.56
432.29	1347.56
432.512	1332.56
432.734	1352.56
432.956	1324.56
433.178	1384.56
433.4	1371.56
433.622	1353.56
433.844	1385.56
434.066	1391.56
434.287	1335.56
434.509	1367.56
434.731	1367.56
434.953	1352.56
435.175	1439.56
435.397	1419.56
435.618	1387.56
435.84	1346.56
436.062	1347.56
436.284	1341.56
436.505	1366.56
436.727	1357.56
436.949	1305.56
437.17	1379.56
437.392	1345.56
437.614	1337.56
437.835	1332.56
438.057	1304.56
438.278	1324.56
438.5	1308.56
438.721	1341.56
438.943	1296.56
439.165	1274.56
439.386	1315.56
439.608	1308.56
439.829	1320.56
440.05	1354.56
440.272	1340.56
440.493	1324.56
440.715	1368.56
440.936	1376.56
441.158	1345.56
441.379	1353.56
441.6	1375.56
441.822	1378.56
442.043	1394.56
442.264	1409.56
442.486	1355.56
442.707	1395.56
442.928	1363.56
443.149	1375.56
443.371	1397.56
443.592	1434.56
443.813	1436.56
444.034	1404.56
444.255	1388.56
444.476	1385.56
444.698	1453.56
444.919	1483.56
445.14	1564.56
445.361	1460.56
445.582	1456.56
445.803	1370.56
446.024	1333.56
446.245	1366.56
446.466	1328.56
446.687	1313.56
446.908	1329.56
447.129	1322.56
447.35	1308.56
447.571	1300.56
447.792	1258.56
448.013	1260.56
448.234	1259.56
448.455	1285.56
448.675	1279.56
448.896	1232.56
449.117	1247.56
449.338	1246.56
449.559	1253.56
449.779	1237.56
450	1273.56
450.221	1226.56
450.442	1224.56
450.662	1225.56
450.883	1256.56
451.104	1287.56
451.324	1248.56
451.545	1221.56
451.766	1207.56
451.986	1228.56
452.207	1234.56
452.428	1209.56
452.648	1180.56
452.869	1233.56
453.089	1226.56
453.31	1238.56
453.53	1211.56
453.751	1211.56
453.971	1221.56
454.192	1220.56
454.412	1184.56
454.633	1201.56
454.853	1207.56
455.073	1188.56
455.294	1186.56
455.514	1228.56
455.734	1231.56
455.955	1212.56
456.175	1239.56
456.395	1219.56
456.616	1200.56
456.836	1219.56
457.056	1188.56
457.276	1188.56
457.497	1234.56
457.717	1235.56
457.937	1250.56
458.157	1235.56
458.377	1247.56
458.598	1233.56
458.818	1256.56
459.038	1263.56
459.258	1281.56
459.478	1359.56
459.698	1403.56
459.918	1425.56
460.138	1430.56
460.358	1417.56
460.578	1396.56
460.798	1457.56
461.018	1484.56
461.238	1400.56
461.458	1402.56
461.678	1367.56
461.898	1421.56
462.118	1393.56
462.338	1411.56
462.558	1483.56
462.777	1533.56
462.997	1542.56
463.217	1575.56
463.437	1593.56
463.657	1578.56
463.876	1505.56
464.096	1526.56
464.316	1465.56
464.536	1530.56
464.755	1463.56
464.975	1441.56
465.195	1428.56
465.414	1417.56
465.634	1361.56
465.854	1349.56
466.073	1311.56
466.293	1320.56
466.512	1341.56
466.732	1316.56
466.951	1301.56
467.171	1307.56
467.391	1308.56
467.61	1315.56
467.829	1311.56
468.049	1289.56
468.268	1285.56
468.488	1303.56
468.707	1319.56
468.927	1282.56
469.146	1261.56
469.365	1303.56
469.585	1308.56
469.804	1302.56
470.023	1284.56
470.243	1272.56
470.462	1320.56
470.681	1311.56
470.901	1310.56
471.12	1273.56
471.339	1305.56
471.558	1321.56
471.777	1302.56
471.997	1279.56
472.216	1305.56
472.435	1320.56
472.654	1264.56
472.873	1270.56
473.092	1299.56
473.311	1316.56
473.53	1297.56
473.749	1279.56
473.968	1257.56
474.187	1310.56
474.406	1305.56
474.625	1325.56
474.844	1311.56
475.063	1335.56
475.282	1323.56
475.501	1347.56
475.72	1334.56
475.939	1331.56
476.158	1344.56
476.377	1386.56
476.596	1351.56
476.814	1400.56
477.033	1395.56
477.252	1374.56
477.471	1431.56
477.69	1442.56
477.908	1453.56
478.127	1453.56
478.346	1458.56
478.564	1469.56
478.783	1505.56
479.002	1545.56
479.22	1573.56
479.439	1576.56
479.658	1549.56
479.876	1492.56
480.095	1512.56
480.313	1513.56
480.532	1522.56
480.751	1567.56
480.969	1520.56
481.188	1483.56
481.406	1508.56
481.624	1517.56
481.843	1537.56
482.061	1501.56
482.28	1511.56
482.498	1513.56
482.717	1546.56
482.935	1545.56
483.153	1570.56
483.372	1595.56
483.59	1601.56
483.808	1607.56
484.027	1554.56
484.245	1537.56
484.463	1523.56
484.681	1589.56
484.9	1557.56
485.118	1578.56
485.336	1584.56
485.554	1599.56
485.772	1579.56
485.99	1557.56
486.209	1583.56
486.427	1561.56
486.645	1590.56
486.863	1621.56
487.081	1566.56
487.299	1634.56
487.517	1613.56
487.735	1624.56
487.953	1615.56
488.171	1650.56
488.389	1599.56
488.607	1551.56
488.825	1593.56
489.043	1609.56
489.261	1569.56
489.479	1576.56
489.696	1599.56
489.914	1610.56
490.132	1611.56
490.35	1625.56
490.568	1647.56
490.786	1628.56
491.003	1622.56
491.221	1652.56
491.439	1655.56
491.657	1644.56
491.874	1649.56
492.092	1671.56
492.31	1687.56
492.527	1639.56
492.745	1657.56
492.963	1700.56
493.18	1687.56
493.398	1663.56
493.615	1679.56
493.833	1656.56
494.05	1649.56
494.268	1691.56
494.485	1679.56
494.703	1671.56
494.92	1719.56
495.138	1676.56
495.355	1700.56
495.573	1700.56
495.79	1701.56
496.008	1708.56
496.225	1773.56
496.442	1729.56
496.66	1769.56
496.877	1763.56
497.094	1756.56
497.312	1814.56
497.529	1825.56
497.746	1811.56
497.963	1852.56
498.181	1877.56
498.398	1923.56
498.615	1961.56
498.832	2008.56
499.049	2021.56
499.267	2097.56
499.484	2144.56
499.701	2247.56
499.918	2239.56
500.135	2379.56
500.352	2397.56
500.569	2345.56
500.786	2331.56
501.003	2337.56
501.22	2289.56
501.437	2265.56
501.654	2209.56
501.871	2143.56
502.088	2102.56
502.305	2077.56
502.522	1979.56
502.739	1982.56
502.956	1908.56
503.172	1826.56
503.389	1834.56
503.606	1811.56
503.823	1767.56
504.04	1751.56
504.256	1762.56
504.473	1727.56
504.69	1732.56
504.907	1665.56
505.123	1681.56
505.34	1639.56
505.557	1636.56
505.773	1592.56
505.99	1603.56
506.207	1562.56
506.423	1537.56
506.64	1551.56
506.856	1505.56
507.073	1531.56
507.289	1497.56
507.506	1516.56
507.722	1504.56
507.939	1481.56
508.155	1464.56
508.372	1461.56
508.588	1483.56
508.805	1465.56
509.021	1472.56
509.238	1427.56
509.454	1426.56
509.67	1405.56
509.887	1439.56
510.103	1429.56
510.319	1369.56
510.536	1408.56
510.752	1385.56
510.968	1391.56
511.184	1332.56
511.401	1391.56
511.617	1385.56
511.833	1361.56
512.049	1349.56
512.265	1344.56
512.481	1393.56
512.698	1371.56
512.914	1341.56
513.13	1363.56
513.346	1372.56
513.562	1362.56
513.778	1384.56
513.994	1371.56
514.21	1394.56
514.426	1383.56
514.642	1354.56
514.858	1346.56
515.074	1375.56
515.29	1377.56
515.506	1364.56
515.721	1392.56
515.937	1384.56
516.153	1389.56
516.369	1421.56
516.585	1445.56
516.801	1426.56
517.016	1404.56
517.232	1438.56
517.448	1441.56
517.664	1440.56
517.879	1433.56
518.095	1441.56
518.311	1431.56
518.527	1409.56
518.742	1429.56
518.958	1433.56
519.173	1380.56
519.389	1392.56
519.605	1351.56
519.82	1345.56
520.036	1351.56
520.251	1344.56
520.467	1339.56
520.682	1336.56
520.898	1320.56
521.113	1296.56
521.329	1285.56
521.544	1280.56
521.76	1299.56
521.975	1317.56
522.19	1283.56
522.406	1281.56
522.621	1268.56
522.836	1256.56
523.052	1228.56
523.267	1266.56
523.482	1261.56
523.698	1265.56
523.913	1231.56
524.128	1262.56
524.343	1262.56
524.559	1225.56
524.774	1261.56
524.989	1224.56
525.204	1261.56
525.419	1235.56
525.634	1236.56
525.849	1232.56
526.064	1247.56
526.28	1243.56
526.495	1194.56
526.71	1196.56
526.925	1190.56
527.14	1204.56
527.355	1180.56
527.57	1193.56
527.785	1215.56
527.999	1149.56
528.214	1209.56
528.429	1175.56
528.644	1225.56
528.859	1209.56
529.074	1184.56
529.289	1183.56
529.503	1216.56
529.718	1169.56
529.933	1170.56
530.148	1177.56
530.363	1159.56
530.577	1183.56
530.792	1177.56
531.007	1166.56
531.221	1190.56
531.436	1185.56
531.651	1152.56
531.865	1145.56
532.08	1163.56
532.295	1159.56
532.509	1175.56
532.724	1180.56
532.938	1152.56
533.153	1196.56
533.367	1143.56
533.582	1166.56
533.796	1151.56
534.011	1141.56
534.225	1116.56
534.44	1093.56
534.654	1132.56
534.868	1108.56
535.083	1124.56
535.297	1099.56
535.511	1129.56
535.726	1114.56
535.94	1151.56
536.154	1120.56
536.369	1115.56
536.583	1074.56
536.797	1115.56
537.011	1082.56
537.225	1091.56
537.44	1079.56
537.654	1089.56
537.868	1104.56
538.082	1075.56
538.296	1082.56
538.51	1082.56
538.724	1078.56
538.938	1093.56
539.153	1081.56
539.367	1099.56
539.581	1061.56
539.795	1092.56
540.009	1067.56
540.222	1076.56
540.436	1062.56
540.65	1049.56
540.864	1071.56
541.078	1063.56
541.292	1088.56
541.506	1066.56
541.72	1081.56
541.934	1058.56
542.147	1083.56
542.361	1048.56
542.575	1063.56
542.789	1057.56
543.002	1027.56
543.216	1058.56
543.43	1066.56
543.644	1040.56
543.857	1040.56
544.071	1026.56
544.285	1035.56
544.498	1071.56
544.712	1037.56
544.925	1055.56
545.139	1039.56
545.352	1038.56
545.566	1046.56
545.779	1039.56
545.993	1017.56
546.206	1041.56
546.42	1032.56
546.633	1050.56
546.847	1031.56
547.06	1058.56
547.274	1055.56
547.487	1053.56
547.7	1057.56
547.914	1059.56
548.127	1041.56
548.34	1041.56
548.554	1043.56
548.767	1038.56
548.98	1056.56
549.193	1004.56
549.407	1030.56
549.62	1017.56
549.833	1018.56
550.046	1031.56
550.259	991.56
550.473	1022.56
550.686	1038.56
550.899	1041.56
551.112	1029.56
551.325	995.56
551.538	1002.56
551.751	1009.56
551.964	1019.56
552.177	1038.56
552.39	992.56
552.603	1035.56
552.816	1006.56
553.029	1027.56
553.242	1016.56
553.455	1009.56
553.667	1037.56
553.88	1024.56
554.093	1012.56
554.306	999.56
554.519	991.56
554.732	1002.56
554.944	970.56
555.157	945.56
555.37	959.56
555.583	957.56
555.795	961.56
556.008	949.56
556.221	920.56
556.433	919.56
556.646	915.56
556.859	930.56
557.071	920.56
557.284	907.56
557.496	889.56
557.709	922.56
557.921	889.56
558.134	923.56
558.346	889.56
558.559	931.56
558.771	891.56
558.984	874.56
559.196	894.56
559.409	905.56
559.621	883.56
559.833	884.56
560.046	907.56
560.258	882.56
560.47	875.56
560.683	856.56
560.895	861.56
561.107	874.56
561.32	863.56
561.532	868.56
561.744	913.56
561.956	861.56
562.168	875.56
562.381	865.56
562.593	845.56
562.805	880.56
563.017	866.56
563.229	857.56
563.441	856.56
563.653	892.56
563.865	893.56
564.077	903.56
564.289	871.56
564.501	936.56
564.713	881.56
564.925	897.56
565.137	891.56
565.349	901.56
565.561	894.56
565.773	912.56
565.985	951.56
566.197	945.56
566.408	949.56
566.62	975.56
566.832	976.56
567.044	977.56
567.255	1010.56
567.467	983.56
567.679	998.56
567.891	980.56
568.102	955.56
568.314	963.56
568.526	948.56
568.737	938.56
568.949	912.56
569.161	885.56
569.372	852.56
569.584	869.56
569.795	847.56
570.007	834.56
570.218	797.56
570.43	801.56
570.641	821.56
570.853	821.56
571.064	786.56
571.276	769.56
571.487	777.56
571.698	787.56
571.91	747.56
572.121	756.56
572.333	738.56
572.544	739.56
572.755	719.56
572.966	737.56
573.178	732.56
573.389	697.56
573.6	708.56
573.811	700.56
574.023	694.56
574.234	701.56
574.445	700.56
574.656	679.56
574.867	689.56
575.078	694.56
575.289	671.56
575.501	660.56
575.712	694.56
575.923	662.56
576.134	652.56
576.345	660.56
576.556	649.56
576.767	628.56
576.978	633.56
577.188	653.56
577.399	652.56
577.61	648.56
577.821	656.56
578.032	635.56
578.243	648.56
578.454	632.56
578.665	652.56
578.875	637.56
579.086	608.56
579.297	614.56
579.508	607.56
579.718	614.56
579.929	627.56
580.14	609.56
580.35	593.56
580.561	602.56
580.772	613.56
580.982	618.56
581.193	590.56
581.403	607.56
581.614	600.56
581.825	601.56
582.035	584.56
582.246	585.56
582.456	594.56
582.667	583.56
582.877	593.56
583.087	588.56
583.298	565.56
583.508	592.56
583.719	564.56
583.929	593.56
584.139	593.56
584.35	570.56
584.56	563.56
584.77	549.56
584.981	591.56
585.191	546.56
585.401	593.56
585.611	551.56
585.821	550.56
586.032	578.56
586.242	556.56
586.452	563.56
586.662	555.56
586.872	561.56
587.082	547.56
587.292	548.56
587.502	571.56
587.713	548.56
587.923	552.56
588.133	544.56
588.343	555.56
588.553	550.56
588.762	565.56
588.972	563.56
589.182	615.56
589.392	594.56
589.602	571.56
589.812	578.56
590.022	579.56
590.232	564.56
590.441	539.56
590.651	552.56
590.861	539.56
591.071	557.56
591.281	541.56
591.49	530.56
591.7	547.56
591.91	555.56
592.119	530.56
592.329	547.56
592.539	565.56
592.748	562.56
592.958	547.56
593.167	565.56
593.377	554.56
593.587	548.56
593.796	551.56
594.006	534.56
594.215	544.56
594.424	518.56
594.634	560.56
594.843	533.56
595.053	544.56
595.262	533.56
595.472	531.56
595.681	511.56
595.89	491.56
596.1	497.56
596.309	500.56
596.518	519.56
596.727	507.56
596.937	510.56
597.146	506.56
597.355	516.56
597.564	501.56
597.774	495.56
597.983	496.56
598.192	482.56
598.401	487.56
598.61	470.56
598.819	500.56
599.028	461.56
599.237	479.56
599.446	466.56
599.655	470.56
599.864	458.56
600.073	453.56
600.282	448.56
600.491	446.56
600.7	456.56
600.909	486.56
601.118	424.56
601.327	450.56
601.536	457.56
601.745	439.56
601.953	429.56
602.162	446.56
602.371	451.56
602.58	449.56
602.789	447.56
602.997	444.56
603.206	440.56
603.415	413.56
603.623	418.56
603.832	425.56
604.041	426.56
604.249	424.56
604.458	438.56
604.666	432.56
604.875	421.56
605.084	416.56
605.292	427.56
605.501	422.56
605.709	429.56
605.918	454.56
606.126	438.56
606.334	439.56
606.543	411.56
606.751	410.56
606.96	407.56
607.168	427.56
607.376	422.56
607.585	422.56
607.793	419.56
608.001	415.56
608.21	419.56
608.418	419.56
608.626	400.56
608.834	398.56
609.043	405.56
609.251	398.56
609.459	419.56
609.667	393.56
609.875	388.56
610.083	403.56
610.291	390.56
610.499	395.56
610.707	397.56
610.916	392.56
611.124	398.56
611.332	398.56
611.54	392.56
611.748	401.56
611.955	403.56
612.163	401.56
612.371	382.56
612.579	389.56
612.787	375.56
612.995	389.56
613.203	390.56
613.411	411.56
613.618	390.56
613.826	398.56
614.034	378.56
614.242	388.56
614.449	381.56
614.657	398.56
614.865	371.56
615.072	371.56
615.28	386.56
615.488	387.56
615.695	383.56
615.903	385.56
616.111	364.56
616.318	373.56
616.526	379.56
616.733	396.56
616.941	379.56
617.148	377.56
617.356	363.56
617.563	374.56
617.771	373.56
617.978	364.56
618.185	389.56
618.393	377.56
618.6	376.56
618.807	381.56
619.015	360.56
619.222	367.56
619.429	372.56
619.637	371.56
619.844	363.56
620.051	367.56
620.258	367.56
620.466	347.56
620.673	359.56
620.88	347.56
621.087	348.56
621.294	360.56
621.501	345.56
621.708	346.56
621.915	337.56
622.122	363.56
622.329	342.56
622.536	333.56
622.743	351.56
622.95	348.56
623.157	349.56
623.364	347.56
623.571	335.56
623.778	338.56
623.985	330.56
624.192	332.56
624.399	317.56
624.606	356.56
624.812	324.56
625.019	339.56
625.226	343.56
625.433	325.56
625.639	312.56
625.846	329.56
626.053	322.56
626.259	329.56
626.466	315.56
626.673	323.56
626.879	310.56
627.086	340.56
627.293	327.56
627.499	322.56
627.706	321.56
627.912	313.56
628.119	313.56
628.325	307.56
628.532	318.56
628.738	307.56
628.945	322.56
629.151	316.56
629.357	301.56
629.564	313.56
629.77	286.56
629.976	287.56
630.183	314.56
630.389	295.56
630.595	324.56
630.802	322.56
631.008	311.56
631.214	301.56
631.42	296.56
631.627	299.56
631.833	306.56
632.039	290.56
632.245	300.56
632.451	305.56
632.657	300.56
632.863	295.56
633.069	304.56
633.275	293.56
633.481	292.56
633.688	288.56
633.893	294.56
634.099	292.56
634.305	291.56
634.511	299.56
634.717	288.56
634.923	292.56
635.129	282.56
635.335	273.56
635.541	273.56
635.747	278.56
635.952	286.56
636.158	290.56
636.364	289.56
636.57	288.56
636.775	275.56
636.981	270.56
637.187	284.56
637.392	284.56
637.598	280.56
637.804	280.56
638.009	285.56
638.215	281.56
638.421	263.56
638.626	281.56
638.832	289.56
639.037	285.56
639.243	271.56
639.448	280.56
639.654	282.56
639.859	253.56
640.065	251.56
640.27	274.56
640.475	276.56
640.681	279.56
640.886	272.56
641.091	262.56
641.297	272.56
641.502	261.56
641.707	257.56
641.913	259.56
642.118	283.56
642.323	258.56
642.528	263.56
642.733	264.56
642.939	268.56
643.144	281.56
643.349	271.56
643.554	243.56
643.759	245.56
643.964	264.56
644.169	268.56
644.374	256.56
644.579	272.56
644.784	262.56
644.989	247.56
645.194	262.56
645.399	264.56
645.604	260.56
645.809	262.56
646.014	263.56
646.219	269.56
646.423	261.56
646.628	248.56
646.833	259.56
647.038	263.56
647.243	268.56
647.447	257.56
647.652	252.56
647.857	259.56
648.062	264.56
648.266	255.56
648.471	276.56
648.676	277.56
648.88	252.56
649.085	271.56
649.289	245.56
649.494	261.56
649.698	248.56
649.903	252.56
650.107	244.56
650.312	259.56
650.516	266.56
650.721	263.56
650.925	248.56
651.13	234.56
651.334	236.56
651.539	265.56
651.743	264.56
651.947	254.56
652.152	239.56
652.356	252.56
652.56	242.56
652.764	241.56
652.969	231.56
653.173	235.56
653.377	232.56
653.581	229.56
653.785	243.56
653.99	231.56
654.194	226.56
654.398	227.56
654.602	208.56
654.806	225.56
655.01	213.56
655.214	211.56
655.418	216.56
655.622	240.56
655.826	212.56
656.03	232.56
656.234	217.56
656.438	219.56
656.642	229.56
656.846	205.56
657.049	202.56
657.253	207.56
657.457	171.56
657.661	175.56
657.865	183.56
658.068	163.56
658.272	174.56
658.476	144.56
658.68	137.56
658.883	148.56
659.087	131.56
659.291	128.56
659.494	117.56
659.698	124.56
659.901	107.56
660.105	114.56
660.309	109.56
660.512	114.56
660.716	111.56
660.919	124.56
661.123	113.56
661.326	98.56
661.53	105.56
661.733	96.56
661.936	92.56
662.14	96.56
662.343	93.56
662.546	90.56
662.75	101.56
662.953	91.56
663.156	84.56
663.36	79.56
663.563	78.56
663.766	85.56
663.969	80.56
664.173	77.56
664.376	89.56
664.579	91.56
664.782	75.56
664.985	85.56
665.188	83.56
665.391	79.56
665.594	80.56
665.797	73.56
666	79.56
666.203	84.56
666.406	79.56
666.609	83.56
666.812	80.56
667.015	73.56
667.218	87.56
667.421	83.56
667.624	77.56
667.827	69.56
668.03	76.56
668.232	72.56
668.435	71.56
668.638	65.56
668.841	73.56
669.043	84.56
669.246	89.56
669.449	81.56
669.651	77.56
669.854	76.56
670.057	72.56
670.259	85.56
670.462	78.56
670.665	81.56
670.867	75.56
671.07	87.56
671.272	75.56
671.475	78.56
671.677	77.56
671.88	79.56
672.082	75.56
672.284	80.56
672.487	98.56
672.689	83.56
672.892	90.56
