Data from Ni(NO3)2@0.0625M.TitratingCurve.Agarose3%dH2O.NegLispCup.LampEnergy10.LIBS07252019_HRD10591_18-14-11-572.txt Node
Date: Thu Jul 25 18:14:11 EDT 2019
User: cochatt
Spectrometer: HR+D1059
Trigger mode: 1
Integration Time (sec): 1.000000E-1
Scans to average: 1
Electric dark correction enabled: true
Nonlinearity correction enabled: false
Boxcar width: 0
XAxis mode: Wavelengths
Number of Pixels in Spectrum: 2048
>>>>>Begin Spectral Data<<<<<
223.165	-18.62
223.4	-18.62
223.635	-18.62
223.869	-13.62
224.104	-36.62
224.338	-7.62
224.573	-17.62
224.808	-12.62
225.042	-9.62
225.277	2.38
225.511	-3.62
225.746	6.38
225.98	19.38
226.215	11.38
226.449	19.38
226.683	12.38
226.918	16.38
227.152	32.38
227.387	35.38
227.621	30.38
227.856	44.38
228.09	43.38
228.324	55.38
228.559	71.38
228.793	69.38
229.027	108.38
229.262	88.38
229.496	102.38
229.73	96.38
229.964	105.38
230.199	116.38
230.433	118.38
230.667	101.38
230.901	121.38
231.136	114.38
231.37	98.38
231.604	105.38
231.838	120.38
232.072	125.38
232.306	123.38
232.541	124.38
232.775	126.38
233.009	114.38
233.243	112.38
233.477	127.38
233.711	130.38
233.945	124.38
234.179	129.38
234.413	122.38
234.647	115.38
234.881	118.38
235.115	114.38
235.349	132.38
235.583	132.38
235.817	112.38
236.051	126.38
236.285	133.38
236.519	130.38
236.753	122.38
236.987	126.38
237.221	116.38
237.455	131.38
237.689	134.38
237.922	118.38
238.156	134.38
238.39	135.38
238.624	138.38
238.858	122.38
239.091	135.38
239.325	135.38
239.559	122.38
239.793	132.38
240.027	155.38
240.26	148.38
240.494	144.38
240.728	133.38
240.961	143.38
241.195	154.38
241.429	142.38
241.662	139.38
241.896	162.38
242.13	151.38
242.363	142.38
242.597	146.38
242.83	145.38
243.064	152.38
243.298	143.38
243.531	157.38
243.765	132.38
243.998	152.38
244.232	154.38
244.465	140.38
244.699	160.38
244.932	158.38
245.166	153.38
245.399	165.38
245.633	145.38
245.866	178.38
246.099	156.38
246.333	166.38
246.566	159.38
246.8	158.38
247.033	173.38
247.266	174.38
247.5	168.38
247.733	164.38
247.966	178.38
248.2	175.38
248.433	174.38
248.666	182.38
248.899	192.38
249.133	187.38
249.366	182.38
249.599	189.38
249.832	174.38
250.066	174.38
250.299	170.38
250.532	173.38
250.765	183.38
250.998	161.38
251.231	190.38
251.465	190.38
251.698	181.38
251.931	199.38
252.164	202.38
252.397	204.38
252.63	200.38
252.863	184.38
253.096	214.38
253.329	202.38
253.562	192.38
253.795	196.38
254.028	188.38
254.261	187.38
254.494	205.38
254.727	203.38
254.96	191.38
255.193	195.38
255.426	208.38
255.659	193.38
255.892	213.38
256.124	198.38
256.357	207.38
256.59	224.38
256.823	197.38
257.056	212.38
257.289	219.38
257.521	221.38
257.754	216.38
257.987	219.38
258.22	213.38
258.452	223.38
258.685	214.38
258.918	207.38
259.151	214.38
259.383	201.38
259.616	232.38
259.849	228.38
260.081	210.38
260.314	223.38
260.547	219.38
260.779	226.38
261.012	215.38
261.244	228.38
261.477	215.38
261.71	245.38
261.942	239.38
262.175	226.38
262.407	230.38
262.64	221.38
262.872	223.38
263.105	229.38
263.337	239.38
263.57	235.38
263.802	255.38
264.035	246.38
264.267	233.38
264.499	240.38
264.732	244.38
264.964	245.38
265.197	254.38
265.429	264.38
265.661	248.38
265.894	253.38
266.126	254.38
266.358	253.38
266.591	239.38
266.823	255.38
267.055	256.38
267.287	255.38
267.52	229.38
267.752	252.38
267.984	248.38
268.216	268.38
268.448	243.38
268.681	254.38
268.913	258.38
269.145	274.38
269.377	257.38
269.609	271.38
269.841	266.38
270.073	257.38
270.306	270.38
270.538	258.38
270.77	248.38
271.002	263.38
271.234	274.38
271.466	242.38
271.698	267.38
271.93	268.38
272.162	261.38
272.394	258.38
272.626	265.38
272.858	271.38
273.09	263.38
273.322	259.38
273.553	270.38
273.785	272.38
274.017	278.38
274.249	274.38
274.481	275.38
274.713	277.38
274.945	285.38
275.176	273.38
275.408	279.38
275.64	303.38
275.872	285.38
276.104	297.38
276.335	299.38
276.567	290.38
276.799	296.38
277.031	298.38
277.262	282.38
277.494	291.38
277.726	297.38
277.957	292.38
278.189	267.38
278.421	302.38
278.652	286.38
278.884	295.38
279.115	324.38
279.347	314.38
279.579	301.38
279.81	299.38
280.042	313.38
280.273	299.38
280.505	338.38
280.736	319.38
280.968	307.38
281.199	309.38
281.431	314.38
281.662	300.38
281.894	319.38
282.125	293.38
282.356	311.38
282.588	311.38
282.819	314.38
283.051	320.38
283.282	311.38
283.513	323.38
283.745	351.38
283.976	324.38
284.207	332.38
284.439	310.38
284.67	327.38
284.901	328.38
285.132	318.38
285.364	331.38
285.595	313.38
285.826	330.38
286.057	348.38
286.288	345.38
286.52	328.38
286.751	325.38
286.982	327.38
287.213	337.38
287.444	344.38
287.675	333.38
287.906	350.38
288.138	346.38
288.369	349.38
288.6	345.38
288.831	344.38
289.062	354.38
289.293	350.38
289.524	347.38
289.755	368.38
289.986	338.38
290.217	345.38
290.448	334.38
290.679	342.38
290.91	342.38
291.141	360.38
291.371	360.38
291.602	347.38
291.833	366.38
292.064	350.38
292.295	348.38
292.526	346.38
292.757	364.38
292.987	349.38
293.218	348.38
293.449	372.38
293.68	348.38
293.91	346.38
294.141	356.38
294.372	351.38
294.603	372.38
294.833	363.38
295.064	347.38
295.295	371.38
295.525	368.38
295.756	381.38
295.987	371.38
296.217	383.38
296.448	370.38
296.679	358.38
296.909	367.38
297.14	373.38
297.37	386.38
297.601	398.38
297.831	375.38
298.062	376.38
298.292	382.38
298.523	391.38
298.753	386.38
298.984	392.38
299.214	383.38
299.445	396.38
299.675	396.38
299.905	404.38
300.136	383.38
300.366	388.38
300.597	412.38
300.827	410.38
301.057	398.38
301.288	421.38
301.518	412.38
301.748	416.38
301.979	398.38
302.209	408.38
302.439	400.38
302.669	400.38
302.9	386.38
303.13	406.38
303.36	392.38
303.59	411.38
303.82	404.38
304.051	392.38
304.281	399.38
304.511	399.38
304.741	393.38
304.971	391.38
305.201	415.38
305.431	387.38
305.661	409.38
305.891	394.38
306.121	405.38
306.352	415.38
306.582	418.38
306.812	379.38
307.042	396.38
307.272	395.38
307.502	380.38
307.731	395.38
307.961	395.38
308.191	413.38
308.421	396.38
308.651	408.38
308.881	396.38
309.111	389.38
309.341	404.38
309.571	382.38
309.8	382.38
310.03	388.38
310.26	389.38
310.49	384.38
310.72	398.38
310.949	393.38
311.179	400.38
311.409	397.38
311.639	400.38
311.868	392.38
312.098	411.38
312.328	396.38
312.557	427.38
312.787	407.38
313.017	423.38
313.246	416.38
313.476	416.38
313.706	421.38
313.935	410.38
314.165	420.38
314.394	421.38
314.624	416.38
314.853	424.38
315.083	405.38
315.312	424.38
315.542	411.38
315.771	396.38
316.001	421.38
316.23	427.38
316.46	412.38
316.689	392.38
316.919	412.38
317.148	407.38
317.377	412.38
317.607	424.38
317.836	405.38
318.065	419.38
318.295	400.38
318.524	397.38
318.753	400.38
318.983	405.38
319.212	410.38
319.441	416.38
319.67	423.38
319.9	411.38
320.129	424.38
320.358	401.38
320.587	400.38
320.816	431.38
321.046	419.38
321.275	428.38
321.504	422.38
321.733	411.38
321.962	429.38
322.191	425.38
322.42	409.38
322.649	409.38
322.878	407.38
323.108	408.38
323.337	423.38
323.566	413.38
323.795	420.38
324.024	426.38
324.253	438.38
324.482	447.38
324.71	436.38
324.939	418.38
325.168	424.38
325.397	416.38
325.626	445.38
325.855	437.38
326.084	460.38
326.313	458.38
326.542	454.38
326.77	468.38
326.999	437.38
327.228	424.38
327.457	438.38
327.686	436.38
327.914	452.38
328.143	444.38
328.372	453.38
328.6	454.38
328.829	443.38
329.058	448.38
329.287	448.38
329.515	453.38
329.744	451.38
329.972	426.38
330.201	459.38
330.43	462.38
330.658	451.38
330.887	462.38
331.115	459.38
331.344	448.38
331.572	484.38
331.801	486.38
332.03	501.38
332.258	526.38
332.486	534.38
332.715	527.38
332.943	550.38
333.172	579.38
333.4	595.38
333.629	627.38
333.857	623.38
334.085	603.38
334.314	597.38
334.542	580.38
334.771	572.38
334.999	550.38
335.227	551.38
335.455	538.38
335.684	556.38
335.912	555.38
336.14	538.38
336.369	527.38
336.597	560.38
336.825	523.38
337.053	550.38
337.281	512.38
337.51	522.38
337.738	530.38
337.966	505.38
338.194	500.38
338.422	493.38
338.65	492.38
338.878	488.38
339.106	480.38
339.334	507.38
339.562	475.38
339.79	461.38
340.018	481.38
340.246	482.38
340.474	465.38
340.702	464.38
340.93	475.38
341.158	474.38
341.386	483.38
341.614	491.38
341.842	495.38
342.07	450.38
342.298	479.38
342.526	457.38
342.754	461.38
342.981	471.38
343.209	478.38
343.437	504.38
343.665	525.38
343.893	577.38
344.12	613.38
344.348	590.38
344.576	546.38
344.804	526.38
345.031	493.38
345.259	480.38
345.487	492.38
345.714	471.38
345.942	479.38
346.17	493.38
346.397	494.38
346.625	465.38
346.853	467.38
347.08	461.38
347.308	486.38
347.535	467.38
347.763	493.38
347.99	490.38
348.218	463.38
348.445	478.38
348.673	457.38
348.9	472.38
349.128	487.38
349.355	490.38
349.583	446.38
349.81	453.38
350.037	441.38
350.265	459.38
350.492	463.38
350.72	460.38
350.947	468.38
351.174	456.38
351.402	451.38
351.629	462.38
351.856	461.38
352.083	453.38
352.311	455.38
352.538	448.38
352.765	443.38
352.992	449.38
353.22	458.38
353.447	440.38
353.674	444.38
353.901	452.38
354.128	442.38
354.355	456.38
354.583	430.38
354.81	444.38
355.037	450.38
355.264	431.38
355.491	462.38
355.718	452.38
355.945	437.38
356.172	457.38
356.399	474.38
356.626	459.38
356.853	445.38
357.08	437.38
357.307	451.38
357.534	452.38
357.761	431.38
357.988	451.38
358.215	442.38
358.441	442.38
358.668	438.38
358.895	435.38
359.122	450.38
359.349	448.38
359.576	440.38
359.802	456.38
360.029	447.38
360.256	454.38
360.483	423.38
360.709	442.38
360.936	450.38
361.163	463.38
361.39	460.38
361.616	465.38
361.843	468.38
362.07	460.38
362.296	457.38
362.523	473.38
362.749	434.38
362.976	442.38
363.203	466.38
363.429	435.38
363.656	445.38
363.882	443.38
364.109	426.38
364.335	457.38
364.562	441.38
364.788	451.38
365.015	454.38
365.241	431.38
365.468	433.38
365.694	444.38
365.92	447.38
366.147	431.38
366.373	441.38
366.599	442.38
366.826	467.38
367.052	461.38
367.278	461.38
367.505	430.38
367.731	432.38
367.957	465.38
368.184	440.38
368.41	460.38
368.636	459.38
368.862	464.38
369.089	470.38
369.315	472.38
369.541	438.38
369.767	464.38
369.993	463.38
370.219	468.38
370.445	484.38
370.672	472.38
370.898	494.38
371.124	475.38
371.35	484.38
371.576	491.38
371.802	498.38
372.028	478.38
372.254	474.38
372.48	476.38
372.706	484.38
372.932	516.38
373.158	501.38
373.384	477.38
373.61	486.38
373.835	483.38
374.061	470.38
374.287	500.38
374.513	490.38
374.739	524.38
374.965	565.38
375.191	544.38
375.416	536.38
375.642	515.38
375.868	527.38
376.094	504.38
376.319	511.38
376.545	508.38
376.771	483.38
376.997	504.38
377.222	496.38
377.448	500.38
377.674	498.38
377.899	481.38
378.125	496.38
378.35	479.38
378.576	482.38
378.802	486.38
379.027	475.38
379.253	471.38
379.478	464.38
379.704	495.38
379.929	501.38
380.155	472.38
380.38	495.38
380.606	472.38
380.831	481.38
381.057	481.38
381.282	491.38
381.507	478.38
381.733	499.38
381.958	495.38
382.184	481.38
382.409	503.38
382.634	501.38
382.86	507.38
383.085	503.38
383.31	517.38
383.535	546.38
383.761	532.38
383.986	555.38
384.211	566.38
384.436	575.38
384.662	590.38
384.887	571.38
385.112	582.38
385.337	604.38
385.562	581.38
385.787	579.38
386.013	572.38
386.238	577.38
386.463	574.38
386.688	569.38
386.913	575.38
387.138	556.38
387.363	574.38
387.588	557.38
387.813	572.38
388.038	568.38
388.263	563.38
388.488	594.38
388.713	578.38
388.938	580.38
389.163	560.38
389.387	559.38
389.612	560.38
389.837	569.38
390.062	554.38
390.287	578.38
390.512	551.38
390.736	570.38
390.961	603.38
391.186	567.38
391.411	616.38
391.636	621.38
391.86	627.38
392.085	634.38
392.31	646.38
392.534	623.38
392.759	619.38
392.984	580.38
393.208	600.38
393.433	602.38
393.658	595.38
393.882	615.38
394.107	622.38
394.331	618.38
394.556	606.38
394.78	627.38
395.005	622.38
395.229	619.38
395.454	642.38
395.678	652.38
395.903	661.38
396.127	615.38
396.352	616.38
396.576	583.38
396.801	613.38
397.025	630.38
397.249	656.38
397.474	652.38
397.698	665.38
397.922	648.38
398.147	622.38
398.371	648.38
398.595	670.38
398.82	693.38
399.044	750.38
399.268	822.38
399.492	952.38
399.717	1074.38
399.941	1076.38
400.165	931.38
400.389	839.38
400.613	780.38
400.837	751.38
401.062	732.38
401.286	695.38
401.51	699.38
401.734	731.38
401.958	743.38
402.182	746.38
402.406	735.38
402.63	743.38
402.854	774.38
403.078	802.38
403.302	789.38
403.526	807.38
403.75	834.38
403.974	815.38
404.198	848.38
404.422	861.38
404.645	838.38
404.869	824.38
405.093	829.38
405.317	783.38
405.541	776.38
405.765	799.38
405.988	787.38
406.212	780.38
406.436	788.38
406.66	792.38
406.883	827.38
407.107	856.38
407.331	907.38
407.555	923.38
407.778	925.38
408.002	891.38
408.226	862.38
408.449	853.38
408.673	835.38
408.896	802.38
409.12	809.38
409.344	843.38
409.567	830.38
409.791	830.38
410.014	835.38
410.238	820.38
410.461	796.38
410.685	807.38
410.908	774.38
411.132	806.38
411.355	750.38
411.578	744.38
411.802	748.38
412.025	762.38
412.249	771.38
412.472	754.38
412.695	749.38
412.919	696.38
413.142	736.38
413.365	693.38
413.589	727.38
413.812	697.38
414.035	708.38
414.258	736.38
414.482	712.38
414.705	738.38
414.928	764.38
415.151	714.38
415.374	733.38
415.597	734.38
415.821	728.38
416.044	714.38
416.267	690.38
416.49	688.38
416.713	680.38
416.936	715.38
417.159	724.38
417.382	737.38
417.605	694.38
417.828	713.38
418.051	732.38
418.274	735.38
418.497	735.38
418.72	738.38
418.943	720.38
419.166	783.38
419.389	849.38
419.611	778.38
419.834	770.38
420.057	764.38
420.28	715.38
420.503	688.38
420.726	696.38
420.948	722.38
421.171	719.38
421.394	715.38
421.617	696.38
421.839	696.38
422.062	712.38
422.285	687.38
422.507	711.38
422.73	729.38
422.953	734.38
423.175	738.38
423.398	756.38
423.621	749.38
423.843	771.38
424.066	772.38
424.288	754.38
424.511	717.38
424.733	730.38
424.956	725.38
425.178	718.38
425.401	724.38
425.623	717.38
425.846	692.38
426.068	688.38
426.291	693.38
426.513	682.38
426.735	674.38
426.958	664.38
427.18	657.38
427.402	662.38
427.625	638.38
427.847	646.38
428.069	617.38
428.292	629.38
428.514	638.38
428.736	634.38
428.958	636.38
429.181	639.38
429.403	623.38
429.625	599.38
429.847	611.38
430.069	620.38
430.292	628.38
430.514	630.38
430.736	619.38
430.958	628.38
431.18	630.38
431.402	628.38
431.624	629.38
431.846	630.38
432.068	685.38
432.29	661.38
432.512	635.38
432.734	652.38
432.956	642.38
433.178	646.38
433.4	654.38
433.622	653.38
433.844	641.38
434.066	666.38
434.287	655.38
434.509	691.38
434.731	690.38
434.953	711.38
435.175	751.38
435.397	736.38
435.618	692.38
435.84	684.38
436.062	673.38
436.284	653.38
436.505	636.38
436.727	656.38
436.949	647.38
437.17	672.38
437.392	643.38
437.614	627.38
437.835	609.38
438.057	617.38
438.278	647.38
438.5	626.38
438.721	629.38
438.943	649.38
439.165	631.38
439.386	626.38
439.608	639.38
439.829	640.38
440.05	635.38
440.272	663.38
440.493	654.38
440.715	660.38
440.936	674.38
441.158	688.38
441.379	724.38
441.6	734.38
441.822	716.38
442.043	734.38
442.264	697.38
442.486	693.38
442.707	696.38
442.928	706.38
443.149	710.38
443.371	707.38
443.592	710.38
443.813	712.38
444.034	739.38
444.255	794.38
444.476	791.38
444.698	837.38
444.919	884.38
445.14	918.38
445.361	835.38
445.582	726.38
445.803	687.38
446.024	690.38
446.245	664.38
446.466	662.38
446.687	670.38
446.908	644.38
447.129	636.38
447.35	650.38
447.571	629.38
447.792	618.38
448.013	652.38
448.234	609.38
448.455	630.38
448.675	611.38
448.896	607.38
449.117	564.38
449.338	578.38
449.559	615.38
449.779	590.38
450	582.38
450.221	577.38
450.442	593.38
450.662	601.38
450.883	598.38
451.104	630.38
451.324	633.38
451.545	636.38
451.766	608.38
451.986	601.38
452.207	603.38
452.428	608.38
452.648	616.38
452.869	579.38
453.089	593.38
453.31	584.38
453.53	607.38
453.751	586.38
453.971	594.38
454.192	583.38
454.412	590.38
454.633	578.38
454.853	555.38
455.073	567.38
455.294	556.38
455.514	603.38
455.734	568.38
455.955	563.38
456.175	579.38
456.395	574.38
456.616	566.38
456.836	563.38
457.056	601.38
457.276	565.38
457.497	598.38
457.717	569.38
457.937	593.38
458.157	583.38
458.377	598.38
458.598	595.38
458.818	621.38
459.038	600.38
459.258	638.38
459.478	655.38
459.698	669.38
459.918	676.38
460.138	707.38
460.358	744.38
460.578	780.38
460.798	786.38
461.018	771.38
461.238	749.38
461.458	757.38
461.678	748.38
461.898	756.38
462.118	796.38
462.338	801.38
462.558	820.38
462.777	859.38
462.997	933.38
463.217	1036.38
463.437	1032.38
463.657	974.38
463.876	902.38
464.096	909.38
464.316	902.38
464.536	920.38
464.755	858.38
464.975	815.38
465.195	818.38
465.414	749.38
465.634	714.38
465.854	693.38
466.073	666.38
466.293	662.38
466.512	670.38
466.732	654.38
466.951	622.38
467.171	620.38
467.391	639.38
467.61	631.38
467.829	623.38
468.049	622.38
468.268	599.38
468.488	607.38
468.707	615.38
468.927	614.38
469.146	579.38
469.365	590.38
469.585	610.38
469.804	653.38
470.023	643.38
470.243	646.38
470.462	649.38
470.681	647.38
470.901	648.38
471.12	634.38
471.339	634.38
471.558	639.38
471.777	628.38
471.997	611.38
472.216	604.38
472.435	620.38
472.654	607.38
472.873	595.38
473.092	603.38
473.311	596.38
473.53	573.38
473.749	597.38
473.968	582.38
474.187	579.38
474.406	567.38
474.625	571.38
474.844	574.38
475.063	587.38
475.282	599.38
475.501	632.38
475.72	592.38
475.939	621.38
476.158	620.38
476.377	611.38
476.596	623.38
476.814	638.38
477.033	636.38
477.252	648.38
477.471	632.38
477.69	666.38
477.908	688.38
478.127	704.38
478.346	702.38
478.564	699.38
478.783	716.38
479.002	714.38
479.22	733.38
479.439	736.38
479.658	726.38
479.876	728.38
480.095	724.38
480.313	763.38
480.532	814.38
480.751	794.38
480.969	756.38
481.188	703.38
481.406	718.38
481.624	686.38
481.843	695.38
482.061	694.38
482.28	680.38
482.498	678.38
482.717	652.38
482.935	643.38
483.153	667.38
483.372	710.38
483.59	659.38
483.808	671.38
484.027	668.38
484.245	696.38
484.463	684.38
484.681	699.38
484.9	703.38
485.118	721.38
485.336	702.38
485.554	730.38
485.772	725.38
485.99	730.38
486.209	735.38
486.427	734.38
486.645	720.38
486.863	737.38
487.081	686.38
487.299	716.38
487.517	713.38
487.735	692.38
487.953	700.38
488.171	712.38
488.389	715.38
488.607	700.38
488.825	702.38
489.043	700.38
489.261	698.38
489.479	709.38
489.696	716.38
489.914	708.38
490.132	724.38
490.35	730.38
490.568	705.38
490.786	719.38
491.003	717.38
491.221	707.38
491.439	700.38
491.657	733.38
491.874	725.38
492.092	726.38
492.31	737.38
492.527	720.38
492.745	731.38
492.963	734.38
493.18	762.38
493.398	722.38
493.615	735.38
493.833	714.38
494.05	767.38
494.268	734.38
494.485	758.38
494.703	747.38
494.92	746.38
495.138	730.38
495.355	750.38
495.573	772.38
495.79	731.38
496.008	779.38
496.225	759.38
496.442	778.38
496.66	790.38
496.877	791.38
497.094	784.38
497.312	784.38
497.529	815.38
497.746	835.38
497.963	853.38
498.181	882.38
498.398	938.38
498.615	964.38
498.832	1024.38
499.049	1090.38
499.267	1183.38
499.484	1293.38
499.701	1434.38
499.918	1591.38
500.135	1806.38
500.352	2081.38
500.569	2205.38
500.786	2198.38
501.003	2032.38
501.22	1806.38
501.437	1578.38
501.654	1371.38
501.871	1256.38
502.088	1135.38
502.305	1065.38
502.522	1022.38
502.739	1003.38
502.956	965.38
503.172	902.38
503.389	880.38
503.606	857.38
503.823	823.38
504.04	824.38
504.256	840.38
504.473	866.38
504.69	893.38
504.907	886.38
505.123	804.38
505.34	770.38
505.557	737.38
505.773	724.38
505.99	716.38
506.207	706.38
506.423	664.38
506.64	684.38
506.856	660.38
507.073	666.38
507.289	645.38
507.506	668.38
507.722	658.38
507.939	672.38
508.155	632.38
508.372	661.38
508.588	637.38
508.805	622.38
509.021	633.38
509.238	636.38
509.454	596.38
509.67	622.38
509.887	603.38
510.103	630.38
510.319	607.38
510.536	594.38
510.752	598.38
510.968	606.38
511.184	580.38
511.401	596.38
511.617	616.38
511.833	627.38
512.049	616.38
512.265	602.38
512.481	603.38
512.698	599.38
512.914	598.38
513.13	611.38
513.346	580.38
513.562	610.38
513.778	608.38
513.994	610.38
514.21	628.38
514.426	607.38
514.642	610.38
514.858	632.38
515.074	633.38
515.29	610.38
515.506	633.38
515.721	612.38
515.937	653.38
516.153	648.38
516.369	660.38
516.585	696.38
516.801	709.38
517.016	704.38
517.232	767.38
517.448	834.38
517.664	868.38
517.879	839.38
518.095	835.38
518.311	814.38
518.527	819.38
518.742	756.38
518.958	715.38
519.173	713.38
519.389	669.38
519.605	658.38
519.82	631.38
520.036	640.38
520.251	621.38
520.467	631.38
520.682	634.38
520.898	612.38
521.113	617.38
521.329	606.38
521.544	582.38
521.76	576.38
521.975	581.38
522.19	592.38
522.406	579.38
522.621	571.38
522.836	572.38
523.052	575.38
523.267	588.38
523.482	552.38
523.698	551.38
523.913	553.38
524.128	580.38
524.343	568.38
524.559	563.38
524.774	561.38
524.989	566.38
525.204	580.38
525.419	542.38
525.634	572.38
525.849	576.38
526.064	568.38
526.28	568.38
526.495	577.38
526.71	570.38
526.925	543.38
527.14	540.38
527.355	556.38
527.57	554.38
527.785	549.38
527.999	574.38
528.214	554.38
528.429	577.38
528.644	572.38
528.859	562.38
529.074	559.38
529.289	546.38
529.503	570.38
529.718	583.38
529.933	547.38
530.148	581.38
530.363	550.38
530.577	574.38
530.792	551.38
531.007	557.38
531.221	557.38
531.436	563.38
531.651	558.38
531.865	574.38
532.08	555.38
532.295	560.38
532.509	535.38
532.724	546.38
532.938	575.38
533.153	568.38
533.367	557.38
533.582	575.38
533.796	550.38
534.011	544.38
534.225	551.38
534.44	571.38
534.654	565.38
534.868	554.38
535.083	556.38
535.297	546.38
535.511	556.38
535.726	534.38
535.94	565.38
536.154	523.38
536.369	518.38
536.583	550.38
536.797	541.38
537.011	512.38
537.225	524.38
537.44	508.38
537.654	528.38
537.868	520.38
538.082	508.38
538.296	515.38
538.51	508.38
538.724	515.38
538.938	509.38
539.153	514.38
539.367	495.38
539.581	517.38
539.795	512.38
540.009	503.38
540.222	516.38
540.436	515.38
540.65	486.38
540.864	503.38
541.078	518.38
541.292	491.38
541.506	488.38
541.72	520.38
541.934	486.38
542.147	484.38
542.361	524.38
542.575	516.38
542.789	479.38
543.002	491.38
543.216	503.38
543.43	491.38
543.644	478.38
543.857	485.38
544.071	472.38
544.285	487.38
544.498	475.38
544.712	490.38
544.925	503.38
545.139	508.38
545.352	514.38
545.566	516.38
545.779	515.38
545.993	511.38
546.206	494.38
546.42	515.38
546.633	494.38
546.847	522.38
547.06	528.38
547.274	517.38
547.487	511.38
547.7	529.38
547.914	509.38
548.127	492.38
548.34	509.38
548.554	510.38
548.767	515.38
548.98	523.38
549.193	504.38
549.407	528.38
549.62	531.38
549.833	525.38
550.046	501.38
550.259	500.38
550.473	493.38
550.686	516.38
550.899	506.38
551.112	503.38
551.325	495.38
551.538	510.38
551.751	494.38
551.964	521.38
552.177	517.38
552.39	527.38
552.603	549.38
552.816	527.38
553.029	573.38
553.242	547.38
553.455	570.38
553.667	574.38
553.88	573.38
554.093	539.38
554.306	535.38
554.519	518.38
554.732	532.38
554.944	509.38
555.157	492.38
555.37	493.38
555.583	491.38
555.795	487.38
556.008	471.38
556.221	452.38
556.433	457.38
556.646	481.38
556.859	445.38
557.071	453.38
557.284	440.38
557.496	464.38
557.709	438.38
557.921	444.38
558.134	443.38
558.346	443.38
558.559	432.38
558.771	423.38
558.984	436.38
559.196	426.38
559.409	421.38
559.621	435.38
559.833	414.38
560.046	434.38
560.258	421.38
560.47	418.38
560.683	428.38
560.895	421.38
561.107	413.38
561.32	425.38
561.532	414.38
561.744	426.38
561.956	430.38
562.168	428.38
562.381	435.38
562.593	424.38
562.805	432.38
563.017	429.38
563.229	447.38
563.441	414.38
563.653	428.38
563.865	431.38
564.077	427.38
564.289	431.38
564.501	442.38
564.713	448.38
564.925	448.38
565.137	463.38
565.349	453.38
565.561	490.38
565.773	488.38
565.985	514.38
566.197	522.38
566.408	581.38
566.62	613.38
566.832	658.38
567.044	700.38
567.255	677.38
567.467	706.38
567.679	738.38
567.891	791.38
568.102	831.38
568.314	799.38
568.526	709.38
568.737	631.38
568.949	584.38
569.161	528.38
569.372	502.38
569.584	485.38
569.795	447.38
570.007	445.38
570.218	445.38
570.43	451.38
570.641	428.38
570.853	438.38
571.064	454.38
571.276	443.38
571.487	442.38
571.698	441.38
571.91	404.38
572.121	420.38
572.333	399.38
572.544	396.38
572.755	402.38
572.966	392.38
573.178	387.38
573.389	370.38
573.6	371.38
573.811	374.38
574.023	382.38
574.234	381.38
574.445	364.38
574.656	351.38
574.867	365.38
575.078	374.38
575.289	359.38
575.501	376.38
575.712	372.38
575.923	364.38
576.134	340.38
576.345	351.38
576.556	371.38
576.767	366.38
576.978	357.38
577.188	359.38
577.399	340.38
577.61	343.38
577.821	332.38
578.032	316.38
578.243	324.38
578.454	320.38
578.665	322.38
578.875	336.38
579.086	327.38
579.297	317.38
579.508	336.38
579.718	325.38
579.929	331.38
580.14	324.38
580.35	316.38
580.561	322.38
580.772	322.38
580.982	332.38
581.193	316.38
581.403	322.38
581.614	317.38
581.825	328.38
582.035	312.38
582.246	334.38
582.456	308.38
582.667	308.38
582.877	317.38
583.087	329.38
583.298	309.38
583.508	300.38
583.719	301.38
583.929	296.38
584.139	298.38
584.35	294.38
584.56	307.38
584.77	309.38
584.981	299.38
585.191	307.38
585.401	306.38
585.611	310.38
585.821	303.38
586.032	312.38
586.242	290.38
586.452	313.38
586.662	286.38
586.872	310.38
587.082	292.38
587.292	290.38
587.502	295.38
587.713	286.38
587.923	288.38
588.133	323.38
588.343	310.38
588.553	286.38
588.762	307.38
588.972	296.38
589.182	299.38
589.392	298.38
589.602	290.38
589.812	297.38
590.022	297.38
590.232	306.38
590.441	296.38
590.651	276.38
590.861	289.38
591.071	306.38
591.281	296.38
591.49	288.38
591.7	308.38
591.91	309.38
592.119	303.38
592.329	341.38
592.539	324.38
592.748	337.38
592.958	358.38
593.167	354.38
593.377	375.38
593.587	375.38
593.796	365.38
594.006	366.38
594.215	367.38
594.424	379.38
594.634	372.38
594.843	348.38
595.053	336.38
595.262	304.38
595.472	310.38
595.681	312.38
595.89	310.38
596.1	301.38
596.309	294.38
596.518	279.38
596.727	288.38
596.937	291.38
597.146	278.38
597.355	293.38
597.564	277.38
597.774	264.38
597.983	258.38
598.192	271.38
598.401	270.38
598.61	272.38
598.819	267.38
599.028	263.38
599.237	253.38
599.446	256.38
599.655	251.38
599.864	263.38
600.073	268.38
600.282	263.38
600.491	235.38
600.7	268.38
600.909	259.38
601.118	236.38
601.327	255.38
601.536	238.38
601.745	260.38
601.953	254.38
602.162	274.38
602.371	245.38
602.58	239.38
602.789	254.38
602.997	262.38
603.206	246.38
603.415	246.38
603.623	263.38
603.832	261.38
604.041	238.38
604.249	258.38
604.458	243.38
604.666	235.38
604.875	242.38
605.084	262.38
605.292	245.38
605.501	248.38
605.709	248.38
605.918	254.38
606.126	231.38
606.334	233.38
606.543	231.38
606.751	236.38
606.96	235.38
607.168	239.38
607.376	239.38
607.585	244.38
607.793	234.38
608.001	221.38
608.21	237.38
608.418	214.38
608.626	231.38
608.834	221.38
609.043	224.38
609.251	227.38
609.459	234.38
609.667	224.38
609.875	224.38
610.083	231.38
610.291	233.38
610.499	239.38
610.707	231.38
610.916	238.38
611.124	231.38
611.332	216.38
611.54	223.38
611.748	243.38
611.955	224.38
612.163	222.38
612.371	228.38
612.579	226.38
612.787	251.38
612.995	226.38
613.203	251.38
613.411	239.38
613.618	231.38
613.826	213.38
614.034	216.38
614.242	209.38
614.449	231.38
614.657	217.38
614.865	221.38
615.072	222.38
615.28	227.38
615.488	197.38
615.695	230.38
615.903	216.38
616.111	243.38
616.318	246.38
616.526	237.38
616.733	234.38
616.941	221.38
617.148	213.38
617.356	237.38
617.563	231.38
617.771	205.38
617.978	242.38
618.185	210.38
618.393	209.38
618.6	229.38
618.807	214.38
619.015	227.38
619.222	201.38
619.429	223.38
619.637	220.38
619.844	234.38
620.051	212.38
620.258	228.38
620.466	228.38
620.673	206.38
620.88	211.38
621.087	214.38
621.294	222.38
621.501	202.38
621.708	203.38
621.915	213.38
622.122	214.38
622.329	209.38
622.536	212.38
622.743	217.38
622.95	207.38
623.157	197.38
623.364	202.38
623.571	220.38
623.778	197.38
623.985	224.38
624.192	198.38
624.399	200.38
624.606	205.38
624.812	205.38
625.019	187.38
625.226	219.38
625.433	202.38
625.639	200.38
625.846	201.38
626.053	191.38
626.259	198.38
626.466	220.38
626.673	187.38
626.879	187.38
627.086	204.38
627.293	190.38
627.499	200.38
627.706	201.38
627.912	198.38
628.119	202.38
628.325	199.38
628.532	187.38
628.738	198.38
628.945	195.38
629.151	191.38
629.357	187.38
629.564	196.38
629.77	187.38
629.976	164.38
630.183	175.38
630.389	167.38
630.595	192.38
630.802	187.38
631.008	184.38
631.214	196.38
631.42	191.38
631.627	179.38
631.833	163.38
632.039	172.38
632.245	186.38
632.451	186.38
632.657	178.38
632.863	180.38
633.069	166.38
633.275	179.38
633.481	178.38
633.688	174.38
633.893	187.38
634.099	187.38
634.305	163.38
634.511	172.38
634.717	180.38
634.923	198.38
635.129	186.38
635.335	187.38
635.541	164.38
635.747	183.38
635.952	183.38
636.158	167.38
636.364	175.38
636.57	164.38
636.775	175.38
636.981	156.38
637.187	171.38
637.392	175.38
637.598	187.38
637.804	186.38
638.009	167.38
638.215	159.38
638.421	171.38
638.626	162.38
638.832	174.38
639.037	166.38
639.243	167.38
639.448	176.38
639.654	180.38
639.859	170.38
640.065	180.38
640.27	175.38
640.475	166.38
640.681	163.38
640.886	153.38
641.091	173.38
641.297	169.38
641.502	159.38
641.707	178.38
641.913	166.38
642.118	162.38
642.323	166.38
642.528	180.38
642.733	162.38
642.939	159.38
643.144	150.38
643.349	153.38
643.554	163.38
643.759	157.38
643.964	165.38
644.169	166.38
644.374	156.38
644.579	166.38
644.784	146.38
644.989	157.38
645.194	174.38
645.399	156.38
645.604	165.38
645.809	152.38
646.014	182.38
646.219	177.38
646.423	152.38
646.628	159.38
646.833	184.38
647.038	190.38
647.243	180.38
647.447	162.38
647.652	166.38
647.857	163.38
648.062	178.38
648.266	159.38
648.471	192.38
648.676	192.38
648.88	167.38
649.085	158.38
649.289	186.38
649.494	175.38
649.698	164.38
649.903	167.38
650.107	151.38
650.312	158.38
650.516	148.38
650.721	143.38
650.925	165.38
651.13	141.38
651.334	154.38
651.539	149.38
651.743	158.38
651.947	145.38
652.152	148.38
652.356	166.38
652.56	148.38
652.764	136.38
652.969	155.38
653.173	136.38
653.377	132.38
653.581	133.38
653.785	143.38
653.99	121.38
654.194	145.38
654.398	134.38
654.602	145.38
654.806	132.38
655.01	151.38
655.214	126.38
655.418	132.38
655.622	128.38
655.826	145.38
656.03	144.38
656.234	150.38
656.438	125.38
656.642	123.38
656.846	144.38
657.049	124.38
657.253	134.38
657.457	120.38
657.661	118.38
657.865	120.38
658.068	110.38
658.272	105.38
658.476	98.38
658.68	106.38
658.883	107.38
659.087	110.38
659.291	87.38
659.494	98.38
659.698	102.38
659.901	105.38
660.105	91.38
660.309	107.38
660.512	92.38
660.716	93.38
660.919	100.38
661.123	93.38
661.326	94.38
661.53	87.38
661.733	88.38
661.936	87.38
662.14	87.38
662.343	106.38
662.546	96.38
662.75	93.38
662.953	87.38
663.156	85.38
663.36	79.38
663.563	76.38
663.766	70.38
663.969	78.38
664.173	73.38
664.376	89.38
664.579	85.38
664.782	94.38
664.985	81.38
665.188	82.38
665.391	86.38
665.594	84.38
665.797	88.38
666	99.38
666.203	82.38
666.406	78.38
666.609	87.38
666.812	79.38
667.015	96.38
667.218	89.38
667.421	78.38
667.624	72.38
667.827	92.38
668.03	91.38
668.232	90.38
668.435	86.38
668.638	80.38
668.841	85.38
669.043	82.38
669.246	80.38
669.449	84.38
669.651	78.38
669.854	80.38
670.057	87.38
670.259	87.38
670.462	105.38
670.665	78.38
670.867	80.38
671.07	85.38
671.272	90.38
671.475	81.38
671.677	91.38
671.88	94.38
672.082	101.38
672.284	88.38
672.487	88.38
672.689	79.38
672.892	80.38
