Data from Ni(NO3)2@0.25M.TitratingCurve.Agarose3%dH2O.NegLispCup.LampEnergy10.LIBS07252019_HRD10591_18-03-25-565.txt Node
Date: Thu Jul 25 18:03:25 EDT 2019
User: cochatt
Spectrometer: HR+D1059
Trigger mode: 1
Integration Time (sec): 1.000000E-1
Scans to average: 1
Electric dark correction enabled: true
Nonlinearity correction enabled: false
Boxcar width: 0
XAxis mode: Wavelengths
Number of Pixels in Spectrum: 2048
>>>>>Begin Spectral Data<<<<<
223.165	-22.06
223.4	-22.06
223.635	-22.06
223.869	-31.06
224.104	-25.06
224.338	-16.06
224.573	-13.06
224.808	-15.06
225.042	-12.06
225.277	-5.06
225.511	5.94
225.746	10.94
225.98	1.94
226.215	11.94
226.449	12.94
226.683	29.94
226.918	29.94
227.152	35.94
227.387	29.94
227.621	36.94
227.856	39.94
228.09	33.94
228.324	36.94
228.559	56.94
228.793	60.94
229.027	88.94
229.262	85.94
229.496	102.94
229.73	102.94
229.964	111.94
230.199	113.94
230.433	131.94
230.667	133.94
230.901	122.94
231.136	118.94
231.37	112.94
231.604	123.94
231.838	139.94
232.072	127.94
232.306	128.94
232.541	118.94
232.775	121.94
233.009	128.94
233.243	133.94
233.477	133.94
233.711	135.94
233.945	117.94
234.179	126.94
234.413	120.94
234.647	129.94
234.881	141.94
235.115	119.94
235.349	123.94
235.583	117.94
235.817	145.94
236.051	122.94
236.285	125.94
236.519	123.94
236.753	125.94
236.987	132.94
237.221	140.94
237.455	121.94
237.689	129.94
237.922	136.94
238.156	136.94
238.39	138.94
238.624	134.94
238.858	151.94
239.091	139.94
239.325	150.94
239.559	127.94
239.793	135.94
240.027	143.94
240.26	125.94
240.494	121.94
240.728	129.94
240.961	143.94
241.195	155.94
241.429	141.94
241.662	145.94
241.896	153.94
242.13	157.94
242.363	144.94
242.597	147.94
242.83	167.94
243.064	152.94
243.298	154.94
243.531	150.94
243.765	164.94
243.998	159.94
244.232	171.94
244.465	159.94
244.699	164.94
244.932	146.94
245.166	168.94
245.399	175.94
245.633	177.94
245.866	179.94
246.099	164.94
246.333	177.94
246.566	164.94
246.8	169.94
247.033	169.94
247.266	186.94
247.5	181.94
247.733	183.94
247.966	202.94
248.2	186.94
248.433	181.94
248.666	186.94
248.899	186.94
249.133	206.94
249.366	203.94
249.599	193.94
249.832	206.94
250.066	216.94
250.299	209.94
250.532	217.94
250.765	226.94
250.998	227.94
251.231	202.94
251.465	230.94
251.698	242.94
251.931	214.94
252.164	235.94
252.397	228.94
252.63	240.94
252.863	236.94
253.096	243.94
253.329	247.94
253.562	232.94
253.795	222.94
254.028	249.94
254.261	237.94
254.494	266.94
254.727	245.94
254.96	265.94
255.193	270.94
255.426	258.94
255.659	248.94
255.892	267.94
256.124	277.94
256.357	263.94
256.59	272.94
256.823	267.94
257.056	276.94
257.289	275.94
257.521	273.94
257.754	309.94
257.987	302.94
258.22	296.94
258.452	301.94
258.685	283.94
258.918	296.94
259.151	301.94
259.383	292.94
259.616	294.94
259.849	292.94
260.081	307.94
260.314	307.94
260.547	302.94
260.779	312.94
261.012	317.94
261.244	323.94
261.477	315.94
261.71	319.94
261.942	321.94
262.175	318.94
262.407	345.94
262.64	320.94
262.872	307.94
263.105	325.94
263.337	336.94
263.57	313.94
263.802	345.94
264.035	343.94
264.267	343.94
264.499	341.94
264.732	327.94
264.964	331.94
265.197	329.94
265.429	348.94
265.661	327.94
265.894	358.94
266.126	338.94
266.358	325.94
266.591	344.94
266.823	355.94
267.055	327.94
267.287	329.94
267.52	359.94
267.752	347.94
267.984	362.94
268.216	354.94
268.448	373.94
268.681	354.94
268.913	347.94
269.145	354.94
269.377	373.94
269.609	354.94
269.841	350.94
270.073	369.94
270.306	369.94
270.538	356.94
270.77	368.94
271.002	357.94
271.234	342.94
271.466	367.94
271.698	375.94
271.93	363.94
272.162	379.94
272.394	375.94
272.626	368.94
272.858	385.94
273.09	404.94
273.322	371.94
273.553	380.94
273.785	384.94
274.017	392.94
274.249	385.94
274.481	370.94
274.713	370.94
274.945	403.94
275.176	386.94
275.408	378.94
275.64	385.94
275.872	401.94
276.104	379.94
276.335	375.94
276.567	406.94
276.799	408.94
277.031	418.94
277.262	396.94
277.494	416.94
277.726	410.94
277.957	405.94
278.189	405.94
278.421	408.94
278.652	417.94
278.884	403.94
279.115	401.94
279.347	398.94
279.579	401.94
279.81	402.94
280.042	416.94
280.273	425.94
280.505	405.94
280.736	408.94
280.968	405.94
281.199	410.94
281.431	405.94
281.662	433.94
281.894	421.94
282.125	408.94
282.356	440.94
282.588	437.94
282.819	410.94
283.051	421.94
283.282	399.94
283.513	426.94
283.745	419.94
283.976	410.94
284.207	431.94
284.439	426.94
284.67	426.94
284.901	417.94
285.132	437.94
285.364	432.94
285.595	426.94
285.826	413.94
286.057	423.94
286.288	441.94
286.52	437.94
286.751	441.94
286.982	438.94
287.213	430.94
287.444	440.94
287.675	434.94
287.906	438.94
288.138	451.94
288.369	450.94
288.6	449.94
288.831	450.94
289.062	446.94
289.293	427.94
289.524	437.94
289.755	462.94
289.986	447.94
290.217	424.94
290.448	445.94
290.679	446.94
290.91	436.94
291.141	447.94
291.371	435.94
291.602	457.94
291.833	448.94
292.064	449.94
292.295	455.94
292.526	455.94
292.757	450.94
292.987	435.94
293.218	449.94
293.449	451.94
293.68	451.94
293.91	449.94
294.141	455.94
294.372	458.94
294.603	439.94
294.833	438.94
295.064	455.94
295.295	461.94
295.525	437.94
295.756	448.94
295.987	445.94
296.217	470.94
296.448	456.94
296.679	465.94
296.909	455.94
297.14	457.94
297.37	481.94
297.601	462.94
297.831	465.94
298.062	467.94
298.292	487.94
298.523	497.94
298.753	473.94
298.984	480.94
299.214	481.94
299.445	493.94
299.675	486.94
299.905	490.94
300.136	482.94
300.366	485.94
300.597	527.94
300.827	517.94
301.057	511.94
301.288	486.94
301.518	505.94
301.748	501.94
301.979	515.94
302.209	495.94
302.439	489.94
302.669	508.94
302.9	513.94
303.13	486.94
303.36	516.94
303.59	505.94
303.82	518.94
304.051	525.94
304.281	515.94
304.511	507.94
304.741	500.94
304.971	523.94
305.201	513.94
305.431	541.94
305.661	558.94
305.891	523.94
306.121	501.94
306.352	513.94
306.582	500.94
306.812	513.94
307.042	513.94
307.272	515.94
307.502	523.94
307.731	502.94
307.961	511.94
308.191	528.94
308.421	510.94
308.651	500.94
308.881	490.94
309.111	511.94
309.341	529.94
309.571	529.94
309.8	530.94
310.03	527.94
310.26	559.94
310.49	539.94
310.72	550.94
310.949	528.94
311.179	529.94
311.409	546.94
311.639	554.94
311.868	548.94
312.098	546.94
312.328	575.94
312.557	557.94
312.787	584.94
313.017	569.94
313.246	561.94
313.476	578.94
313.706	595.94
313.935	569.94
314.165	575.94
314.394	569.94
314.624	586.94
314.853	585.94
315.083	586.94
315.312	590.94
315.542	615.94
315.771	592.94
316.001	584.94
316.23	578.94
316.46	616.94
316.689	615.94
316.919	598.94
317.148	598.94
317.377	585.94
317.607	598.94
317.836	591.94
318.065	609.94
318.295	607.94
318.524	607.94
318.753	611.94
318.983	642.94
319.212	635.94
319.441	660.94
319.67	625.94
319.9	637.94
320.129	625.94
320.358	647.94
320.587	639.94
320.816	629.94
321.046	635.94
321.275	656.94
321.504	667.94
321.733	648.94
321.962	673.94
322.191	651.94
322.42	677.94
322.649	654.94
322.878	682.94
323.108	661.94
323.337	680.94
323.566	677.94
323.795	712.94
324.024	667.94
324.253	687.94
324.482	689.94
324.71	693.94
324.939	710.94
325.168	702.94
325.397	737.94
325.626	721.94
325.855	726.94
326.084	754.94
326.313	730.94
326.542	753.94
326.77	782.94
326.999	770.94
327.228	737.94
327.457	744.94
327.686	751.94
327.914	750.94
328.143	777.94
328.372	756.94
328.6	779.94
328.829	757.94
329.058	798.94
329.287	778.94
329.515	780.94
329.744	757.94
329.972	774.94
330.201	807.94
330.43	799.94
330.658	813.94
330.887	825.94
331.115	804.94
331.344	808.94
331.572	810.94
331.801	831.94
332.03	842.94
332.258	873.94
332.486	863.94
332.715	909.94
332.943	895.94
333.172	914.94
333.4	926.94
333.629	963.94
333.857	980.94
334.085	980.94
334.314	1005.94
334.542	978.94
334.771	970.94
334.999	993.94
335.227	1000.94
335.455	986.94
335.684	993.94
335.912	985.94
336.14	980.94
336.369	971.94
336.597	1000.94
336.825	981.94
337.053	967.94
337.281	982.94
337.51	963.94
337.738	945.94
337.966	951.94
338.194	953.94
338.422	938.94
338.65	902.94
338.878	905.94
339.106	901.94
339.334	908.94
339.562	933.94
339.79	897.94
340.018	911.94
340.246	886.94
340.474	887.94
340.702	887.94
340.93	897.94
341.158	897.94
341.386	896.94
341.614	941.94
341.842	928.94
342.07	853.94
342.298	882.94
342.526	889.94
342.754	902.94
342.981	874.94
343.209	881.94
343.437	935.94
343.665	940.94
343.893	951.94
344.12	982.94
344.348	1006.94
344.576	980.94
344.804	992.94
345.031	945.94
345.259	907.94
345.487	899.94
345.714	920.94
345.942	928.94
346.17	927.94
346.397	911.94
346.625	880.94
346.853	850.94
347.08	872.94
347.308	854.94
347.535	881.94
347.763	850.94
347.99	851.94
348.218	854.94
348.445	873.94
348.673	847.94
348.9	858.94
349.128	838.94
349.355	878.94
349.583	860.94
349.81	852.94
350.037	845.94
350.265	849.94
350.492	807.94
350.72	825.94
350.947	838.94
351.174	860.94
351.402	847.94
351.629	874.94
351.856	863.94
352.083	831.94
352.311	836.94
352.538	851.94
352.765	840.94
352.992	813.94
353.22	807.94
353.447	832.94
353.674	832.94
353.901	846.94
354.128	803.94
354.355	811.94
354.583	842.94
354.81	818.94
355.037	816.94
355.264	798.94
355.491	808.94
355.718	809.94
355.945	797.94
356.172	825.94
356.399	831.94
356.626	832.94
356.853	850.94
357.08	828.94
357.307	835.94
357.534	843.94
357.761	803.94
357.988	818.94
358.215	813.94
358.441	797.94
358.668	790.94
358.895	801.94
359.122	802.94
359.349	818.94
359.576	813.94
359.802	808.94
360.029	809.94
360.256	837.94
360.483	808.94
360.709	793.94
360.936	817.94
361.163	810.94
361.39	816.94
361.616	817.94
361.843	844.94
362.07	861.94
362.296	858.94
362.523	826.94
362.749	825.94
362.976	802.94
363.203	815.94
363.429	795.94
363.656	807.94
363.882	805.94
364.109	830.94
364.335	813.94
364.562	820.94
364.788	802.94
365.015	818.94
365.241	802.94
365.468	825.94
365.694	824.94
365.92	809.94
366.147	826.94
366.373	825.94
366.599	832.94
366.826	806.94
367.052	827.94
367.278	796.94
367.505	823.94
367.731	799.94
367.957	782.94
368.184	774.94
368.41	808.94
368.636	826.94
368.862	824.94
369.089	822.94
369.315	799.94
369.541	810.94
369.767	811.94
369.993	824.94
370.219	816.94
370.445	813.94
370.672	842.94
370.898	806.94
371.124	825.94
371.35	853.94
371.576	831.94
371.802	839.94
372.028	839.94
372.254	849.94
372.48	859.94
372.706	850.94
372.932	860.94
373.158	826.94
373.384	849.94
373.61	839.94
373.835	854.94
374.061	868.94
374.287	839.94
374.513	846.94
374.739	829.94
374.965	850.94
375.191	869.94
375.416	879.94
375.642	881.94
375.868	881.94
376.094	854.94
376.319	863.94
376.545	839.94
376.771	837.94
376.997	821.94
377.222	859.94
377.448	817.94
377.674	845.94
377.899	810.94
378.125	822.94
378.35	822.94
378.576	793.94
378.802	785.94
379.027	802.94
379.253	800.94
379.478	807.94
379.704	801.94
379.929	800.94
380.155	804.94
380.38	809.94
380.606	800.94
380.831	839.94
381.057	829.94
381.282	785.94
381.507	823.94
381.733	810.94
381.958	817.94
382.184	810.94
382.409	799.94
382.634	821.94
382.86	820.94
383.085	822.94
383.31	880.94
383.535	845.94
383.761	873.94
383.986	900.94
384.211	858.94
384.436	883.94
384.662	904.94
384.887	879.94
385.112	905.94
385.337	908.94
385.562	910.94
385.787	923.94
386.013	936.94
386.238	959.94
386.463	946.94
386.688	915.94
386.913	941.94
387.138	934.94
387.363	915.94
387.588	946.94
387.813	947.94
388.038	933.94
388.263	933.94
388.488	913.94
388.713	931.94
388.938	952.94
389.163	930.94
389.387	941.94
389.612	919.94
389.837	957.94
390.062	946.94
390.287	936.94
390.512	914.94
390.736	947.94
390.961	937.94
391.186	965.94
391.411	934.94
391.636	984.94
391.86	1016.94
392.085	999.94
392.31	996.94
392.534	1018.94
392.759	1007.94
392.984	974.94
393.208	991.94
393.433	986.94
393.658	974.94
393.882	969.94
394.107	965.94
394.331	1019.94
394.556	985.94
394.78	996.94
395.005	987.94
395.229	974.94
395.454	1015.94
395.678	1033.94
395.903	1013.94
396.127	986.94
396.352	1017.94
396.576	990.94
396.801	1011.94
397.025	1050.94
397.249	1036.94
397.474	1057.94
397.698	1102.94
397.922	1088.94
398.147	1096.94
398.371	1106.94
398.595	1140.94
398.82	1180.94
399.044	1204.94
399.268	1292.94
399.492	1348.94
399.717	1376.94
399.941	1415.94
400.165	1419.94
400.389	1345.94
400.613	1272.94
400.837	1245.94
401.062	1189.94
401.286	1175.94
401.51	1183.94
401.734	1168.94
401.958	1156.94
402.182	1153.94
402.406	1188.94
402.63	1171.94
402.854	1175.94
403.078	1170.94
403.302	1177.94
403.526	1202.94
403.75	1177.94
403.974	1202.94
404.198	1193.94
404.422	1235.94
404.645	1214.94
404.869	1203.94
405.093	1241.94
405.317	1221.94
405.541	1263.94
405.765	1265.94
405.988	1251.94
406.212	1242.94
406.436	1236.94
406.66	1271.94
406.883	1307.94
407.107	1374.94
407.331	1403.94
407.555	1389.94
407.778	1423.94
408.002	1396.94
408.226	1384.94
408.449	1364.94
408.673	1302.94
408.896	1328.94
409.12	1311.94
409.344	1309.94
409.567	1289.94
409.791	1285.94
410.014	1283.94
410.238	1291.94
410.461	1263.94
410.685	1257.94
410.908	1276.94
411.132	1271.94
411.355	1221.94
411.578	1242.94
411.802	1249.94
412.025	1262.94
412.249	1241.94
412.472	1242.94
412.695	1227.94
412.919	1211.94
413.142	1227.94
413.365	1245.94
413.589	1226.94
413.812	1209.94
414.035	1175.94
414.258	1207.94
414.482	1198.94
414.705	1203.94
414.928	1201.94
415.151	1211.94
415.374	1220.94
415.597	1194.94
415.821	1174.94
416.044	1173.94
416.267	1155.94
416.49	1157.94
416.713	1181.94
416.936	1189.94
417.159	1169.94
417.382	1158.94
417.605	1178.94
417.828	1173.94
418.051	1176.94
418.274	1167.94
418.497	1171.94
418.72	1195.94
418.943	1194.94
419.166	1247.94
419.389	1364.94
419.611	1331.94
419.834	1293.94
420.057	1270.94
420.28	1224.94
420.503	1165.94
420.726	1167.94
420.948	1159.94
421.171	1190.94
421.394	1214.94
421.617	1185.94
421.839	1222.94
422.062	1203.94
422.285	1173.94
422.507	1218.94
422.73	1216.94
422.953	1214.94
423.175	1191.94
423.398	1217.94
423.621	1194.94
423.843	1242.94
424.066	1217.94
424.288	1225.94
424.511	1212.94
424.733	1207.94
424.956	1181.94
425.178	1235.94
425.401	1184.94
425.623	1190.94
425.846	1143.94
426.068	1192.94
426.291	1140.94
426.513	1155.94
426.735	1173.94
426.958	1183.94
427.18	1143.94
427.402	1170.94
427.625	1179.94
427.847	1173.94
428.069	1129.94
428.292	1139.94
428.514	1130.94
428.736	1154.94
428.958	1153.94
429.181	1121.94
429.403	1127.94
429.625	1142.94
429.847	1138.94
430.069	1133.94
430.292	1159.94
430.514	1074.94
430.736	1119.94
430.958	1111.94
431.18	1145.94
431.402	1165.94
431.624	1149.94
431.846	1149.94
432.068	1137.94
432.29	1158.94
432.512	1149.94
432.734	1167.94
432.956	1116.94
433.178	1187.94
433.4	1158.94
433.622	1202.94
433.844	1194.94
434.066	1182.94
434.287	1172.94
434.509	1190.94
434.731	1218.94
434.953	1220.94
435.175	1274.94
435.397	1226.94
435.618	1228.94
435.84	1185.94
436.062	1179.94
436.284	1164.94
436.505	1161.94
436.727	1143.94
436.949	1149.94
437.17	1175.94
437.392	1173.94
437.614	1166.94
437.835	1087.94
438.057	1134.94
438.278	1111.94
438.5	1101.94
438.721	1104.94
438.943	1134.94
439.165	1119.94
439.386	1127.94
439.608	1168.94
439.829	1176.94
440.05	1169.94
440.272	1195.94
440.493	1170.94
440.715	1213.94
440.936	1189.94
441.158	1194.94
441.379	1213.94
441.6	1220.94
441.822	1285.94
442.043	1245.94
442.264	1247.94
442.486	1184.94
442.707	1213.94
442.928	1238.94
443.149	1277.94
443.371	1234.94
443.592	1242.94
443.813	1232.94
444.034	1246.94
444.255	1262.94
444.476	1288.94
444.698	1337.94
444.919	1366.94
445.14	1405.94
445.361	1318.94
445.582	1303.94
445.803	1232.94
446.024	1224.94
446.245	1239.94
446.466	1258.94
446.687	1174.94
446.908	1189.94
447.129	1178.94
447.35	1140.94
447.571	1147.94
447.792	1119.94
448.013	1139.94
448.234	1090.94
448.455	1083.94
448.675	1091.94
448.896	1091.94
449.117	1062.94
449.338	1073.94
449.559	1094.94
449.779	1103.94
450	1044.94
450.221	1104.94
450.442	1106.94
450.662	1078.94
450.883	1067.94
451.104	1087.94
451.324	1073.94
451.545	1065.94
451.766	1047.94
451.986	1083.94
452.207	1069.94
452.428	1050.94
452.648	1066.94
452.869	1022.94
453.089	1047.94
453.31	1048.94
453.53	1032.94
453.751	1013.94
453.971	993.94
454.192	1025.94
454.412	998.94
454.633	1034.94
454.853	1001.94
455.073	1043.94
455.294	1010.94
455.514	1000.94
455.734	1019.94
455.955	988.94
456.175	1003.94
456.395	991.94
456.616	1014.94
456.836	1007.94
457.056	1023.94
457.276	991.94
457.497	1023.94
457.717	1022.94
457.937	1030.94
458.157	1049.94
458.377	1070.94
458.598	1085.94
458.818	1063.94
459.038	1109.94
459.258	1103.94
459.478	1117.94
459.698	1198.94
459.918	1202.94
460.138	1200.94
460.358	1276.94
460.578	1238.94
460.798	1302.94
461.018	1291.94
461.238	1291.94
461.458	1302.94
461.678	1292.94
461.898	1329.94
462.118	1333.94
462.338	1386.94
462.558	1417.94
462.777	1440.94
462.997	1496.94
463.217	1499.94
463.437	1539.94
463.657	1498.94
463.876	1498.94
464.096	1458.94
464.316	1434.94
464.536	1399.94
464.755	1373.94
464.975	1381.94
465.195	1314.94
465.414	1269.94
465.634	1237.94
465.854	1236.94
466.073	1197.94
466.293	1186.94
466.512	1150.94
466.732	1167.94
466.951	1139.94
467.171	1119.94
467.391	1169.94
467.61	1122.94
467.829	1124.94
468.049	1111.94
468.268	1120.94
468.488	1072.94
468.707	1070.94
468.927	1102.94
469.146	1088.94
469.365	1142.94
469.585	1119.94
469.804	1133.94
470.023	1133.94
470.243	1115.94
470.462	1118.94
470.681	1158.94
470.901	1119.94
471.12	1181.94
471.339	1122.94
471.558	1159.94
471.777	1114.94
471.997	1149.94
472.216	1107.94
472.435	1117.94
472.654	1093.94
472.873	1109.94
473.092	1080.94
473.311	1079.94
473.53	1099.94
473.749	1123.94
473.968	1090.94
474.187	1074.94
474.406	1078.94
474.625	1097.94
474.844	1099.94
475.063	1096.94
475.282	1113.94
475.501	1118.94
475.72	1137.94
475.939	1098.94
476.158	1140.94
476.377	1167.94
476.596	1158.94
476.814	1161.94
477.033	1162.94
477.252	1157.94
477.471	1196.94
477.69	1227.94
477.908	1235.94
478.127	1261.94
478.346	1279.94
478.564	1298.94
478.783	1295.94
479.002	1294.94
479.22	1307.94
479.439	1303.94
479.658	1268.94
479.876	1306.94
480.095	1328.94
480.313	1334.94
480.532	1353.94
480.751	1341.94
480.969	1330.94
481.188	1303.94
481.406	1317.94
481.624	1309.94
481.843	1301.94
482.061	1261.94
482.28	1263.94
482.498	1242.94
482.717	1261.94
482.935	1242.94
483.153	1281.94
483.372	1287.94
483.59	1286.94
483.808	1291.94
484.027	1271.94
484.245	1264.94
484.463	1278.94
484.681	1264.94
484.9	1264.94
485.118	1314.94
485.336	1265.94
485.554	1307.94
485.772	1322.94
485.99	1260.94
486.209	1321.94
486.427	1301.94
486.645	1311.94
486.863	1339.94
487.081	1289.94
487.299	1315.94
487.517	1321.94
487.735	1353.94
487.953	1317.94
488.171	1319.94
488.389	1297.94
488.607	1303.94
488.825	1333.94
489.043	1297.94
489.261	1277.94
489.479	1295.94
489.696	1303.94
489.914	1315.94
490.132	1320.94
490.35	1322.94
490.568	1318.94
490.786	1350.94
491.003	1376.94
491.221	1371.94
491.439	1375.94
491.657	1385.94
491.874	1379.94
492.092	1423.94
492.31	1399.94
492.527	1429.94
492.745	1426.94
492.963	1364.94
493.18	1389.94
493.398	1408.94
493.615	1415.94
493.833	1413.94
494.05	1425.94
494.268	1371.94
494.485	1435.94
494.703	1444.94
494.92	1432.94
495.138	1420.94
495.355	1458.94
495.573	1442.94
495.79	1465.94
496.008	1502.94
496.225	1478.94
496.442	1472.94
496.66	1554.94
496.877	1557.94
497.094	1595.94
497.312	1597.94
497.529	1601.94
497.746	1640.94
497.963	1702.94
498.181	1728.94
498.398	1833.94
498.615	1887.94
498.832	1934.94
499.049	2019.94
499.267	2139.94
499.484	2273.94
499.701	2398.94
499.918	2508.94
500.135	2673.94
500.352	2739.94
500.569	2824.94
500.786	2797.94
501.003	2760.94
501.22	2658.94
501.437	2492.94
501.654	2331.94
501.871	2252.94
502.088	2172.94
502.305	2048.94
502.522	1994.94
502.739	1918.94
502.956	1820.94
503.172	1792.94
503.389	1720.94
503.606	1680.94
503.823	1684.94
504.04	1651.94
504.256	1612.94
504.473	1589.94
504.69	1570.94
504.907	1547.94
505.123	1492.94
505.34	1480.94
505.557	1426.94
505.773	1407.94
505.99	1377.94
506.207	1383.94
506.423	1354.94
506.64	1376.94
506.856	1329.94
507.073	1307.94
507.289	1320.94
507.506	1279.94
507.722	1296.94
507.939	1272.94
508.155	1253.94
508.372	1270.94
508.588	1249.94
508.805	1220.94
509.021	1199.94
509.238	1209.94
509.454	1184.94
509.67	1193.94
509.887	1144.94
510.103	1179.94
510.319	1202.94
510.536	1198.94
510.752	1180.94
510.968	1170.94
511.184	1162.94
511.401	1157.94
511.617	1154.94
511.833	1149.94
512.049	1140.94
512.265	1146.94
512.481	1133.94
512.698	1136.94
512.914	1163.94
513.13	1127.94
513.346	1149.94
513.562	1168.94
513.778	1144.94
513.994	1155.94
514.21	1154.94
514.426	1175.94
514.642	1165.94
514.858	1189.94
515.074	1175.94
515.29	1221.94
515.506	1197.94
515.721	1239.94
515.937	1263.94
516.153	1252.94
516.369	1233.94
516.585	1284.94
516.801	1289.94
517.016	1312.94
517.232	1341.94
517.448	1367.94
517.664	1389.94
517.879	1363.94
518.095	1350.94
518.311	1357.94
518.527	1303.94
518.742	1312.94
518.958	1294.94
519.173	1290.94
519.389	1253.94
519.605	1213.94
519.82	1208.94
520.036	1222.94
520.251	1203.94
520.467	1155.94
520.682	1181.94
520.898	1159.94
521.113	1143.94
521.329	1094.94
521.544	1111.94
521.76	1066.94
521.975	1125.94
522.19	1107.94
522.406	1096.94
522.621	1100.94
522.836	1073.94
523.052	1052.94
523.267	1067.94
523.482	1075.94
523.698	1078.94
523.913	1059.94
524.128	1069.94
524.343	1025.94
524.559	1052.94
524.774	1061.94
524.989	1064.94
525.204	1054.94
525.419	1051.94
525.634	1012.94
525.849	1033.94
526.064	1059.94
526.28	1030.94
526.495	1033.94
526.71	1041.94
526.925	996.94
527.14	1015.94
527.355	1023.94
527.57	1044.94
527.785	1009.94
527.999	1022.94
528.214	1031.94
528.429	1042.94
528.644	1033.94
528.859	1039.94
529.074	1064.94
529.289	1038.94
529.503	1040.94
529.718	1014.94
529.933	1003.94
530.148	1005.94
530.363	1037.94
530.577	1005.94
530.792	1034.94
531.007	981.94
531.221	1024.94
531.436	1002.94
531.651	1014.94
531.865	998.94
532.08	1019.94
532.295	1005.94
532.509	999.94
532.724	959.94
532.938	968.94
533.153	987.94
533.367	1000.94
533.582	1000.94
533.796	972.94
534.011	987.94
534.225	978.94
534.44	971.94
534.654	991.94
534.868	992.94
535.083	967.94
535.297	975.94
535.511	972.94
535.726	985.94
535.94	954.94
536.154	952.94
536.369	953.94
536.583	941.94
536.797	924.94
537.011	942.94
537.225	951.94
537.44	929.94
537.654	931.94
537.868	913.94
538.082	899.94
538.296	932.94
538.51	943.94
538.724	957.94
538.938	930.94
539.153	922.94
539.367	929.94
539.581	938.94
539.795	918.94
540.009	902.94
540.222	900.94
540.436	956.94
540.65	921.94
540.864	923.94
541.078	938.94
541.292	921.94
541.506	935.94
541.72	978.94
541.934	937.94
542.147	941.94
542.361	934.94
542.575	920.94
542.789	902.94
543.002	897.94
543.216	907.94
543.43	899.94
543.644	888.94
543.857	914.94
544.071	915.94
544.285	923.94
544.498	937.94
544.712	921.94
544.925	920.94
545.139	912.94
545.352	938.94
545.566	935.94
545.779	933.94
545.993	936.94
546.206	934.94
546.42	919.94
546.633	946.94
546.847	944.94
547.06	939.94
547.274	950.94
547.487	927.94
547.7	941.94
547.914	950.94
548.127	946.94
548.34	941.94
548.554	893.94
548.767	958.94
548.98	917.94
549.193	951.94
549.407	968.94
549.62	937.94
549.833	931.94
550.046	949.94
550.259	914.94
550.473	929.94
550.686	913.94
550.899	896.94
551.112	906.94
551.325	934.94
551.538	915.94
551.751	890.94
551.964	906.94
552.177	914.94
552.39	934.94
552.603	977.94
552.816	967.94
553.029	978.94
553.242	961.94
553.455	960.94
553.667	959.94
553.88	932.94
554.093	914.94
554.306	945.94
554.519	895.94
554.732	909.94
554.944	905.94
555.157	897.94
555.37	855.94
555.583	853.94
555.795	846.94
556.008	848.94
556.221	859.94
556.433	859.94
556.646	789.94
556.859	820.94
557.071	806.94
557.284	806.94
557.496	803.94
557.709	797.94
557.921	793.94
558.134	785.94
558.346	807.94
558.559	773.94
558.771	777.94
558.984	795.94
559.196	784.94
559.409	779.94
559.621	775.94
559.833	774.94
560.046	793.94
560.258	789.94
560.47	780.94
560.683	792.94
560.895	787.94
561.107	771.94
561.32	762.94
561.532	790.94
561.744	785.94
561.956	799.94
562.168	789.94
562.381	767.94
562.593	802.94
562.805	770.94
563.017	783.94
563.229	774.94
563.441	755.94
563.653	802.94
563.865	802.94
564.077	824.94
564.289	813.94
564.501	826.94
564.713	845.94
564.925	817.94
565.137	814.94
565.349	848.94
565.561	847.94
565.773	895.94
565.985	934.94
566.197	943.94
566.408	953.94
566.62	989.94
566.832	1005.94
567.044	1050.94
567.255	1049.94
567.467	1063.94
567.679	1071.94
567.891	1103.94
568.102	1025.94
568.314	1006.94
568.526	969.94
568.737	977.94
568.949	904.94
569.161	870.94
569.372	855.94
569.584	832.94
569.795	840.94
570.007	808.94
570.218	770.94
570.43	774.94
570.641	744.94
570.853	738.94
571.064	727.94
571.276	727.94
571.487	725.94
571.698	687.94
571.91	709.94
572.121	690.94
572.333	670.94
572.544	664.94
572.755	667.94
572.966	665.94
573.178	628.94
573.389	633.94
573.6	626.94
573.811	642.94
574.023	625.94
574.234	652.94
574.445	628.94
574.656	648.94
574.867	613.94
575.078	617.94
575.289	628.94
575.501	586.94
575.712	581.94
575.923	587.94
576.134	584.94
576.345	590.94
576.556	609.94
576.767	574.94
576.978	589.94
577.188	582.94
577.399	582.94
577.61	570.94
577.821	563.94
578.032	561.94
578.243	547.94
578.454	579.94
578.665	569.94
578.875	580.94
579.086	549.94
579.297	532.94
579.508	547.94
579.718	564.94
579.929	547.94
580.14	551.94
580.35	543.94
580.561	533.94
580.772	560.94
580.982	550.94
581.193	534.94
581.403	534.94
581.614	528.94
581.825	533.94
582.035	528.94
582.246	526.94
582.456	522.94
582.667	535.94
582.877	513.94
583.087	518.94
583.298	513.94
583.508	510.94
583.719	515.94
583.929	513.94
584.139	503.94
584.35	511.94
584.56	527.94
584.77	503.94
584.981	503.94
585.191	525.94
585.401	500.94
585.611	501.94
585.821	516.94
586.032	492.94
586.242	501.94
586.452	490.94
586.662	482.94
586.872	481.94
587.082	493.94
587.292	496.94
587.502	487.94
587.713	499.94
587.923	489.94
588.133	512.94
588.343	489.94
588.553	478.94
588.762	501.94
588.972	520.94
589.182	531.94
589.392	525.94
589.602	511.94
589.812	523.94
590.022	522.94
590.232	488.94
590.441	483.94
590.651	483.94
590.861	481.94
591.071	498.94
591.281	544.94
591.49	489.94
591.7	518.94
591.91	522.94
592.119	522.94
592.329	543.94
592.539	541.94
592.748	530.94
592.958	529.94
593.167	520.94
593.377	538.94
593.587	548.94
593.796	539.94
594.006	544.94
594.215	538.94
594.424	526.94
594.634	519.94
594.843	515.94
595.053	515.94
595.262	516.94
595.472	495.94
595.681	469.94
595.89	474.94
596.1	475.94
596.309	463.94
596.518	463.94
596.727	448.94
596.937	438.94
597.146	455.94
597.355	431.94
597.564	430.94
597.774	427.94
597.983	426.94
598.192	426.94
598.401	416.94
598.61	424.94
598.819	409.94
599.028	425.94
599.237	396.94
599.446	416.94
599.655	407.94
599.864	423.94
600.073	423.94
600.282	419.94
600.491	387.94
600.7	382.94
600.909	423.94
601.118	391.94
601.327	429.94
601.536	398.94
601.745	394.94
601.953	416.94
602.162	407.94
602.371	393.94
602.58	387.94
602.789	389.94
602.997	395.94
603.206	381.94
603.415	391.94
603.623	392.94
603.832	371.94
604.041	385.94
604.249	367.94
604.458	385.94
604.666	369.94
604.875	376.94
605.084	373.94
605.292	367.94
605.501	375.94
605.709	373.94
605.918	396.94
606.126	375.94
606.334	376.94
606.543	380.94
606.751	379.94
606.96	369.94
607.168	377.94
607.376	370.94
607.585	381.94
607.793	377.94
608.001	365.94
608.21	355.94
608.418	365.94
608.626	371.94
608.834	350.94
609.043	348.94
609.251	357.94
609.459	360.94
609.667	363.94
609.875	355.94
610.083	352.94
610.291	360.94
610.499	375.94
610.707	373.94
610.916	361.94
611.124	345.94
611.332	335.94
611.54	349.94
611.748	339.94
611.955	336.94
612.163	350.94
612.371	349.94
612.579	338.94
612.787	353.94
612.995	344.94
613.203	353.94
613.411	355.94
613.618	344.94
613.826	371.94
614.034	353.94
614.242	356.94
614.449	333.94
614.657	349.94
614.865	353.94
615.072	347.94
615.28	342.94
615.488	353.94
615.695	327.94
615.903	341.94
616.111	338.94
616.318	344.94
616.526	366.94
616.733	342.94
616.941	358.94
617.148	335.94
617.356	349.94
617.563	352.94
617.771	339.94
617.978	314.94
618.185	329.94
618.393	324.94
618.6	326.94
618.807	330.94
619.015	351.94
619.222	339.94
619.429	315.94
619.637	333.94
619.844	314.94
620.051	339.94
620.258	318.94
620.466	303.94
620.673	307.94
620.88	317.94
621.087	295.94
621.294	312.94
621.501	299.94
621.708	320.94
621.915	309.94
622.122	305.94
622.329	326.94
622.536	325.94
622.743	315.94
622.95	299.94
623.157	323.94
623.364	301.94
623.571	307.94
623.778	307.94
623.985	326.94
624.192	301.94
624.399	310.94
624.606	293.94
624.812	317.94
625.019	294.94
625.226	305.94
625.433	298.94
625.639	277.94
625.846	293.94
626.053	304.94
626.259	269.94
626.466	308.94
626.673	278.94
626.879	301.94
627.086	297.94
627.293	286.94
627.499	277.94
627.706	279.94
627.912	314.94
628.119	259.94
628.325	267.94
628.532	297.94
628.738	277.94
628.945	280.94
629.151	290.94
629.357	264.94
629.564	277.94
629.77	253.94
629.976	255.94
630.183	266.94
630.389	261.94
630.595	270.94
630.802	262.94
631.008	265.94
631.214	261.94
631.42	269.94
631.627	272.94
631.833	248.94
632.039	254.94
632.245	257.94
632.451	269.94
632.657	273.94
632.863	246.94
633.069	268.94
633.275	271.94
633.481	259.94
633.688	258.94
633.893	263.94
634.099	237.94
634.305	251.94
634.511	253.94
634.717	257.94
634.923	260.94
635.129	258.94
635.335	242.94
635.541	255.94
635.747	239.94
635.952	238.94
636.158	253.94
636.364	263.94
636.57	234.94
636.775	244.94
636.981	237.94
637.187	225.94
637.392	240.94
637.598	252.94
637.804	256.94
638.009	239.94
638.215	248.94
638.421	232.94
638.626	241.94
638.832	242.94
639.037	220.94
639.243	243.94
639.448	229.94
639.654	250.94
639.859	225.94
640.065	225.94
640.27	238.94
640.475	234.94
640.681	229.94
640.886	214.94
641.091	238.94
641.297	229.94
641.502	234.94
641.707	237.94
641.913	230.94
642.118	242.94
642.323	229.94
642.528	230.94
642.733	198.94
642.939	221.94
643.144	225.94
643.349	226.94
643.554	223.94
643.759	219.94
643.964	225.94
644.169	212.94
644.374	214.94
644.579	226.94
644.784	211.94
644.989	225.94
645.194	223.94
645.399	210.94
645.604	214.94
645.809	213.94
646.014	225.94
646.219	235.94
646.423	204.94
646.628	209.94
646.833	224.94
647.038	222.94
647.243	215.94
647.447	232.94
647.652	215.94
647.857	240.94
648.062	225.94
648.266	228.94
648.471	214.94
648.676	225.94
648.88	216.94
649.085	216.94
649.289	223.94
649.494	223.94
649.698	216.94
649.903	221.94
650.107	218.94
650.312	197.94
650.516	199.94
650.721	209.94
650.925	197.94
651.13	206.94
651.334	196.94
651.539	203.94
651.743	185.94
651.947	183.94
652.152	205.94
652.356	189.94
652.56	190.94
652.764	189.94
652.969	188.94
653.173	177.94
653.377	182.94
653.581	166.94
653.785	173.94
653.99	176.94
654.194	165.94
654.398	161.94
654.602	175.94
654.806	166.94
655.01	149.94
655.214	170.94
655.418	181.94
655.622	166.94
655.826	150.94
656.03	160.94
656.234	163.94
656.438	152.94
656.642	147.94
656.846	155.94
657.049	149.94
657.253	152.94
657.457	138.94
657.661	127.94
657.865	135.94
658.068	128.94
658.272	129.94
658.476	118.94
658.68	127.94
658.883	119.94
659.087	117.94
659.291	109.94
659.494	107.94
659.698	86.94
659.901	110.94
660.105	98.94
660.309	114.94
660.512	95.94
660.716	92.94
660.919	102.94
661.123	112.94
661.326	99.94
661.53	97.94
661.733	85.94
661.936	96.94
662.14	91.94
662.343	89.94
662.546	68.94
662.75	80.94
662.953	81.94
663.156	80.94
663.36	78.94
663.563	95.94
663.766	85.94
663.969	91.94
664.173	79.94
664.376	91.94
664.579	82.94
664.782	81.94
664.985	96.94
665.188	71.94
665.391	68.94
665.594	61.94
665.797	82.94
666	80.94
666.203	72.94
666.406	80.94
666.609	80.94
666.812	80.94
667.015	85.94
667.218	81.94
667.421	78.94
667.624	81.94
667.827	74.94
668.03	81.94
668.232	86.94
668.435	77.94
668.638	73.94
668.841	72.94
669.043	84.94
669.246	69.94
669.449	78.94
669.651	81.94
669.854	71.94
670.057	66.94
670.259	79.94
670.462	79.94
670.665	84.94
670.867	76.94
671.07	61.94
671.272	79.94
671.475	79.94
671.677	78.94
671.88	67.94
672.082	78.94
672.284	75.94
672.487	80.94
672.689	84.94
672.892	85.94
