Data from Ni(NO3)2@0.5M.TitratingCurve.Agarose3%dH2O.NegLispCup.LampEnergy10.LIBS07252019_HRD10591_18-00-05-564.txt Node
Date: Thu Jul 25 18:00:05 EDT 2019
User: cochatt
Spectrometer: HR+D1059
Trigger mode: 1
Integration Time (sec): 1.000000E-1
Scans to average: 1
Electric dark correction enabled: true
Nonlinearity correction enabled: false
Boxcar width: 0
XAxis mode: Wavelengths
Number of Pixels in Spectrum: 2048
>>>>>Begin Spectral Data<<<<<
223.165	-8.25
223.4	-8.25
223.635	-8.25
223.869	-23.25
224.104	-29.25
224.338	-22.25
224.573	-20.25
224.808	-2.25
225.042	-2.25
225.277	-0.25
225.511	2.75
225.746	5.75
225.98	15.75
226.215	20.75
226.449	1.75
226.683	28.75
226.918	8.75
227.152	23.75
227.387	13.75
227.621	30.75
227.856	45.75
228.09	62.75
228.324	54.75
228.559	59.75
228.793	72.75
229.027	142.75
229.262	146.75
229.496	136.75
229.73	143.75
229.964	179.75
230.199	196.75
230.433	197.75
230.667	186.75
230.901	174.75
231.136	164.75
231.37	154.75
231.604	191.75
231.838	206.75
232.072	212.75
232.306	187.75
232.541	203.75
232.775	188.75
233.009	184.75
233.243	178.75
233.477	167.75
233.711	179.75
233.945	189.75
234.179	204.75
234.413	192.75
234.647	198.75
234.881	211.75
235.115	210.75
235.349	184.75
235.583	193.75
235.817	196.75
236.051	191.75
236.285	185.75
236.519	196.75
236.753	200.75
236.987	199.75
237.221	198.75
237.455	202.75
237.689	191.75
237.922	212.75
238.156	202.75
238.39	207.75
238.624	208.75
238.858	208.75
239.091	215.75
239.325	215.75
239.559	224.75
239.793	257.75
240.027	251.75
240.26	210.75
240.494	210.75
240.728	228.75
240.961	244.75
241.195	220.75
241.429	237.75
241.662	240.75
241.896	237.75
242.13	268.75
242.363	255.75
242.597	232.75
242.83	260.75
243.064	256.75
243.298	255.75
243.531	249.75
243.765	264.75
243.998	274.75
244.232	269.75
244.465	253.75
244.699	268.75
244.932	274.75
245.166	274.75
245.399	273.75
245.633	270.75
245.866	254.75
246.099	264.75
246.333	284.75
246.566	266.75
246.8	276.75
247.033	277.75
247.266	266.75
247.5	293.75
247.733	282.75
247.966	284.75
248.2	304.75
248.433	298.75
248.666	295.75
248.899	318.75
249.133	317.75
249.366	323.75
249.599	305.75
249.832	317.75
250.066	317.75
250.299	306.75
250.532	312.75
250.765	336.75
250.998	327.75
251.231	337.75
251.465	344.75
251.698	338.75
251.931	347.75
252.164	335.75
252.397	333.75
252.63	342.75
252.863	352.75
253.096	375.75
253.329	345.75
253.562	368.75
253.795	349.75
254.028	372.75
254.261	365.75
254.494	365.75
254.727	360.75
254.96	393.75
255.193	364.75
255.426	369.75
255.659	374.75
255.892	369.75
256.124	403.75
256.357	404.75
256.59	398.75
256.823	376.75
257.056	400.75
257.289	385.75
257.521	394.75
257.754	374.75
257.987	405.75
258.22	393.75
258.452	410.75
258.685	405.75
258.918	388.75
259.151	398.75
259.383	435.75
259.616	413.75
259.849	388.75
260.081	420.75
260.314	417.75
260.547	425.75
260.779	416.75
261.012	434.75
261.244	425.75
261.477	446.75
261.71	454.75
261.942	436.75
262.175	441.75
262.407	436.75
262.64	437.75
262.872	452.75
263.105	452.75
263.337	463.75
263.57	459.75
263.802	465.75
264.035	482.75
264.267	477.75
264.499	453.75
264.732	478.75
264.964	484.75
265.197	483.75
265.429	485.75
265.661	476.75
265.894	479.75
266.126	486.75
266.358	497.75
266.591	472.75
266.823	479.75
267.055	498.75
267.287	486.75
267.52	488.75
267.752	488.75
267.984	522.75
268.216	494.75
268.448	505.75
268.681	480.75
268.913	485.75
269.145	505.75
269.377	519.75
269.609	532.75
269.841	522.75
270.073	514.75
270.306	510.75
270.538	510.75
270.77	517.75
271.002	540.75
271.234	515.75
271.466	538.75
271.698	524.75
271.93	538.75
272.162	545.75
272.394	548.75
272.626	538.75
272.858	545.75
273.09	539.75
273.322	531.75
273.553	544.75
273.785	548.75
274.017	548.75
274.249	551.75
274.481	552.75
274.713	579.75
274.945	563.75
275.176	585.75
275.408	569.75
275.64	570.75
275.872	550.75
276.104	576.75
276.335	574.75
276.567	561.75
276.799	581.75
277.031	579.75
277.262	593.75
277.494	566.75
277.726	572.75
277.957	615.75
278.189	595.75
278.421	604.75
278.652	598.75
278.884	633.75
279.115	620.75
279.347	617.75
279.579	629.75
279.81	606.75
280.042	602.75
280.273	633.75
280.505	619.75
280.736	636.75
280.968	619.75
281.199	634.75
281.431	628.75
281.662	638.75
281.894	629.75
282.125	636.75
282.356	631.75
282.588	660.75
282.819	645.75
283.051	631.75
283.282	633.75
283.513	642.75
283.745	674.75
283.976	645.75
284.207	656.75
284.439	674.75
284.67	649.75
284.901	662.75
285.132	654.75
285.364	679.75
285.595	682.75
285.826	661.75
286.057	654.75
286.288	681.75
286.52	681.75
286.751	681.75
286.982	689.75
287.213	666.75
287.444	669.75
287.675	692.75
287.906	674.75
288.138	678.75
288.369	694.75
288.6	703.75
288.831	673.75
289.062	662.75
289.293	699.75
289.524	698.75
289.755	691.75
289.986	675.75
290.217	680.75
290.448	688.75
290.679	702.75
290.91	717.75
291.141	717.75
291.371	693.75
291.602	713.75
291.833	724.75
292.064	696.75
292.295	714.75
292.526	716.75
292.757	706.75
292.987	694.75
293.218	713.75
293.449	721.75
293.68	711.75
293.91	718.75
294.141	694.75
294.372	711.75
294.603	699.75
294.833	718.75
295.064	726.75
295.295	712.75
295.525	712.75
295.756	742.75
295.987	713.75
296.217	723.75
296.448	728.75
296.679	735.75
296.909	730.75
297.14	738.75
297.37	747.75
297.601	761.75
297.831	734.75
298.062	755.75
298.292	774.75
298.523	799.75
298.753	769.75
298.984	780.75
299.214	773.75
299.445	790.75
299.675	780.75
299.905	787.75
300.136	806.75
300.366	810.75
300.597	805.75
300.827	795.75
301.057	818.75
301.288	821.75
301.518	805.75
301.748	814.75
301.979	826.75
302.209	828.75
302.439	790.75
302.669	799.75
302.9	806.75
303.13	788.75
303.36	811.75
303.59	808.75
303.82	841.75
304.051	835.75
304.281	838.75
304.511	793.75
304.741	804.75
304.971	844.75
305.201	837.75
305.431	863.75
305.661	834.75
305.891	850.75
306.121	826.75
306.352	810.75
306.582	821.75
306.812	791.75
307.042	825.75
307.272	806.75
307.502	803.75
307.731	811.75
307.961	816.75
308.191	827.75
308.421	824.75
308.651	837.75
308.881	804.75
309.111	820.75
309.341	821.75
309.571	832.75
309.8	829.75
310.03	856.75
310.26	880.75
310.49	886.75
310.72	850.75
310.949	849.75
311.179	845.75
311.409	853.75
311.639	853.75
311.868	843.75
312.098	847.75
312.328	868.75
312.557	885.75
312.787	885.75
313.017	861.75
313.246	885.75
313.476	876.75
313.706	891.75
313.935	894.75
314.165	882.75
314.394	885.75
314.624	885.75
314.853	892.75
315.083	915.75
315.312	921.75
315.542	877.75
315.771	874.75
316.001	904.75
316.23	896.75
316.46	879.75
316.689	899.75
316.919	919.75
317.148	900.75
317.377	901.75
317.607	905.75
317.836	889.75
318.065	917.75
318.295	920.75
318.524	892.75
318.753	899.75
318.983	886.75
319.212	899.75
319.441	911.75
319.67	926.75
319.9	898.75
320.129	898.75
320.358	914.75
320.587	896.75
320.816	909.75
321.046	916.75
321.275	941.75
321.504	929.75
321.733	946.75
321.962	920.75
322.191	931.75
322.42	937.75
322.649	926.75
322.878	916.75
323.108	942.75
323.337	964.75
323.566	948.75
323.795	922.75
324.024	958.75
324.253	945.75
324.482	952.75
324.71	946.75
324.939	948.75
325.168	981.75
325.397	1000.75
325.626	969.75
325.855	993.75
326.084	971.75
326.313	988.75
326.542	977.75
326.77	1006.75
326.999	987.75
327.228	1000.75
327.457	984.75
327.686	994.75
327.914	1005.75
328.143	1036.75
328.372	1010.75
328.6	1016.75
328.829	1011.75
329.058	981.75
329.287	1004.75
329.515	990.75
329.744	1036.75
329.972	1052.75
330.201	1026.75
330.43	1038.75
330.658	1042.75
330.887	1065.75
331.115	1065.75
331.344	1093.75
331.572	1065.75
331.801	1060.75
332.03	1110.75
332.258	1068.75
332.486	1117.75
332.715	1117.75
332.943	1123.75
333.172	1140.75
333.4	1178.75
333.629	1210.75
333.857	1224.75
334.085	1205.75
334.314	1216.75
334.542	1240.75
334.771	1222.75
334.999	1212.75
335.227	1221.75
335.455	1205.75
335.684	1196.75
335.912	1244.75
336.14	1195.75
336.369	1173.75
336.597	1203.75
336.825	1234.75
337.053	1187.75
337.281	1186.75
337.51	1157.75
337.738	1181.75
337.966	1173.75
338.194	1172.75
338.422	1158.75
338.65	1090.75
338.878	1123.75
339.106	1141.75
339.334	1150.75
339.562	1140.75
339.79	1111.75
340.018	1104.75
340.246	1100.75
340.474	1074.75
340.702	1085.75
340.93	1089.75
341.158	1083.75
341.386	1124.75
341.614	1179.75
341.842	1129.75
342.07	1083.75
342.298	1085.75
342.526	1131.75
342.754	1074.75
342.981	1067.75
343.209	1105.75
343.437	1152.75
343.665	1191.75
343.893	1189.75
344.12	1214.75
344.348	1190.75
344.576	1188.75
344.804	1179.75
345.031	1157.75
345.259	1120.75
345.487	1144.75
345.714	1112.75
345.942	1108.75
346.17	1122.75
346.397	1100.75
346.625	1088.75
346.853	1045.75
347.08	1024.75
347.308	1033.75
347.535	1050.75
347.763	1030.75
347.99	1049.75
348.218	1036.75
348.445	1056.75
348.673	1014.75
348.9	1050.75
349.128	1049.75
349.355	1079.75
349.583	1058.75
349.81	1053.75
350.037	1023.75
350.265	1021.75
350.492	1019.75
350.72	1009.75
350.947	1029.75
351.174	1056.75
351.402	1057.75
351.629	1078.75
351.856	1064.75
352.083	1056.75
352.311	1051.75
352.538	1067.75
352.765	1064.75
352.992	1019.75
353.22	1006.75
353.447	1019.75
353.674	1024.75
353.901	1017.75
354.128	992.75
354.355	1017.75
354.583	1029.75
354.81	1018.75
355.037	981.75
355.264	1020.75
355.491	1038.75
355.718	1028.75
355.945	1004.75
356.172	993.75
356.399	1020.75
356.626	1026.75
356.853	1085.75
357.08	1032.75
357.307	1042.75
357.534	1030.75
357.761	1030.75
357.988	1004.75
358.215	1004.75
358.441	1004.75
358.668	1021.75
358.895	1012.75
359.122	1000.75
359.349	1003.75
359.576	1043.75
359.802	1020.75
360.029	1017.75
360.256	1028.75
360.483	1014.75
360.709	1032.75
360.936	1010.75
361.163	1044.75
361.39	1054.75
361.616	1033.75
361.843	1065.75
362.07	1081.75
362.296	1046.75
362.523	1043.75
362.749	1036.75
362.976	1010.75
363.203	999.75
363.429	999.75
363.656	1038.75
363.882	1014.75
364.109	1053.75
364.335	1012.75
364.562	1039.75
364.788	984.75
365.015	1043.75
365.241	1016.75
365.468	992.75
365.694	1010.75
365.92	1022.75
366.147	994.75
366.373	1028.75
366.599	1055.75
366.826	1032.75
367.052	1014.75
367.278	1061.75
367.505	1031.75
367.731	1053.75
367.957	1051.75
368.184	1041.75
368.41	1040.75
368.636	1057.75
368.862	1082.75
369.089	1041.75
369.315	1066.75
369.541	1044.75
369.767	1038.75
369.993	1061.75
370.219	1058.75
370.445	1086.75
370.672	1057.75
370.898	1080.75
371.124	1058.75
371.35	1086.75
371.576	1103.75
371.802	1091.75
372.028	1092.75
372.254	1116.75
372.48	1097.75
372.706	1115.75
372.932	1104.75
373.158	1100.75
373.384	1088.75
373.61	1104.75
373.835	1129.75
374.061	1076.75
374.287	1134.75
374.513	1111.75
374.739	1129.75
374.965	1164.75
375.191	1180.75
375.416	1144.75
375.642	1125.75
375.868	1117.75
376.094	1097.75
376.319	1117.75
376.545	1120.75
376.771	1092.75
376.997	1117.75
377.222	1104.75
377.448	1103.75
377.674	1054.75
377.899	1094.75
378.125	1095.75
378.35	1079.75
378.576	1082.75
378.802	1101.75
379.027	1050.75
379.253	1096.75
379.478	1096.75
379.704	1093.75
379.929	1069.75
380.155	1080.75
380.38	1068.75
380.606	1092.75
380.831	1092.75
381.057	1115.75
381.282	1098.75
381.507	1100.75
381.733	1070.75
381.958	1076.75
382.184	1110.75
382.409	1126.75
382.634	1128.75
382.86	1109.75
383.085	1124.75
383.31	1157.75
383.535	1138.75
383.761	1133.75
383.986	1173.75
384.211	1179.75
384.436	1173.75
384.662	1196.75
384.887	1202.75
385.112	1222.75
385.337	1216.75
385.562	1197.75
385.787	1254.75
386.013	1266.75
386.238	1245.75
386.463	1280.75
386.688	1244.75
386.913	1266.75
387.138	1277.75
387.363	1286.75
387.588	1249.75
387.813	1284.75
388.038	1246.75
388.263	1260.75
388.488	1256.75
388.713	1269.75
388.938	1248.75
389.163	1258.75
389.387	1258.75
389.612	1282.75
389.837	1260.75
390.062	1253.75
390.287	1257.75
390.512	1281.75
390.736	1288.75
390.961	1239.75
391.186	1300.75
391.411	1344.75
391.636	1333.75
391.86	1404.75
392.085	1403.75
392.31	1347.75
392.534	1342.75
392.759	1342.75
392.984	1312.75
393.208	1320.75
393.433	1347.75
393.658	1313.75
393.882	1303.75
394.107	1331.75
394.331	1330.75
394.556	1302.75
394.78	1339.75
395.005	1340.75
395.229	1300.75
395.454	1366.75
395.678	1368.75
395.903	1358.75
396.127	1404.75
396.352	1378.75
396.576	1381.75
396.801	1352.75
397.025	1381.75
397.249	1364.75
397.474	1395.75
397.698	1388.75
397.922	1462.75
398.147	1413.75
398.371	1448.75
398.595	1499.75
398.82	1536.75
399.044	1584.75
399.268	1688.75
399.492	1774.75
399.717	1878.75
399.941	1882.75
400.165	1832.75
400.389	1728.75
400.613	1642.75
400.837	1634.75
401.062	1548.75
401.286	1590.75
401.51	1538.75
401.734	1565.75
401.958	1544.75
402.182	1574.75
402.406	1554.75
402.63	1530.75
402.854	1536.75
403.078	1570.75
403.302	1576.75
403.526	1573.75
403.75	1572.75
403.974	1621.75
404.198	1591.75
404.422	1607.75
404.645	1594.75
404.869	1558.75
405.093	1631.75
405.317	1562.75
405.541	1606.75
405.765	1638.75
405.988	1605.75
406.212	1641.75
406.436	1642.75
406.66	1660.75
406.883	1676.75
407.107	1753.75
407.331	1796.75
407.555	1857.75
407.778	1812.75
408.002	1789.75
408.226	1799.75
408.449	1766.75
408.673	1725.75
408.896	1718.75
409.12	1672.75
409.344	1699.75
409.567	1680.75
409.791	1640.75
410.014	1651.75
410.238	1636.75
410.461	1622.75
410.685	1645.75
410.908	1611.75
411.132	1614.75
411.355	1557.75
411.578	1594.75
411.802	1555.75
412.025	1587.75
412.249	1592.75
412.472	1610.75
412.695	1549.75
412.919	1548.75
413.142	1571.75
413.365	1524.75
413.589	1533.75
413.812	1526.75
414.035	1482.75
414.258	1559.75
414.482	1509.75
414.705	1524.75
414.928	1554.75
415.151	1520.75
415.374	1516.75
415.597	1499.75
415.821	1456.75
416.044	1516.75
416.267	1505.75
416.49	1491.75
416.713	1494.75
416.936	1493.75
417.159	1496.75
417.382	1492.75
417.605	1468.75
417.828	1483.75
418.051	1500.75
418.274	1495.75
418.497	1453.75
418.72	1504.75
418.943	1480.75
419.166	1536.75
419.389	1694.75
419.611	1632.75
419.834	1566.75
420.057	1544.75
420.28	1483.75
420.503	1454.75
420.726	1474.75
420.948	1464.75
421.171	1487.75
421.394	1448.75
421.617	1456.75
421.839	1454.75
422.062	1462.75
422.285	1470.75
422.507	1500.75
422.73	1453.75
422.953	1493.75
423.175	1491.75
423.398	1483.75
423.621	1473.75
423.843	1498.75
424.066	1486.75
424.288	1490.75
424.511	1489.75
424.733	1455.75
424.956	1465.75
425.178	1472.75
425.401	1485.75
425.623	1487.75
425.846	1448.75
426.068	1461.75
426.291	1447.75
426.513	1407.75
426.735	1403.75
426.958	1446.75
427.18	1386.75
427.402	1397.75
427.625	1419.75
427.847	1406.75
428.069	1399.75
428.292	1420.75
428.514	1361.75
428.736	1373.75
428.958	1385.75
429.181	1358.75
429.403	1335.75
429.625	1391.75
429.847	1364.75
430.069	1361.75
430.292	1400.75
430.514	1368.75
430.736	1349.75
430.958	1376.75
431.18	1387.75
431.402	1377.75
431.624	1350.75
431.846	1370.75
432.068	1373.75
432.29	1418.75
432.512	1340.75
432.734	1377.75
432.956	1355.75
433.178	1406.75
433.4	1424.75
433.622	1407.75
433.844	1418.75
434.066	1428.75
434.287	1422.75
434.509	1408.75
434.731	1447.75
434.953	1470.75
435.175	1460.75
435.397	1481.75
435.618	1468.75
435.84	1430.75
436.062	1388.75
436.284	1390.75
436.505	1389.75
436.727	1376.75
436.949	1377.75
437.17	1377.75
437.392	1382.75
437.614	1333.75
437.835	1294.75
438.057	1342.75
438.278	1296.75
438.5	1347.75
438.721	1300.75
438.943	1314.75
439.165	1328.75
439.386	1349.75
439.608	1348.75
439.829	1338.75
440.05	1351.75
440.272	1379.75
440.493	1347.75
440.715	1401.75
440.936	1440.75
441.158	1405.75
441.379	1417.75
441.6	1477.75
441.822	1483.75
442.043	1457.75
442.264	1444.75
442.486	1423.75
442.707	1480.75
442.928	1430.75
443.149	1457.75
443.371	1475.75
443.592	1533.75
443.813	1488.75
444.034	1468.75
444.255	1485.75
444.476	1573.75
444.698	1611.75
444.919	1608.75
445.14	1689.75
445.361	1598.75
445.582	1515.75
445.803	1464.75
446.024	1404.75
446.245	1393.75
446.466	1410.75
446.687	1364.75
446.908	1376.75
447.129	1372.75
447.35	1318.75
447.571	1309.75
447.792	1307.75
448.013	1265.75
448.234	1280.75
448.455	1284.75
448.675	1227.75
448.896	1272.75
449.117	1289.75
449.338	1261.75
449.559	1250.75
449.779	1255.75
450	1217.75
450.221	1270.75
450.442	1228.75
450.662	1227.75
450.883	1248.75
451.104	1257.75
451.324	1290.75
451.545	1255.75
451.766	1252.75
451.986	1229.75
452.207	1220.75
452.428	1216.75
452.648	1229.75
452.869	1208.75
453.089	1206.75
453.31	1224.75
453.53	1180.75
453.751	1189.75
453.971	1207.75
454.192	1257.75
454.412	1191.75
454.633	1174.75
454.853	1198.75
455.073	1178.75
455.294	1218.75
455.514	1222.75
455.734	1209.75
455.955	1221.75
456.175	1211.75
456.395	1189.75
456.616	1182.75
456.836	1189.75
457.056	1205.75
457.276	1193.75
457.497	1217.75
457.717	1219.75
457.937	1217.75
458.157	1236.75
458.377	1235.75
458.598	1275.75
458.818	1292.75
459.038	1340.75
459.258	1332.75
459.478	1377.75
459.698	1469.75
459.918	1480.75
460.138	1437.75
460.358	1509.75
460.578	1511.75
460.798	1554.75
461.018	1548.75
461.238	1502.75
461.458	1504.75
461.678	1508.75
461.898	1568.75
462.118	1514.75
462.338	1586.75
462.558	1639.75
462.777	1673.75
462.997	1739.75
463.217	1788.75
463.437	1832.75
463.657	1846.75
463.876	1737.75
464.096	1715.75
464.316	1640.75
464.536	1625.75
464.755	1631.75
464.975	1601.75
465.195	1564.75
465.414	1476.75
465.634	1414.75
465.854	1416.75
466.073	1399.75
466.293	1364.75
466.512	1328.75
466.732	1319.75
466.951	1329.75
467.171	1337.75
467.391	1328.75
467.61	1300.75
467.829	1316.75
468.049	1282.75
468.268	1267.75
468.488	1282.75
468.707	1296.75
468.927	1319.75
469.146	1305.75
469.365	1316.75
469.585	1300.75
469.804	1286.75
470.023	1324.75
470.243	1317.75
470.462	1315.75
470.681	1336.75
470.901	1360.75
471.12	1294.75
471.339	1312.75
471.558	1289.75
471.777	1292.75
471.997	1308.75
472.216	1244.75
472.435	1274.75
472.654	1264.75
472.873	1266.75
473.092	1301.75
473.311	1258.75
473.53	1264.75
473.749	1236.75
473.968	1258.75
474.187	1253.75
474.406	1298.75
474.625	1279.75
474.844	1304.75
475.063	1282.75
475.282	1300.75
475.501	1300.75
475.72	1314.75
475.939	1312.75
476.158	1329.75
476.377	1323.75
476.596	1324.75
476.814	1337.75
477.033	1371.75
477.252	1396.75
477.471	1376.75
477.69	1429.75
477.908	1458.75
478.127	1480.75
478.346	1451.75
478.564	1493.75
478.783	1532.75
479.002	1564.75
479.22	1579.75
479.439	1560.75
479.658	1542.75
479.876	1583.75
480.095	1558.75
480.313	1644.75
480.532	1610.75
480.751	1595.75
480.969	1556.75
481.188	1538.75
481.406	1573.75
481.624	1526.75
481.843	1475.75
482.061	1520.75
482.28	1512.75
482.498	1516.75
482.717	1485.75
482.935	1509.75
483.153	1537.75
483.372	1586.75
483.59	1565.75
483.808	1517.75
484.027	1522.75
484.245	1538.75
484.463	1562.75
484.681	1545.75
484.9	1530.75
485.118	1561.75
485.336	1546.75
485.554	1574.75
485.772	1586.75
485.99	1555.75
486.209	1538.75
486.427	1529.75
486.645	1576.75
486.863	1571.75
487.081	1579.75
487.299	1562.75
487.517	1566.75
487.735	1560.75
487.953	1601.75
488.171	1588.75
488.389	1559.75
488.607	1569.75
488.825	1549.75
489.043	1586.75
489.261	1570.75
489.479	1537.75
489.696	1554.75
489.914	1562.75
490.132	1564.75
490.35	1553.75
490.568	1564.75
490.786	1559.75
491.003	1580.75
491.221	1579.75
491.439	1586.75
491.657	1558.75
491.874	1573.75
492.092	1604.75
492.31	1564.75
492.527	1563.75
492.745	1620.75
492.963	1587.75
493.18	1643.75
493.398	1591.75
493.615	1594.75
493.833	1600.75
494.05	1636.75
494.268	1645.75
494.485	1639.75
494.703	1607.75
494.92	1674.75
495.138	1653.75
495.355	1630.75
495.573	1618.75
495.79	1674.75
496.008	1681.75
496.225	1670.75
496.442	1677.75
496.66	1700.75
496.877	1728.75
497.094	1758.75
497.312	1796.75
497.529	1817.75
497.746	1841.75
497.963	1881.75
498.181	1971.75
498.398	2002.75
498.615	2102.75
498.832	2208.75
499.049	2276.75
499.267	2434.75
499.484	2530.75
499.701	2683.75
499.918	2819.75
500.135	2997.75
500.352	3143.75
500.569	3236.75
500.786	3248.75
501.003	3142.75
501.22	2952.75
501.437	2764.75
501.654	2598.75
501.871	2432.75
502.088	2372.75
502.305	2273.75
502.522	2170.75
502.739	2096.75
502.956	2024.75
503.172	1944.75
503.389	1919.75
503.606	1856.75
503.823	1829.75
504.04	1816.75
504.256	1778.75
504.473	1792.75
504.69	1812.75
504.907	1777.75
505.123	1683.75
505.34	1666.75
505.557	1628.75
505.773	1552.75
505.99	1558.75
506.207	1510.75
506.423	1475.75
506.64	1492.75
506.856	1429.75
507.073	1442.75
507.289	1416.75
507.506	1421.75
507.722	1431.75
507.939	1401.75
508.155	1389.75
508.372	1387.75
508.588	1354.75
508.805	1337.75
509.021	1330.75
509.238	1357.75
509.454	1301.75
509.67	1316.75
509.887	1323.75
510.103	1294.75
510.319	1330.75
510.536	1314.75
510.752	1276.75
510.968	1282.75
511.184	1274.75
511.401	1338.75
511.617	1313.75
511.833	1297.75
512.049	1281.75
512.265	1291.75
512.481	1304.75
512.698	1282.75
512.914	1264.75
513.13	1298.75
513.346	1309.75
513.562	1284.75
513.778	1292.75
513.994	1272.75
514.21	1296.75
514.426	1280.75
514.642	1334.75
514.858	1321.75
515.074	1322.75
515.29	1309.75
515.506	1331.75
515.721	1331.75
515.937	1372.75
516.153	1384.75
516.369	1385.75
516.585	1397.75
516.801	1412.75
517.016	1406.75
517.232	1471.75
517.448	1510.75
517.664	1516.75
517.879	1528.75
518.095	1503.75
518.311	1508.75
518.527	1484.75
518.742	1453.75
518.958	1438.75
519.173	1384.75
519.389	1366.75
519.605	1366.75
519.82	1330.75
520.036	1322.75
520.251	1276.75
520.467	1281.75
520.682	1254.75
520.898	1240.75
521.113	1268.75
521.329	1234.75
521.544	1210.75
521.76	1220.75
521.975	1182.75
522.19	1216.75
522.406	1202.75
522.621	1183.75
522.836	1197.75
523.052	1160.75
523.267	1180.75
523.482	1186.75
523.698	1154.75
523.913	1154.75
524.128	1167.75
524.343	1166.75
524.559	1167.75
524.774	1132.75
524.989	1174.75
525.204	1144.75
525.419	1133.75
525.634	1136.75
525.849	1133.75
526.064	1134.75
526.28	1123.75
526.495	1106.75
526.71	1140.75
526.925	1099.75
527.14	1126.75
527.355	1124.75
527.57	1119.75
527.785	1101.75
527.999	1111.75
528.214	1149.75
528.429	1113.75
528.644	1139.75
528.859	1141.75
529.074	1118.75
529.289	1125.75
529.503	1105.75
529.718	1095.75
529.933	1105.75
530.148	1049.75
530.363	1105.75
530.577	1079.75
530.792	1102.75
531.007	1078.75
531.221	1077.75
531.436	1096.75
531.651	1112.75
531.865	1065.75
532.08	1108.75
532.295	1127.75
532.509	1120.75
532.724	1104.75
532.938	1101.75
533.153	1091.75
533.367	1088.75
533.582	1100.75
533.796	1064.75
534.011	1091.75
534.225	1088.75
534.44	1072.75
534.654	1060.75
534.868	1062.75
535.083	1051.75
535.297	1074.75
535.511	1071.75
535.726	1070.75
535.94	1067.75
536.154	1035.75
536.369	1009.75
536.583	1024.75
536.797	1033.75
537.011	1032.75
537.225	1018.75
537.44	1042.75
537.654	1008.75
537.868	1012.75
538.082	1033.75
538.296	1025.75
538.51	1000.75
538.724	997.75
538.938	1020.75
539.153	1012.75
539.367	1035.75
539.581	1024.75
539.795	996.75
540.009	1002.75
540.222	994.75
540.436	986.75
540.65	952.75
540.864	978.75
541.078	996.75
541.292	1002.75
541.506	1020.75
541.72	989.75
541.934	996.75
542.147	1016.75
542.361	967.75
542.575	999.75
542.789	1002.75
543.002	979.75
543.216	960.75
543.43	997.75
543.644	980.75
543.857	980.75
544.071	1000.75
544.285	992.75
544.498	974.75
544.712	982.75
544.925	998.75
545.139	996.75
545.352	977.75
545.566	982.75
545.779	957.75
545.993	986.75
546.206	952.75
546.42	987.75
546.633	989.75
546.847	990.75
547.06	994.75
547.274	1012.75
547.487	992.75
547.7	997.75
547.914	1002.75
548.127	1013.75
548.34	970.75
548.554	976.75
548.767	971.75
548.98	974.75
549.193	1007.75
549.407	977.75
549.62	1019.75
549.833	990.75
550.046	961.75
550.259	974.75
550.473	993.75
550.686	992.75
550.899	970.75
551.112	950.75
551.325	950.75
551.538	988.75
551.751	997.75
551.964	983.75
552.177	990.75
552.39	979.75
552.603	1030.75
552.816	1032.75
553.029	1000.75
553.242	1045.75
553.455	1035.75
553.667	1010.75
553.88	1003.75
554.093	971.75
554.306	966.75
554.519	932.75
554.732	963.75
554.944	951.75
555.157	922.75
555.37	904.75
555.583	906.75
555.795	889.75
556.008	906.75
556.221	896.75
556.433	884.75
556.646	874.75
556.859	875.75
557.071	862.75
557.284	861.75
557.496	858.75
557.709	853.75
557.921	862.75
558.134	842.75
558.346	844.75
558.559	845.75
558.771	839.75
558.984	848.75
559.196	818.75
559.409	830.75
559.621	831.75
559.833	823.75
560.046	816.75
560.258	825.75
560.47	825.75
560.683	816.75
560.895	826.75
561.107	825.75
561.32	828.75
561.532	804.75
561.744	820.75
561.956	821.75
562.168	826.75
562.381	836.75
562.593	826.75
562.805	821.75
563.017	840.75
563.229	829.75
563.441	842.75
563.653	851.75
563.865	821.75
564.077	866.75
564.289	858.75
564.501	887.75
564.713	866.75
564.925	890.75
565.137	906.75
565.349	893.75
565.561	938.75
565.773	957.75
565.985	948.75
566.197	985.75
566.408	1034.75
566.62	1086.75
566.832	1090.75
567.044	1127.75
567.255	1102.75
567.467	1140.75
567.679	1177.75
567.891	1229.75
568.102	1184.75
568.314	1154.75
568.526	1150.75
568.737	1042.75
568.949	981.75
569.161	925.75
569.372	909.75
569.584	887.75
569.795	902.75
570.007	860.75
570.218	830.75
570.43	832.75
570.641	831.75
570.853	829.75
571.064	808.75
571.276	782.75
571.487	788.75
571.698	747.75
571.91	734.75
572.121	725.75
572.333	739.75
572.544	740.75
572.755	701.75
572.966	682.75
573.178	679.75
573.389	693.75
573.6	668.75
573.811	660.75
574.023	699.75
574.234	656.75
574.445	684.75
574.656	677.75
574.867	666.75
575.078	669.75
575.289	674.75
575.501	650.75
575.712	640.75
575.923	645.75
576.134	634.75
576.345	653.75
576.556	636.75
576.767	628.75
576.978	644.75
577.188	637.75
577.399	613.75
577.61	616.75
577.821	628.75
578.032	620.75
578.243	608.75
578.454	597.75
578.665	605.75
578.875	598.75
579.086	596.75
579.297	593.75
579.508	586.75
579.718	586.75
579.929	589.75
580.14	578.75
580.35	568.75
580.561	590.75
580.772	574.75
580.982	583.75
581.193	554.75
581.403	565.75
581.614	558.75
581.825	570.75
582.035	580.75
582.246	540.75
582.456	554.75
582.667	560.75
582.877	585.75
583.087	554.75
583.298	566.75
583.508	548.75
583.719	552.75
583.929	553.75
584.139	564.75
584.35	578.75
584.56	544.75
584.77	553.75
584.981	555.75
585.191	543.75
585.401	547.75
585.611	560.75
585.821	546.75
586.032	553.75
586.242	535.75
586.452	529.75
586.662	535.75
586.872	581.75
587.082	546.75
587.292	533.75
587.502	539.75
587.713	529.75
587.923	540.75
588.133	544.75
588.343	548.75
588.553	546.75
588.762	540.75
588.972	549.75
589.182	582.75
589.392	546.75
589.602	553.75
589.812	540.75
590.022	555.75
590.232	533.75
590.441	539.75
590.651	537.75
590.861	548.75
591.071	534.75
591.281	556.75
591.49	556.75
591.7	544.75
591.91	564.75
592.119	566.75
592.329	581.75
592.539	578.75
592.748	563.75
592.958	580.75
593.167	603.75
593.377	597.75
593.587	610.75
593.796	619.75
594.006	581.75
594.215	571.75
594.424	592.75
594.634	581.75
594.843	573.75
595.053	570.75
595.262	523.75
595.472	546.75
595.681	527.75
595.89	518.75
596.1	507.75
596.309	510.75
596.518	503.75
596.727	509.75
596.937	483.75
597.146	480.75
597.355	477.75
597.564	506.75
597.774	476.75
597.983	483.75
598.192	452.75
598.401	465.75
598.61	458.75
598.819	456.75
599.028	452.75
599.237	488.75
599.446	443.75
599.655	455.75
599.864	452.75
600.073	446.75
600.282	445.75
600.491	439.75
600.7	430.75
600.909	440.75
601.118	435.75
601.327	430.75
601.536	436.75
601.745	430.75
601.953	420.75
602.162	421.75
602.371	434.75
602.58	418.75
602.789	438.75
602.997	442.75
603.206	434.75
603.415	416.75
603.623	435.75
603.832	410.75
604.041	405.75
604.249	424.75
604.458	433.75
604.666	400.75
604.875	404.75
605.084	416.75
605.292	429.75
605.501	408.75
605.709	379.75
605.918	410.75
606.126	412.75
606.334	430.75
606.543	412.75
606.751	397.75
606.96	423.75
607.168	400.75
607.376	396.75
607.585	403.75
607.793	386.75
608.001	402.75
608.21	376.75
608.418	394.75
608.626	391.75
608.834	411.75
609.043	390.75
609.251	395.75
609.459	392.75
609.667	388.75
609.875	388.75
610.083	379.75
610.291	401.75
610.499	378.75
610.707	377.75
610.916	365.75
611.124	386.75
611.332	372.75
611.54	371.75
611.748	386.75
611.955	392.75
612.163	373.75
612.371	362.75
612.579	362.75
612.787	394.75
612.995	400.75
613.203	388.75
613.411	377.75
613.618	374.75
613.826	380.75
614.034	369.75
614.242	370.75
614.449	356.75
614.657	374.75
614.865	358.75
615.072	370.75
615.28	394.75
615.488	367.75
615.695	359.75
615.903	362.75
616.111	349.75
616.318	355.75
616.526	345.75
616.733	380.75
616.941	364.75
617.148	382.75
617.356	354.75
617.563	353.75
617.771	366.75
617.978	361.75
618.185	356.75
618.393	360.75
618.6	363.75
618.807	368.75
619.015	350.75
619.222	352.75
619.429	370.75
619.637	370.75
619.844	361.75
620.051	346.75
620.258	363.75
620.466	341.75
620.673	343.75
620.88	332.75
621.087	349.75
621.294	336.75
621.501	344.75
621.708	344.75
621.915	344.75
622.122	344.75
622.329	344.75
622.536	348.75
622.743	330.75
622.95	326.75
623.157	321.75
623.364	327.75
623.571	341.75
623.778	337.75
623.985	343.75
624.192	333.75
624.399	330.75
624.606	327.75
624.812	314.75
625.019	325.75
625.226	334.75
625.433	320.75
625.639	312.75
625.846	317.75
626.053	337.75
626.259	325.75
626.466	320.75
626.673	309.75
626.879	315.75
627.086	326.75
627.293	325.75
627.499	312.75
627.706	304.75
627.912	307.75
628.119	319.75
628.325	306.75
628.532	306.75
628.738	313.75
628.945	301.75
629.151	298.75
629.357	296.75
629.564	309.75
629.77	306.75
629.976	304.75
630.183	302.75
630.389	292.75
630.595	289.75
630.802	306.75
631.008	281.75
631.214	297.75
631.42	311.75
631.627	318.75
631.833	304.75
632.039	275.75
632.245	284.75
632.451	297.75
632.657	295.75
632.863	277.75
633.069	283.75
633.275	285.75
633.481	301.75
633.688	281.75
633.893	270.75
634.099	297.75
634.305	310.75
634.511	284.75
634.717	282.75
634.923	274.75
635.129	299.75
635.335	273.75
635.541	281.75
635.747	279.75
635.952	276.75
636.158	270.75
636.364	280.75
636.57	278.75
636.775	269.75
636.981	285.75
637.187	274.75
637.392	276.75
637.598	273.75
637.804	267.75
638.009	267.75
638.215	267.75
638.421	281.75
638.626	272.75
638.832	270.75
639.037	281.75
639.243	271.75
639.448	277.75
639.654	268.75
639.859	269.75
640.065	278.75
640.27	277.75
640.475	264.75
640.681	277.75
640.886	266.75
641.091	266.75
641.297	261.75
641.502	266.75
641.707	287.75
641.913	259.75
642.118	267.75
642.323	262.75
642.528	258.75
642.733	279.75
642.939	261.75
643.144	255.75
643.349	277.75
643.554	258.75
643.759	256.75
643.964	280.75
644.169	260.75
644.374	276.75
644.579	264.75
644.784	252.75
644.989	244.75
645.194	250.75
645.399	256.75
645.604	254.75
645.809	259.75
646.014	259.75
646.219	266.75
646.423	256.75
646.628	268.75
646.833	278.75
647.038	261.75
647.243	263.75
647.447	266.75
647.652	279.75
647.857	286.75
648.062	266.75
648.266	262.75
648.471	276.75
648.676	280.75
648.88	286.75
649.085	282.75
649.289	289.75
649.494	263.75
649.698	264.75
649.903	275.75
650.107	242.75
650.312	274.75
650.516	277.75
650.721	261.75
650.925	261.75
651.13	269.75
651.334	270.75
651.539	267.75
651.743	251.75
651.947	273.75
652.152	258.75
652.356	263.75
652.56	241.75
652.764	241.75
652.969	244.75
653.173	235.75
653.377	272.75
653.581	234.75
653.785	249.75
653.99	257.75
654.194	244.75
654.398	247.75
654.602	254.75
654.806	232.75
655.01	265.75
655.214	236.75
655.418	257.75
655.622	257.75
655.826	263.75
656.03	243.75
656.234	266.75
656.438	264.75
656.642	264.75
656.846	262.75
657.049	242.75
657.253	237.75
657.457	228.75
657.661	211.75
657.865	206.75
658.068	198.75
658.272	197.75
658.476	173.75
658.68	166.75
658.883	170.75
659.087	147.75
659.291	146.75
659.494	142.75
659.698	147.75
659.901	134.75
660.105	137.75
660.309	127.75
660.512	114.75
660.716	136.75
660.919	117.75
661.123	108.75
661.326	99.75
661.53	91.75
661.733	105.75
661.936	96.75
662.14	90.75
662.343	99.75
662.546	100.75
662.75	78.75
662.953	96.75
663.156	88.75
663.36	86.75
663.563	86.75
663.766	82.75
663.969	68.75
664.173	96.75
664.376	88.75
664.579	85.75
664.782	72.75
664.985	88.75
665.188	78.75
665.391	88.75
665.594	76.75
665.797	84.75
666	78.75
666.203	80.75
666.406	63.75
666.609	75.75
666.812	74.75
667.015	83.75
667.218	83.75
667.421	70.75
667.624	85.75
667.827	88.75
668.03	92.75
668.232	90.75
668.435	91.75
668.638	84.75
668.841	74.75
669.043	85.75
669.246	85.75
669.449	81.75
669.651	70.75
669.854	74.75
670.057	70.75
670.259	93.75
670.462	84.75
670.665	89.75
670.867	85.75
671.07	78.75
671.272	77.75
671.475	91.75
671.677	78.75
671.88	68.75
672.082	83.75
672.284	83.75
672.487	90.75
672.689	84.75
672.892	78.75
