Data from Ni(NO3)2@0.5M.TitratingCurve.Agarose3%dH2O.NegLispCup.LampEnergy10.LIBS07252019_HRD10591_17-59-19-564.txt Node
Date: Thu Jul 25 17:59:19 EDT 2019
User: cochatt
Spectrometer: HR+D1059
Trigger mode: 1
Integration Time (sec): 1.000000E-1
Scans to average: 1
Electric dark correction enabled: true
Nonlinearity correction enabled: false
Boxcar width: 0
XAxis mode: Wavelengths
Number of Pixels in Spectrum: 2048
>>>>>Begin Spectral Data<<<<<
223.165	-7.75
223.4	-7.75
223.635	-7.75
223.869	-18.75
224.104	-28.75
224.338	-11.75
224.573	-28.75
224.808	-9.75
225.042	-4.75
225.277	-2.75
225.511	5.25
225.746	9.25
225.98	6.25
226.215	9.25
226.449	15.25
226.683	14.25
226.918	28.25
227.152	25.25
227.387	31.25
227.621	51.25
227.856	52.25
228.09	61.25
228.324	59.25
228.559	61.25
228.793	71.25
229.027	115.25
229.262	115.25
229.496	117.25
229.73	129.25
229.964	117.25
230.199	145.25
230.433	145.25
230.667	150.25
230.901	143.25
231.136	132.25
231.37	143.25
231.604	155.25
231.838	140.25
232.072	165.25
232.306	129.25
232.541	137.25
232.775	125.25
233.009	139.25
233.243	130.25
233.477	135.25
233.711	130.25
233.945	137.25
234.179	124.25
234.413	125.25
234.647	146.25
234.881	133.25
235.115	135.25
235.349	127.25
235.583	131.25
235.817	122.25
236.051	121.25
236.285	131.25
236.519	129.25
236.753	135.25
236.987	137.25
237.221	137.25
237.455	141.25
237.689	126.25
237.922	138.25
238.156	148.25
238.39	136.25
238.624	139.25
238.858	152.25
239.091	140.25
239.325	131.25
239.559	141.25
239.793	160.25
240.027	158.25
240.26	160.25
240.494	152.25
240.728	151.25
240.961	146.25
241.195	151.25
241.429	139.25
241.662	159.25
241.896	153.25
242.13	169.25
242.363	141.25
242.597	158.25
242.83	157.25
243.064	136.25
243.298	155.25
243.531	153.25
243.765	174.25
243.998	183.25
244.232	165.25
244.465	173.25
244.699	159.25
244.932	150.25
245.166	187.25
245.399	171.25
245.633	150.25
245.866	167.25
246.099	169.25
246.333	175.25
246.566	183.25
246.8	177.25
247.033	163.25
247.266	168.25
247.5	171.25
247.733	180.25
247.966	167.25
248.2	166.25
248.433	190.25
248.666	180.25
248.899	187.25
249.133	198.25
249.366	183.25
249.599	193.25
249.832	175.25
250.066	188.25
250.299	172.25
250.532	180.25
250.765	185.25
250.998	210.25
251.231	215.25
251.465	218.25
251.698	209.25
251.931	214.25
252.164	203.25
252.397	196.25
252.63	197.25
252.863	207.25
253.096	215.25
253.329	199.25
253.562	215.25
253.795	196.25
254.028	184.25
254.261	219.25
254.494	213.25
254.727	204.25
254.96	210.25
255.193	208.25
255.426	189.25
255.659	215.25
255.892	213.25
256.124	220.25
256.357	223.25
256.59	219.25
256.823	231.25
257.056	208.25
257.289	214.25
257.521	239.25
257.754	222.25
257.987	219.25
258.22	230.25
258.452	218.25
258.685	230.25
258.918	249.25
259.151	222.25
259.383	246.25
259.616	216.25
259.849	225.25
260.081	241.25
260.314	229.25
260.547	247.25
260.779	225.25
261.012	235.25
261.244	233.25
261.477	237.25
261.71	266.25
261.942	247.25
262.175	267.25
262.407	223.25
262.64	255.25
262.872	255.25
263.105	261.25
263.337	249.25
263.57	250.25
263.802	247.25
264.035	267.25
264.267	261.25
264.499	262.25
264.732	256.25
264.964	257.25
265.197	263.25
265.429	262.25
265.661	261.25
265.894	275.25
266.126	259.25
266.358	257.25
266.591	265.25
266.823	263.25
267.055	270.25
267.287	284.25
267.52	259.25
267.752	274.25
267.984	292.25
268.216	287.25
268.448	273.25
268.681	281.25
268.913	267.25
269.145	274.25
269.377	276.25
269.609	284.25
269.841	279.25
270.073	285.25
270.306	272.25
270.538	273.25
270.77	285.25
271.002	283.25
271.234	295.25
271.466	274.25
271.698	272.25
271.93	280.25
272.162	287.25
272.394	296.25
272.626	289.25
272.858	296.25
273.09	283.25
273.322	302.25
273.553	283.25
273.785	293.25
274.017	309.25
274.249	289.25
274.481	308.25
274.713	303.25
274.945	302.25
275.176	300.25
275.408	304.25
275.64	289.25
275.872	302.25
276.104	296.25
276.335	296.25
276.567	300.25
276.799	318.25
277.031	309.25
277.262	305.25
277.494	323.25
277.726	303.25
277.957	293.25
278.189	310.25
278.421	315.25
278.652	315.25
278.884	313.25
279.115	320.25
279.347	314.25
279.579	349.25
279.81	331.25
280.042	323.25
280.273	336.25
280.505	320.25
280.736	337.25
280.968	347.25
281.199	335.25
281.431	324.25
281.662	323.25
281.894	329.25
282.125	334.25
282.356	347.25
282.588	332.25
282.819	324.25
283.051	343.25
283.282	320.25
283.513	356.25
283.745	334.25
283.976	342.25
284.207	321.25
284.439	336.25
284.67	351.25
284.901	370.25
285.132	358.25
285.364	344.25
285.595	343.25
285.826	363.25
286.057	365.25
286.288	349.25
286.52	343.25
286.751	339.25
286.982	341.25
287.213	346.25
287.444	353.25
287.675	355.25
287.906	367.25
288.138	354.25
288.369	335.25
288.6	352.25
288.831	358.25
289.062	362.25
289.293	371.25
289.524	364.25
289.755	369.25
289.986	380.25
290.217	358.25
290.448	348.25
290.679	373.25
290.91	379.25
291.141	360.25
291.371	369.25
291.602	372.25
291.833	371.25
292.064	358.25
292.295	357.25
292.526	380.25
292.757	371.25
292.987	366.25
293.218	352.25
293.449	369.25
293.68	376.25
293.91	379.25
294.141	384.25
294.372	374.25
294.603	382.25
294.833	374.25
295.064	377.25
295.295	375.25
295.525	380.25
295.756	370.25
295.987	360.25
296.217	375.25
296.448	385.25
296.679	382.25
296.909	376.25
297.14	385.25
297.37	400.25
297.601	391.25
297.831	382.25
298.062	374.25
298.292	384.25
298.523	407.25
298.753	392.25
298.984	395.25
299.214	411.25
299.445	400.25
299.675	410.25
299.905	429.25
300.136	414.25
300.366	429.25
300.597	416.25
300.827	418.25
301.057	415.25
301.288	444.25
301.518	426.25
301.748	411.25
301.979	425.25
302.209	401.25
302.439	405.25
302.669	401.25
302.9	415.25
303.13	417.25
303.36	430.25
303.59	422.25
303.82	457.25
304.051	451.25
304.281	411.25
304.511	407.25
304.741	427.25
304.971	417.25
305.201	420.25
305.431	420.25
305.661	429.25
305.891	446.25
306.121	443.25
306.352	415.25
306.582	416.25
306.812	444.25
307.042	420.25
307.272	407.25
307.502	429.25
307.731	415.25
307.961	417.25
308.191	408.25
308.421	424.25
308.651	428.25
308.881	436.25
309.111	445.25
309.341	426.25
309.571	439.25
309.8	447.25
310.03	469.25
310.26	473.25
310.49	442.25
310.72	440.25
310.949	419.25
311.179	423.25
311.409	425.25
311.639	439.25
311.868	423.25
312.098	439.25
312.328	445.25
312.557	427.25
312.787	433.25
313.017	457.25
313.246	463.25
313.476	459.25
313.706	454.25
313.935	456.25
314.165	453.25
314.394	443.25
314.624	466.25
314.853	477.25
315.083	454.25
315.312	476.25
315.542	451.25
315.771	454.25
316.001	449.25
316.23	455.25
316.46	456.25
316.689	471.25
316.919	453.25
317.148	466.25
317.377	465.25
317.607	455.25
317.836	471.25
318.065	474.25
318.295	469.25
318.524	452.25
318.753	465.25
318.983	464.25
319.212	448.25
319.441	469.25
319.67	461.25
319.9	488.25
320.129	470.25
320.358	484.25
320.587	487.25
320.816	476.25
321.046	478.25
321.275	480.25
321.504	475.25
321.733	469.25
321.962	487.25
322.191	464.25
322.42	479.25
322.649	484.25
322.878	503.25
323.108	480.25
323.337	497.25
323.566	504.25
323.795	480.25
324.024	498.25
324.253	498.25
324.482	480.25
324.71	509.25
324.939	501.25
325.168	505.25
325.397	485.25
325.626	499.25
325.855	508.25
326.084	522.25
326.313	521.25
326.542	507.25
326.77	525.25
326.999	493.25
327.228	497.25
327.457	522.25
327.686	492.25
327.914	520.25
328.143	483.25
328.372	499.25
328.6	515.25
328.829	519.25
329.058	502.25
329.287	495.25
329.515	537.25
329.744	508.25
329.972	505.25
330.201	543.25
330.43	526.25
330.658	549.25
330.887	509.25
331.115	534.25
331.344	539.25
331.572	538.25
331.801	540.25
332.03	542.25
332.258	544.25
332.486	571.25
332.715	555.25
332.943	568.25
333.172	585.25
333.4	591.25
333.629	596.25
333.857	588.25
334.085	607.25
334.314	601.25
334.542	601.25
334.771	624.25
334.999	604.25
335.227	593.25
335.455	601.25
335.684	596.25
335.912	598.25
336.14	601.25
336.369	601.25
336.597	592.25
336.825	594.25
337.053	614.25
337.281	615.25
337.51	588.25
337.738	587.25
337.966	604.25
338.194	589.25
338.422	575.25
338.65	567.25
338.878	584.25
339.106	568.25
339.334	596.25
339.562	602.25
339.79	580.25
340.018	577.25
340.246	559.25
340.474	565.25
340.702	559.25
340.93	558.25
341.158	576.25
341.386	592.25
341.614	591.25
341.842	573.25
342.07	568.25
342.298	543.25
342.526	570.25
342.754	555.25
342.981	547.25
343.209	572.25
343.437	572.25
343.665	611.25
343.893	603.25
344.12	606.25
344.348	593.25
344.576	571.25
344.804	607.25
345.031	585.25
345.259	568.25
345.487	571.25
345.714	587.25
345.942	588.25
346.17	585.25
346.397	574.25
346.625	581.25
346.853	563.25
347.08	560.25
347.308	543.25
347.535	543.25
347.763	549.25
347.99	521.25
348.218	538.25
348.445	544.25
348.673	541.25
348.9	544.25
349.128	551.25
349.355	537.25
349.583	561.25
349.81	546.25
350.037	538.25
350.265	540.25
350.492	542.25
350.72	527.25
350.947	538.25
351.174	540.25
351.402	560.25
351.629	553.25
351.856	561.25
352.083	533.25
352.311	578.25
352.538	580.25
352.765	559.25
352.992	529.25
353.22	533.25
353.447	529.25
353.674	538.25
353.901	515.25
354.128	526.25
354.355	537.25
354.583	495.25
354.81	544.25
355.037	536.25
355.264	535.25
355.491	534.25
355.718	530.25
355.945	501.25
356.172	521.25
356.399	546.25
356.626	555.25
356.853	551.25
357.08	545.25
357.307	543.25
357.534	538.25
357.761	552.25
357.988	509.25
358.215	525.25
358.441	535.25
358.668	522.25
358.895	490.25
359.122	533.25
359.349	529.25
359.576	540.25
359.802	527.25
360.029	543.25
360.256	529.25
360.483	542.25
360.709	521.25
360.936	556.25
361.163	548.25
361.39	524.25
361.616	527.25
361.843	533.25
362.07	607.25
362.296	561.25
362.523	556.25
362.749	545.25
362.976	525.25
363.203	533.25
363.429	519.25
363.656	513.25
363.882	536.25
364.109	529.25
364.335	544.25
364.562	521.25
364.788	553.25
365.015	529.25
365.241	526.25
365.468	527.25
365.694	537.25
365.92	516.25
366.147	534.25
366.373	564.25
366.599	503.25
366.826	527.25
367.052	556.25
367.278	546.25
367.505	543.25
367.731	564.25
367.957	565.25
368.184	555.25
368.41	560.25
368.636	542.25
368.862	530.25
369.089	565.25
369.315	547.25
369.541	565.25
369.767	549.25
369.993	576.25
370.219	541.25
370.445	548.25
370.672	556.25
370.898	584.25
371.124	556.25
371.35	575.25
371.576	589.25
371.802	549.25
372.028	557.25
372.254	575.25
372.48	577.25
372.706	586.25
372.932	578.25
373.158	595.25
373.384	573.25
373.61	569.25
373.835	574.25
374.061	558.25
374.287	593.25
374.513	572.25
374.739	581.25
374.965	587.25
375.191	583.25
375.416	573.25
375.642	581.25
375.868	602.25
376.094	591.25
376.319	590.25
376.545	578.25
376.771	572.25
376.997	558.25
377.222	567.25
377.448	572.25
377.674	583.25
377.899	556.25
378.125	592.25
378.35	568.25
378.576	571.25
378.802	555.25
379.027	556.25
379.253	560.25
379.478	569.25
379.704	557.25
379.929	557.25
380.155	551.25
380.38	583.25
380.606	567.25
380.831	539.25
381.057	565.25
381.282	547.25
381.507	566.25
381.733	583.25
381.958	571.25
382.184	576.25
382.409	569.25
382.634	593.25
382.86	565.25
383.085	576.25
383.31	602.25
383.535	598.25
383.761	632.25
383.986	613.25
384.211	605.25
384.436	618.25
384.662	587.25
384.887	649.25
385.112	633.25
385.337	612.25
385.562	613.25
385.787	619.25
386.013	623.25
386.238	633.25
386.463	627.25
386.688	660.25
386.913	620.25
387.138	625.25
387.363	643.25
387.588	616.25
387.813	631.25
388.038	649.25
388.263	647.25
388.488	665.25
388.713	639.25
388.938	629.25
389.163	628.25
389.387	642.25
389.612	645.25
389.837	619.25
390.062	633.25
390.287	644.25
390.512	645.25
390.736	651.25
390.961	663.25
391.186	636.25
391.411	647.25
391.636	667.25
391.86	695.25
392.085	683.25
392.31	671.25
392.534	686.25
392.759	686.25
392.984	679.25
393.208	666.25
393.433	660.25
393.658	658.25
393.882	635.25
394.107	656.25
394.331	659.25
394.556	667.25
394.78	666.25
395.005	678.25
395.229	666.25
395.454	688.25
395.678	700.25
395.903	672.25
396.127	665.25
396.352	670.25
396.576	697.25
396.801	678.25
397.025	694.25
397.249	700.25
397.474	699.25
397.698	693.25
397.922	702.25
398.147	710.25
398.371	717.25
398.595	732.25
398.82	724.25
399.044	783.25
399.268	803.25
399.492	845.25
399.717	878.25
399.941	868.25
400.165	845.25
400.389	836.25
400.613	793.25
400.837	789.25
401.062	760.25
401.286	760.25
401.51	755.25
401.734	750.25
401.958	741.25
402.182	761.25
402.406	763.25
402.63	773.25
402.854	758.25
403.078	787.25
403.302	778.25
403.526	784.25
403.75	777.25
403.974	785.25
404.198	799.25
404.422	779.25
404.645	781.25
404.869	767.25
405.093	795.25
405.317	769.25
405.541	763.25
405.765	785.25
405.988	791.25
406.212	795.25
406.436	807.25
406.66	817.25
406.883	819.25
407.107	854.25
407.331	837.25
407.555	876.25
407.778	862.25
408.002	864.25
408.226	856.25
408.449	850.25
408.673	816.25
408.896	843.25
409.12	795.25
409.344	813.25
409.567	808.25
409.791	798.25
410.014	821.25
410.238	803.25
410.461	828.25
410.685	784.25
410.908	800.25
411.132	797.25
411.355	761.25
411.578	793.25
411.802	803.25
412.025	824.25
412.249	803.25
412.472	755.25
412.695	775.25
412.919	784.25
413.142	785.25
413.365	765.25
413.589	757.25
413.812	764.25
414.035	770.25
414.258	760.25
414.482	800.25
414.705	778.25
414.928	771.25
415.151	758.25
415.374	774.25
415.597	776.25
415.821	756.25
416.044	752.25
416.267	716.25
416.49	736.25
416.713	741.25
416.936	725.25
417.159	728.25
417.382	745.25
417.605	711.25
417.828	719.25
418.051	748.25
418.274	772.25
418.497	737.25
418.72	736.25
418.943	731.25
419.166	769.25
419.389	832.25
419.611	791.25
419.834	778.25
420.057	758.25
420.28	747.25
420.503	749.25
420.726	717.25
420.948	713.25
421.171	724.25
421.394	730.25
421.617	739.25
421.839	718.25
422.062	724.25
422.285	723.25
422.507	735.25
422.73	729.25
422.953	737.25
423.175	730.25
423.398	729.25
423.621	746.25
423.843	741.25
424.066	752.25
424.288	740.25
424.511	749.25
424.733	737.25
424.956	752.25
425.178	711.25
425.401	711.25
425.623	742.25
425.846	719.25
426.068	745.25
426.291	729.25
426.513	713.25
426.735	686.25
426.958	727.25
427.18	704.25
427.402	711.25
427.625	715.25
427.847	685.25
428.069	691.25
428.292	709.25
428.514	709.25
428.736	708.25
428.958	709.25
429.181	692.25
429.403	696.25
429.625	697.25
429.847	667.25
430.069	684.25
430.292	691.25
430.514	695.25
430.736	682.25
430.958	682.25
431.18	688.25
431.402	677.25
431.624	698.25
431.846	676.25
432.068	696.25
432.29	715.25
432.512	709.25
432.734	692.25
432.956	690.25
433.178	718.25
433.4	732.25
433.622	744.25
433.844	752.25
434.066	721.25
434.287	701.25
434.509	743.25
434.731	739.25
434.953	738.25
435.175	777.25
435.397	754.25
435.618	717.25
435.84	723.25
436.062	691.25
436.284	708.25
436.505	716.25
436.727	702.25
436.949	697.25
437.17	715.25
437.392	698.25
437.614	700.25
437.835	678.25
438.057	663.25
438.278	680.25
438.5	667.25
438.721	712.25
438.943	704.25
439.165	675.25
439.386	695.25
439.608	703.25
439.829	698.25
440.05	703.25
440.272	730.25
440.493	708.25
440.715	704.25
440.936	727.25
441.158	733.25
441.379	721.25
441.6	760.25
441.822	764.25
442.043	766.25
442.264	758.25
442.486	734.25
442.707	737.25
442.928	733.25
443.149	714.25
443.371	759.25
443.592	785.25
443.813	779.25
444.034	761.25
444.255	744.25
444.476	762.25
444.698	779.25
444.919	816.25
445.14	924.25
445.361	829.25
445.582	783.25
445.803	745.25
446.024	719.25
446.245	724.25
446.466	719.25
446.687	684.25
446.908	696.25
447.129	686.25
447.35	688.25
447.571	706.25
447.792	672.25
448.013	695.25
448.234	661.25
448.455	671.25
448.675	677.25
448.896	652.25
449.117	640.25
449.338	655.25
449.559	661.25
449.779	657.25
450	647.25
450.221	635.25
450.442	654.25
450.662	636.25
450.883	641.25
451.104	671.25
451.324	676.25
451.545	661.25
451.766	640.25
451.986	659.25
452.207	678.25
452.428	652.25
452.648	624.25
452.869	643.25
453.089	664.25
453.31	640.25
453.53	639.25
453.751	613.25
453.971	641.25
454.192	635.25
454.412	644.25
454.633	635.25
454.853	639.25
455.073	622.25
455.294	623.25
455.514	625.25
455.734	633.25
455.955	639.25
456.175	654.25
456.395	636.25
456.616	612.25
456.836	621.25
457.056	623.25
457.276	605.25
457.497	638.25
457.717	617.25
457.937	636.25
458.157	627.25
458.377	637.25
458.598	647.25
458.818	652.25
459.038	671.25
459.258	690.25
459.478	734.25
459.698	784.25
459.918	787.25
460.138	765.25
460.358	786.25
460.578	760.25
460.798	747.25
461.018	789.25
461.238	756.25
461.458	755.25
461.678	770.25
461.898	748.25
462.118	759.25
462.338	793.25
462.558	833.25
462.777	867.25
462.997	869.25
463.217	898.25
463.437	923.25
463.657	913.25
463.876	851.25
464.096	829.25
464.316	816.25
464.536	822.25
464.755	808.25
464.975	781.25
465.195	771.25
465.414	766.25
465.634	752.25
465.854	704.25
466.073	699.25
466.293	695.25
466.512	685.25
466.732	679.25
466.951	699.25
467.171	691.25
467.391	672.25
467.61	677.25
467.829	673.25
468.049	692.25
468.268	675.25
468.488	684.25
468.707	680.25
468.927	679.25
469.146	680.25
469.365	686.25
469.585	679.25
469.804	680.25
470.023	701.25
470.243	707.25
470.462	717.25
470.681	709.25
470.901	685.25
471.12	655.25
471.339	682.25
471.558	681.25
471.777	688.25
471.997	661.25
472.216	670.25
472.435	683.25
472.654	673.25
472.873	663.25
473.092	655.25
473.311	675.25
473.53	680.25
473.749	675.25
473.968	672.25
474.187	678.25
474.406	688.25
474.625	697.25
474.844	678.25
475.063	705.25
475.282	676.25
475.501	685.25
475.72	669.25
475.939	680.25
476.158	698.25
476.377	694.25
476.596	695.25
476.814	701.25
477.033	691.25
477.252	719.25
477.471	740.25
477.69	744.25
477.908	745.25
478.127	749.25
478.346	733.25
478.564	756.25
478.783	779.25
479.002	793.25
479.22	840.25
479.439	820.25
479.658	793.25
479.876	806.25
480.095	796.25
480.313	823.25
480.532	827.25
480.751	803.25
480.969	801.25
481.188	784.25
481.406	796.25
481.624	799.25
481.843	762.25
482.061	790.25
482.28	764.25
482.498	755.25
482.717	781.25
482.935	793.25
483.153	799.25
483.372	844.25
483.59	824.25
483.808	772.25
484.027	800.25
484.245	801.25
484.463	815.25
484.681	809.25
484.9	822.25
485.118	799.25
485.336	793.25
485.554	806.25
485.772	797.25
485.99	819.25
486.209	795.25
486.427	818.25
486.645	806.25
486.863	787.25
487.081	828.25
487.299	817.25
487.517	830.25
487.735	823.25
487.953	833.25
488.171	824.25
488.389	816.25
488.607	825.25
488.825	792.25
489.043	814.25
489.261	796.25
489.479	796.25
489.696	795.25
489.914	776.25
490.132	802.25
490.35	773.25
490.568	823.25
490.786	838.25
491.003	803.25
491.221	803.25
491.439	856.25
491.657	800.25
491.874	814.25
492.092	856.25
492.31	860.25
492.527	859.25
492.745	848.25
492.963	846.25
493.18	848.25
493.398	817.25
493.615	858.25
493.833	839.25
494.05	841.25
494.268	828.25
494.485	851.25
494.703	852.25
494.92	866.25
495.138	862.25
495.355	856.25
495.573	880.25
495.79	864.25
496.008	848.25
496.225	861.25
496.442	888.25
496.66	881.25
496.877	892.25
497.094	909.25
497.312	926.25
497.529	923.25
497.746	897.25
497.963	939.25
498.181	947.25
498.398	1013.25
498.615	1014.25
498.832	1084.25
499.049	1088.25
499.267	1126.25
499.484	1161.25
499.701	1263.25
499.918	1306.25
500.135	1382.25
500.352	1460.25
500.569	1493.25
500.786	1459.25
501.003	1465.25
501.22	1383.25
501.437	1284.25
501.654	1223.25
501.871	1161.25
502.088	1102.25
502.305	1087.25
502.522	1061.25
502.739	1024.25
502.956	977.25
503.172	969.25
503.389	972.25
503.606	916.25
503.823	909.25
504.04	895.25
504.256	899.25
504.473	880.25
504.69	874.25
504.907	868.25
505.123	856.25
505.34	841.25
505.557	797.25
505.773	826.25
505.99	787.25
506.207	773.25
506.423	733.25
506.64	773.25
506.856	751.25
507.073	734.25
507.289	740.25
507.506	743.25
507.722	752.25
507.939	740.25
508.155	727.25
508.372	735.25
508.588	699.25
508.805	688.25
509.021	703.25
509.238	695.25
509.454	704.25
509.67	686.25
509.887	704.25
510.103	714.25
510.319	683.25
510.536	679.25
510.752	692.25
510.968	671.25
511.184	676.25
511.401	649.25
511.617	689.25
511.833	670.25
512.049	671.25
512.265	673.25
512.481	664.25
512.698	687.25
512.914	673.25
513.13	673.25
513.346	700.25
513.562	671.25
513.778	676.25
513.994	669.25
514.21	658.25
514.426	702.25
514.642	686.25
514.858	681.25
515.074	682.25
515.29	674.25
515.506	689.25
515.721	685.25
515.937	701.25
516.153	700.25
516.369	702.25
516.585	699.25
516.801	730.25
517.016	765.25
517.232	742.25
517.448	773.25
517.664	744.25
517.879	775.25
518.095	755.25
518.311	752.25
518.527	711.25
518.742	695.25
518.958	714.25
519.173	686.25
519.389	702.25
519.605	694.25
519.82	703.25
520.036	686.25
520.251	676.25
520.467	657.25
520.682	680.25
520.898	666.25
521.113	672.25
521.329	633.25
521.544	647.25
521.76	625.25
521.975	636.25
522.19	661.25
522.406	627.25
522.621	638.25
522.836	631.25
523.052	616.25
523.267	616.25
523.482	628.25
523.698	621.25
523.913	607.25
524.128	627.25
524.343	597.25
524.559	635.25
524.774	583.25
524.989	582.25
525.204	617.25
525.419	636.25
525.634	602.25
525.849	607.25
526.064	613.25
526.28	613.25
526.495	581.25
526.71	591.25
526.925	592.25
527.14	583.25
527.355	574.25
527.57	583.25
527.785	580.25
527.999	613.25
528.214	591.25
528.429	588.25
528.644	603.25
528.859	589.25
529.074	575.25
529.289	597.25
529.503	603.25
529.718	585.25
529.933	586.25
530.148	583.25
530.363	560.25
530.577	573.25
530.792	577.25
531.007	575.25
531.221	580.25
531.436	565.25
531.651	583.25
531.865	594.25
532.08	547.25
532.295	571.25
532.509	585.25
532.724	585.25
532.938	584.25
533.153	582.25
533.367	572.25
533.582	563.25
533.796	571.25
534.011	560.25
534.225	575.25
534.44	580.25
534.654	579.25
534.868	582.25
535.083	574.25
535.297	550.25
535.511	573.25
535.726	575.25
535.94	555.25
536.154	532.25
536.369	578.25
536.583	547.25
536.797	527.25
537.011	556.25
537.225	553.25
537.44	565.25
537.654	519.25
537.868	524.25
538.082	525.25
538.296	523.25
538.51	507.25
538.724	531.25
538.938	544.25
539.153	541.25
539.367	540.25
539.581	548.25
539.795	544.25
540.009	515.25
540.222	509.25
540.436	519.25
540.65	506.25
540.864	543.25
541.078	535.25
541.292	531.25
541.506	523.25
541.72	539.25
541.934	548.25
542.147	545.25
542.361	554.25
542.575	537.25
542.789	529.25
543.002	521.25
543.216	517.25
543.43	511.25
543.644	496.25
543.857	504.25
544.071	544.25
544.285	559.25
544.498	526.25
544.712	541.25
544.925	549.25
545.139	536.25
545.352	518.25
545.566	533.25
545.779	539.25
545.993	554.25
546.206	537.25
546.42	542.25
546.633	521.25
546.847	552.25
547.06	507.25
547.274	548.25
547.487	523.25
547.7	539.25
547.914	542.25
548.127	542.25
548.34	548.25
548.554	518.25
548.767	519.25
548.98	535.25
549.193	534.25
549.407	536.25
549.62	541.25
549.833	548.25
550.046	521.25
550.259	519.25
550.473	552.25
550.686	548.25
550.899	521.25
551.112	534.25
551.325	540.25
551.538	512.25
551.751	539.25
551.964	531.25
552.177	488.25
552.39	535.25
552.603	523.25
552.816	535.25
553.029	557.25
553.242	555.25
553.455	548.25
553.667	547.25
553.88	546.25
554.093	525.25
554.306	529.25
554.519	533.25
554.732	528.25
554.944	492.25
555.157	495.25
555.37	499.25
555.583	499.25
555.795	503.25
556.008	479.25
556.221	500.25
556.433	485.25
556.646	471.25
556.859	477.25
557.071	478.25
557.284	480.25
557.496	464.25
557.709	454.25
557.921	460.25
558.134	456.25
558.346	455.25
558.559	445.25
558.771	473.25
558.984	467.25
559.196	479.25
559.409	450.25
559.621	449.25
559.833	461.25
560.046	449.25
560.258	444.25
560.47	451.25
560.683	463.25
560.895	437.25
561.107	445.25
561.32	444.25
561.532	449.25
561.744	461.25
561.956	470.25
562.168	459.25
562.381	482.25
562.593	465.25
562.805	445.25
563.017	437.25
563.229	465.25
563.441	437.25
563.653	449.25
563.865	453.25
564.077	457.25
564.289	456.25
564.501	468.25
564.713	463.25
564.925	456.25
565.137	486.25
565.349	474.25
565.561	487.25
565.773	496.25
565.985	519.25
566.197	528.25
566.408	544.25
566.62	539.25
566.832	550.25
567.044	563.25
567.255	584.25
567.467	577.25
567.679	602.25
567.891	583.25
568.102	573.25
568.314	566.25
568.526	549.25
568.737	523.25
568.949	497.25
569.161	478.25
569.372	451.25
569.584	464.25
569.795	447.25
570.007	455.25
570.218	447.25
570.43	442.25
570.641	443.25
570.853	441.25
571.064	447.25
571.276	422.25
571.487	413.25
571.698	411.25
571.91	392.25
572.121	387.25
572.333	388.25
572.544	401.25
572.755	386.25
572.966	393.25
573.178	371.25
573.389	381.25
573.6	379.25
573.811	394.25
574.023	382.25
574.234	383.25
574.445	373.25
574.656	365.25
574.867	383.25
575.078	383.25
575.289	359.25
575.501	362.25
575.712	356.25
575.923	351.25
576.134	360.25
576.345	361.25
576.556	363.25
576.767	363.25
576.978	360.25
577.188	345.25
577.399	357.25
577.61	333.25
577.821	344.25
578.032	335.25
578.243	336.25
578.454	348.25
578.665	360.25
578.875	335.25
579.086	315.25
579.297	325.25
579.508	319.25
579.718	325.25
579.929	342.25
580.14	331.25
580.35	317.25
580.561	319.25
580.772	327.25
580.982	339.25
581.193	329.25
581.403	326.25
581.614	304.25
581.825	313.25
582.035	325.25
582.246	321.25
582.456	304.25
582.667	328.25
582.877	321.25
583.087	309.25
583.298	326.25
583.508	328.25
583.719	317.25
583.929	310.25
584.139	320.25
584.35	309.25
584.56	324.25
584.77	320.25
584.981	299.25
585.191	311.25
585.401	297.25
585.611	285.25
585.821	318.25
586.032	307.25
586.242	314.25
586.452	311.25
586.662	309.25
586.872	295.25
587.082	313.25
587.292	291.25
587.502	296.25
587.713	305.25
587.923	304.25
588.133	297.25
588.343	318.25
588.553	299.25
588.762	295.25
588.972	289.25
589.182	323.25
589.392	303.25
589.602	320.25
589.812	311.25
590.022	292.25
590.232	287.25
590.441	320.25
590.651	307.25
590.861	316.25
591.071	317.25
591.281	309.25
591.49	305.25
591.7	320.25
591.91	304.25
592.119	334.25
592.329	318.25
592.539	317.25
592.748	307.25
592.958	318.25
593.167	314.25
593.377	327.25
593.587	332.25
593.796	323.25
594.006	326.25
594.215	338.25
594.424	318.25
594.634	314.25
594.843	314.25
595.053	308.25
595.262	323.25
595.472	292.25
595.681	294.25
595.89	305.25
596.1	283.25
596.309	286.25
596.518	285.25
596.727	259.25
596.937	281.25
597.146	289.25
597.355	294.25
597.564	283.25
597.774	276.25
597.983	278.25
598.192	258.25
598.401	282.25
598.61	282.25
598.819	268.25
599.028	263.25
599.237	259.25
599.446	262.25
599.655	277.25
599.864	269.25
600.073	261.25
600.282	272.25
600.491	274.25
600.7	259.25
600.909	278.25
601.118	265.25
601.327	259.25
601.536	252.25
601.745	251.25
601.953	263.25
602.162	265.25
602.371	247.25
602.58	266.25
602.789	243.25
602.997	270.25
603.206	251.25
603.415	261.25
603.623	255.25
603.832	248.25
604.041	236.25
604.249	236.25
604.458	245.25
604.666	249.25
604.875	248.25
605.084	248.25
605.292	244.25
605.501	261.25
605.709	245.25
605.918	238.25
606.126	241.25
606.334	247.25
606.543	251.25
606.751	248.25
606.96	246.25
607.168	233.25
607.376	252.25
607.585	250.25
607.793	245.25
608.001	248.25
608.21	236.25
608.418	245.25
608.626	224.25
608.834	240.25
609.043	239.25
609.251	242.25
609.459	233.25
609.667	243.25
609.875	241.25
610.083	233.25
610.291	244.25
610.499	247.25
610.707	248.25
610.916	232.25
611.124	259.25
611.332	226.25
611.54	223.25
611.748	236.25
611.955	214.25
612.163	215.25
612.371	235.25
612.579	223.25
612.787	236.25
612.995	230.25
613.203	231.25
613.411	238.25
613.618	238.25
613.826	225.25
614.034	231.25
614.242	229.25
614.449	230.25
614.657	230.25
614.865	240.25
615.072	222.25
615.28	237.25
615.488	225.25
615.695	245.25
615.903	240.25
616.111	230.25
616.318	230.25
616.526	220.25
616.733	224.25
616.941	202.25
617.148	222.25
617.356	227.25
617.563	235.25
617.771	234.25
617.978	224.25
618.185	213.25
618.393	210.25
618.6	253.25
618.807	219.25
619.015	227.25
619.222	212.25
619.429	238.25
619.637	210.25
619.844	207.25
620.051	230.25
620.258	208.25
620.466	212.25
620.673	213.25
620.88	205.25
621.087	209.25
621.294	213.25
621.501	209.25
621.708	214.25
621.915	213.25
622.122	207.25
622.329	211.25
622.536	203.25
622.743	204.25
622.95	214.25
623.157	213.25
623.364	202.25
623.571	208.25
623.778	224.25
623.985	214.25
624.192	214.25
624.399	202.25
624.606	205.25
624.812	205.25
625.019	206.25
625.226	214.25
625.433	206.25
625.639	208.25
625.846	214.25
626.053	200.25
626.259	196.25
626.466	204.25
626.673	199.25
626.879	209.25
627.086	196.25
627.293	195.25
627.499	198.25
627.706	208.25
627.912	197.25
628.119	190.25
628.325	207.25
628.532	206.25
628.738	184.25
628.945	185.25
629.151	196.25
629.357	211.25
629.564	198.25
629.77	200.25
629.976	221.25
630.183	195.25
630.389	213.25
630.595	203.25
630.802	199.25
631.008	188.25
631.214	195.25
631.42	189.25
631.627	205.25
631.833	199.25
632.039	187.25
632.245	195.25
632.451	189.25
632.657	172.25
632.863	182.25
633.069	193.25
633.275	193.25
633.481	188.25
633.688	180.25
633.893	186.25
634.099	190.25
634.305	191.25
634.511	182.25
634.717	185.25
634.923	176.25
635.129	167.25
635.335	181.25
635.541	173.25
635.747	181.25
635.952	183.25
636.158	191.25
636.364	177.25
636.57	183.25
636.775	196.25
636.981	184.25
637.187	178.25
637.392	195.25
637.598	163.25
637.804	183.25
638.009	189.25
638.215	185.25
638.421	183.25
638.626	190.25
638.832	189.25
639.037	178.25
639.243	168.25
639.448	179.25
639.654	174.25
639.859	179.25
640.065	166.25
640.27	177.25
640.475	172.25
640.681	181.25
640.886	179.25
641.091	181.25
641.297	181.25
641.502	182.25
641.707	185.25
641.913	174.25
642.118	190.25
642.323	183.25
642.528	164.25
642.733	193.25
642.939	167.25
643.144	181.25
643.349	190.25
643.554	176.25
643.759	165.25
643.964	187.25
644.169	190.25
644.374	195.25
644.579	172.25
644.784	175.25
644.989	181.25
645.194	189.25
645.399	175.25
645.604	166.25
645.809	179.25
646.014	187.25
646.219	177.25
646.423	177.25
646.628	183.25
646.833	172.25
647.038	188.25
647.243	184.25
647.447	168.25
647.652	177.25
647.857	172.25
648.062	177.25
648.266	199.25
648.471	180.25
648.676	191.25
648.88	171.25
649.085	188.25
649.289	196.25
649.494	195.25
649.698	196.25
649.903	189.25
650.107	172.25
650.312	184.25
650.516	183.25
650.721	169.25
650.925	175.25
651.13	164.25
651.334	183.25
651.539	180.25
651.743	185.25
651.947	169.25
652.152	187.25
652.356	193.25
652.56	173.25
652.764	187.25
652.969	184.25
653.173	172.25
653.377	179.25
653.581	182.25
653.785	167.25
653.99	175.25
654.194	174.25
654.398	175.25
654.602	175.25
654.806	173.25
655.01	179.25
655.214	176.25
655.418	188.25
655.622	176.25
655.826	170.25
656.03	179.25
656.234	169.25
656.438	185.25
656.642	191.25
656.846	180.25
657.049	185.25
657.253	155.25
657.457	171.25
657.661	146.25
657.865	166.25
658.068	151.25
658.272	136.25
658.476	137.25
658.68	126.25
658.883	136.25
659.087	124.25
659.291	121.25
659.494	119.25
659.698	121.25
659.901	129.25
660.105	119.25
660.309	107.25
660.512	97.25
660.716	112.25
660.919	115.25
661.123	102.25
661.326	116.25
661.53	113.25
661.733	94.25
661.936	102.25
662.14	108.25
662.343	92.25
662.546	92.25
662.75	102.25
662.953	98.25
663.156	90.25
663.36	94.25
663.563	85.25
663.766	95.25
663.969	77.25
664.173	100.25
664.376	86.25
664.579	99.25
664.782	84.25
664.985	74.25
665.188	92.25
665.391	77.25
665.594	94.25
665.797	96.25
666	83.25
666.203	90.25
666.406	90.25
666.609	80.25
666.812	95.25
667.015	83.25
667.218	83.25
667.421	86.25
667.624	84.25
667.827	85.25
668.03	85.25
668.232	89.25
668.435	77.25
668.638	87.25
668.841	83.25
669.043	85.25
669.246	70.25
669.449	83.25
669.651	88.25
669.854	82.25
670.057	93.25
670.259	91.25
670.462	84.25
670.665	71.25
670.867	86.25
671.07	86.25
671.272	99.25
671.475	84.25
671.677	82.25
671.88	86.25
672.082	73.25
672.284	80.25
672.487	90.25
672.689	76.25
672.892	78.25
