Data from Ni(NO3)2@0.25M.TitratingCurve.Agarose3%dH2O.NegLispCup.LampEnergy10.LIBS07252019_HRD10591_18-03-05-565.txt Node
Date: Thu Jul 25 18:03:05 EDT 2019
User: cochatt
Spectrometer: HR+D1059
Trigger mode: 1
Integration Time (sec): 1.000000E-1
Scans to average: 1
Electric dark correction enabled: true
Nonlinearity correction enabled: false
Boxcar width: 0
XAxis mode: Wavelengths
Number of Pixels in Spectrum: 2048
>>>>>Begin Spectral Data<<<<<
223.165	-25.75
223.4	-25.75
223.635	-25.75
223.869	-25.75
224.104	-26.75
224.338	-6.75
224.573	-10.75
224.808	-16.75
225.042	-16.75
225.277	0.25
225.511	-4.75
225.746	8.25
225.98	5.25
226.215	11.25
226.449	26.25
226.683	26.25
226.918	27.25
227.152	29.25
227.387	35.25
227.621	20.25
227.856	38.25
228.09	37.25
228.324	60.25
228.559	65.25
228.793	55.25
229.027	87.25
229.262	86.25
229.496	76.25
229.73	95.25
229.964	94.25
230.199	95.25
230.433	99.25
230.667	114.25
230.901	115.25
231.136	96.25
231.37	100.25
231.604	101.25
231.838	105.25
232.072	111.25
232.306	129.25
232.541	100.25
232.775	109.25
233.009	121.25
233.243	117.25
233.477	109.25
233.711	106.25
233.945	113.25
234.179	99.25
234.413	94.25
234.647	99.25
234.881	101.25
235.115	99.25
235.349	104.25
235.583	94.25
235.817	106.25
236.051	94.25
236.285	98.25
236.519	103.25
236.753	112.25
236.987	97.25
237.221	110.25
237.455	119.25
237.689	110.25
237.922	120.25
238.156	89.25
238.39	107.25
238.624	97.25
238.858	105.25
239.091	115.25
239.325	129.25
239.559	101.25
239.793	113.25
240.027	117.25
240.26	114.25
240.494	113.25
240.728	102.25
240.961	105.25
241.195	114.25
241.429	119.25
241.662	117.25
241.896	114.25
242.13	122.25
242.363	110.25
242.597	114.25
242.83	109.25
243.064	120.25
243.298	114.25
243.531	115.25
243.765	133.25
243.998	128.25
244.232	117.25
244.465	125.25
244.699	131.25
244.932	129.25
245.166	139.25
245.399	140.25
245.633	134.25
245.866	135.25
246.099	134.25
246.333	138.25
246.566	135.25
246.8	133.25
247.033	149.25
247.266	147.25
247.5	143.25
247.733	136.25
247.966	155.25
248.2	170.25
248.433	175.25
248.666	150.25
248.899	160.25
249.133	168.25
249.366	175.25
249.599	186.25
249.832	193.25
250.066	179.25
250.299	205.25
250.532	179.25
250.765	197.25
250.998	213.25
251.231	210.25
251.465	210.25
251.698	192.25
251.931	226.25
252.164	213.25
252.397	216.25
252.63	222.25
252.863	220.25
253.096	222.25
253.329	232.25
253.562	248.25
253.795	242.25
254.028	237.25
254.261	254.25
254.494	265.25
254.727	241.25
254.96	240.25
255.193	258.25
255.426	254.25
255.659	261.25
255.892	272.25
256.124	282.25
256.357	261.25
256.59	290.25
256.823	282.25
257.056	314.25
257.289	305.25
257.521	292.25
257.754	294.25
257.987	305.25
258.22	320.25
258.452	311.25
258.685	309.25
258.918	314.25
259.151	313.25
259.383	299.25
259.616	324.25
259.849	322.25
260.081	336.25
260.314	350.25
260.547	326.25
260.779	339.25
261.012	321.25
261.244	328.25
261.477	346.25
261.71	343.25
261.942	338.25
262.175	341.25
262.407	343.25
262.64	339.25
262.872	347.25
263.105	336.25
263.337	349.25
263.57	362.25
263.802	368.25
264.035	372.25
264.267	349.25
264.499	350.25
264.732	343.25
264.964	357.25
265.197	368.25
265.429	371.25
265.661	374.25
265.894	375.25
266.126	374.25
266.358	373.25
266.591	367.25
266.823	369.25
267.055	354.25
267.287	385.25
267.52	370.25
267.752	383.25
267.984	367.25
268.216	375.25
268.448	392.25
268.681	386.25
268.913	376.25
269.145	377.25
269.377	370.25
269.609	363.25
269.841	373.25
270.073	403.25
270.306	383.25
270.538	381.25
270.77	361.25
271.002	405.25
271.234	394.25
271.466	400.25
271.698	426.25
271.93	389.25
272.162	396.25
272.394	402.25
272.626	383.25
272.858	379.25
273.09	402.25
273.322	388.25
273.553	397.25
273.785	395.25
274.017	409.25
274.249	387.25
274.481	401.25
274.713	396.25
274.945	394.25
275.176	413.25
275.408	410.25
275.64	398.25
275.872	406.25
276.104	410.25
276.335	409.25
276.567	404.25
276.799	395.25
277.031	409.25
277.262	409.25
277.494	411.25
277.726	414.25
277.957	389.25
278.189	383.25
278.421	425.25
278.652	400.25
278.884	416.25
279.115	420.25
279.347	439.25
279.579	412.25
279.81	397.25
280.042	408.25
280.273	412.25
280.505	440.25
280.736	423.25
280.968	387.25
281.199	413.25
281.431	437.25
281.662	420.25
281.894	425.25
282.125	399.25
282.356	415.25
282.588	399.25
282.819	406.25
283.051	391.25
283.282	390.25
283.513	408.25
283.745	396.25
283.976	430.25
284.207	420.25
284.439	409.25
284.67	411.25
284.901	408.25
285.132	421.25
285.364	408.25
285.595	410.25
285.826	396.25
286.057	396.25
286.288	414.25
286.52	429.25
286.751	399.25
286.982	422.25
287.213	434.25
287.444	422.25
287.675	419.25
287.906	419.25
288.138	407.25
288.369	397.25
288.6	418.25
288.831	430.25
289.062	408.25
289.293	419.25
289.524	409.25
289.755	404.25
289.986	409.25
290.217	404.25
290.448	411.25
290.679	413.25
290.91	413.25
291.141	415.25
291.371	401.25
291.602	409.25
291.833	421.25
292.064	402.25
292.295	392.25
292.526	411.25
292.757	403.25
292.987	402.25
293.218	415.25
293.449	424.25
293.68	386.25
293.91	411.25
294.141	414.25
294.372	398.25
294.603	409.25
294.833	391.25
295.064	405.25
295.295	418.25
295.525	414.25
295.756	400.25
295.987	415.25
296.217	385.25
296.448	414.25
296.679	403.25
296.909	419.25
297.14	425.25
297.37	404.25
297.601	416.25
297.831	428.25
298.062	418.25
298.292	406.25
298.523	421.25
298.753	411.25
298.984	433.25
299.214	421.25
299.445	415.25
299.675	440.25
299.905	421.25
300.136	440.25
300.366	416.25
300.597	441.25
300.827	439.25
301.057	453.25
301.288	436.25
301.518	452.25
301.748	426.25
301.979	443.25
302.209	447.25
302.439	459.25
302.669	439.25
302.9	446.25
303.13	445.25
303.36	447.25
303.59	445.25
303.82	454.25
304.051	471.25
304.281	445.25
304.511	463.25
304.741	463.25
304.971	487.25
305.201	472.25
305.431	491.25
305.661	475.25
305.891	472.25
306.121	473.25
306.352	470.25
306.582	484.25
306.812	466.25
307.042	481.25
307.272	450.25
307.502	482.25
307.731	498.25
307.961	478.25
308.191	455.25
308.421	472.25
308.651	483.25
308.881	490.25
309.111	471.25
309.341	482.25
309.571	472.25
309.8	504.25
310.03	512.25
310.26	513.25
310.49	512.25
310.72	504.25
310.949	495.25
311.179	536.25
311.409	522.25
311.639	559.25
311.868	537.25
312.098	533.25
312.328	553.25
312.557	550.25
312.787	538.25
313.017	576.25
313.246	595.25
313.476	579.25
313.706	595.25
313.935	563.25
314.165	569.25
314.394	593.25
314.624	586.25
314.853	568.25
315.083	592.25
315.312	600.25
315.542	601.25
315.771	606.25
316.001	605.25
316.23	604.25
316.46	617.25
316.689	638.25
316.919	638.25
317.148	642.25
317.377	647.25
317.607	635.25
317.836	626.25
318.065	623.25
318.295	650.25
318.524	651.25
318.753	669.25
318.983	660.25
319.212	672.25
319.441	688.25
319.67	680.25
319.9	705.25
320.129	693.25
320.358	698.25
320.587	701.25
320.816	706.25
321.046	712.25
321.275	702.25
321.504	719.25
321.733	741.25
321.962	721.25
322.191	756.25
322.42	740.25
322.649	762.25
322.878	759.25
323.108	784.25
323.337	775.25
323.566	770.25
323.795	795.25
324.024	815.25
324.253	805.25
324.482	803.25
324.71	819.25
324.939	807.25
325.168	823.25
325.397	827.25
325.626	861.25
325.855	839.25
326.084	863.25
326.313	894.25
326.542	881.25
326.77	872.25
326.999	874.25
327.228	881.25
327.457	907.25
327.686	901.25
327.914	895.25
328.143	922.25
328.372	911.25
328.6	897.25
328.829	886.25
329.058	897.25
329.287	935.25
329.515	952.25
329.744	937.25
329.972	945.25
330.201	975.25
330.43	959.25
330.658	965.25
330.887	979.25
331.115	994.25
331.344	966.25
331.572	997.25
331.801	965.25
332.03	1007.25
332.258	1012.25
332.486	1008.25
332.715	1001.25
332.943	1033.25
333.172	1051.25
333.4	1041.25
333.629	1048.25
333.857	1029.25
334.085	1056.25
334.314	1097.25
334.542	1089.25
334.771	1091.25
334.999	1099.25
335.227	1077.25
335.455	1134.25
335.684	1099.25
335.912	1112.25
336.14	1114.25
336.369	1099.25
336.597	1105.25
336.825	1138.25
337.053	1117.25
337.281	1131.25
337.51	1115.25
337.738	1118.25
337.966	1136.25
338.194	1110.25
338.422	1106.25
338.65	1051.25
338.878	1093.25
339.106	1087.25
339.334	1098.25
339.562	1102.25
339.79	1088.25
340.018	1103.25
340.246	1103.25
340.474	1080.25
340.702	1109.25
340.93	1091.25
341.158	1092.25
341.386	1090.25
341.614	1129.25
341.842	1123.25
342.07	1131.25
342.298	1110.25
342.526	1112.25
342.754	1087.25
342.981	1089.25
343.209	1104.25
343.437	1125.25
343.665	1103.25
343.893	1137.25
344.12	1133.25
344.348	1125.25
344.576	1129.25
344.804	1128.25
345.031	1149.25
345.259	1113.25
345.487	1100.25
345.714	1098.25
345.942	1090.25
346.17	1129.25
346.397	1128.25
346.625	1083.25
346.853	1076.25
347.08	1066.25
347.308	1123.25
347.535	1108.25
347.763	1099.25
347.99	1047.25
348.218	1057.25
348.445	1065.25
348.673	1069.25
348.9	1094.25
349.128	1081.25
349.355	1078.25
349.583	1088.25
349.81	1066.25
350.037	1069.25
350.265	1059.25
350.492	1052.25
350.72	1055.25
350.947	1053.25
351.174	1059.25
351.402	1092.25
351.629	1064.25
351.856	1058.25
352.083	1044.25
352.311	1042.25
352.538	1054.25
352.765	1057.25
352.992	1016.25
353.22	1013.25
353.447	1058.25
353.674	1027.25
353.901	1050.25
354.128	1043.25
354.355	1026.25
354.583	1060.25
354.81	1049.25
355.037	1034.25
355.264	1060.25
355.491	1045.25
355.718	1033.25
355.945	1064.25
356.172	1043.25
356.399	1050.25
356.626	1050.25
356.853	1027.25
357.08	1023.25
357.307	1034.25
357.534	1029.25
357.761	1021.25
357.988	1024.25
358.215	1013.25
358.441	1034.25
358.668	1027.25
358.895	1006.25
359.122	1009.25
359.349	1012.25
359.576	1013.25
359.802	1018.25
360.029	1036.25
360.256	1018.25
360.483	1034.25
360.709	1029.25
360.936	1029.25
361.163	1027.25
361.39	1025.25
361.616	1031.25
361.843	1024.25
362.07	1040.25
362.296	1018.25
362.523	1016.25
362.749	1038.25
362.976	1034.25
363.203	1013.25
363.429	1022.25
363.656	1022.25
363.882	1049.25
364.109	1010.25
364.335	1013.25
364.562	1012.25
364.788	1033.25
365.015	996.25
365.241	998.25
365.468	997.25
365.694	1014.25
365.92	1023.25
366.147	1000.25
366.373	996.25
366.599	998.25
366.826	1024.25
367.052	1017.25
367.278	991.25
367.505	997.25
367.731	1002.25
367.957	1010.25
368.184	1027.25
368.41	1021.25
368.636	1011.25
368.862	1007.25
369.089	994.25
369.315	1016.25
369.541	1009.25
369.767	1024.25
369.993	1007.25
370.219	989.25
370.445	1000.25
370.672	995.25
370.898	954.25
371.124	995.25
371.35	1012.25
371.576	1006.25
371.802	992.25
372.028	1037.25
372.254	1009.25
372.48	1009.25
372.706	1003.25
372.932	993.25
373.158	964.25
373.384	1031.25
373.61	1000.25
373.835	990.25
374.061	1023.25
374.287	994.25
374.513	989.25
374.739	984.25
374.965	1011.25
375.191	1012.25
375.416	1022.25
375.642	992.25
375.868	991.25
376.094	1014.25
376.319	1003.25
376.545	1013.25
376.771	965.25
376.997	987.25
377.222	960.25
377.448	927.25
377.674	955.25
377.899	959.25
378.125	935.25
378.35	942.25
378.576	933.25
378.802	935.25
379.027	957.25
379.253	942.25
379.478	941.25
379.704	959.25
379.929	960.25
380.155	949.25
380.38	953.25
380.606	943.25
380.831	923.25
381.057	936.25
381.282	930.25
381.507	924.25
381.733	952.25
381.958	938.25
382.184	966.25
382.409	964.25
382.634	945.25
382.86	939.25
383.085	931.25
383.31	942.25
383.535	959.25
383.761	954.25
383.986	960.25
384.211	985.25
384.436	965.25
384.662	968.25
384.887	1006.25
385.112	941.25
385.337	996.25
385.562	971.25
385.787	987.25
386.013	1010.25
386.238	997.25
386.463	984.25
386.688	1001.25
386.913	956.25
387.138	985.25
387.363	1018.25
387.588	979.25
387.813	1017.25
388.038	977.25
388.263	993.25
388.488	1016.25
388.713	960.25
388.938	1000.25
389.163	995.25
389.387	1015.25
389.612	984.25
389.837	974.25
390.062	1005.25
390.287	977.25
390.512	1000.25
390.736	990.25
390.961	1024.25
391.186	994.25
391.411	1039.25
391.636	1019.25
391.86	1009.25
392.085	1027.25
392.31	1031.25
392.534	1040.25
392.759	1017.25
392.984	1020.25
393.208	1034.25
393.433	1026.25
393.658	1026.25
393.882	1025.25
394.107	1023.25
394.331	1031.25
394.556	1034.25
394.78	1021.25
395.005	1018.25
395.229	1011.25
395.454	1046.25
395.678	1070.25
395.903	1037.25
396.127	1077.25
396.352	1044.25
396.576	1036.25
396.801	1013.25
397.025	1074.25
397.249	1047.25
397.474	1061.25
397.698	1075.25
397.922	1063.25
398.147	1096.25
398.371	1101.25
398.595	1111.25
398.82	1113.25
399.044	1127.25
399.268	1174.25
399.492	1180.25
399.717	1190.25
399.941	1214.25
400.165	1234.25
400.389	1209.25
400.613	1219.25
400.837	1173.25
401.062	1179.25
401.286	1161.25
401.51	1161.25
401.734	1116.25
401.958	1149.25
402.182	1181.25
402.406	1154.25
402.63	1153.25
402.854	1143.25
403.078	1131.25
403.302	1167.25
403.526	1168.25
403.75	1143.25
403.974	1189.25
404.198	1152.25
404.422	1194.25
404.645	1191.25
404.869	1188.25
405.093	1184.25
405.317	1177.25
405.541	1169.25
405.765	1182.25
405.988	1194.25
406.212	1218.25
406.436	1188.25
406.66	1217.25
406.883	1208.25
407.107	1253.25
407.331	1237.25
407.555	1289.25
407.778	1282.25
408.002	1275.25
408.226	1266.25
408.449	1306.25
408.673	1278.25
408.896	1262.25
409.12	1299.25
409.344	1273.25
409.567	1254.25
409.791	1256.25
410.014	1250.25
410.238	1262.25
410.461	1247.25
410.685	1256.25
410.908	1247.25
411.132	1241.25
411.355	1259.25
411.578	1219.25
411.802	1210.25
412.025	1210.25
412.249	1251.25
412.472	1247.25
412.695	1234.25
412.919	1222.25
413.142	1213.25
413.365	1201.25
413.589	1253.25
413.812	1226.25
414.035	1211.25
414.258	1236.25
414.482	1192.25
414.705	1207.25
414.928	1222.25
415.151	1258.25
415.374	1249.25
415.597	1199.25
415.821	1187.25
416.044	1197.25
416.267	1192.25
416.49	1233.25
416.713	1195.25
416.936	1205.25
417.159	1202.25
417.382	1232.25
417.605	1183.25
417.828	1176.25
418.051	1199.25
418.274	1160.25
418.497	1126.25
418.72	1181.25
418.943	1175.25
419.166	1282.25
419.389	1345.25
419.611	1319.25
419.834	1285.25
420.057	1271.25
420.28	1249.25
420.503	1208.25
420.726	1214.25
420.948	1169.25
421.171	1207.25
421.394	1198.25
421.617	1201.25
421.839	1226.25
422.062	1224.25
422.285	1191.25
422.507	1225.25
422.73	1221.25
422.953	1270.25
423.175	1240.25
423.398	1235.25
423.621	1195.25
423.843	1234.25
424.066	1247.25
424.288	1254.25
424.511	1253.25
424.733	1235.25
424.956	1282.25
425.178	1257.25
425.401	1249.25
425.623	1282.25
425.846	1253.25
426.068	1235.25
426.291	1208.25
426.513	1238.25
426.735	1242.25
426.958	1259.25
427.18	1268.25
427.402	1249.25
427.625	1269.25
427.847	1289.25
428.069	1247.25
428.292	1265.25
428.514	1210.25
428.736	1250.25
428.958	1288.25
429.181	1250.25
429.403	1255.25
429.625	1240.25
429.847	1225.25
430.069	1276.25
430.292	1281.25
430.514	1225.25
430.736	1282.25
430.958	1269.25
431.18	1288.25
431.402	1289.25
431.624	1285.25
431.846	1282.25
432.068	1253.25
432.29	1265.25
432.512	1281.25
432.734	1290.25
432.956	1290.25
433.178	1300.25
433.4	1312.25
433.622	1280.25
433.844	1286.25
434.066	1273.25
434.287	1311.25
434.509	1257.25
434.731	1283.25
434.953	1289.25
435.175	1290.25
435.397	1325.25
435.618	1317.25
435.84	1316.25
436.062	1284.25
436.284	1323.25
436.505	1285.25
436.727	1297.25
436.949	1307.25
437.17	1279.25
437.392	1262.25
437.614	1288.25
437.835	1239.25
438.057	1239.25
438.278	1250.25
438.5	1250.25
438.721	1239.25
438.943	1270.25
439.165	1275.25
439.386	1281.25
439.608	1265.25
439.829	1319.25
440.05	1307.25
440.272	1296.25
440.493	1293.25
440.715	1290.25
440.936	1301.25
441.158	1340.25
441.379	1292.25
441.6	1305.25
441.822	1333.25
442.043	1330.25
442.264	1295.25
442.486	1301.25
442.707	1303.25
442.928	1299.25
443.149	1329.25
443.371	1283.25
443.592	1370.25
443.813	1298.25
444.034	1318.25
444.255	1322.25
444.476	1341.25
444.698	1358.25
444.919	1395.25
445.14	1459.25
445.361	1377.25
445.582	1355.25
445.803	1289.25
446.024	1289.25
446.245	1316.25
446.466	1307.25
446.687	1301.25
446.908	1279.25
447.129	1270.25
447.35	1255.25
447.571	1262.25
447.792	1228.25
448.013	1249.25
448.234	1214.25
448.455	1217.25
448.675	1192.25
448.896	1208.25
449.117	1209.25
449.338	1195.25
449.559	1217.25
449.779	1200.25
450	1203.25
450.221	1238.25
450.442	1197.25
450.662	1237.25
450.883	1222.25
451.104	1220.25
451.324	1203.25
451.545	1195.25
451.766	1204.25
451.986	1207.25
452.207	1232.25
452.428	1178.25
452.648	1169.25
452.869	1198.25
453.089	1152.25
453.31	1214.25
453.53	1169.25
453.751	1157.25
453.971	1143.25
454.192	1160.25
454.412	1164.25
454.633	1153.25
454.853	1180.25
455.073	1165.25
455.294	1184.25
455.514	1169.25
455.734	1185.25
455.955	1151.25
456.175	1190.25
456.395	1155.25
456.616	1142.25
456.836	1160.25
457.056	1167.25
457.276	1141.25
457.497	1207.25
457.717	1159.25
457.937	1174.25
458.157	1194.25
458.377	1185.25
458.598	1199.25
458.818	1184.25
459.038	1190.25
459.258	1222.25
459.478	1227.25
459.698	1255.25
459.918	1285.25
460.138	1265.25
460.358	1265.25
460.578	1295.25
460.798	1322.25
461.018	1359.25
461.238	1317.25
461.458	1320.25
461.678	1293.25
461.898	1360.25
462.118	1333.25
462.338	1361.25
462.558	1339.25
462.777	1398.25
462.997	1441.25
463.217	1422.25
463.437	1424.25
463.657	1385.25
463.876	1421.25
464.096	1405.25
464.316	1347.25
464.536	1393.25
464.755	1370.25
464.975	1351.25
465.195	1392.25
465.414	1330.25
465.634	1335.25
465.854	1284.25
466.073	1321.25
466.293	1269.25
466.512	1277.25
466.732	1227.25
466.951	1303.25
467.171	1283.25
467.391	1278.25
467.61	1253.25
467.829	1252.25
468.049	1251.25
468.268	1254.25
468.488	1232.25
468.707	1234.25
468.927	1255.25
469.146	1252.25
469.365	1248.25
469.585	1240.25
469.804	1274.25
470.023	1253.25
470.243	1283.25
470.462	1279.25
470.681	1268.25
470.901	1272.25
471.12	1292.25
471.339	1271.25
471.558	1262.25
471.777	1284.25
471.997	1280.25
472.216	1331.25
472.435	1257.25
472.654	1249.25
472.873	1242.25
473.092	1299.25
473.311	1305.25
473.53	1298.25
473.749	1284.25
473.968	1293.25
474.187	1276.25
474.406	1290.25
474.625	1309.25
474.844	1339.25
475.063	1333.25
475.282	1319.25
475.501	1343.25
475.72	1375.25
475.939	1341.25
476.158	1376.25
476.377	1371.25
476.596	1338.25
476.814	1397.25
477.033	1368.25
477.252	1385.25
477.471	1386.25
477.69	1416.25
477.908	1427.25
478.127	1464.25
478.346	1442.25
478.564	1469.25
478.783	1427.25
479.002	1489.25
479.22	1492.25
479.439	1511.25
479.658	1501.25
479.876	1464.25
480.095	1487.25
480.313	1481.25
480.532	1512.25
480.751	1512.25
480.969	1517.25
481.188	1485.25
481.406	1517.25
481.624	1514.25
481.843	1471.25
482.061	1503.25
482.28	1482.25
482.498	1489.25
482.717	1505.25
482.935	1514.25
483.153	1537.25
483.372	1568.25
483.59	1566.25
483.808	1539.25
484.027	1565.25
484.245	1535.25
484.463	1542.25
484.681	1563.25
484.9	1539.25
485.118	1571.25
485.336	1547.25
485.554	1595.25
485.772	1548.25
485.99	1556.25
486.209	1574.25
486.427	1559.25
486.645	1587.25
486.863	1605.25
487.081	1571.25
487.299	1539.25
487.517	1599.25
487.735	1614.25
487.953	1653.25
488.171	1627.25
488.389	1617.25
488.607	1657.25
488.825	1611.25
489.043	1566.25
489.261	1624.25
489.479	1586.25
489.696	1626.25
489.914	1604.25
490.132	1619.25
490.35	1635.25
490.568	1623.25
490.786	1679.25
491.003	1670.25
491.221	1658.25
491.439	1657.25
491.657	1655.25
491.874	1671.25
492.092	1719.25
492.31	1707.25
492.527	1735.25
492.745	1694.25
492.963	1712.25
493.18	1670.25
493.398	1701.25
493.615	1680.25
493.833	1705.25
494.05	1686.25
494.268	1704.25
494.485	1695.25
494.703	1726.25
494.92	1731.25
495.138	1752.25
495.355	1735.25
495.573	1752.25
495.79	1755.25
496.008	1747.25
496.225	1731.25
496.442	1793.25
496.66	1814.25
496.877	1801.25
497.094	1809.25
497.312	1853.25
497.529	1829.25
497.746	1855.25
497.963	1856.25
498.181	1893.25
498.398	1921.25
498.615	1931.25
498.832	1983.25
499.049	2020.25
499.267	2045.25
499.484	2084.25
499.701	2165.25
499.918	2167.25
500.135	2167.25
500.352	2242.25
500.569	2268.25
500.786	2258.25
501.003	2249.25
501.22	2259.25
501.437	2181.25
501.654	2143.25
501.871	2066.25
502.088	2075.25
502.305	2049.25
502.522	1950.25
502.739	1976.25
502.956	1928.25
503.172	1920.25
503.389	1872.25
503.606	1849.25
503.823	1830.25
504.04	1822.25
504.256	1738.25
504.473	1782.25
504.69	1751.25
504.907	1728.25
505.123	1717.25
505.34	1760.25
505.557	1667.25
505.773	1701.25
505.99	1669.25
506.207	1609.25
506.423	1635.25
506.64	1615.25
506.856	1578.25
507.073	1585.25
507.289	1608.25
507.506	1557.25
507.722	1567.25
507.939	1584.25
508.155	1563.25
508.372	1539.25
508.588	1509.25
508.805	1512.25
509.021	1513.25
509.238	1511.25
509.454	1497.25
509.67	1488.25
509.887	1453.25
510.103	1501.25
510.319	1438.25
510.536	1469.25
510.752	1442.25
510.968	1453.25
511.184	1431.25
511.401	1429.25
511.617	1421.25
511.833	1473.25
512.049	1458.25
512.265	1397.25
512.481	1409.25
512.698	1426.25
512.914	1422.25
513.13	1406.25
513.346	1450.25
513.562	1418.25
513.778	1466.25
513.994	1427.25
514.21	1432.25
514.426	1422.25
514.642	1430.25
514.858	1417.25
515.074	1439.25
515.29	1456.25
515.506	1417.25
515.721	1443.25
515.937	1429.25
516.153	1478.25
516.369	1490.25
516.585	1465.25
516.801	1469.25
517.016	1467.25
517.232	1473.25
517.448	1493.25
517.664	1467.25
517.879	1504.25
518.095	1457.25
518.311	1482.25
518.527	1487.25
518.742	1472.25
518.958	1480.25
519.173	1463.25
519.389	1462.25
519.605	1453.25
519.82	1437.25
520.036	1426.25
520.251	1401.25
520.467	1407.25
520.682	1416.25
520.898	1409.25
521.113	1357.25
521.329	1337.25
521.544	1329.25
521.76	1396.25
521.975	1355.25
522.19	1339.25
522.406	1343.25
522.621	1354.25
522.836	1331.25
523.052	1329.25
523.267	1323.25
523.482	1318.25
523.698	1317.25
523.913	1348.25
524.128	1336.25
524.343	1333.25
524.559	1373.25
524.774	1336.25
524.989	1322.25
525.204	1336.25
525.419	1296.25
525.634	1296.25
525.849	1307.25
526.064	1313.25
526.28	1285.25
526.495	1306.25
526.71	1274.25
526.925	1286.25
527.14	1231.25
527.355	1256.25
527.57	1269.25
527.785	1279.25
527.999	1237.25
528.214	1290.25
528.429	1269.25
528.644	1254.25
528.859	1276.25
529.074	1261.25
529.289	1253.25
529.503	1272.25
529.718	1267.25
529.933	1275.25
530.148	1263.25
530.363	1218.25
530.577	1263.25
530.792	1229.25
531.007	1237.25
531.221	1237.25
531.436	1279.25
531.651	1220.25
531.865	1243.25
532.08	1234.25
532.295	1239.25
532.509	1230.25
532.724	1224.25
532.938	1199.25
533.153	1234.25
533.367	1217.25
533.582	1239.25
533.796	1237.25
534.011	1251.25
534.225	1213.25
534.44	1228.25
534.654	1202.25
534.868	1217.25
535.083	1181.25
535.297	1222.25
535.511	1181.25
535.726	1168.25
535.94	1182.25
536.154	1201.25
536.369	1187.25
536.583	1173.25
536.797	1184.25
537.011	1169.25
537.225	1185.25
537.44	1158.25
537.654	1165.25
537.868	1161.25
538.082	1150.25
538.296	1170.25
538.51	1155.25
538.724	1172.25
538.938	1161.25
539.153	1138.25
539.367	1147.25
539.581	1151.25
539.795	1117.25
540.009	1114.25
540.222	1159.25
540.436	1147.25
540.65	1153.25
540.864	1137.25
541.078	1139.25
541.292	1163.25
541.506	1153.25
541.72	1121.25
541.934	1142.25
542.147	1153.25
542.361	1161.25
542.575	1121.25
542.789	1126.25
543.002	1103.25
543.216	1101.25
543.43	1100.25
543.644	1107.25
543.857	1075.25
544.071	1122.25
544.285	1128.25
544.498	1110.25
544.712	1144.25
544.925	1112.25
545.139	1135.25
545.352	1107.25
545.566	1122.25
545.779	1124.25
545.993	1117.25
546.206	1151.25
546.42	1113.25
546.633	1120.25
546.847	1118.25
547.06	1128.25
547.274	1121.25
547.487	1135.25
547.7	1131.25
547.914	1103.25
548.127	1121.25
548.34	1104.25
548.554	1085.25
548.767	1113.25
548.98	1085.25
549.193	1075.25
549.407	1110.25
549.62	1084.25
549.833	1123.25
550.046	1109.25
550.259	1075.25
550.473	1101.25
550.686	1110.25
550.899	1111.25
551.112	1072.25
551.325	1083.25
551.538	1063.25
551.751	1093.25
551.964	1071.25
552.177	1063.25
552.39	1070.25
552.603	1065.25
552.816	1080.25
553.029	1093.25
553.242	1125.25
553.455	1107.25
553.667	1091.25
553.88	1067.25
554.093	1066.25
554.306	1056.25
554.519	1042.25
554.732	1060.25
554.944	1037.25
555.157	1027.25
555.37	1039.25
555.583	1006.25
555.795	1000.25
556.008	971.25
556.221	988.25
556.433	1033.25
556.646	965.25
556.859	1004.25
557.071	976.25
557.284	989.25
557.496	991.25
557.709	994.25
557.921	986.25
558.134	987.25
558.346	943.25
558.559	962.25
558.771	954.25
558.984	945.25
559.196	961.25
559.409	951.25
559.621	932.25
559.833	947.25
560.046	963.25
560.258	919.25
560.47	956.25
560.683	960.25
560.895	918.25
561.107	912.25
561.32	917.25
561.532	923.25
561.744	953.25
561.956	929.25
562.168	945.25
562.381	920.25
562.593	933.25
562.805	947.25
563.017	948.25
563.229	941.25
563.441	927.25
563.653	920.25
563.865	931.25
564.077	938.25
564.289	943.25
564.501	927.25
564.713	957.25
564.925	897.25
565.137	938.25
565.349	948.25
565.561	979.25
565.773	977.25
565.985	957.25
566.197	966.25
566.408	989.25
566.62	945.25
566.832	978.25
567.044	986.25
567.255	1006.25
567.467	975.25
567.679	969.25
567.891	1007.25
568.102	976.25
568.314	951.25
568.526	923.25
568.737	933.25
568.949	930.25
569.161	908.25
569.372	881.25
569.584	889.25
569.795	879.25
570.007	863.25
570.218	864.25
570.43	824.25
570.641	869.25
570.853	816.25
571.064	849.25
571.276	811.25
571.487	826.25
571.698	823.25
571.91	798.25
572.121	822.25
572.333	786.25
572.544	773.25
572.755	760.25
572.966	773.25
573.178	765.25
573.389	757.25
573.6	763.25
573.811	738.25
574.023	750.25
574.234	733.25
574.445	711.25
574.656	735.25
574.867	740.25
575.078	726.25
575.289	726.25
575.501	730.25
575.712	716.25
575.923	719.25
576.134	711.25
576.345	709.25
576.556	695.25
576.767	698.25
576.978	683.25
577.188	683.25
577.399	690.25
577.61	695.25
577.821	694.25
578.032	674.25
578.243	665.25
578.454	678.25
578.665	665.25
578.875	681.25
579.086	651.25
579.297	658.25
579.508	661.25
579.718	672.25
579.929	638.25
580.14	630.25
580.35	629.25
580.561	674.25
580.772	645.25
580.982	658.25
581.193	639.25
581.403	633.25
581.614	649.25
581.825	631.25
582.035	615.25
582.246	635.25
582.456	598.25
582.667	598.25
582.877	638.25
583.087	613.25
583.298	633.25
583.508	607.25
583.719	607.25
583.929	607.25
584.139	613.25
584.35	618.25
584.56	617.25
584.77	615.25
584.981	624.25
585.191	599.25
585.401	600.25
585.611	592.25
585.821	598.25
586.032	607.25
586.242	587.25
586.452	605.25
586.662	586.25
586.872	603.25
587.082	592.25
587.292	581.25
587.502	597.25
587.713	577.25
587.923	607.25
588.133	584.25
588.343	592.25
588.553	574.25
588.762	566.25
588.972	598.25
589.182	601.25
589.392	560.25
589.602	562.25
589.812	563.25
590.022	583.25
590.232	589.25
590.441	580.25
590.651	582.25
590.861	566.25
591.071	569.25
591.281	562.25
591.49	554.25
591.7	545.25
591.91	581.25
592.119	584.25
592.329	560.25
592.539	553.25
592.748	569.25
592.958	570.25
593.167	542.25
593.377	560.25
593.587	557.25
593.796	553.25
594.006	540.25
594.215	586.25
594.424	538.25
594.634	551.25
594.843	545.25
595.053	550.25
595.262	563.25
595.472	521.25
595.681	516.25
595.89	542.25
596.1	550.25
596.309	517.25
596.518	513.25
596.727	522.25
596.937	512.25
597.146	498.25
597.355	517.25
597.564	491.25
597.774	514.25
597.983	499.25
598.192	493.25
598.401	495.25
598.61	493.25
598.819	493.25
599.028	493.25
599.237	497.25
599.446	479.25
599.655	485.25
599.864	451.25
600.073	475.25
600.282	484.25
600.491	492.25
600.7	480.25
600.909	490.25
601.118	473.25
601.327	478.25
601.536	476.25
601.745	464.25
601.953	457.25
602.162	496.25
602.371	476.25
602.58	472.25
602.789	466.25
602.997	449.25
603.206	454.25
603.415	461.25
603.623	447.25
603.832	441.25
604.041	438.25
604.249	450.25
604.458	442.25
604.666	425.25
604.875	419.25
605.084	424.25
605.292	439.25
605.501	443.25
605.709	440.25
605.918	445.25
606.126	450.25
606.334	432.25
606.543	423.25
606.751	417.25
606.96	438.25
607.168	433.25
607.376	410.25
607.585	446.25
607.793	424.25
608.001	448.25
608.21	405.25
608.418	445.25
608.626	424.25
608.834	433.25
609.043	432.25
609.251	437.25
609.459	426.25
609.667	426.25
609.875	433.25
610.083	422.25
610.291	407.25
610.499	420.25
610.707	419.25
610.916	394.25
611.124	409.25
611.332	429.25
611.54	404.25
611.748	408.25
611.955	413.25
612.163	410.25
612.371	405.25
612.579	408.25
612.787	395.25
612.995	423.25
613.203	420.25
613.411	405.25
613.618	420.25
613.826	416.25
614.034	417.25
614.242	389.25
614.449	381.25
614.657	398.25
614.865	399.25
615.072	407.25
615.28	385.25
615.488	370.25
615.695	383.25
615.903	380.25
616.111	376.25
616.318	403.25
616.526	392.25
616.733	379.25
616.941	387.25
617.148	396.25
617.356	374.25
617.563	374.25
617.771	380.25
617.978	393.25
618.185	367.25
618.393	376.25
618.6	395.25
618.807	371.25
619.015	351.25
619.222	362.25
619.429	376.25
619.637	375.25
619.844	376.25
620.051	354.25
620.258	350.25
620.466	351.25
620.673	356.25
620.88	354.25
621.087	356.25
621.294	354.25
621.501	355.25
621.708	333.25
621.915	356.25
622.122	344.25
622.329	384.25
622.536	364.25
622.743	373.25
622.95	361.25
623.157	363.25
623.364	337.25
623.571	360.25
623.778	360.25
623.985	370.25
624.192	338.25
624.399	351.25
624.606	353.25
624.812	337.25
625.019	343.25
625.226	366.25
625.433	329.25
625.639	344.25
625.846	329.25
626.053	342.25
626.259	336.25
626.466	352.25
626.673	344.25
626.879	328.25
627.086	316.25
627.293	338.25
627.499	322.25
627.706	319.25
627.912	324.25
628.119	331.25
628.325	348.25
628.532	339.25
628.738	333.25
628.945	312.25
629.151	295.25
629.357	315.25
629.564	327.25
629.77	304.25
629.976	301.25
630.183	302.25
630.389	307.25
630.595	313.25
630.802	322.25
631.008	316.25
631.214	305.25
631.42	308.25
631.627	323.25
631.833	322.25
632.039	313.25
632.245	287.25
632.451	290.25
632.657	319.25
632.863	298.25
633.069	293.25
633.275	296.25
633.481	285.25
633.688	291.25
633.893	290.25
634.099	275.25
634.305	286.25
634.511	301.25
634.717	314.25
634.923	296.25
635.129	278.25
635.335	278.25
635.541	280.25
635.747	295.25
635.952	290.25
636.158	260.25
636.364	271.25
636.57	267.25
636.775	285.25
636.981	287.25
637.187	279.25
637.392	291.25
637.598	277.25
637.804	266.25
638.009	271.25
638.215	261.25
638.421	263.25
638.626	271.25
638.832	256.25
639.037	251.25
639.243	266.25
639.448	279.25
639.654	253.25
639.859	253.25
640.065	264.25
640.27	280.25
640.475	255.25
640.681	264.25
640.886	285.25
641.091	256.25
641.297	278.25
641.502	261.25
641.707	264.25
641.913	275.25
642.118	265.25
642.323	260.25
642.528	277.25
642.733	252.25
642.939	267.25
643.144	265.25
643.349	270.25
643.554	263.25
643.759	257.25
643.964	254.25
644.169	269.25
644.374	247.25
644.579	265.25
644.784	253.25
644.989	260.25
645.194	257.25
645.399	268.25
645.604	254.25
645.809	254.25
646.014	262.25
646.219	263.25
646.423	253.25
646.628	270.25
646.833	259.25
647.038	242.25
647.243	258.25
647.447	261.25
647.652	259.25
647.857	249.25
648.062	270.25
648.266	247.25
648.471	249.25
648.676	258.25
648.88	265.25
649.085	257.25
649.289	251.25
649.494	251.25
649.698	261.25
649.903	256.25
650.107	243.25
650.312	249.25
650.516	245.25
650.721	226.25
650.925	233.25
651.13	259.25
651.334	250.25
651.539	233.25
651.743	229.25
651.947	219.25
652.152	227.25
652.356	224.25
652.56	226.25
652.764	204.25
652.969	229.25
653.173	215.25
653.377	211.25
653.581	217.25
653.785	207.25
653.99	199.25
654.194	189.25
654.398	216.25
654.602	186.25
654.806	186.25
655.01	199.25
655.214	192.25
655.418	180.25
655.622	189.25
655.826	181.25
656.03	205.25
656.234	197.25
656.438	175.25
656.642	175.25
656.846	176.25
657.049	160.25
657.253	155.25
657.457	171.25
657.661	153.25
657.865	165.25
658.068	155.25
658.272	129.25
658.476	155.25
658.68	135.25
658.883	127.25
659.087	113.25
659.291	120.25
659.494	135.25
659.698	114.25
659.901	135.25
660.105	93.25
660.309	116.25
660.512	107.25
660.716	106.25
660.919	126.25
661.123	104.25
661.326	98.25
661.53	106.25
661.733	100.25
661.936	80.25
662.14	87.25
662.343	85.25
662.546	85.25
662.75	91.25
662.953	97.25
663.156	90.25
663.36	84.25
663.563	83.25
663.766	94.25
663.969	81.25
664.173	98.25
664.376	83.25
664.579	85.25
664.782	86.25
664.985	82.25
665.188	78.25
665.391	89.25
665.594	83.25
665.797	72.25
666	83.25
666.203	88.25
666.406	70.25
666.609	97.25
666.812	91.25
667.015	78.25
667.218	92.25
667.421	78.25
667.624	69.25
667.827	81.25
668.03	79.25
668.232	81.25
668.435	87.25
668.638	82.25
668.841	86.25
669.043	71.25
669.246	76.25
669.449	81.25
669.651	68.25
669.854	67.25
670.057	66.25
670.259	80.25
670.462	86.25
670.665	75.25
670.867	70.25
671.07	76.25
671.272	88.25
671.475	80.25
671.677	76.25
671.88	81.25
672.082	89.25
672.284	71.25
672.487	72.25
672.689	69.25
672.892	82.25
