Data from Ni(NO3)2Standard.Agarose3%.GreenCap.LampEnergy5.5.E.O_HRD10591_14-40-17-188.txt Node
Date: Mon Jul 22 14:40:17 EDT 2019
User: cochatt
Spectrometer: HR+D1059
Trigger mode: 1
Integration Time (sec): 1.000000E-1
Scans to average: 1
Electric dark correction enabled: true
Nonlinearity correction enabled: false
Boxcar width: 0
XAxis mode: Wavelengths
Number of Pixels in Spectrum: 2048
>>>>>Begin Spectral Data<<<<<
223.165	-12.12
223.4	-12.12
223.635	-12.12
223.869	-14.12
224.104	-16.12
224.338	-13.12
224.573	-12.12
224.808	-10.12
225.042	-11.12
225.277	-17.12
225.511	5.88
225.746	3.88
225.98	-0.12
226.215	-6.12
226.449	7.88
226.683	23.88
226.918	44.88
227.152	25.88
227.387	38.88
227.621	43.88
227.856	46.88
228.09	55.88
228.324	61.88
228.559	45.88
228.793	56.88
229.027	56.88
229.262	69.88
229.496	53.88
229.73	76.88
229.964	69.88
230.199	85.88
230.433	75.88
230.667	83.88
230.901	74.88
231.136	90.88
231.37	78.88
231.604	75.88
231.838	75.88
232.072	80.88
232.306	70.88
232.541	77.88
232.775	72.88
233.009	87.88
233.243	85.88
233.477	86.88
233.711	85.88
233.945	83.88
234.179	81.88
234.413	65.88
234.647	73.88
234.881	74.88
235.115	74.88
235.349	80.88
235.583	86.88
235.817	82.88
236.051	81.88
236.285	67.88
236.519	78.88
236.753	79.88
236.987	78.88
237.221	77.88
237.455	77.88
237.689	93.88
237.922	87.88
238.156	86.88
238.39	78.88
238.624	73.88
238.858	64.88
239.091	81.88
239.325	69.88
239.559	84.88
239.793	85.88
240.027	68.88
240.26	75.88
240.494	100.88
240.728	70.88
240.961	72.88
241.195	79.88
241.429	68.88
241.662	75.88
241.896	79.88
242.13	85.88
242.363	78.88
242.597	89.88
242.83	69.88
243.064	79.88
243.298	85.88
243.531	78.88
243.765	74.88
243.998	74.88
244.232	69.88
244.465	85.88
244.699	69.88
244.932	79.88
245.166	85.88
245.399	77.88
245.633	82.88
245.866	74.88
246.099	71.88
246.333	87.88
246.566	85.88
246.8	87.88
247.033	84.88
247.266	85.88
247.5	87.88
247.733	80.88
247.966	70.88
248.2	79.88
248.433	88.88
248.666	97.88
248.899	78.88
249.133	70.88
249.366	77.88
249.599	74.88
249.832	79.88
250.066	75.88
250.299	83.88
250.532	91.88
250.765	92.88
250.998	92.88
251.231	80.88
251.465	84.88
251.698	78.88
251.931	70.88
252.164	91.88
252.397	78.88
252.63	74.88
252.863	79.88
253.096	75.88
253.329	88.88
253.562	91.88
253.795	93.88
254.028	73.88
254.261	74.88
254.494	88.88
254.727	91.88
254.96	94.88
255.193	81.88
255.426	75.88
255.659	74.88
255.892	65.88
256.124	71.88
256.357	84.88
256.59	94.88
256.823	77.88
257.056	70.88
257.289	77.88
257.521	71.88
257.754	88.88
257.987	89.88
258.22	77.88
258.452	77.88
258.685	84.88
258.918	92.88
259.151	84.88
259.383	107.88
259.616	90.88
259.849	71.88
260.081	86.88
260.314	78.88
260.547	89.88
260.779	88.88
261.012	75.88
261.244	67.88
261.477	83.88
261.71	90.88
261.942	87.88
262.175	89.88
262.407	98.88
262.64	86.88
262.872	78.88
263.105	86.88
263.337	82.88
263.57	84.88
263.802	83.88
264.035	75.88
264.267	83.88
264.499	73.88
264.732	90.88
264.964	77.88
265.197	71.88
265.429	78.88
265.661	85.88
265.894	85.88
266.126	86.88
266.358	76.88
266.591	77.88
266.823	74.88
267.055	62.88
267.287	82.88
267.52	82.88
267.752	82.88
267.984	78.88
268.216	82.88
268.448	84.88
268.681	72.88
268.913	75.88
269.145	90.88
269.377	99.88
269.609	90.88
269.841	86.88
270.073	74.88
270.306	71.88
270.538	83.88
270.77	79.88
271.002	78.88
271.234	85.88
271.466	89.88
271.698	71.88
271.93	100.88
272.162	99.88
272.394	74.88
272.626	71.88
272.858	80.88
273.09	90.88
273.322	78.88
273.553	82.88
273.785	72.88
274.017	77.88
274.249	79.88
274.481	74.88
274.713	79.88
274.945	75.88
275.176	78.88
275.408	85.88
275.64	81.88
275.872	87.88
276.104	77.88
276.335	71.88
276.567	97.88
276.799	73.88
277.031	79.88
277.262	90.88
277.494	85.88
277.726	95.88
277.957	90.88
278.189	92.88
278.421	86.88
278.652	84.88
278.884	83.88
279.115	77.88
279.347	83.88
279.579	99.88
279.81	93.88
280.042	85.88
280.273	95.88
280.505	102.88
280.736	74.88
280.968	87.88
281.199	87.88
281.431	110.88
281.662	81.88
281.894	90.88
282.125	74.88
282.356	82.88
282.588	92.88
282.819	104.88
283.051	96.88
283.282	86.88
283.513	80.88
283.745	78.88
283.976	90.88
284.207	72.88
284.439	91.88
284.67	80.88
284.901	84.88
285.132	95.88
285.364	85.88
285.595	93.88
285.826	92.88
286.057	84.88
286.288	85.88
286.52	103.88
286.751	70.88
286.982	77.88
287.213	85.88
287.444	91.88
287.675	79.88
287.906	78.88
288.138	86.88
288.369	90.88
288.6	86.88
288.831	87.88
289.062	95.88
289.293	94.88
289.524	75.88
289.755	93.88
289.986	86.88
290.217	85.88
290.448	94.88
290.679	92.88
290.91	83.88
291.141	85.88
291.371	95.88
291.602	85.88
291.833	85.88
292.064	93.88
292.295	89.88
292.526	74.88
292.757	93.88
292.987	79.88
293.218	74.88
293.449	93.88
293.68	67.88
293.91	89.88
294.141	90.88
294.372	88.88
294.603	79.88
294.833	89.88
295.064	88.88
295.295	81.88
295.525	79.88
295.756	86.88
295.987	76.88
296.217	76.88
296.448	94.88
296.679	86.88
296.909	79.88
297.14	90.88
297.37	63.88
297.601	78.88
297.831	76.88
298.062	69.88
298.292	90.88
298.523	99.88
298.753	93.88
298.984	97.88
299.214	101.88
299.445	89.88
299.675	92.88
299.905	73.88
300.136	93.88
300.366	81.88
300.597	77.88
300.827	110.88
301.057	98.88
301.288	84.88
301.518	80.88
301.748	90.88
301.979	84.88
302.209	81.88
302.439	88.88
302.669	74.88
302.9	77.88
303.13	90.88
303.36	89.88
303.59	82.88
303.82	70.88
304.051	90.88
304.281	95.88
304.511	83.88
304.741	84.88
304.971	75.88
305.201	86.88
305.431	95.88
305.661	96.88
305.891	92.88
306.121	90.88
306.352	97.88
306.582	85.88
306.812	88.88
307.042	91.88
307.272	89.88
307.502	105.88
307.731	86.88
307.961	86.88
308.191	88.88
308.421	85.88
308.651	91.88
308.881	91.88
309.111	93.88
309.341	78.88
309.571	89.88
309.8	95.88
310.03	77.88
310.26	99.88
310.49	94.88
310.72	78.88
310.949	82.88
311.179	93.88
311.409	72.88
311.639	79.88
311.868	102.88
312.098	85.88
312.328	81.88
312.557	100.88
312.787	92.88
313.017	85.88
313.246	89.88
313.476	84.88
313.706	94.88
313.935	82.88
314.165	86.88
314.394	90.88
314.624	78.88
314.853	96.88
315.083	105.88
315.312	107.88
315.542	78.88
315.771	97.88
316.001	100.88
316.23	82.88
316.46	91.88
316.689	87.88
316.919	90.88
317.148	97.88
317.377	84.88
317.607	79.88
317.836	83.88
318.065	84.88
318.295	77.88
318.524	85.88
318.753	85.88
318.983	89.88
319.212	91.88
319.441	78.88
319.67	70.88
319.9	82.88
320.129	86.88
320.358	117.88
320.587	85.88
320.816	85.88
321.046	81.88
321.275	89.88
321.504	79.88
321.733	90.88
321.962	87.88
322.191	92.88
322.42	90.88
322.649	82.88
322.878	91.88
323.108	93.88
323.337	89.88
323.566	84.88
323.795	69.88
324.024	87.88
324.253	93.88
324.482	78.88
324.71	81.88
324.939	91.88
325.168	86.88
325.397	100.88
325.626	83.88
325.855	77.88
326.084	88.88
326.313	96.88
326.542	91.88
326.77	109.88
326.999	86.88
327.228	87.88
327.457	90.88
327.686	89.88
327.914	91.88
328.143	94.88
328.372	90.88
328.6	80.88
328.829	80.88
329.058	84.88
329.287	75.88
329.515	85.88
329.744	78.88
329.972	75.88
330.201	78.88
330.43	85.88
330.658	85.88
330.887	77.88
331.115	73.88
331.344	79.88
331.572	94.88
331.801	90.88
332.03	86.88
332.258	85.88
332.486	79.88
332.715	88.88
332.943	89.88
333.172	94.88
333.4	90.88
333.629	107.88
333.857	83.88
334.085	83.88
334.314	98.88
334.542	84.88
334.771	87.88
334.999	97.88
335.227	81.88
335.455	90.88
335.684	88.88
335.912	92.88
336.14	89.88
336.369	80.88
336.597	102.88
336.825	79.88
337.053	94.88
337.281	96.88
337.51	89.88
337.738	101.88
337.966	93.88
338.194	88.88
338.422	98.88
338.65	89.88
338.878	100.88
339.106	89.88
339.334	89.88
339.562	90.88
339.79	82.88
340.018	94.88
340.246	94.88
340.474	95.88
340.702	91.88
340.93	91.88
341.158	96.88
341.386	85.88
341.614	83.88
341.842	91.88
342.07	84.88
342.298	90.88
342.526	85.88
342.754	86.88
342.981	90.88
343.209	89.88
343.437	97.88
343.665	96.88
343.893	94.88
344.12	97.88
344.348	82.88
344.576	82.88
344.804	91.88
345.031	92.88
345.259	90.88
345.487	93.88
345.714	97.88
345.942	90.88
346.17	91.88
346.397	82.88
346.625	102.88
346.853	89.88
347.08	96.88
347.308	81.88
347.535	92.88
347.763	94.88
347.99	91.88
348.218	91.88
348.445	90.88
348.673	76.88
348.9	103.88
349.128	94.88
349.355	88.88
349.583	111.88
349.81	93.88
350.037	102.88
350.265	80.88
350.492	71.88
350.72	96.88
350.947	94.88
351.174	87.88
351.402	84.88
351.629	102.88
351.856	96.88
352.083	92.88
352.311	84.88
352.538	89.88
352.765	81.88
352.992	88.88
353.22	90.88
353.447	84.88
353.674	87.88
353.901	90.88
354.128	83.88
354.355	89.88
354.583	90.88
354.81	93.88
355.037	92.88
355.264	98.88
355.491	92.88
355.718	102.88
355.945	90.88
356.172	97.88
356.399	92.88
356.626	94.88
356.853	93.88
357.08	87.88
357.307	89.88
357.534	89.88
357.761	94.88
357.988	94.88
358.215	63.88
358.441	90.88
358.668	85.88
358.895	93.88
359.122	96.88
359.349	90.88
359.576	99.88
359.802	82.88
360.029	90.88
360.256	102.88
360.483	91.88
360.709	94.88
360.936	94.88
361.163	85.88
361.39	86.88
361.616	77.88
361.843	75.88
362.07	93.88
362.296	64.88
362.523	88.88
362.749	85.88
362.976	103.88
363.203	89.88
363.429	86.88
363.656	97.88
363.882	80.88
364.109	85.88
364.335	80.88
364.562	82.88
364.788	92.88
365.015	86.88
365.241	81.88
365.468	83.88
365.694	89.88
365.92	87.88
366.147	90.88
366.373	92.88
366.599	81.88
366.826	83.88
367.052	88.88
367.278	82.88
367.505	82.88
367.731	97.88
367.957	85.88
368.184	84.88
368.41	83.88
368.636	88.88
368.862	85.88
369.089	97.88
369.315	86.88
369.541	82.88
369.767	83.88
369.993	84.88
370.219	100.88
370.445	89.88
370.672	94.88
370.898	77.88
371.124	93.88
371.35	89.88
371.576	84.88
371.802	83.88
372.028	67.88
372.254	79.88
372.48	81.88
372.706	77.88
372.932	90.88
373.158	97.88
373.384	100.88
373.61	90.88
373.835	93.88
374.061	82.88
374.287	72.88
374.513	98.88
374.739	107.88
374.965	86.88
375.191	94.88
375.416	89.88
375.642	95.88
375.868	100.88
376.094	83.88
376.319	80.88
376.545	93.88
376.771	98.88
376.997	95.88
377.222	89.88
377.448	92.88
377.674	81.88
377.899	92.88
378.125	78.88
378.35	79.88
378.576	82.88
378.802	89.88
379.027	103.88
379.253	98.88
379.478	81.88
379.704	94.88
379.929	76.88
380.155	91.88
380.38	88.88
380.606	81.88
380.831	89.88
381.057	90.88
381.282	89.88
381.507	87.88
381.733	93.88
381.958	84.88
382.184	80.88
382.409	92.88
382.634	102.88
382.86	84.88
383.085	90.88
383.31	109.88
383.535	89.88
383.761	100.88
383.986	98.88
384.211	97.88
384.436	89.88
384.662	82.88
384.887	85.88
385.112	67.88
385.337	83.88
385.562	91.88
385.787	80.88
386.013	97.88
386.238	73.88
386.463	95.88
386.688	84.88
386.913	77.88
387.138	93.88
387.363	77.88
387.588	94.88
387.813	84.88
388.038	84.88
388.263	69.88
388.488	83.88
388.713	90.88
388.938	96.88
389.163	84.88
389.387	75.88
389.612	79.88
389.837	69.88
390.062	80.88
390.287	95.88
390.512	101.88
390.736	90.88
390.961	82.88
391.186	86.88
391.411	94.88
391.636	92.88
391.86	91.88
392.085	101.88
392.31	91.88
392.534	83.88
392.759	96.88
392.984	83.88
393.208	94.88
393.433	88.88
393.658	86.88
393.882	84.88
394.107	90.88
394.331	85.88
394.556	89.88
394.78	89.88
395.005	87.88
395.229	95.88
395.454	97.88
395.678	83.88
395.903	89.88
396.127	106.88
396.352	73.88
396.576	82.88
396.801	87.88
397.025	85.88
397.249	107.88
397.474	92.88
397.698	79.88
397.922	98.88
398.147	84.88
398.371	74.88
398.595	83.88
398.82	78.88
399.044	87.88
399.268	96.88
399.492	86.88
399.717	84.88
399.941	92.88
400.165	91.88
400.389	89.88
400.613	78.88
400.837	91.88
401.062	92.88
401.286	85.88
401.51	93.88
401.734	79.88
401.958	80.88
402.182	85.88
402.406	75.88
402.63	90.88
402.854	89.88
403.078	95.88
403.302	93.88
403.526	77.88
403.75	90.88
403.974	83.88
404.198	88.88
404.422	98.88
404.645	80.88
404.869	80.88
405.093	84.88
405.317	82.88
405.541	99.88
405.765	89.88
405.988	67.88
406.212	81.88
406.436	79.88
406.66	90.88
406.883	91.88
407.107	81.88
407.331	99.88
407.555	87.88
407.778	104.88
408.002	93.88
408.226	85.88
408.449	95.88
408.673	78.88
408.896	95.88
409.12	75.88
409.344	86.88
409.567	93.88
409.791	100.88
410.014	97.88
410.238	90.88
410.461	94.88
410.685	94.88
410.908	97.88
411.132	97.88
411.355	97.88
411.578	81.88
411.802	88.88
412.025	96.88
412.249	77.88
412.472	75.88
412.695	94.88
412.919	87.88
413.142	97.88
413.365	83.88
413.589	101.88
413.812	80.88
414.035	77.88
414.258	85.88
414.482	89.88
414.705	90.88
414.928	74.88
415.151	92.88
415.374	96.88
415.597	96.88
415.821	93.88
416.044	95.88
416.267	74.88
416.49	101.88
416.713	97.88
416.936	87.88
417.159	84.88
417.382	88.88
417.605	71.88
417.828	82.88
418.051	73.88
418.274	82.88
418.497	89.88
418.72	95.88
418.943	89.88
419.166	79.88
419.389	98.88
419.611	94.88
419.834	91.88
420.057	86.88
420.28	95.88
420.503	86.88
420.726	82.88
420.948	85.88
421.171	98.88
421.394	79.88
421.617	91.88
421.839	84.88
422.062	79.88
422.285	87.88
422.507	77.88
422.73	95.88
422.953	83.88
423.175	86.88
423.398	83.88
423.621	93.88
423.843	85.88
424.066	90.88
424.288	81.88
424.511	90.88
424.733	86.88
424.956	81.88
425.178	88.88
425.401	91.88
425.623	80.88
425.846	93.88
426.068	75.88
426.291	81.88
426.513	92.88
426.735	103.88
426.958	81.88
427.18	83.88
427.402	95.88
427.625	86.88
427.847	87.88
428.069	83.88
428.292	88.88
428.514	99.88
428.736	80.88
428.958	88.88
429.181	81.88
429.403	85.88
429.625	97.88
429.847	75.88
430.069	84.88
430.292	86.88
430.514	79.88
430.736	93.88
430.958	97.88
431.18	84.88
431.402	89.88
431.624	87.88
431.846	82.88
432.068	81.88
432.29	108.88
432.512	94.88
432.734	98.88
432.956	77.88
433.178	91.88
433.4	101.88
433.622	81.88
433.844	76.88
434.066	102.88
434.287	87.88
434.509	70.88
434.731	91.88
434.953	93.88
435.175	83.88
435.397	83.88
435.618	82.88
435.84	85.88
436.062	102.88
436.284	88.88
436.505	81.88
436.727	82.88
436.949	88.88
437.17	75.88
437.392	98.88
437.614	84.88
437.835	75.88
438.057	79.88
438.278	77.88
438.5	80.88
438.721	95.88
438.943	88.88
439.165	89.88
439.386	94.88
439.608	87.88
439.829	88.88
440.05	89.88
440.272	80.88
440.493	77.88
440.715	93.88
440.936	90.88
441.158	76.88
441.379	94.88
441.6	79.88
441.822	89.88
442.043	91.88
442.264	87.88
442.486	89.88
442.707	93.88
442.928	84.88
443.149	90.88
443.371	99.88
443.592	84.88
443.813	98.88
444.034	84.88
444.255	97.88
444.476	101.88
444.698	86.88
444.919	67.88
445.14	192.88
445.361	150.88
445.582	79.88
445.803	88.88
446.024	99.88
446.245	86.88
446.466	104.88
446.687	82.88
446.908	98.88
447.129	83.88
447.35	90.88
447.571	71.88
447.792	90.88
448.013	93.88
448.234	80.88
448.455	87.88
448.675	85.88
448.896	78.88
449.117	77.88
449.338	94.88
449.559	90.88
449.779	85.88
450	101.88
450.221	77.88
450.442	85.88
450.662	89.88
450.883	93.88
451.104	90.88
451.324	86.88
451.545	84.88
451.766	88.88
451.986	88.88
452.207	94.88
452.428	97.88
452.648	107.88
452.869	104.88
453.089	94.88
453.31	85.88
453.53	88.88
453.751	90.88
453.971	82.88
454.192	72.88
454.412	84.88
454.633	87.88
454.853	79.88
455.073	85.88
455.294	83.88
455.514	73.88
455.734	85.88
455.955	86.88
456.175	75.88
456.395	87.88
456.616	74.88
456.836	89.88
457.056	89.88
457.276	77.88
457.497	106.88
457.717	79.88
457.937	94.88
458.157	90.88
458.377	92.88
458.598	89.88
458.818	93.88
459.038	82.88
459.258	96.88
459.478	87.88
459.698	84.88
459.918	94.88
460.138	88.88
460.358	85.88
460.578	84.88
460.798	86.88
461.018	74.88
461.238	92.88
461.458	103.88
461.678	90.88
461.898	105.88
462.118	90.88
462.338	93.88
462.558	79.88
462.777	84.88
462.997	80.88
463.217	91.88
463.437	83.88
463.657	86.88
463.876	97.88
464.096	97.88
464.316	89.88
464.536	77.88
464.755	86.88
464.975	98.88
465.195	90.88
465.414	87.88
465.634	83.88
465.854	85.88
466.073	85.88
466.293	77.88
466.512	85.88
466.732	88.88
466.951	81.88
467.171	83.88
467.391	87.88
467.61	86.88
467.829	92.88
468.049	88.88
468.268	84.88
468.488	89.88
468.707	85.88
468.927	78.88
469.146	91.88
469.365	90.88
469.585	99.88
469.804	75.88
470.023	82.88
470.243	89.88
470.462	93.88
470.681	99.88
470.901	100.88
471.12	89.88
471.339	86.88
471.558	88.88
471.777	90.88
471.997	81.88
472.216	81.88
472.435	100.88
472.654	72.88
472.873	94.88
473.092	93.88
473.311	95.88
473.53	97.88
473.749	89.88
473.968	89.88
474.187	82.88
474.406	90.88
474.625	91.88
474.844	94.88
475.063	89.88
475.282	89.88
475.501	97.88
475.72	96.88
475.939	83.88
476.158	84.88
476.377	82.88
476.596	103.88
476.814	97.88
477.033	91.88
477.252	81.88
477.471	85.88
477.69	95.88
477.908	77.88
478.127	90.88
478.346	90.88
478.564	77.88
478.783	81.88
479.002	81.88
479.22	85.88
479.439	86.88
479.658	101.88
479.876	89.88
480.095	76.88
480.313	89.88
480.532	92.88
480.751	93.88
480.969	83.88
481.188	90.88
481.406	73.88
481.624	110.88
481.843	93.88
482.061	82.88
482.28	91.88
482.498	82.88
482.717	91.88
482.935	95.88
483.153	88.88
483.372	93.88
483.59	94.88
483.808	87.88
484.027	77.88
484.245	87.88
484.463	98.88
484.681	95.88
484.9	90.88
485.118	81.88
485.336	79.88
485.554	74.88
485.772	88.88
485.99	93.88
486.209	116.88
486.427	78.88
486.645	93.88
486.863	110.88
487.081	98.88
487.299	92.88
487.517	90.88
487.735	95.88
487.953	101.88
488.171	97.88
488.389	91.88
488.607	93.88
488.825	89.88
489.043	85.88
489.261	103.88
489.479	92.88
489.696	98.88
489.914	105.88
490.132	99.88
490.35	103.88
490.568	101.88
490.786	86.88
491.003	86.88
491.221	98.88
491.439	92.88
491.657	98.88
491.874	105.88
492.092	94.88
492.31	97.88
492.527	103.88
492.745	98.88
492.963	89.88
493.18	105.88
493.398	101.88
493.615	103.88
493.833	94.88
494.05	86.88
494.268	86.88
494.485	89.88
494.703	95.88
494.92	97.88
495.138	99.88
495.355	92.88
495.573	89.88
495.79	87.88
496.008	94.88
496.225	107.88
496.442	98.88
496.66	106.88
496.877	95.88
497.094	105.88
497.312	104.88
497.529	105.88
497.746	100.88
497.963	97.88
498.181	104.88
498.398	92.88
498.615	94.88
498.832	95.88
499.049	98.88
499.267	90.88
499.484	106.88
499.701	96.88
499.918	107.88
500.135	117.88
500.352	101.88
500.569	109.88
500.786	122.88
501.003	113.88
501.22	116.88
501.437	115.88
501.654	106.88
501.871	90.88
502.088	77.88
502.305	93.88
502.522	104.88
502.739	99.88
502.956	95.88
503.172	91.88
503.389	106.88
503.606	104.88
503.823	90.88
504.04	82.88
504.256	95.88
504.473	98.88
504.69	94.88
504.907	101.88
505.123	110.88
505.34	104.88
505.557	110.88
505.773	90.88
505.99	97.88
506.207	96.88
506.423	99.88
506.64	87.88
506.856	92.88
507.073	83.88
507.289	92.88
507.506	106.88
507.722	101.88
507.939	90.88
508.155	101.88
508.372	111.88
508.588	95.88
508.805	95.88
509.021	98.88
509.238	111.88
509.454	110.88
509.67	95.88
509.887	98.88
510.103	93.88
510.319	81.88
510.536	91.88
510.752	95.88
510.968	84.88
511.184	96.88
511.401	86.88
511.617	86.88
511.833	96.88
512.049	87.88
512.265	105.88
512.481	98.88
512.698	89.88
512.914	100.88
513.13	111.88
513.346	98.88
513.562	89.88
513.778	96.88
513.994	93.88
514.21	91.88
514.426	99.88
514.642	93.88
514.858	88.88
515.074	94.88
515.29	92.88
515.506	87.88
515.721	79.88
515.937	105.88
516.153	88.88
516.369	103.88
516.585	99.88
516.801	94.88
517.016	98.88
517.232	93.88
517.448	91.88
517.664	87.88
517.879	87.88
518.095	102.88
518.311	78.88
518.527	85.88
518.742	91.88
518.958	78.88
519.173	103.88
519.389	98.88
519.605	90.88
519.82	98.88
520.036	95.88
520.251	95.88
520.467	94.88
520.682	89.88
520.898	100.88
521.113	83.88
521.329	90.88
521.544	79.88
521.76	94.88
521.975	92.88
522.19	93.88
522.406	103.88
522.621	89.88
522.836	90.88
523.052	80.88
523.267	91.88
523.482	102.88
523.698	96.88
523.913	85.88
524.128	85.88
524.343	86.88
524.559	88.88
524.774	104.88
524.989	97.88
525.204	97.88
525.419	97.88
525.634	89.88
525.849	89.88
526.064	88.88
526.28	81.88
526.495	91.88
526.71	80.88
526.925	94.88
527.14	84.88
527.355	85.88
527.57	100.88
527.785	94.88
527.999	113.88
528.214	109.88
528.429	92.88
528.644	84.88
528.859	79.88
529.074	106.88
529.289	97.88
529.503	102.88
529.718	102.88
529.933	96.88
530.148	87.88
530.363	90.88
530.577	91.88
530.792	85.88
531.007	85.88
531.221	106.88
531.436	97.88
531.651	92.88
531.865	86.88
532.08	92.88
532.295	99.88
532.509	91.88
532.724	84.88
532.938	91.88
533.153	89.88
533.367	81.88
533.582	86.88
533.796	87.88
534.011	105.88
534.225	86.88
534.44	78.88
534.654	93.88
534.868	84.88
535.083	83.88
535.297	101.88
535.511	98.88
535.726	98.88
535.94	91.88
536.154	105.88
536.369	87.88
536.583	102.88
536.797	93.88
537.011	90.88
537.225	93.88
537.44	78.88
537.654	89.88
537.868	89.88
538.082	93.88
538.296	105.88
538.51	74.88
538.724	98.88
538.938	87.88
539.153	91.88
539.367	89.88
539.581	92.88
539.795	98.88
540.009	75.88
540.222	106.88
540.436	105.88
540.65	85.88
540.864	94.88
541.078	75.88
541.292	80.88
541.506	92.88
541.72	98.88
541.934	92.88
542.147	90.88
542.361	99.88
542.575	97.88
542.789	106.88
543.002	95.88
543.216	87.88
543.43	90.88
543.644	95.88
543.857	94.88
544.071	88.88
544.285	87.88
544.498	103.88
544.712	76.88
544.925	86.88
545.139	88.88
545.352	88.88
545.566	117.88
545.779	98.88
545.993	87.88
546.206	87.88
546.42	94.88
546.633	104.88
546.847	105.88
547.06	100.88
547.274	94.88
547.487	95.88
547.7	95.88
547.914	99.88
548.127	97.88
548.34	97.88
548.554	90.88
548.767	91.88
548.98	94.88
549.193	98.88
549.407	90.88
549.62	82.88
549.833	78.88
550.046	84.88
550.259	99.88
550.473	88.88
550.686	101.88
550.899	91.88
551.112	87.88
551.325	92.88
551.538	91.88
551.751	85.88
551.964	82.88
552.177	105.88
552.39	83.88
552.603	92.88
552.816	96.88
553.029	94.88
553.242	106.88
553.455	99.88
553.667	91.88
553.88	107.88
554.093	98.88
554.306	91.88
554.519	84.88
554.732	103.88
554.944	91.88
555.157	87.88
555.37	97.88
555.583	100.88
555.795	93.88
556.008	92.88
556.221	82.88
556.433	81.88
556.646	101.88
556.859	92.88
557.071	82.88
557.284	88.88
557.496	74.88
557.709	81.88
557.921	86.88
558.134	90.88
558.346	100.88
558.559	77.88
558.771	90.88
558.984	99.88
559.196	97.88
559.409	94.88
559.621	98.88
559.833	95.88
560.046	98.88
560.258	88.88
560.47	88.88
560.683	85.88
560.895	83.88
561.107	94.88
561.32	88.88
561.532	82.88
561.744	97.88
561.956	101.88
562.168	103.88
562.381	98.88
562.593	93.88
562.805	104.88
563.017	91.88
563.229	87.88
563.441	90.88
563.653	93.88
563.865	97.88
564.077	68.88
564.289	80.88
564.501	104.88
564.713	80.88
564.925	87.88
565.137	98.88
565.349	95.88
565.561	86.88
565.773	98.88
565.985	76.88
566.197	99.88
566.408	87.88
566.62	88.88
566.832	83.88
567.044	85.88
567.255	83.88
567.467	97.88
567.679	92.88
567.891	88.88
568.102	93.88
568.314	98.88
568.526	85.88
568.737	92.88
568.949	91.88
569.161	99.88
569.372	96.88
569.584	98.88
569.795	106.88
570.007	94.88
570.218	98.88
570.43	80.88
570.641	96.88
570.853	91.88
571.064	104.88
571.276	76.88
571.487	108.88
571.698	106.88
571.91	77.88
572.121	82.88
572.333	87.88
572.544	88.88
572.755	112.88
572.966	84.88
573.178	87.88
573.389	80.88
573.6	93.88
573.811	89.88
574.023	91.88
574.234	104.88
574.445	93.88
574.656	88.88
574.867	98.88
575.078	99.88
575.289	87.88
575.501	83.88
575.712	97.88
575.923	95.88
576.134	93.88
576.345	97.88
576.556	94.88
576.767	87.88
576.978	89.88
577.188	93.88
577.399	90.88
577.61	89.88
577.821	94.88
578.032	86.88
578.243	76.88
578.454	87.88
578.665	107.88
578.875	93.88
579.086	83.88
579.297	82.88
579.508	84.88
579.718	87.88
579.929	91.88
580.14	85.88
580.35	88.88
580.561	97.88
580.772	107.88
580.982	89.88
581.193	101.88
581.403	91.88
581.614	94.88
581.825	85.88
582.035	75.88
582.246	92.88
582.456	100.88
582.667	86.88
582.877	95.88
583.087	74.88
583.298	95.88
583.508	95.88
583.719	80.88
583.929	93.88
584.139	83.88
584.35	83.88
584.56	85.88
584.77	103.88
584.981	102.88
585.191	92.88
585.401	94.88
585.611	87.88
585.821	74.88
586.032	71.88
586.242	84.88
586.452	85.88
586.662	89.88
586.872	90.88
587.082	91.88
587.292	84.88
587.502	93.88
587.713	85.88
587.923	103.88
588.133	103.88
588.343	86.88
588.553	94.88
588.762	97.88
588.972	89.88
589.182	100.88
589.392	108.88
589.602	97.88
589.812	107.88
590.022	83.88
590.232	83.88
590.441	86.88
590.651	82.88
590.861	93.88
591.071	91.88
591.281	98.88
591.49	91.88
591.7	100.88
591.91	100.88
592.119	94.88
592.329	82.88
592.539	73.88
592.748	96.88
592.958	85.88
593.167	79.88
593.377	86.88
593.587	95.88
593.796	91.88
594.006	94.88
594.215	91.88
594.424	91.88
594.634	102.88
594.843	105.88
595.053	91.88
595.262	100.88
595.472	94.88
595.681	94.88
595.89	105.88
596.1	91.88
596.309	86.88
596.518	98.88
596.727	88.88
596.937	89.88
597.146	88.88
597.355	90.88
597.564	94.88
597.774	94.88
597.983	94.88
598.192	94.88
598.401	78.88
598.61	93.88
598.819	90.88
599.028	87.88
599.237	87.88
599.446	92.88
599.655	87.88
599.864	91.88
600.073	92.88
600.282	97.88
600.491	96.88
600.7	86.88
600.909	79.88
601.118	92.88
601.327	100.88
601.536	98.88
601.745	86.88
601.953	82.88
602.162	96.88
602.371	86.88
602.58	71.88
602.789	96.88
602.997	75.88
603.206	86.88
603.415	97.88
603.623	83.88
603.832	85.88
604.041	89.88
604.249	81.88
604.458	86.88
604.666	94.88
604.875	92.88
605.084	92.88
605.292	82.88
605.501	93.88
605.709	95.88
605.918	85.88
606.126	88.88
606.334	89.88
606.543	82.88
606.751	66.88
606.96	74.88
607.168	92.88
607.376	88.88
607.585	84.88
607.793	91.88
608.001	106.88
608.21	94.88
608.418	74.88
608.626	96.88
608.834	98.88
609.043	88.88
609.251	95.88
609.459	75.88
609.667	95.88
609.875	89.88
610.083	86.88
610.291	104.88
610.499	89.88
610.707	94.88
610.916	76.88
611.124	86.88
611.332	102.88
611.54	88.88
611.748	81.88
611.955	90.88
612.163	89.88
612.371	107.88
612.579	91.88
612.787	95.88
612.995	99.88
613.203	98.88
613.411	74.88
613.618	96.88
613.826	83.88
614.034	90.88
614.242	74.88
614.449	85.88
614.657	93.88
614.865	90.88
615.072	93.88
615.28	86.88
615.488	93.88
615.695	84.88
615.903	74.88
616.111	84.88
616.318	81.88
616.526	74.88
616.733	86.88
616.941	94.88
617.148	75.88
617.356	76.88
617.563	85.88
617.771	94.88
617.978	78.88
618.185	79.88
618.393	93.88
618.6	89.88
618.807	93.88
619.015	89.88
619.222	92.88
619.429	87.88
619.637	93.88
619.844	91.88
620.051	89.88
620.258	95.88
620.466	82.88
620.673	102.88
620.88	69.88
621.087	86.88
621.294	76.88
621.501	85.88
621.708	87.88
621.915	92.88
622.122	77.88
622.329	105.88
622.536	89.88
622.743	90.88
622.95	78.88
623.157	92.88
623.364	87.88
623.571	78.88
623.778	82.88
623.985	103.88
624.192	94.88
624.399	96.88
624.606	84.88
624.812	95.88
625.019	97.88
625.226	93.88
625.433	73.88
625.639	92.88
625.846	81.88
626.053	93.88
626.259	99.88
626.466	95.88
626.673	84.88
626.879	94.88
627.086	81.88
627.293	84.88
627.499	84.88
627.706	75.88
627.912	79.88
628.119	75.88
628.325	83.88
628.532	86.88
628.738	83.88
628.945	89.88
629.151	83.88
629.357	79.88
629.564	97.88
629.77	86.88
629.976	80.88
630.183	86.88
630.389	90.88
630.595	110.88
630.802	74.88
631.008	88.88
631.214	91.88
631.42	79.88
631.627	91.88
631.833	92.88
632.039	86.88
632.245	68.88
632.451	82.88
632.657	88.88
632.863	77.88
633.069	91.88
633.275	78.88
633.481	84.88
633.688	79.88
633.893	83.88
634.099	102.88
634.305	87.88
634.511	94.88
634.717	86.88
634.923	89.88
635.129	90.88
635.335	90.88
635.541	86.88
635.747	89.88
635.952	89.88
636.158	71.88
636.364	65.88
636.57	83.88
636.775	76.88
636.981	87.88
637.187	92.88
637.392	79.88
637.598	93.88
637.804	84.88
638.009	86.88
638.215	85.88
638.421	73.88
638.626	82.88
638.832	91.88
639.037	90.88
639.243	86.88
639.448	85.88
639.654	92.88
639.859	74.88
640.065	90.88
640.27	95.88
640.475	85.88
640.681	91.88
640.886	76.88
641.091	97.88
641.297	97.88
641.502	81.88
641.707	99.88
641.913	82.88
642.118	96.88
642.323	100.88
642.528	91.88
642.733	89.88
642.939	86.88
643.144	70.88
643.349	76.88
643.554	90.88
643.759	80.88
643.964	88.88
644.169	87.88
644.374	86.88
644.579	63.88
644.784	76.88
644.989	78.88
645.194	91.88
645.399	88.88
645.604	82.88
645.809	82.88
646.014	82.88
646.219	84.88
646.423	90.88
646.628	99.88
646.833	89.88
647.038	76.88
647.243	91.88
647.447	87.88
647.652	85.88
647.857	85.88
648.062	86.88
648.266	73.88
648.471	83.88
648.676	85.88
648.88	81.88
649.085	81.88
649.289	82.88
649.494	86.88
649.698	94.88
649.903	83.88
650.107	86.88
650.312	90.88
650.516	82.88
650.721	90.88
650.925	69.88
651.13	92.88
651.334	84.88
651.539	100.88
651.743	95.88
651.947	89.88
652.152	100.88
652.356	99.88
652.56	96.88
652.764	75.88
652.969	85.88
653.173	79.88
653.377	96.88
653.581	105.88
653.785	83.88
653.99	91.88
654.194	77.88
654.398	91.88
654.602	94.88
654.806	70.88
655.01	71.88
655.214	88.88
655.418	81.88
655.622	88.88
655.826	97.88
656.03	91.88
656.234	87.88
656.438	73.88
656.642	83.88
656.846	83.88
657.049	94.88
657.253	85.88
657.457	88.88
657.661	93.88
657.865	93.88
658.068	91.88
658.272	77.88
658.476	89.88
658.68	102.88
658.883	94.88
659.087	96.88
659.291	91.88
659.494	77.88
659.698	88.88
659.901	87.88
660.105	81.88
660.309	88.88
660.512	75.88
660.716	80.88
660.919	77.88
661.123	87.88
661.326	85.88
661.53	92.88
661.733	97.88
661.936	86.88
662.14	93.88
662.343	95.88
662.546	82.88
662.75	85.88
662.953	93.88
663.156	97.88
663.36	90.88
663.563	86.88
663.766	78.88
663.969	73.88
664.173	85.88
664.376	91.88
664.579	79.88
664.782	69.88
664.985	86.88
665.188	94.88
665.391	89.88
665.594	85.88
665.797	78.88
666	95.88
666.203	79.88
666.406	87.88
666.609	73.88
666.812	84.88
667.015	76.88
667.218	79.88
667.421	78.88
667.624	83.88
667.827	79.88
668.03	84.88
668.232	81.88
668.435	87.88
668.638	78.88
668.841	90.88
669.043	99.88
669.246	82.88
669.449	76.88
669.651	73.88
669.854	77.88
670.057	100.88
670.259	100.88
670.462	83.88
670.665	97.88
670.867	72.88
671.07	78.88
671.272	95.88
671.475	83.88
671.677	54.88
671.88	94.88
672.082	90.88
672.284	85.88
672.487	97.88
672.689	93.88
672.892	85.88
