Data from Ni(NO3)2@0.125M.TitratingCurve.Agarose3%dH2O.NegLispCup.LampEnergy10.LIBS07252019_HRD10591_18-08-52-567.txt Node
Date: Thu Jul 25 18:08:52 EDT 2019
User: cochatt
Spectrometer: HR+D1059
Trigger mode: 1
Integration Time (sec): 1.000000E-1
Scans to average: 1
Electric dark correction enabled: true
Nonlinearity correction enabled: false
Boxcar width: 0
XAxis mode: Wavelengths
Number of Pixels in Spectrum: 2048
>>>>>Begin Spectral Data<<<<<
223.165	-21.56
223.4	-21.56
223.635	-21.56
223.869	-24.56
224.104	-1.56
224.338	-18.56
224.573	-16.56
224.808	-16.56
225.042	-9.56
225.277	0.44
225.511	7.44
225.746	2.44
225.98	20.44
226.215	7.44
226.449	20.44
226.683	5.44
226.918	31.44
227.152	13.44
227.387	38.44
227.621	25.44
227.856	47.44
228.09	42.44
228.324	49.44
228.559	60.44
228.793	70.44
229.027	107.44
229.262	114.44
229.496	108.44
229.73	111.44
229.964	125.44
230.199	120.44
230.433	123.44
230.667	124.44
230.901	115.44
231.136	126.44
231.37	131.44
231.604	134.44
231.838	131.44
232.072	136.44
232.306	137.44
232.541	145.44
232.775	137.44
233.009	148.44
233.243	129.44
233.477	128.44
233.711	132.44
233.945	141.44
234.179	134.44
234.413	139.44
234.647	143.44
234.881	135.44
235.115	125.44
235.349	151.44
235.583	150.44
235.817	148.44
236.051	147.44
236.285	143.44
236.519	141.44
236.753	147.44
236.987	130.44
237.221	132.44
237.455	139.44
237.689	159.44
237.922	160.44
238.156	137.44
238.39	150.44
238.624	153.44
238.858	161.44
239.091	150.44
239.325	151.44
239.559	168.44
239.793	149.44
240.027	181.44
240.26	163.44
240.494	164.44
240.728	171.44
240.961	174.44
241.195	163.44
241.429	158.44
241.662	179.44
241.896	170.44
242.13	156.44
242.363	184.44
242.597	182.44
242.83	183.44
243.064	184.44
243.298	173.44
243.531	183.44
243.765	192.44
243.998	209.44
244.232	193.44
244.465	189.44
244.699	179.44
244.932	209.44
245.166	187.44
245.399	200.44
245.633	199.44
245.866	188.44
246.099	194.44
246.333	189.44
246.566	200.44
246.8	214.44
247.033	199.44
247.266	206.44
247.5	198.44
247.733	204.44
247.966	214.44
248.2	218.44
248.433	231.44
248.666	212.44
248.899	242.44
249.133	213.44
249.366	203.44
249.599	229.44
249.832	231.44
250.066	230.44
250.299	219.44
250.532	230.44
250.765	246.44
250.998	222.44
251.231	246.44
251.465	220.44
251.698	240.44
251.931	251.44
252.164	244.44
252.397	235.44
252.63	239.44
252.863	244.44
253.096	235.44
253.329	242.44
253.562	260.44
253.795	240.44
254.028	256.44
254.261	259.44
254.494	256.44
254.727	239.44
254.96	249.44
255.193	256.44
255.426	253.44
255.659	270.44
255.892	267.44
256.124	261.44
256.357	266.44
256.59	285.44
256.823	278.44
257.056	279.44
257.289	268.44
257.521	284.44
257.754	280.44
257.987	259.44
258.22	262.44
258.452	268.44
258.685	277.44
258.918	272.44
259.151	283.44
259.383	301.44
259.616	282.44
259.849	291.44
260.081	299.44
260.314	288.44
260.547	299.44
260.779	290.44
261.012	290.44
261.244	300.44
261.477	297.44
261.71	299.44
261.942	316.44
262.175	291.44
262.407	294.44
262.64	298.44
262.872	295.44
263.105	294.44
263.337	282.44
263.57	332.44
263.802	322.44
264.035	293.44
264.267	308.44
264.499	308.44
264.732	303.44
264.964	318.44
265.197	332.44
265.429	330.44
265.661	316.44
265.894	336.44
266.126	329.44
266.358	327.44
266.591	319.44
266.823	325.44
267.055	310.44
267.287	335.44
267.52	331.44
267.752	331.44
267.984	349.44
268.216	324.44
268.448	342.44
268.681	337.44
268.913	343.44
269.145	344.44
269.377	316.44
269.609	335.44
269.841	343.44
270.073	338.44
270.306	354.44
270.538	331.44
270.77	325.44
271.002	350.44
271.234	354.44
271.466	332.44
271.698	350.44
271.93	348.44
272.162	352.44
272.394	350.44
272.626	360.44
272.858	331.44
273.09	365.44
273.322	352.44
273.553	351.44
273.785	361.44
274.017	370.44
274.249	387.44
274.481	351.44
274.713	366.44
274.945	378.44
275.176	378.44
275.408	360.44
275.64	377.44
275.872	364.44
276.104	382.44
276.335	371.44
276.567	378.44
276.799	379.44
277.031	385.44
277.262	376.44
277.494	372.44
277.726	399.44
277.957	376.44
278.189	382.44
278.421	380.44
278.652	386.44
278.884	396.44
279.115	380.44
279.347	397.44
279.579	398.44
279.81	398.44
280.042	405.44
280.273	414.44
280.505	391.44
280.736	398.44
280.968	395.44
281.199	412.44
281.431	406.44
281.662	411.44
281.894	396.44
282.125	413.44
282.356	407.44
282.588	429.44
282.819	423.44
283.051	420.44
283.282	400.44
283.513	408.44
283.745	416.44
283.976	418.44
284.207	427.44
284.439	425.44
284.67	419.44
284.901	420.44
285.132	439.44
285.364	439.44
285.595	431.44
285.826	431.44
286.057	433.44
286.288	426.44
286.52	435.44
286.751	446.44
286.982	446.44
287.213	453.44
287.444	428.44
287.675	446.44
287.906	442.44
288.138	460.44
288.369	426.44
288.6	444.44
288.831	450.44
289.062	447.44
289.293	461.44
289.524	451.44
289.755	465.44
289.986	456.44
290.217	476.44
290.448	474.44
290.679	457.44
290.91	458.44
291.141	454.44
291.371	459.44
291.602	467.44
291.833	464.44
292.064	464.44
292.295	457.44
292.526	452.44
292.757	467.44
292.987	457.44
293.218	479.44
293.449	452.44
293.68	477.44
293.91	474.44
294.141	456.44
294.372	463.44
294.603	459.44
294.833	456.44
295.064	486.44
295.295	485.44
295.525	473.44
295.756	486.44
295.987	445.44
296.217	471.44
296.448	472.44
296.679	472.44
296.909	467.44
297.14	479.44
297.37	503.44
297.601	518.44
297.831	495.44
298.062	522.44
298.292	500.44
298.523	528.44
298.753	504.44
298.984	494.44
299.214	526.44
299.445	515.44
299.675	504.44
299.905	520.44
300.136	506.44
300.366	511.44
300.597	494.44
300.827	506.44
301.057	535.44
301.288	546.44
301.518	537.44
301.748	548.44
301.979	527.44
302.209	540.44
302.439	533.44
302.669	534.44
302.9	546.44
303.13	534.44
303.36	502.44
303.59	490.44
303.82	524.44
304.051	538.44
304.281	544.44
304.511	547.44
304.741	536.44
304.971	521.44
305.201	500.44
305.431	514.44
305.661	524.44
305.891	494.44
306.121	514.44
306.352	512.44
306.582	516.44
306.812	530.44
307.042	503.44
307.272	496.44
307.502	516.44
307.731	520.44
307.961	508.44
308.191	500.44
308.421	495.44
308.651	496.44
308.881	507.44
309.111	518.44
309.341	492.44
309.571	531.44
309.8	526.44
310.03	522.44
310.26	513.44
310.49	524.44
310.72	533.44
310.949	539.44
311.179	521.44
311.409	527.44
311.639	525.44
311.868	525.44
312.098	513.44
312.328	509.44
312.557	547.44
312.787	546.44
313.017	541.44
313.246	564.44
313.476	570.44
313.706	538.44
313.935	550.44
314.165	566.44
314.394	534.44
314.624	549.44
314.853	552.44
315.083	539.44
315.312	551.44
315.542	562.44
315.771	559.44
316.001	552.44
316.23	551.44
316.46	549.44
316.689	545.44
316.919	550.44
317.148	529.44
317.377	554.44
317.607	538.44
317.836	528.44
318.065	547.44
318.295	564.44
318.524	554.44
318.753	556.44
318.983	534.44
319.212	541.44
319.441	559.44
319.67	515.44
319.9	538.44
320.129	542.44
320.358	541.44
320.587	551.44
320.816	562.44
321.046	539.44
321.275	534.44
321.504	561.44
321.733	558.44
321.962	560.44
322.191	544.44
322.42	565.44
322.649	566.44
322.878	567.44
323.108	560.44
323.337	574.44
323.566	561.44
323.795	563.44
324.024	539.44
324.253	573.44
324.482	574.44
324.71	563.44
324.939	587.44
325.168	591.44
325.397	573.44
325.626	599.44
325.855	588.44
326.084	618.44
326.313	613.44
326.542	636.44
326.77	631.44
326.999	616.44
327.228	580.44
327.457	609.44
327.686	608.44
327.914	598.44
328.143	612.44
328.372	614.44
328.6	603.44
328.829	597.44
329.058	603.44
329.287	619.44
329.515	646.44
329.744	616.44
329.972	610.44
330.201	632.44
330.43	636.44
330.658	630.44
330.887	640.44
331.115	629.44
331.344	651.44
331.572	621.44
331.801	630.44
332.03	654.44
332.258	676.44
332.486	729.44
332.715	741.44
332.943	756.44
333.172	797.44
333.4	840.44
333.629	844.44
333.857	860.44
334.085	791.44
334.314	834.44
334.542	790.44
334.771	786.44
334.999	764.44
335.227	772.44
335.455	759.44
335.684	757.44
335.912	767.44
336.14	744.44
336.369	744.44
336.597	736.44
336.825	754.44
337.053	726.44
337.281	725.44
337.51	728.44
337.738	724.44
337.966	697.44
338.194	678.44
338.422	678.44
338.65	663.44
338.878	685.44
339.106	655.44
339.334	685.44
339.562	665.44
339.79	613.44
340.018	657.44
340.246	642.44
340.474	656.44
340.702	650.44
340.93	648.44
341.158	650.44
341.386	640.44
341.614	651.44
341.842	644.44
342.07	624.44
342.298	640.44
342.526	643.44
342.754	656.44
342.981	650.44
343.209	656.44
343.437	688.44
343.665	720.44
343.893	791.44
344.12	840.44
344.348	758.44
344.576	711.44
344.804	702.44
345.031	681.44
345.259	651.44
345.487	617.44
345.714	646.44
345.942	628.44
346.17	638.44
346.397	674.44
346.625	611.44
346.853	637.44
347.08	622.44
347.308	606.44
347.535	636.44
347.763	645.44
347.99	634.44
348.218	638.44
348.445	643.44
348.673	630.44
348.9	637.44
349.128	630.44
349.355	614.44
349.583	615.44
349.81	612.44
350.037	619.44
350.265	621.44
350.492	596.44
350.72	618.44
350.947	614.44
351.174	585.44
351.402	614.44
351.629	601.44
351.856	602.44
352.083	606.44
352.311	615.44
352.538	581.44
352.765	582.44
352.992	598.44
353.22	589.44
353.447	586.44
353.674	606.44
353.901	594.44
354.128	582.44
354.355	598.44
354.583	599.44
354.81	587.44
355.037	597.44
355.264	587.44
355.491	616.44
355.718	621.44
355.945	604.44
356.172	606.44
356.399	610.44
356.626	627.44
356.853	606.44
357.08	613.44
357.307	599.44
357.534	598.44
357.761	613.44
357.988	619.44
358.215	596.44
358.441	592.44
358.668	595.44
358.895	598.44
359.122	603.44
359.349	611.44
359.576	609.44
359.802	607.44
360.029	607.44
360.256	597.44
360.483	602.44
360.709	591.44
360.936	588.44
361.163	614.44
361.39	593.44
361.616	612.44
361.843	606.44
362.07	598.44
362.296	579.44
362.523	597.44
362.749	614.44
362.976	583.44
363.203	604.44
363.429	578.44
363.656	595.44
363.882	614.44
364.109	578.44
364.335	613.44
364.562	588.44
364.788	584.44
365.015	596.44
365.241	605.44
365.468	580.44
365.694	586.44
365.92	591.44
366.147	581.44
366.373	597.44
366.599	610.44
366.826	602.44
367.052	604.44
367.278	616.44
367.505	575.44
367.731	601.44
367.957	585.44
368.184	615.44
368.41	602.44
368.636	600.44
368.862	602.44
369.089	624.44
369.315	605.44
369.541	643.44
369.767	637.44
369.993	612.44
370.219	602.44
370.445	611.44
370.672	662.44
370.898	614.44
371.124	636.44
371.35	662.44
371.576	652.44
371.802	647.44
372.028	664.44
372.254	644.44
372.48	652.44
372.706	671.44
372.932	668.44
373.158	666.44
373.384	685.44
373.61	647.44
373.835	645.44
374.061	652.44
374.287	659.44
374.513	690.44
374.739	698.44
374.965	698.44
375.191	718.44
375.416	712.44
375.642	710.44
375.868	683.44
376.094	694.44
376.319	646.44
376.545	674.44
376.771	673.44
376.997	656.44
377.222	638.44
377.448	650.44
377.674	659.44
377.899	653.44
378.125	642.44
378.35	647.44
378.576	639.44
378.802	612.44
379.027	629.44
379.253	635.44
379.478	618.44
379.704	642.44
379.929	654.44
380.155	646.44
380.38	615.44
380.606	650.44
380.831	664.44
381.057	667.44
381.282	632.44
381.507	636.44
381.733	664.44
381.958	656.44
382.184	651.44
382.409	674.44
382.634	670.44
382.86	680.44
383.085	688.44
383.31	696.44
383.535	702.44
383.761	709.44
383.986	746.44
384.211	752.44
384.436	749.44
384.662	760.44
384.887	780.44
385.112	766.44
385.337	797.44
385.562	775.44
385.787	765.44
386.013	783.44
386.238	779.44
386.463	768.44
386.688	783.44
386.913	751.44
387.138	784.44
387.363	749.44
387.588	765.44
387.813	751.44
388.038	751.44
388.263	756.44
388.488	774.44
388.713	794.44
388.938	736.44
389.163	725.44
389.387	748.44
389.612	730.44
389.837	740.44
390.062	740.44
390.287	755.44
390.512	731.44
390.736	727.44
390.961	781.44
391.186	799.44
391.411	813.44
391.636	844.44
391.86	849.44
392.085	857.44
392.31	858.44
392.534	847.44
392.759	856.44
392.984	781.44
393.208	810.44
393.433	852.44
393.658	805.44
393.882	823.44
394.107	824.44
394.331	823.44
394.556	807.44
394.78	834.44
395.005	818.44
395.229	826.44
395.454	855.44
395.678	868.44
395.903	872.44
396.127	852.44
396.352	805.44
396.576	784.44
396.801	807.44
397.025	826.44
397.249	818.44
397.474	831.44
397.698	846.44
397.922	872.44
398.147	843.44
398.371	878.44
398.595	890.44
398.82	928.44
399.044	1001.44
399.268	1100.44
399.492	1299.44
399.717	1478.44
399.941	1495.44
400.165	1284.44
400.389	1138.44
400.613	1071.44
400.837	995.44
401.062	991.44
401.286	960.44
401.51	954.44
401.734	962.44
401.958	965.44
402.182	974.44
402.406	990.44
402.63	988.44
402.854	1039.44
403.078	1030.44
403.302	1094.44
403.526	1125.44
403.75	1113.44
403.974	1147.44
404.198	1148.44
404.422	1131.44
404.645	1125.44
404.869	1107.44
405.093	1094.44
405.317	1089.44
405.541	1044.44
405.765	1064.44
405.988	1023.44
406.212	1047.44
406.436	1061.44
406.66	1078.44
406.883	1088.44
407.107	1169.44
407.331	1218.44
407.555	1272.44
407.778	1280.44
408.002	1221.44
408.226	1198.44
408.449	1150.44
408.673	1150.44
408.896	1106.44
409.12	1111.44
409.344	1116.44
409.567	1095.44
409.791	1124.44
410.014	1110.44
410.238	1078.44
410.461	1083.44
410.685	1065.44
410.908	1077.44
411.132	1059.44
411.355	1024.44
411.578	1003.44
411.802	1001.44
412.025	1013.44
412.249	1031.44
412.472	1029.44
412.695	981.44
412.919	946.44
413.142	951.44
413.365	953.44
413.589	976.44
413.812	959.44
414.035	978.44
414.258	965.44
414.482	974.44
414.705	983.44
414.928	1002.44
415.151	968.44
415.374	962.44
415.597	975.44
415.821	942.44
416.044	943.44
416.267	959.44
416.49	943.44
416.713	930.44
416.936	964.44
417.159	959.44
417.382	931.44
417.605	951.44
417.828	952.44
418.051	968.44
418.274	985.44
418.497	1000.44
418.72	982.44
418.943	971.44
419.166	1068.44
419.389	1152.44
419.611	1101.44
419.834	1044.44
420.057	997.44
420.28	969.44
420.503	983.44
420.726	948.44
420.948	960.44
421.171	972.44
421.394	959.44
421.617	988.44
421.839	975.44
422.062	953.44
422.285	970.44
422.507	1020.44
422.73	972.44
422.953	1016.44
423.175	1006.44
423.398	1028.44
423.621	1033.44
423.843	1054.44
424.066	1061.44
424.288	1035.44
424.511	1027.44
424.733	1006.44
424.956	1022.44
425.178	981.44
425.401	952.44
425.623	982.44
425.846	960.44
426.068	930.44
426.291	924.44
426.513	910.44
426.735	904.44
426.958	886.44
427.18	897.44
427.402	882.44
427.625	887.44
427.847	852.44
428.069	871.44
428.292	885.44
428.514	842.44
428.736	848.44
428.958	853.44
429.181	844.44
429.403	845.44
429.625	827.44
429.847	838.44
430.069	840.44
430.292	877.44
430.514	858.44
430.736	832.44
430.958	828.44
431.18	846.44
431.402	856.44
431.624	846.44
431.846	874.44
432.068	859.44
432.29	882.44
432.512	874.44
432.734	891.44
432.956	886.44
433.178	885.44
433.4	848.44
433.622	866.44
433.844	866.44
434.066	883.44
434.287	906.44
434.509	913.44
434.731	973.44
434.953	974.44
435.175	994.44
435.397	975.44
435.618	904.44
435.84	894.44
436.062	869.44
436.284	874.44
436.505	872.44
436.727	893.44
436.949	884.44
437.17	876.44
437.392	854.44
437.614	837.44
437.835	815.44
438.057	842.44
438.278	808.44
438.5	824.44
438.721	823.44
438.943	844.44
439.165	835.44
439.386	866.44
439.608	893.44
439.829	875.44
440.05	851.44
440.272	880.44
440.493	884.44
440.715	859.44
440.936	911.44
441.158	928.44
441.379	953.44
441.6	979.44
441.822	1017.44
442.043	1003.44
442.264	972.44
442.486	962.44
442.707	971.44
442.928	966.44
443.149	978.44
443.371	950.44
443.592	1002.44
443.813	988.44
444.034	1003.44
444.255	1062.44
444.476	1066.44
444.698	1142.44
444.919	1226.44
445.14	1249.44
445.361	1130.44
445.582	992.44
445.803	981.44
446.024	920.44
446.245	934.44
446.466	919.44
446.687	875.44
446.908	883.44
447.129	892.44
447.35	864.44
447.571	837.44
447.792	834.44
448.013	824.44
448.234	819.44
448.455	826.44
448.675	823.44
448.896	818.44
449.117	795.44
449.338	771.44
449.559	824.44
449.779	771.44
450	808.44
450.221	831.44
450.442	819.44
450.662	816.44
450.883	838.44
451.104	844.44
451.324	864.44
451.545	817.44
451.766	831.44
451.986	835.44
452.207	837.44
452.428	789.44
452.648	791.44
452.869	790.44
453.089	787.44
453.31	796.44
453.53	770.44
453.751	764.44
453.971	790.44
454.192	766.44
454.412	752.44
454.633	744.44
454.853	768.44
455.073	759.44
455.294	780.44
455.514	770.44
455.734	766.44
455.955	729.44
456.175	751.44
456.395	768.44
456.616	726.44
456.836	758.44
457.056	747.44
457.276	727.44
457.497	754.44
457.717	729.44
457.937	754.44
458.157	758.44
458.377	751.44
458.598	765.44
458.818	787.44
459.038	822.44
459.258	857.44
459.478	855.44
459.698	911.44
459.918	918.44
460.138	976.44
460.358	1026.44
460.578	1052.44
460.798	1029.44
461.018	1052.44
461.238	1018.44
461.458	1028.44
461.678	1031.44
461.898	1018.44
462.118	1039.44
462.338	1102.44
462.558	1141.44
462.777	1172.44
462.997	1306.44
463.217	1429.44
463.437	1430.44
463.657	1286.44
463.876	1220.44
464.096	1196.44
464.316	1198.44
464.536	1245.44
464.755	1194.44
464.975	1116.44
465.195	1071.44
465.414	1000.44
465.634	920.44
465.854	919.44
466.073	891.44
466.293	841.44
466.512	875.44
466.732	840.44
466.951	864.44
467.171	826.44
467.391	835.44
467.61	822.44
467.829	824.44
468.049	825.44
468.268	821.44
468.488	791.44
468.707	794.44
468.927	804.44
469.146	819.44
469.365	799.44
469.585	796.44
469.804	820.44
470.023	840.44
470.243	858.44
470.462	871.44
470.681	871.44
470.901	889.44
471.12	889.44
471.339	822.44
471.558	820.44
471.777	821.44
471.997	793.44
472.216	793.44
472.435	804.44
472.654	782.44
472.873	779.44
473.092	796.44
473.311	779.44
473.53	760.44
473.749	782.44
473.968	771.44
474.187	794.44
474.406	775.44
474.625	785.44
474.844	803.44
475.063	780.44
475.282	776.44
475.501	794.44
475.72	796.44
475.939	791.44
476.158	818.44
476.377	796.44
476.596	816.44
476.814	814.44
477.033	811.44
477.252	828.44
477.471	860.44
477.69	869.44
477.908	898.44
478.127	926.44
478.346	949.44
478.564	948.44
478.783	940.44
479.002	981.44
479.22	1000.44
479.439	974.44
479.658	986.44
479.876	980.44
480.095	970.44
480.313	1016.44
480.532	1068.44
480.751	1035.44
480.969	997.44
481.188	962.44
481.406	926.44
481.624	894.44
481.843	903.44
482.061	892.44
482.28	894.44
482.498	861.44
482.717	855.44
482.935	895.44
483.153	904.44
483.372	860.44
483.59	904.44
483.808	872.44
484.027	865.44
484.245	874.44
484.463	923.44
484.681	913.44
484.9	911.44
485.118	929.44
485.336	918.44
485.554	924.44
485.772	948.44
485.99	958.44
486.209	972.44
486.427	954.44
486.645	917.44
486.863	960.44
487.081	956.44
487.299	934.44
487.517	950.44
487.735	913.44
487.953	970.44
488.171	950.44
488.389	916.44
488.607	913.44
488.825	930.44
489.043	900.44
489.261	903.44
489.479	922.44
489.696	930.44
489.914	956.44
490.132	912.44
490.35	941.44
490.568	916.44
490.786	934.44
491.003	958.44
491.221	940.44
491.439	971.44
491.657	974.44
491.874	940.44
492.092	971.44
492.31	962.44
492.527	963.44
492.745	945.44
492.963	950.44
493.18	964.44
493.398	1003.44
493.615	1006.44
493.833	978.44
494.05	982.44
494.268	1005.44
494.485	965.44
494.703	996.44
494.92	986.44
495.138	986.44
495.355	1010.44
495.573	984.44
495.79	999.44
496.008	1012.44
496.225	1038.44
496.442	1016.44
496.66	1015.44
496.877	1014.44
497.094	1021.44
497.312	1067.44
497.529	1120.44
497.746	1148.44
497.963	1147.44
498.181	1190.44
498.398	1214.44
498.615	1315.44
498.832	1382.44
499.049	1525.44
499.267	1620.44
499.484	1796.44
499.701	1992.44
499.918	2184.44
500.135	2585.44
500.352	3000.44
500.569	3177.44
500.786	3129.44
501.003	2882.44
501.22	2515.44
501.437	2194.44
501.654	1928.44
501.871	1705.44
502.088	1593.44
502.305	1489.44
502.522	1404.44
502.739	1353.44
502.956	1310.44
503.172	1211.44
503.389	1166.44
503.606	1107.44
503.823	1150.44
504.04	1122.44
504.256	1096.44
504.473	1162.44
504.69	1235.44
504.907	1186.44
505.123	1061.44
505.34	1029.44
505.557	1005.44
505.773	954.44
505.99	932.44
506.207	938.44
506.423	896.44
506.64	885.44
506.856	893.44
507.073	897.44
507.289	916.44
507.506	872.44
507.722	868.44
507.939	879.44
508.155	858.44
508.372	852.44
508.588	847.44
508.805	833.44
509.021	810.44
509.238	849.44
509.454	812.44
509.67	784.44
509.887	798.44
510.103	806.44
510.319	793.44
510.536	799.44
510.752	804.44
510.968	810.44
511.184	804.44
511.401	802.44
511.617	775.44
511.833	809.44
512.049	792.44
512.265	796.44
512.481	776.44
512.698	780.44
512.914	796.44
513.13	791.44
513.346	804.44
513.562	791.44
513.778	794.44
513.994	779.44
514.21	803.44
514.426	804.44
514.642	816.44
514.858	802.44
515.074	826.44
515.29	849.44
515.506	829.44
515.721	852.44
515.937	869.44
516.153	838.44
516.369	888.44
516.585	902.44
516.801	941.44
517.016	1003.44
517.232	1037.44
517.448	1100.44
517.664	1124.44
517.879	1143.44
518.095	1142.44
518.311	1109.44
518.527	1030.44
518.742	1003.44
518.958	957.44
519.173	910.44
519.389	890.44
519.605	863.44
519.82	822.44
520.036	850.44
520.251	825.44
520.467	825.44
520.682	812.44
520.898	804.44
521.113	814.44
521.329	785.44
521.544	808.44
521.76	789.44
521.975	795.44
522.19	764.44
522.406	733.44
522.621	782.44
522.836	729.44
523.052	727.44
523.267	727.44
523.482	756.44
523.698	729.44
523.913	756.44
524.128	737.44
524.343	744.44
524.559	716.44
524.774	730.44
524.989	775.44
525.204	738.44
525.419	718.44
525.634	721.44
525.849	733.44
526.064	700.44
526.28	716.44
526.495	739.44
526.71	725.44
526.925	752.44
527.14	725.44
527.355	717.44
527.57	711.44
527.785	717.44
527.999	699.44
528.214	720.44
528.429	713.44
528.644	714.44
528.859	745.44
529.074	703.44
529.289	749.44
529.503	729.44
529.718	716.44
529.933	695.44
530.148	719.44
530.363	702.44
530.577	702.44
530.792	705.44
531.007	725.44
531.221	706.44
531.436	703.44
531.651	727.44
531.865	718.44
532.08	718.44
532.295	730.44
532.509	711.44
532.724	726.44
532.938	751.44
533.153	740.44
533.367	727.44
533.582	726.44
533.796	720.44
534.011	708.44
534.225	720.44
534.44	699.44
534.654	711.44
534.868	701.44
535.083	714.44
535.297	707.44
535.511	727.44
535.726	720.44
535.94	691.44
536.154	687.44
536.369	672.44
536.583	670.44
536.797	686.44
537.011	660.44
537.225	678.44
537.44	681.44
537.654	668.44
537.868	678.44
538.082	669.44
538.296	654.44
538.51	655.44
538.724	649.44
538.938	667.44
539.153	676.44
539.367	659.44
539.581	653.44
539.795	652.44
540.009	651.44
540.222	656.44
540.436	662.44
540.65	639.44
540.864	631.44
541.078	633.44
541.292	652.44
541.506	667.44
541.72	651.44
541.934	662.44
542.147	679.44
542.361	683.44
542.575	670.44
542.789	650.44
543.002	635.44
543.216	620.44
543.43	620.44
543.644	621.44
543.857	646.44
544.071	644.44
544.285	642.44
544.498	638.44
544.712	685.44
544.925	663.44
545.139	662.44
545.352	687.44
545.566	680.44
545.779	693.44
545.993	688.44
546.206	672.44
546.42	693.44
546.633	690.44
546.847	679.44
547.06	677.44
547.274	683.44
547.487	672.44
547.7	688.44
547.914	651.44
548.127	671.44
548.34	680.44
548.554	673.44
548.767	678.44
548.98	679.44
549.193	685.44
549.407	694.44
549.62	706.44
549.833	706.44
550.046	709.44
550.259	667.44
550.473	654.44
550.686	651.44
550.899	675.44
551.112	661.44
551.325	660.44
551.538	659.44
551.751	637.44
551.964	654.44
552.177	635.44
552.39	660.44
552.603	678.44
552.816	700.44
553.029	717.44
553.242	743.44
553.455	737.44
553.667	747.44
553.88	741.44
554.093	700.44
554.306	705.44
554.519	681.44
554.732	670.44
554.944	670.44
555.157	640.44
555.37	646.44
555.583	611.44
555.795	623.44
556.008	635.44
556.221	622.44
556.433	592.44
556.646	584.44
556.859	574.44
557.071	575.44
557.284	553.44
557.496	575.44
557.709	563.44
557.921	577.44
558.134	536.44
558.346	568.44
558.559	572.44
558.771	584.44
558.984	575.44
559.196	563.44
559.409	540.44
559.621	576.44
559.833	562.44
560.046	540.44
560.258	547.44
560.47	551.44
560.683	572.44
560.895	557.44
561.107	540.44
561.32	536.44
561.532	545.44
561.744	566.44
561.956	555.44
562.168	544.44
562.381	538.44
562.593	532.44
562.805	550.44
563.017	564.44
563.229	555.44
563.441	554.44
563.653	548.44
563.865	563.44
564.077	567.44
564.289	579.44
564.501	566.44
564.713	585.44
564.925	609.44
565.137	601.44
565.349	627.44
565.561	628.44
565.773	649.44
565.985	656.44
566.197	711.44
566.408	784.44
566.62	825.44
566.832	906.44
567.044	905.44
567.255	894.44
567.467	922.44
567.679	977.44
567.891	1088.44
568.102	1146.44
568.314	1035.44
568.526	936.44
568.737	869.44
568.949	754.44
569.161	706.44
569.372	648.44
569.584	632.44
569.795	587.44
570.007	596.44
570.218	553.44
570.43	562.44
570.641	557.44
570.853	566.44
571.064	571.44
571.276	588.44
571.487	567.44
571.698	543.44
571.91	534.44
572.121	504.44
572.333	496.44
572.544	502.44
572.755	488.44
572.966	500.44
573.178	462.44
573.389	467.44
573.6	478.44
573.811	474.44
574.023	457.44
574.234	450.44
574.445	468.44
574.656	467.44
574.867	446.44
575.078	448.44
575.289	450.44
575.501	461.44
575.712	434.44
575.923	436.44
576.134	427.44
576.345	425.44
576.556	445.44
576.767	447.44
576.978	450.44
577.188	430.44
577.399	422.44
577.61	419.44
577.821	422.44
578.032	412.44
578.243	424.44
578.454	426.44
578.665	393.44
578.875	411.44
579.086	406.44
579.297	406.44
579.508	395.44
579.718	405.44
579.929	394.44
580.14	400.44
580.35	400.44
580.561	402.44
580.772	373.44
580.982	388.44
581.193	386.44
581.403	403.44
581.614	391.44
581.825	386.44
582.035	380.44
582.246	392.44
582.456	386.44
582.667	406.44
582.877	404.44
583.087	406.44
583.298	389.44
583.508	386.44
583.719	379.44
583.929	367.44
584.139	382.44
584.35	374.44
584.56	361.44
584.77	380.44
584.981	374.44
585.191	374.44
585.401	372.44
585.611	367.44
585.821	374.44
586.032	377.44
586.242	374.44
586.452	380.44
586.662	370.44
586.872	368.44
587.082	363.44
587.292	382.44
587.502	367.44
587.713	370.44
587.923	363.44
588.133	363.44
588.343	356.44
588.553	370.44
588.762	371.44
588.972	375.44
589.182	367.44
589.392	357.44
589.602	378.44
589.812	363.44
590.022	363.44
590.232	366.44
590.441	362.44
590.651	373.44
590.861	377.44
591.071	374.44
591.281	387.44
591.49	398.44
591.7	400.44
591.91	393.44
592.119	386.44
592.329	402.44
592.539	401.44
592.748	430.44
592.958	445.44
593.167	443.44
593.377	450.44
593.587	486.44
593.796	475.44
594.006	476.44
594.215	484.44
594.424	505.44
594.634	465.44
594.843	447.44
595.053	426.44
595.262	428.44
595.472	405.44
595.681	395.44
595.89	372.44
596.1	380.44
596.309	379.44
596.518	372.44
596.727	332.44
596.937	327.44
597.146	336.44
597.355	355.44
597.564	344.44
597.774	344.44
597.983	321.44
598.192	336.44
598.401	318.44
598.61	325.44
598.819	326.44
599.028	315.44
599.237	324.44
599.446	317.44
599.655	324.44
599.864	308.44
600.073	300.44
600.282	308.44
600.491	312.44
600.7	310.44
600.909	301.44
601.118	326.44
601.327	319.44
601.536	321.44
601.745	325.44
601.953	320.44
602.162	311.44
602.371	311.44
602.58	311.44
602.789	307.44
602.997	297.44
603.206	302.44
603.415	311.44
603.623	292.44
603.832	278.44
604.041	296.44
604.249	289.44
604.458	290.44
604.666	284.44
604.875	277.44
605.084	296.44
605.292	306.44
605.501	296.44
605.709	319.44
605.918	290.44
606.126	292.44
606.334	272.44
606.543	302.44
606.751	302.44
606.96	299.44
607.168	290.44
607.376	273.44
607.585	283.44
607.793	290.44
608.001	300.44
608.21	280.44
608.418	274.44
608.626	288.44
608.834	297.44
609.043	285.44
609.251	291.44
609.459	266.44
609.667	280.44
609.875	290.44
610.083	284.44
610.291	274.44
610.499	261.44
610.707	279.44
610.916	285.44
611.124	272.44
611.332	278.44
611.54	280.44
611.748	275.44
611.955	276.44
612.163	293.44
612.371	274.44
612.579	279.44
612.787	286.44
612.995	287.44
613.203	267.44
613.411	267.44
613.618	272.44
613.826	260.44
614.034	265.44
614.242	274.44
614.449	276.44
614.657	286.44
614.865	272.44
615.072	292.44
615.28	275.44
615.488	273.44
615.695	284.44
615.903	284.44
616.111	282.44
616.318	268.44
616.526	265.44
616.733	283.44
616.941	279.44
617.148	286.44
617.356	282.44
617.563	271.44
617.771	262.44
617.978	273.44
618.185	280.44
618.393	270.44
618.6	266.44
618.807	277.44
619.015	280.44
619.222	262.44
619.429	261.44
619.637	262.44
619.844	268.44
620.051	267.44
620.258	250.44
620.466	259.44
620.673	269.44
620.88	250.44
621.087	248.44
621.294	264.44
621.501	260.44
621.708	260.44
621.915	252.44
622.122	253.44
622.329	252.44
622.536	252.44
622.743	238.44
622.95	242.44
623.157	250.44
623.364	254.44
623.571	258.44
623.778	237.44
623.985	248.44
624.192	240.44
624.399	238.44
624.606	256.44
624.812	258.44
625.019	252.44
625.226	233.44
625.433	233.44
625.639	236.44
625.846	230.44
626.053	242.44
626.259	239.44
626.466	215.44
626.673	227.44
626.879	227.44
627.086	231.44
627.293	234.44
627.499	236.44
627.706	219.44
627.912	228.44
628.119	227.44
628.325	222.44
628.532	244.44
628.738	225.44
628.945	232.44
629.151	235.44
629.357	221.44
629.564	223.44
629.77	220.44
629.976	219.44
630.183	213.44
630.389	223.44
630.595	223.44
630.802	234.44
631.008	200.44
631.214	212.44
631.42	223.44
631.627	220.44
631.833	212.44
632.039	212.44
632.245	207.44
632.451	206.44
632.657	207.44
632.863	224.44
633.069	209.44
633.275	215.44
633.481	205.44
633.688	195.44
633.893	221.44
634.099	199.44
634.305	202.44
634.511	194.44
634.717	206.44
634.923	196.44
635.129	213.44
635.335	181.44
635.541	218.44
635.747	205.44
635.952	193.44
636.158	192.44
636.364	195.44
636.57	190.44
636.775	196.44
636.981	193.44
637.187	187.44
637.392	180.44
637.598	190.44
637.804	196.44
638.009	190.44
638.215	196.44
638.421	206.44
638.626	186.44
638.832	187.44
639.037	174.44
639.243	194.44
639.448	198.44
639.654	191.44
639.859	200.44
640.065	202.44
640.27	200.44
640.475	192.44
640.681	190.44
640.886	180.44
641.091	198.44
641.297	188.44
641.502	180.44
641.707	188.44
641.913	202.44
642.118	196.44
642.323	197.44
642.528	196.44
642.733	196.44
642.939	171.44
643.144	170.44
643.349	182.44
643.554	196.44
643.759	192.44
643.964	176.44
644.169	175.44
644.374	178.44
644.579	179.44
644.784	180.44
644.989	170.44
645.194	178.44
645.399	184.44
645.604	188.44
645.809	179.44
646.014	162.44
646.219	190.44
646.423	193.44
646.628	175.44
646.833	184.44
647.038	179.44
647.243	197.44
647.447	200.44
647.652	188.44
647.857	187.44
648.062	212.44
648.266	183.44
648.471	199.44
648.676	182.44
648.88	182.44
649.085	193.44
649.289	184.44
649.494	168.44
649.698	181.44
649.903	174.44
650.107	178.44
650.312	189.44
650.516	185.44
650.721	171.44
650.925	164.44
651.13	170.44
651.334	159.44
651.539	161.44
651.743	159.44
651.947	148.44
652.152	152.44
652.356	150.44
652.56	162.44
652.764	164.44
652.969	156.44
653.173	148.44
653.377	147.44
653.581	161.44
653.785	126.44
653.99	145.44
654.194	138.44
654.398	142.44
654.602	154.44
654.806	145.44
655.01	136.44
655.214	138.44
655.418	117.44
655.622	144.44
655.826	143.44
656.03	136.44
656.234	130.44
656.438	132.44
656.642	136.44
656.846	135.44
657.049	138.44
657.253	116.44
657.457	111.44
657.661	125.44
657.865	114.44
658.068	111.44
658.272	111.44
658.476	121.44
658.68	127.44
658.883	99.44
659.087	116.44
659.291	125.44
659.494	120.44
659.698	105.44
659.901	104.44
660.105	106.44
660.309	98.44
660.512	101.44
660.716	95.44
660.919	95.44
661.123	96.44
661.326	103.44
661.53	89.44
661.733	91.44
661.936	101.44
662.14	101.44
662.343	85.44
662.546	80.44
662.75	83.44
662.953	90.44
663.156	84.44
663.36	86.44
663.563	84.44
663.766	86.44
663.969	84.44
664.173	87.44
664.376	83.44
664.579	84.44
664.782	83.44
664.985	90.44
665.188	81.44
665.391	91.44
665.594	75.44
665.797	91.44
666	84.44
666.203	79.44
666.406	71.44
666.609	75.44
666.812	94.44
667.015	78.44
667.218	100.44
667.421	86.44
667.624	88.44
667.827	90.44
668.03	78.44
668.232	86.44
668.435	91.44
668.638	80.44
668.841	70.44
669.043	94.44
669.246	95.44
669.449	90.44
669.651	91.44
669.854	79.44
670.057	88.44
670.259	93.44
670.462	73.44
670.665	89.44
670.867	72.44
671.07	89.44
671.272	78.44
671.475	101.44
671.677	84.44
671.88	90.44
672.082	82.44
672.284	73.44
672.487	70.44
672.689	90.44
672.892	102.44
