Data from Ni(NO3)2@0.5M.TitratingCurve.Agarose3%dH2O.NegLispCup.LampEnergy10.LIBS07252019_HRD10591_18-01-31-566.txt Node
Date: Thu Jul 25 18:01:31 EDT 2019
User: cochatt
Spectrometer: HR+D1059
Trigger mode: 1
Integration Time (sec): 1.000000E-1
Scans to average: 1
Electric dark correction enabled: true
Nonlinearity correction enabled: false
Boxcar width: 0
XAxis mode: Wavelengths
Number of Pixels in Spectrum: 2048
>>>>>Begin Spectral Data<<<<<
223.165	-21.31
223.4	-21.31
223.635	-21.31
223.869	-37.31
224.104	-24.31
224.338	-14.31
224.573	-7.31
224.808	7.69
225.042	-10.31
225.277	1.69
225.511	-2.31
225.746	-4.31
225.98	-5.31
226.215	5.69
226.449	22.69
226.683	26.69
226.918	25.69
227.152	36.69
227.387	42.69
227.621	29.69
227.856	42.69
228.09	36.69
228.324	57.69
228.559	69.69
228.793	62.69
229.027	54.69
229.262	67.69
229.496	78.69
229.73	74.69
229.964	67.69
230.199	65.69
230.433	83.69
230.667	73.69
230.901	79.69
231.136	86.69
231.37	77.69
231.604	87.69
231.838	76.69
232.072	85.69
232.306	80.69
232.541	81.69
232.775	95.69
233.009	82.69
233.243	77.69
233.477	98.69
233.711	81.69
233.945	73.69
234.179	54.69
234.413	71.69
234.647	88.69
234.881	79.69
235.115	85.69
235.349	78.69
235.583	93.69
235.817	81.69
236.051	77.69
236.285	82.69
236.519	87.69
236.753	83.69
236.987	87.69
237.221	86.69
237.455	86.69
237.689	71.69
237.922	80.69
238.156	71.69
238.39	62.69
238.624	67.69
238.858	79.69
239.091	67.69
239.325	85.69
239.559	72.69
239.793	68.69
240.027	72.69
240.26	68.69
240.494	64.69
240.728	87.69
240.961	67.69
241.195	88.69
241.429	75.69
241.662	85.69
241.896	85.69
242.13	79.69
242.363	70.69
242.597	77.69
242.83	86.69
243.064	81.69
243.298	75.69
243.531	92.69
243.765	85.69
243.998	83.69
244.232	72.69
244.465	65.69
244.699	80.69
244.932	66.69
245.166	74.69
245.399	83.69
245.633	81.69
245.866	89.69
246.099	82.69
246.333	71.69
246.566	69.69
246.8	83.69
247.033	85.69
247.266	82.69
247.5	76.69
247.733	80.69
247.966	78.69
248.2	71.69
248.433	78.69
248.666	79.69
248.899	82.69
249.133	72.69
249.366	65.69
249.599	66.69
249.832	92.69
250.066	90.69
250.299	78.69
250.532	88.69
250.765	77.69
250.998	87.69
251.231	73.69
251.465	77.69
251.698	86.69
251.931	74.69
252.164	77.69
252.397	76.69
252.63	89.69
252.863	77.69
253.096	77.69
253.329	77.69
253.562	81.69
253.795	69.69
254.028	87.69
254.261	68.69
254.494	79.69
254.727	84.69
254.96	81.69
255.193	90.69
255.426	87.69
255.659	73.69
255.892	92.69
256.124	86.69
256.357	102.69
256.59	65.69
256.823	68.69
257.056	69.69
257.289	78.69
257.521	79.69
257.754	84.69
257.987	79.69
258.22	83.69
258.452	83.69
258.685	86.69
258.918	88.69
259.151	72.69
259.383	91.69
259.616	72.69
259.849	81.69
260.081	81.69
260.314	70.69
260.547	84.69
260.779	78.69
261.012	87.69
261.244	67.69
261.477	71.69
261.71	82.69
261.942	84.69
262.175	68.69
262.407	79.69
262.64	77.69
262.872	75.69
263.105	75.69
263.337	87.69
263.57	63.69
263.802	83.69
264.035	90.69
264.267	72.69
264.499	85.69
264.732	85.69
264.964	88.69
265.197	87.69
265.429	80.69
265.661	81.69
265.894	94.69
266.126	79.69
266.358	85.69
266.591	68.69
266.823	70.69
267.055	76.69
267.287	83.69
267.52	76.69
267.752	80.69
267.984	81.69
268.216	81.69
268.448	86.69
268.681	74.69
268.913	85.69
269.145	87.69
269.377	81.69
269.609	78.69
269.841	88.69
270.073	85.69
270.306	92.69
270.538	92.69
270.77	75.69
271.002	68.69
271.234	82.69
271.466	91.69
271.698	84.69
271.93	77.69
272.162	81.69
272.394	86.69
272.626	76.69
272.858	74.69
273.09	81.69
273.322	83.69
273.553	85.69
273.785	82.69
274.017	75.69
274.249	72.69
274.481	71.69
274.713	91.69
274.945	76.69
275.176	71.69
275.408	73.69
275.64	85.69
275.872	89.69
276.104	101.69
276.335	72.69
276.567	86.69
276.799	79.69
277.031	88.69
277.262	84.69
277.494	93.69
277.726	91.69
277.957	92.69
278.189	88.69
278.421	90.69
278.652	80.69
278.884	81.69
279.115	83.69
279.347	73.69
279.579	76.69
279.81	89.69
280.042	83.69
280.273	90.69
280.505	76.69
280.736	98.69
280.968	82.69
281.199	76.69
281.431	75.69
281.662	83.69
281.894	84.69
282.125	85.69
282.356	85.69
282.588	91.69
282.819	78.69
283.051	72.69
283.282	73.69
283.513	88.69
283.745	78.69
283.976	69.69
284.207	76.69
284.439	81.69
284.67	78.69
284.901	73.69
285.132	78.69
285.364	77.69
285.595	75.69
285.826	83.69
286.057	76.69
286.288	97.69
286.52	96.69
286.751	74.69
286.982	89.69
287.213	75.69
287.444	70.69
287.675	84.69
287.906	76.69
288.138	83.69
288.369	102.69
288.6	78.69
288.831	83.69
289.062	91.69
289.293	75.69
289.524	87.69
289.755	73.69
289.986	82.69
290.217	83.69
290.448	77.69
290.679	81.69
290.91	90.69
291.141	78.69
291.371	77.69
291.602	88.69
291.833	90.69
292.064	75.69
292.295	86.69
292.526	88.69
292.757	79.69
292.987	84.69
293.218	81.69
293.449	79.69
293.68	80.69
293.91	90.69
294.141	88.69
294.372	78.69
294.603	98.69
294.833	78.69
295.064	86.69
295.295	79.69
295.525	82.69
295.756	89.69
295.987	88.69
296.217	79.69
296.448	77.69
296.679	97.69
296.909	83.69
297.14	93.69
297.37	72.69
297.601	82.69
297.831	91.69
298.062	91.69
298.292	89.69
298.523	86.69
298.753	84.69
298.984	88.69
299.214	88.69
299.445	83.69
299.675	88.69
299.905	91.69
300.136	98.69
300.366	74.69
300.597	98.69
300.827	86.69
301.057	73.69
301.288	83.69
301.518	80.69
301.748	95.69
301.979	79.69
302.209	89.69
302.439	82.69
302.669	88.69
302.9	88.69
303.13	86.69
303.36	77.69
303.59	78.69
303.82	85.69
304.051	74.69
304.281	83.69
304.511	75.69
304.741	104.69
304.971	76.69
305.201	79.69
305.431	86.69
305.661	68.69
305.891	92.69
306.121	72.69
306.352	84.69
306.582	90.69
306.812	75.69
307.042	93.69
307.272	86.69
307.502	89.69
307.731	83.69
307.961	89.69
308.191	83.69
308.421	71.69
308.651	88.69
308.881	89.69
309.111	78.69
309.341	69.69
309.571	89.69
309.8	79.69
310.03	88.69
310.26	90.69
310.49	86.69
310.72	92.69
310.949	83.69
311.179	68.69
311.409	71.69
311.639	82.69
311.868	84.69
312.098	82.69
312.328	66.69
312.557	62.69
312.787	80.69
313.017	92.69
313.246	78.69
313.476	83.69
313.706	91.69
313.935	81.69
314.165	79.69
314.394	77.69
314.624	81.69
314.853	102.69
315.083	79.69
315.312	98.69
315.542	90.69
315.771	88.69
316.001	82.69
316.23	92.69
316.46	92.69
316.689	85.69
316.919	80.69
317.148	84.69
317.377	85.69
317.607	85.69
317.836	93.69
318.065	73.69
318.295	75.69
318.524	82.69
318.753	79.69
318.983	96.69
319.212	95.69
319.441	92.69
319.67	84.69
319.9	78.69
320.129	87.69
320.358	86.69
320.587	80.69
320.816	76.69
321.046	80.69
321.275	80.69
321.504	85.69
321.733	89.69
321.962	86.69
322.191	86.69
322.42	78.69
322.649	85.69
322.878	86.69
323.108	91.69
323.337	83.69
323.566	82.69
323.795	89.69
324.024	82.69
324.253	83.69
324.482	77.69
324.71	95.69
324.939	78.69
325.168	85.69
325.397	94.69
325.626	72.69
325.855	74.69
326.084	86.69
326.313	83.69
326.542	79.69
326.77	71.69
326.999	83.69
327.228	71.69
327.457	85.69
327.686	92.69
327.914	86.69
328.143	87.69
328.372	84.69
328.6	94.69
328.829	91.69
329.058	80.69
329.287	93.69
329.515	86.69
329.744	89.69
329.972	83.69
330.201	76.69
330.43	78.69
330.658	82.69
330.887	96.69
331.115	84.69
331.344	89.69
331.572	85.69
331.801	83.69
332.03	66.69
332.258	75.69
332.486	79.69
332.715	89.69
332.943	75.69
333.172	81.69
333.4	80.69
333.629	84.69
333.857	69.69
334.085	88.69
334.314	91.69
334.542	84.69
334.771	80.69
334.999	88.69
335.227	79.69
335.455	84.69
335.684	79.69
335.912	100.69
336.14	73.69
336.369	86.69
336.597	81.69
336.825	73.69
337.053	89.69
337.281	90.69
337.51	89.69
337.738	66.69
337.966	80.69
338.194	84.69
338.422	81.69
338.65	76.69
338.878	105.69
339.106	104.69
339.334	91.69
339.562	75.69
339.79	91.69
340.018	81.69
340.246	71.69
340.474	74.69
340.702	84.69
340.93	74.69
341.158	79.69
341.386	100.69
341.614	97.69
341.842	76.69
342.07	58.69
342.298	73.69
342.526	85.69
342.754	84.69
342.981	85.69
343.209	83.69
343.437	88.69
343.665	82.69
343.893	67.69
344.12	75.69
344.348	67.69
344.576	76.69
344.804	82.69
345.031	82.69
345.259	78.69
345.487	92.69
345.714	77.69
345.942	83.69
346.17	86.69
346.397	78.69
346.625	90.69
346.853	74.69
347.08	67.69
347.308	84.69
347.535	83.69
347.763	73.69
347.99	93.69
348.218	92.69
348.445	78.69
348.673	93.69
348.9	73.69
349.128	83.69
349.355	80.69
349.583	91.69
349.81	79.69
350.037	83.69
350.265	101.69
350.492	63.69
350.72	73.69
350.947	79.69
351.174	95.69
351.402	72.69
351.629	81.69
351.856	80.69
352.083	87.69
352.311	78.69
352.538	65.69
352.765	84.69
352.992	69.69
353.22	78.69
353.447	75.69
353.674	101.69
353.901	84.69
354.128	74.69
354.355	70.69
354.583	71.69
354.81	79.69
355.037	93.69
355.264	88.69
355.491	82.69
355.718	91.69
355.945	79.69
356.172	99.69
356.399	90.69
356.626	78.69
356.853	90.69
357.08	81.69
357.307	70.69
357.534	77.69
357.761	87.69
357.988	86.69
358.215	93.69
358.441	92.69
358.668	85.69
358.895	94.69
359.122	90.69
359.349	89.69
359.576	73.69
359.802	98.69
360.029	85.69
360.256	88.69
360.483	82.69
360.709	98.69
360.936	80.69
361.163	90.69
361.39	84.69
361.616	79.69
361.843	75.69
362.07	73.69
362.296	68.69
362.523	56.69
362.749	78.69
362.976	71.69
363.203	78.69
363.429	92.69
363.656	85.69
363.882	91.69
364.109	73.69
364.335	67.69
364.562	74.69
364.788	75.69
365.015	86.69
365.241	79.69
365.468	83.69
365.694	81.69
365.92	86.69
366.147	86.69
366.373	82.69
366.599	75.69
366.826	91.69
367.052	98.69
367.278	94.69
367.505	86.69
367.731	77.69
367.957	94.69
368.184	90.69
368.41	98.69
368.636	74.69
368.862	83.69
369.089	72.69
369.315	79.69
369.541	87.69
369.767	78.69
369.993	78.69
370.219	92.69
370.445	87.69
370.672	84.69
370.898	83.69
371.124	85.69
371.35	83.69
371.576	99.69
371.802	89.69
372.028	90.69
372.254	88.69
372.48	80.69
372.706	91.69
372.932	87.69
373.158	87.69
373.384	95.69
373.61	89.69
373.835	86.69
374.061	93.69
374.287	89.69
374.513	91.69
374.739	76.69
374.965	85.69
375.191	90.69
375.416	91.69
375.642	89.69
375.868	75.69
376.094	81.69
376.319	91.69
376.545	77.69
376.771	97.69
376.997	90.69
377.222	83.69
377.448	93.69
377.674	94.69
377.899	87.69
378.125	86.69
378.35	86.69
378.576	91.69
378.802	78.69
379.027	87.69
379.253	90.69
379.478	73.69
379.704	85.69
379.929	89.69
380.155	94.69
380.38	76.69
380.606	99.69
380.831	80.69
381.057	94.69
381.282	83.69
381.507	81.69
381.733	95.69
381.958	89.69
382.184	87.69
382.409	87.69
382.634	96.69
382.86	93.69
383.085	90.69
383.31	89.69
383.535	90.69
383.761	96.69
383.986	101.69
384.211	88.69
384.436	95.69
384.662	100.69
384.887	89.69
385.112	86.69
385.337	82.69
385.562	97.69
385.787	92.69
386.013	93.69
386.238	79.69
386.463	89.69
386.688	96.69
386.913	88.69
387.138	86.69
387.363	93.69
387.588	91.69
387.813	92.69
388.038	84.69
388.263	84.69
388.488	93.69
388.713	92.69
388.938	95.69
389.163	90.69
389.387	86.69
389.612	82.69
389.837	78.69
390.062	99.69
390.287	82.69
390.512	93.69
390.736	92.69
390.961	98.69
391.186	97.69
391.411	90.69
391.636	93.69
391.86	91.69
392.085	105.69
392.31	83.69
392.534	85.69
392.759	85.69
392.984	105.69
393.208	110.69
393.433	103.69
393.658	104.69
393.882	116.69
394.107	102.69
394.331	84.69
394.556	78.69
394.78	88.69
395.005	83.69
395.229	103.69
395.454	86.69
395.678	91.69
395.903	102.69
396.127	99.69
396.352	81.69
396.576	90.69
396.801	100.69
397.025	97.69
397.249	107.69
397.474	87.69
397.698	98.69
397.922	94.69
398.147	104.69
398.371	107.69
398.595	101.69
398.82	92.69
399.044	88.69
399.268	93.69
399.492	83.69
399.717	99.69
399.941	90.69
400.165	105.69
400.389	98.69
400.613	107.69
400.837	113.69
401.062	89.69
401.286	86.69
401.51	100.69
401.734	101.69
401.958	83.69
402.182	101.69
402.406	102.69
402.63	108.69
402.854	97.69
403.078	120.69
403.302	105.69
403.526	102.69
403.75	103.69
403.974	107.69
404.198	116.69
404.422	99.69
404.645	84.69
404.869	87.69
405.093	102.69
405.317	109.69
405.541	102.69
405.765	98.69
405.988	95.69
406.212	101.69
406.436	85.69
406.66	93.69
406.883	112.69
407.107	113.69
407.331	102.69
407.555	113.69
407.778	105.69
408.002	116.69
408.226	106.69
408.449	119.69
408.673	102.69
408.896	102.69
409.12	94.69
409.344	97.69
409.567	104.69
409.791	102.69
410.014	102.69
410.238	109.69
410.461	109.69
410.685	106.69
410.908	117.69
411.132	119.69
411.355	109.69
411.578	115.69
411.802	117.69
412.025	93.69
412.249	106.69
412.472	114.69
412.695	108.69
412.919	89.69
413.142	111.69
413.365	110.69
413.589	98.69
413.812	114.69
414.035	117.69
414.258	106.69
414.482	115.69
414.705	113.69
414.928	118.69
415.151	109.69
415.374	100.69
415.597	108.69
415.821	115.69
416.044	106.69
416.267	115.69
416.49	110.69
416.713	116.69
416.936	112.69
417.159	110.69
417.382	129.69
417.605	115.69
417.828	118.69
418.051	107.69
418.274	115.69
418.497	117.69
418.72	119.69
418.943	123.69
419.166	119.69
419.389	107.69
419.611	103.69
419.834	108.69
420.057	125.69
420.28	110.69
420.503	115.69
420.726	110.69
420.948	114.69
421.171	105.69
421.394	115.69
421.617	127.69
421.839	106.69
422.062	114.69
422.285	123.69
422.507	114.69
422.73	113.69
422.953	109.69
423.175	123.69
423.398	115.69
423.621	128.69
423.843	119.69
424.066	121.69
424.288	122.69
424.511	121.69
424.733	133.69
424.956	114.69
425.178	136.69
425.401	129.69
425.623	129.69
425.846	118.69
426.068	103.69
426.291	111.69
426.513	111.69
426.735	97.69
426.958	109.69
427.18	119.69
427.402	122.69
427.625	123.69
427.847	121.69
428.069	122.69
428.292	129.69
428.514	113.69
428.736	120.69
428.958	124.69
429.181	133.69
429.403	115.69
429.625	124.69
429.847	122.69
430.069	121.69
430.292	136.69
430.514	130.69
430.736	131.69
430.958	129.69
431.18	121.69
431.402	117.69
431.624	117.69
431.846	107.69
432.068	93.69
432.29	102.69
432.512	119.69
432.734	123.69
432.956	119.69
433.178	122.69
433.4	138.69
433.622	123.69
433.844	120.69
434.066	93.69
434.287	98.69
434.509	98.69
434.731	101.69
434.953	119.69
435.175	125.69
435.397	119.69
435.618	113.69
435.84	104.69
436.062	113.69
436.284	108.69
436.505	133.69
436.727	118.69
436.949	120.69
437.17	125.69
437.392	138.69
437.614	113.69
437.835	103.69
438.057	103.69
438.278	108.69
438.5	135.69
438.721	120.69
438.943	125.69
439.165	133.69
439.386	139.69
439.608	133.69
439.829	136.69
440.05	131.69
440.272	125.69
440.493	137.69
440.715	142.69
440.936	139.69
441.158	127.69
441.379	134.69
441.6	135.69
441.822	142.69
442.043	124.69
442.264	126.69
442.486	138.69
442.707	131.69
442.928	150.69
443.149	131.69
443.371	142.69
443.592	117.69
443.813	120.69
444.034	134.69
444.255	145.69
444.476	127.69
444.698	133.69
444.919	136.69
445.14	270.69
445.361	201.69
445.582	164.69
445.803	138.69
446.024	155.69
446.245	153.69
446.466	148.69
446.687	150.69
446.908	162.69
447.129	151.69
447.35	149.69
447.571	141.69
447.792	147.69
448.013	143.69
448.234	132.69
448.455	149.69
448.675	147.69
448.896	135.69
449.117	143.69
449.338	132.69
449.559	138.69
449.779	139.69
450	143.69
450.221	137.69
450.442	140.69
450.662	151.69
450.883	136.69
451.104	148.69
451.324	136.69
451.545	142.69
451.766	124.69
451.986	123.69
452.207	128.69
452.428	119.69
452.648	103.69
452.869	111.69
453.089	117.69
453.31	105.69
453.53	115.69
453.751	107.69
453.971	109.69
454.192	93.69
454.412	110.69
454.633	105.69
454.853	114.69
455.073	121.69
455.294	119.69
455.514	122.69
455.734	116.69
455.955	117.69
456.175	108.69
456.395	100.69
456.616	117.69
456.836	117.69
457.056	102.69
457.276	109.69
457.497	95.69
457.717	104.69
457.937	101.69
458.157	106.69
458.377	107.69
458.598	98.69
458.818	93.69
459.038	85.69
459.258	90.69
459.478	81.69
459.698	72.69
459.918	106.69
460.138	109.69
460.358	120.69
460.578	115.69
460.798	109.69
461.018	101.69
461.238	115.69
461.458	112.69
461.678	109.69
461.898	103.69
462.118	116.69
462.338	113.69
462.558	118.69
462.777	97.69
462.997	108.69
463.217	97.69
463.437	91.69
463.657	94.69
463.876	93.69
464.096	116.69
464.316	107.69
464.536	107.69
464.755	122.69
464.975	109.69
465.195	113.69
465.414	113.69
465.634	108.69
465.854	100.69
466.073	115.69
466.293	116.69
466.512	115.69
466.732	127.69
466.951	122.69
467.171	122.69
467.391	121.69
467.61	138.69
467.829	129.69
468.049	133.69
468.268	137.69
468.488	127.69
468.707	127.69
468.927	128.69
469.146	133.69
469.365	124.69
469.585	130.69
469.804	133.69
470.023	147.69
470.243	133.69
470.462	135.69
470.681	149.69
470.901	148.69
471.12	125.69
471.339	136.69
471.558	141.69
471.777	132.69
471.997	143.69
472.216	129.69
472.435	115.69
472.654	113.69
472.873	107.69
473.092	97.69
473.311	116.69
473.53	117.69
473.749	124.69
473.968	122.69
474.187	114.69
474.406	114.69
474.625	124.69
474.844	121.69
475.063	126.69
475.282	116.69
475.501	105.69
475.72	119.69
475.939	116.69
476.158	114.69
476.377	127.69
476.596	125.69
476.814	97.69
477.033	94.69
477.252	98.69
477.471	117.69
477.69	130.69
477.908	133.69
478.127	135.69
478.346	120.69
478.564	125.69
478.783	120.69
479.002	123.69
479.22	121.69
479.439	122.69
479.658	119.69
479.876	107.69
480.095	106.69
480.313	103.69
480.532	124.69
480.751	100.69
480.969	95.69
481.188	91.69
481.406	78.69
481.624	92.69
481.843	85.69
482.061	91.69
482.28	93.69
482.498	103.69
482.717	103.69
482.935	110.69
483.153	127.69
483.372	142.69
483.59	143.69
483.808	124.69
484.027	114.69
484.245	115.69
484.463	122.69
484.681	122.69
484.9	114.69
485.118	133.69
485.336	132.69
485.554	110.69
485.772	106.69
485.99	85.69
486.209	107.69
486.427	100.69
486.645	94.69
486.863	133.69
487.081	127.69
487.299	118.69
487.517	119.69
487.735	149.69
487.953	161.69
488.171	165.69
488.389	153.69
488.607	133.69
488.825	126.69
489.043	127.69
489.261	121.69
489.479	145.69
489.696	135.69
489.914	127.69
490.132	140.69
490.35	139.69
490.568	159.69
490.786	154.69
491.003	170.69
491.221	177.69
491.439	172.69
491.657	180.69
491.874	210.69
492.092	199.69
492.31	228.69
492.527	213.69
492.745	203.69
492.963	200.69
493.18	179.69
493.398	185.69
493.615	175.69
493.833	179.69
494.05	153.69
494.268	156.69
494.485	157.69
494.703	161.69
494.92	170.69
495.138	166.69
495.355	167.69
495.573	154.69
495.79	160.69
496.008	153.69
496.225	165.69
496.442	170.69
496.66	161.69
496.877	157.69
497.094	162.69
497.312	143.69
497.529	149.69
497.746	153.69
497.963	127.69
498.181	116.69
498.398	106.69
498.615	104.69
498.832	105.69
499.049	123.69
499.267	109.69
499.484	115.69
499.701	124.69
499.918	127.69
500.135	132.69
500.352	129.69
500.569	118.69
500.786	125.69
501.003	127.69
501.22	132.69
501.437	116.69
501.654	110.69
501.871	103.69
502.088	123.69
502.305	122.69
502.522	109.69
502.739	128.69
502.956	126.69
503.172	123.69
503.389	95.69
503.606	106.69
503.823	107.69
504.04	106.69
504.256	117.69
504.473	115.69
504.69	97.69
504.907	131.69
505.123	113.69
505.34	121.69
505.557	110.69
505.773	119.69
505.99	108.69
506.207	108.69
506.423	124.69
506.64	97.69
506.856	114.69
507.073	106.69
507.289	108.69
507.506	103.69
507.722	116.69
507.939	104.69
508.155	125.69
508.372	111.69
508.588	110.69
508.805	116.69
509.021	117.69
509.238	101.69
509.454	89.69
509.67	93.69
509.887	91.69
510.103	83.69
510.319	90.69
510.536	97.69
510.752	89.69
510.968	82.69
511.184	79.69
511.401	102.69
511.617	83.69
511.833	75.69
512.049	85.69
512.265	90.69
512.481	79.69
512.698	98.69
512.914	93.69
513.13	102.69
513.346	88.69
513.562	94.69
513.778	78.69
513.994	87.69
514.21	85.69
514.426	96.69
514.642	95.69
514.858	102.69
515.074	84.69
515.29	93.69
515.506	92.69
515.721	86.69
515.937	93.69
516.153	95.69
516.369	91.69
516.585	83.69
516.801	70.69
517.016	85.69
517.232	92.69
517.448	99.69
517.664	100.69
517.879	94.69
518.095	94.69
518.311	92.69
518.527	97.69
518.742	99.69
518.958	98.69
519.173	83.69
519.389	99.69
519.605	115.69
519.82	98.69
520.036	105.69
520.251	81.69
520.467	92.69
520.682	90.69
520.898	90.69
521.113	96.69
521.329	92.69
521.544	74.69
521.76	93.69
521.975	95.69
522.19	105.69
522.406	98.69
522.621	100.69
522.836	104.69
523.052	99.69
523.267	98.69
523.482	97.69
523.698	106.69
523.913	102.69
524.128	114.69
524.343	109.69
524.559	121.69
524.774	114.69
524.989	109.69
525.204	115.69
525.419	108.69
525.634	109.69
525.849	111.69
526.064	106.69
526.28	83.69
526.495	100.69
526.71	86.69
526.925	85.69
527.14	72.69
527.355	93.69
527.57	97.69
527.785	90.69
527.999	94.69
528.214	99.69
528.429	108.69
528.644	102.69
528.859	110.69
529.074	119.69
529.289	141.69
529.503	136.69
529.718	123.69
529.933	107.69
530.148	117.69
530.363	105.69
530.577	90.69
530.792	91.69
531.007	84.69
531.221	92.69
531.436	98.69
531.651	113.69
531.865	80.69
532.08	97.69
532.295	93.69
532.509	85.69
532.724	90.69
532.938	92.69
533.153	97.69
533.367	108.69
533.582	106.69
533.796	109.69
534.011	105.69
534.225	91.69
534.44	98.69
534.654	89.69
534.868	92.69
535.083	98.69
535.297	105.69
535.511	96.69
535.726	107.69
535.94	90.69
536.154	91.69
536.369	95.69
536.583	106.69
536.797	94.69
537.011	85.69
537.225	82.69
537.44	94.69
537.654	103.69
537.868	90.69
538.082	87.69
538.296	96.69
538.51	102.69
538.724	118.69
538.938	113.69
539.153	140.69
539.367	125.69
539.581	107.69
539.795	87.69
540.009	98.69
540.222	108.69
540.436	100.69
540.65	114.69
540.864	124.69
541.078	129.69
541.292	125.69
541.506	156.69
541.72	150.69
541.934	170.69
542.147	171.69
542.361	157.69
542.575	151.69
542.789	134.69
543.002	121.69
543.216	118.69
543.43	113.69
543.644	114.69
543.857	136.69
544.071	138.69
544.285	163.69
544.498	143.69
544.712	154.69
544.925	140.69
545.139	162.69
545.352	157.69
545.566	143.69
545.779	150.69
545.993	147.69
546.206	149.69
546.42	151.69
546.633	148.69
546.847	155.69
547.06	164.69
547.274	174.69
547.487	153.69
547.7	158.69
547.914	154.69
548.127	152.69
548.34	157.69
548.554	140.69
548.767	146.69
548.98	144.69
549.193	156.69
549.407	153.69
549.62	132.69
549.833	157.69
550.046	136.69
550.259	129.69
550.473	141.69
550.686	167.69
550.899	158.69
551.112	128.69
551.325	129.69
551.538	127.69
551.751	118.69
551.964	106.69
552.177	122.69
552.39	128.69
552.603	131.69
552.816	147.69
553.029	144.69
553.242	149.69
553.455	155.69
553.667	159.69
553.88	150.69
554.093	145.69
554.306	157.69
554.519	141.69
554.732	138.69
554.944	147.69
555.157	142.69
555.37	142.69
555.583	145.69
555.795	127.69
556.008	129.69
556.221	119.69
556.433	137.69
556.646	128.69
556.859	130.69
557.071	126.69
557.284	137.69
557.496	119.69
557.709	120.69
557.921	133.69
558.134	139.69
558.346	133.69
558.559	139.69
558.771	141.69
558.984	118.69
559.196	124.69
559.409	130.69
559.621	128.69
559.833	122.69
560.046	105.69
560.258	129.69
560.47	121.69
560.683	115.69
560.895	120.69
561.107	124.69
561.32	124.69
561.532	124.69
561.744	124.69
561.956	130.69
562.168	119.69
562.381	124.69
562.593	121.69
562.805	115.69
563.017	133.69
563.229	116.69
563.441	119.69
563.653	119.69
563.865	113.69
564.077	122.69
564.289	122.69
564.501	136.69
564.713	119.69
564.925	108.69
565.137	117.69
565.349	118.69
565.561	109.69
565.773	109.69
565.985	116.69
566.197	110.69
566.408	125.69
566.62	109.69
566.832	107.69
567.044	105.69
567.255	108.69
567.467	110.69
567.679	104.69
567.891	102.69
568.102	87.69
568.314	79.69
568.526	87.69
568.737	94.69
568.949	87.69
569.161	78.69
569.372	86.69
569.584	102.69
569.795	78.69
570.007	94.69
570.218	93.69
570.43	93.69
570.641	95.69
570.853	92.69
571.064	101.69
571.276	98.69
571.487	107.69
571.698	100.69
571.91	82.69
572.121	90.69
572.333	99.69
572.544	104.69
572.755	90.69
572.966	90.69
573.178	101.69
573.389	81.69
573.6	83.69
573.811	85.69
574.023	101.69
574.234	85.69
574.445	100.69
574.656	97.69
574.867	96.69
575.078	82.69
575.289	105.69
575.501	83.69
575.712	88.69
575.923	90.69
576.134	100.69
576.345	95.69
576.556	105.69
576.767	94.69
576.978	100.69
577.188	92.69
577.399	87.69
577.61	87.69
577.821	97.69
578.032	82.69
578.243	99.69
578.454	88.69
578.665	102.69
578.875	85.69
579.086	99.69
579.297	91.69
579.508	83.69
579.718	89.69
579.929	86.69
580.14	97.69
580.35	77.69
580.561	86.69
580.772	81.69
580.982	86.69
581.193	85.69
581.403	90.69
581.614	83.69
581.825	90.69
582.035	87.69
582.246	99.69
582.456	86.69
582.667	91.69
582.877	101.69
583.087	87.69
583.298	100.69
583.508	87.69
583.719	82.69
583.929	94.69
584.139	88.69
584.35	103.69
584.56	98.69
584.77	95.69
584.981	97.69
585.191	79.69
585.401	86.69
585.611	90.69
585.821	82.69
586.032	84.69
586.242	91.69
586.452	91.69
586.662	91.69
586.872	81.69
587.082	75.69
587.292	78.69
587.502	90.69
587.713	84.69
587.923	97.69
588.133	103.69
588.343	79.69
588.553	68.69
588.762	85.69
588.972	89.69
589.182	94.69
589.392	86.69
589.602	90.69
589.812	78.69
590.022	101.69
590.232	85.69
590.441	97.69
590.651	85.69
590.861	82.69
591.071	79.69
591.281	89.69
591.49	100.69
591.7	91.69
591.91	88.69
592.119	69.69
592.329	83.69
592.539	86.69
592.748	93.69
592.958	89.69
593.167	88.69
593.377	83.69
593.587	95.69
593.796	97.69
594.006	91.69
594.215	90.69
594.424	94.69
594.634	88.69
594.843	85.69
595.053	79.69
595.262	90.69
595.472	90.69
595.681	94.69
595.89	92.69
596.1	86.69
596.309	87.69
596.518	87.69
596.727	112.69
596.937	88.69
597.146	88.69
597.355	87.69
597.564	87.69
597.774	91.69
597.983	92.69
598.192	78.69
598.401	85.69
598.61	91.69
598.819	100.69
599.028	94.69
599.237	92.69
599.446	104.69
599.655	100.69
599.864	75.69
600.073	83.69
600.282	100.69
600.491	103.69
600.7	82.69
600.909	86.69
601.118	108.69
601.327	101.69
601.536	106.69
601.745	101.69
601.953	100.69
602.162	98.69
602.371	82.69
602.58	88.69
602.789	93.69
602.997	104.69
603.206	95.69
603.415	107.69
603.623	98.69
603.832	112.69
604.041	101.69
604.249	101.69
604.458	89.69
604.666	102.69
604.875	93.69
605.084	104.69
605.292	99.69
605.501	92.69
605.709	91.69
605.918	108.69
606.126	109.69
606.334	103.69
606.543	108.69
606.751	89.69
606.96	95.69
607.168	114.69
607.376	101.69
607.585	97.69
607.793	101.69
608.001	118.69
608.21	115.69
608.418	119.69
608.626	90.69
608.834	86.69
609.043	99.69
609.251	113.69
609.459	104.69
609.667	101.69
609.875	96.69
610.083	104.69
610.291	106.69
610.499	100.69
610.707	102.69
610.916	114.69
611.124	102.69
611.332	104.69
611.54	111.69
611.748	86.69
611.955	101.69
612.163	108.69
612.371	105.69
612.579	94.69
612.787	99.69
612.995	83.69
613.203	105.69
613.411	89.69
613.618	122.69
613.826	111.69
614.034	112.69
614.242	99.69
614.449	106.69
614.657	87.69
614.865	102.69
615.072	96.69
615.28	92.69
615.488	98.69
615.695	99.69
615.903	111.69
616.111	104.69
616.318	96.69
616.526	103.69
616.733	101.69
616.941	113.69
617.148	100.69
617.356	94.69
617.563	92.69
617.771	108.69
617.978	108.69
618.185	84.69
618.393	103.69
618.6	100.69
618.807	96.69
619.015	95.69
619.222	95.69
619.429	84.69
619.637	102.69
619.844	94.69
620.051	93.69
620.258	93.69
620.466	84.69
620.673	97.69
620.88	107.69
621.087	94.69
621.294	91.69
621.501	95.69
621.708	120.69
621.915	94.69
622.122	99.69
622.329	99.69
622.536	95.69
622.743	101.69
622.95	101.69
623.157	91.69
623.364	88.69
623.571	89.69
623.778	113.69
623.985	106.69
624.192	83.69
624.399	105.69
624.606	97.69
624.812	96.69
625.019	92.69
625.226	100.69
625.433	92.69
625.639	84.69
625.846	98.69
626.053	97.69
626.259	82.69
626.466	90.69
626.673	93.69
626.879	81.69
627.086	93.69
627.293	95.69
627.499	87.69
627.706	92.69
627.912	85.69
628.119	94.69
628.325	101.69
628.532	81.69
628.738	88.69
628.945	87.69
629.151	96.69
629.357	99.69
629.564	74.69
629.77	90.69
629.976	88.69
630.183	90.69
630.389	90.69
630.595	86.69
630.802	97.69
631.008	88.69
631.214	83.69
631.42	98.69
631.627	89.69
631.833	92.69
632.039	92.69
632.245	104.69
632.451	91.69
632.657	90.69
632.863	84.69
633.069	85.69
633.275	92.69
633.481	89.69
633.688	74.69
633.893	106.69
634.099	97.69
634.305	73.69
634.511	94.69
634.717	86.69
634.923	102.69
635.129	91.69
635.335	100.69
635.541	86.69
635.747	94.69
635.952	91.69
636.158	101.69
636.364	86.69
636.57	95.69
636.775	107.69
636.981	100.69
637.187	95.69
637.392	102.69
637.598	101.69
637.804	92.69
638.009	88.69
638.215	79.69
638.421	92.69
638.626	90.69
638.832	95.69
639.037	88.69
639.243	91.69
639.448	87.69
639.654	100.69
639.859	94.69
640.065	74.69
640.27	94.69
640.475	89.69
640.681	80.69
640.886	101.69
641.091	93.69
641.297	97.69
641.502	96.69
641.707	91.69
641.913	98.69
642.118	82.69
642.323	91.69
642.528	89.69
642.733	101.69
642.939	101.69
643.144	87.69
643.349	86.69
643.554	92.69
643.759	88.69
643.964	90.69
644.169	81.69
644.374	96.69
644.579	97.69
644.784	90.69
644.989	89.69
645.194	94.69
645.399	97.69
645.604	81.69
645.809	86.69
646.014	94.69
646.219	92.69
646.423	79.69
646.628	103.69
646.833	89.69
647.038	89.69
647.243	87.69
647.447	98.69
647.652	85.69
647.857	98.69
648.062	112.69
648.266	101.69
648.471	91.69
648.676	93.69
648.88	93.69
649.085	93.69
649.289	88.69
649.494	92.69
649.698	93.69
649.903	97.69
650.107	88.69
650.312	95.69
650.516	89.69
650.721	94.69
650.925	90.69
651.13	90.69
651.334	95.69
651.539	71.69
651.743	75.69
651.947	105.69
652.152	92.69
652.356	88.69
652.56	77.69
652.764	89.69
652.969	88.69
653.173	78.69
653.377	86.69
653.581	79.69
653.785	73.69
653.99	85.69
654.194	87.69
654.398	96.69
654.602	83.69
654.806	97.69
655.01	87.69
655.214	74.69
655.418	77.69
655.622	97.69
655.826	97.69
656.03	83.69
656.234	84.69
656.438	68.69
656.642	80.69
656.846	97.69
657.049	89.69
657.253	79.69
657.457	77.69
657.661	84.69
657.865	103.69
658.068	77.69
658.272	89.69
658.476	81.69
658.68	84.69
658.883	82.69
659.087	83.69
659.291	79.69
659.494	77.69
659.698	79.69
659.901	82.69
660.105	73.69
660.309	62.69
660.512	73.69
660.716	81.69
660.919	75.69
661.123	80.69
661.326	93.69
661.53	76.69
661.733	99.69
661.936	76.69
662.14	77.69
662.343	74.69
662.546	71.69
662.75	78.69
662.953	89.69
663.156	80.69
663.36	70.69
663.563	81.69
663.766	79.69
663.969	80.69
664.173	84.69
664.376	91.69
664.579	102.69
664.782	79.69
664.985	69.69
665.188	75.69
665.391	79.69
665.594	75.69
665.797	94.69
666	74.69
666.203	82.69
666.406	79.69
666.609	86.69
666.812	83.69
667.015	79.69
667.218	63.69
667.421	97.69
667.624	83.69
667.827	92.69
668.03	79.69
668.232	81.69
668.435	85.69
668.638	89.69
668.841	94.69
669.043	83.69
669.246	85.69
669.449	71.69
669.651	70.69
669.854	84.69
670.057	81.69
670.259	85.69
670.462	67.69
670.665	95.69
670.867	76.69
671.07	70.69
671.272	87.69
671.475	82.69
671.677	73.69
671.88	85.69
672.082	83.69
672.284	89.69
672.487	85.69
672.689	89.69
672.892	85.69
