Data from Ni(NO3)2@0.125M.TitratingCurve.Agarose3%dH2O.NegLispCup.LampEnergy10.LIBS07252019_HRD10591_18-09-09-569.txt Node
Date: Thu Jul 25 18:09:09 EDT 2019
User: cochatt
Spectrometer: HR+D1059
Trigger mode: 1
Integration Time (sec): 1.000000E-1
Scans to average: 1
Electric dark correction enabled: true
Nonlinearity correction enabled: false
Boxcar width: 0
XAxis mode: Wavelengths
Number of Pixels in Spectrum: 2048
>>>>>Begin Spectral Data<<<<<
223.165	-23.25
223.4	-23.25
223.635	-23.25
223.869	-15.25
224.104	-5.25
224.338	-30.25
224.573	-13.25
224.808	-15.25
225.042	-11.25
225.277	-10.25
225.511	-11.25
225.746	13.75
225.98	10.75
226.215	14.75
226.449	22.75
226.683	29.75
226.918	6.75
227.152	36.75
227.387	24.75
227.621	31.75
227.856	33.75
228.09	46.75
228.324	57.75
228.559	47.75
228.793	74.75
229.027	106.75
229.262	108.75
229.496	100.75
229.73	101.75
229.964	128.75
230.199	138.75
230.433	125.75
230.667	134.75
230.901	118.75
231.136	118.75
231.37	117.75
231.604	129.75
231.838	144.75
232.072	123.75
232.306	136.75
232.541	133.75
232.775	142.75
233.009	139.75
233.243	126.75
233.477	127.75
233.711	131.75
233.945	130.75
234.179	114.75
234.413	149.75
234.647	142.75
234.881	126.75
235.115	138.75
235.349	134.75
235.583	152.75
235.817	122.75
236.051	129.75
236.285	125.75
236.519	129.75
236.753	132.75
236.987	135.75
237.221	155.75
237.455	157.75
237.689	160.75
237.922	145.75
238.156	156.75
238.39	124.75
238.624	155.75
238.858	159.75
239.091	148.75
239.325	145.75
239.559	153.75
239.793	147.75
240.027	156.75
240.26	163.75
240.494	146.75
240.728	150.75
240.961	166.75
241.195	158.75
241.429	174.75
241.662	163.75
241.896	167.75
242.13	159.75
242.363	161.75
242.597	172.75
242.83	162.75
243.064	184.75
243.298	181.75
243.531	170.75
243.765	197.75
243.998	159.75
244.232	171.75
244.465	182.75
244.699	178.75
244.932	181.75
245.166	197.75
245.399	182.75
245.633	173.75
245.866	177.75
246.099	179.75
246.333	181.75
246.566	187.75
246.8	180.75
247.033	196.75
247.266	180.75
247.5	209.75
247.733	198.75
247.966	207.75
248.2	206.75
248.433	201.75
248.666	203.75
248.899	180.75
249.133	185.75
249.366	224.75
249.599	205.75
249.832	202.75
250.066	210.75
250.299	215.75
250.532	224.75
250.765	207.75
250.998	221.75
251.231	229.75
251.465	217.75
251.698	213.75
251.931	224.75
252.164	222.75
252.397	230.75
252.63	239.75
252.863	213.75
253.096	246.75
253.329	226.75
253.562	232.75
253.795	222.75
254.028	239.75
254.261	248.75
254.494	246.75
254.727	247.75
254.96	249.75
255.193	245.75
255.426	253.75
255.659	244.75
255.892	257.75
256.124	236.75
256.357	271.75
256.59	260.75
256.823	264.75
257.056	249.75
257.289	244.75
257.521	243.75
257.754	254.75
257.987	261.75
258.22	262.75
258.452	263.75
258.685	275.75
258.918	267.75
259.151	277.75
259.383	284.75
259.616	268.75
259.849	262.75
260.081	274.75
260.314	282.75
260.547	283.75
260.779	268.75
261.012	277.75
261.244	273.75
261.477	284.75
261.71	287.75
261.942	263.75
262.175	279.75
262.407	272.75
262.64	278.75
262.872	280.75
263.105	276.75
263.337	292.75
263.57	280.75
263.802	290.75
264.035	278.75
264.267	292.75
264.499	294.75
264.732	314.75
264.964	308.75
265.197	294.75
265.429	301.75
265.661	301.75
265.894	290.75
266.126	304.75
266.358	300.75
266.591	303.75
266.823	310.75
267.055	318.75
267.287	300.75
267.52	321.75
267.752	319.75
267.984	318.75
268.216	331.75
268.448	326.75
268.681	310.75
268.913	324.75
269.145	327.75
269.377	308.75
269.609	314.75
269.841	309.75
270.073	314.75
270.306	323.75
270.538	307.75
270.77	320.75
271.002	332.75
271.234	324.75
271.466	314.75
271.698	327.75
271.93	320.75
272.162	332.75
272.394	317.75
272.626	318.75
272.858	326.75
273.09	352.75
273.322	333.75
273.553	326.75
273.785	335.75
274.017	328.75
274.249	345.75
274.481	340.75
274.713	351.75
274.945	355.75
275.176	364.75
275.408	347.75
275.64	339.75
275.872	343.75
276.104	345.75
276.335	354.75
276.567	353.75
276.799	350.75
277.031	362.75
277.262	359.75
277.494	376.75
277.726	332.75
277.957	383.75
278.189	340.75
278.421	348.75
278.652	372.75
278.884	382.75
279.115	364.75
279.347	361.75
279.579	370.75
279.81	367.75
280.042	378.75
280.273	385.75
280.505	378.75
280.736	386.75
280.968	391.75
281.199	366.75
281.431	370.75
281.662	382.75
281.894	368.75
282.125	391.75
282.356	398.75
282.588	386.75
282.819	392.75
283.051	382.75
283.282	376.75
283.513	406.75
283.745	397.75
283.976	400.75
284.207	403.75
284.439	400.75
284.67	401.75
284.901	403.75
285.132	419.75
285.364	400.75
285.595	408.75
285.826	399.75
286.057	418.75
286.288	417.75
286.52	418.75
286.751	426.75
286.982	411.75
287.213	434.75
287.444	414.75
287.675	415.75
287.906	421.75
288.138	418.75
288.369	419.75
288.6	437.75
288.831	438.75
289.062	426.75
289.293	415.75
289.524	421.75
289.755	438.75
289.986	438.75
290.217	442.75
290.448	432.75
290.679	434.75
290.91	408.75
291.141	438.75
291.371	454.75
291.602	443.75
291.833	438.75
292.064	439.75
292.295	420.75
292.526	450.75
292.757	448.75
292.987	424.75
293.218	419.75
293.449	435.75
293.68	447.75
293.91	441.75
294.141	427.75
294.372	442.75
294.603	461.75
294.833	451.75
295.064	438.75
295.295	445.75
295.525	427.75
295.756	446.75
295.987	452.75
296.217	447.75
296.448	470.75
296.679	461.75
296.909	464.75
297.14	461.75
297.37	476.75
297.601	483.75
297.831	470.75
298.062	472.75
298.292	495.75
298.523	484.75
298.753	487.75
298.984	474.75
299.214	486.75
299.445	509.75
299.675	498.75
299.905	459.75
300.136	474.75
300.366	494.75
300.597	494.75
300.827	507.75
301.057	510.75
301.288	500.75
301.518	507.75
301.748	499.75
301.979	498.75
302.209	501.75
302.439	520.75
302.669	494.75
302.9	491.75
303.13	485.75
303.36	490.75
303.59	482.75
303.82	485.75
304.051	481.75
304.281	522.75
304.511	485.75
304.741	495.75
304.971	501.75
305.201	484.75
305.431	485.75
305.661	493.75
305.891	510.75
306.121	516.75
306.352	485.75
306.582	479.75
306.812	475.75
307.042	487.75
307.272	495.75
307.502	483.75
307.731	475.75
307.961	487.75
308.191	469.75
308.421	487.75
308.651	498.75
308.881	482.75
309.111	471.75
309.341	458.75
309.571	476.75
309.8	490.75
310.03	496.75
310.26	497.75
310.49	470.75
310.72	485.75
310.949	485.75
311.179	475.75
311.409	493.75
311.639	487.75
311.868	490.75
312.098	511.75
312.328	514.75
312.557	483.75
312.787	498.75
313.017	511.75
313.246	534.75
313.476	539.75
313.706	510.75
313.935	521.75
314.165	527.75
314.394	526.75
314.624	529.75
314.853	509.75
315.083	526.75
315.312	541.75
315.542	511.75
315.771	512.75
316.001	514.75
316.23	531.75
316.46	499.75
316.689	501.75
316.919	503.75
317.148	534.75
317.377	531.75
317.607	516.75
317.836	523.75
318.065	508.75
318.295	493.75
318.524	497.75
318.753	499.75
318.983	522.75
319.212	509.75
319.441	492.75
319.67	528.75
319.9	539.75
320.129	518.75
320.358	494.75
320.587	488.75
320.816	536.75
321.046	520.75
321.275	494.75
321.504	526.75
321.733	526.75
321.962	521.75
322.191	515.75
322.42	524.75
322.649	518.75
322.878	532.75
323.108	509.75
323.337	531.75
323.566	529.75
323.795	542.75
324.024	564.75
324.253	530.75
324.482	533.75
324.71	536.75
324.939	537.75
325.168	549.75
325.397	548.75
325.626	571.75
325.855	572.75
326.084	568.75
326.313	570.75
326.542	554.75
326.77	572.75
326.999	584.75
327.228	567.75
327.457	570.75
327.686	579.75
327.914	578.75
328.143	598.75
328.372	557.75
328.6	580.75
328.829	564.75
329.058	574.75
329.287	560.75
329.515	594.75
329.744	599.75
329.972	603.75
330.201	589.75
330.43	612.75
330.658	590.75
330.887	626.75
331.115	595.75
331.344	622.75
331.572	615.75
331.801	626.75
332.03	639.75
332.258	680.75
332.486	680.75
332.715	682.75
332.943	713.75
333.172	742.75
333.4	766.75
333.629	803.75
333.857	834.75
334.085	794.75
334.314	797.75
334.542	746.75
334.771	721.75
334.999	737.75
335.227	715.75
335.455	735.75
335.684	726.75
335.912	741.75
336.14	707.75
336.369	707.75
336.597	706.75
336.825	710.75
337.053	730.75
337.281	664.75
337.51	676.75
337.738	670.75
337.966	664.75
338.194	650.75
338.422	653.75
338.65	630.75
338.878	630.75
339.106	623.75
339.334	649.75
339.562	637.75
339.79	605.75
340.018	627.75
340.246	604.75
340.474	607.75
340.702	605.75
340.93	628.75
341.158	613.75
341.386	636.75
341.614	637.75
341.842	624.75
342.07	607.75
342.298	597.75
342.526	594.75
342.754	628.75
342.981	591.75
343.209	642.75
343.437	664.75
343.665	678.75
343.893	737.75
344.12	782.75
344.348	716.75
344.576	679.75
344.804	659.75
345.031	631.75
345.259	650.75
345.487	608.75
345.714	628.75
345.942	606.75
346.17	633.75
346.397	593.75
346.625	609.75
346.853	630.75
347.08	604.75
347.308	604.75
347.535	610.75
347.763	624.75
347.99	625.75
348.218	630.75
348.445	625.75
348.673	604.75
348.9	592.75
349.128	580.75
349.355	588.75
349.583	597.75
349.81	572.75
350.037	579.75
350.265	567.75
350.492	563.75
350.72	582.75
350.947	559.75
351.174	572.75
351.402	551.75
351.629	568.75
351.856	571.75
352.083	575.75
352.311	564.75
352.538	563.75
352.765	588.75
352.992	557.75
353.22	570.75
353.447	578.75
353.674	578.75
353.901	590.75
354.128	573.75
354.355	559.75
354.583	571.75
354.81	571.75
355.037	590.75
355.264	599.75
355.491	570.75
355.718	571.75
355.945	580.75
356.172	564.75
356.399	586.75
356.626	572.75
356.853	586.75
357.08	573.75
357.307	582.75
357.534	576.75
357.761	575.75
357.988	576.75
358.215	594.75
358.441	569.75
358.668	586.75
358.895	570.75
359.122	571.75
359.349	564.75
359.576	593.75
359.802	586.75
360.029	580.75
360.256	572.75
360.483	592.75
360.709	588.75
360.936	556.75
361.163	573.75
361.39	562.75
361.616	574.75
361.843	597.75
362.07	568.75
362.296	592.75
362.523	564.75
362.749	572.75
362.976	582.75
363.203	565.75
363.429	573.75
363.656	571.75
363.882	566.75
364.109	557.75
364.335	565.75
364.562	564.75
364.788	552.75
365.015	565.75
365.241	563.75
365.468	546.75
365.694	567.75
365.92	562.75
366.147	555.75
366.373	565.75
366.599	582.75
366.826	569.75
367.052	566.75
367.278	575.75
367.505	587.75
367.731	563.75
367.957	567.75
368.184	588.75
368.41	601.75
368.636	565.75
368.862	600.75
369.089	582.75
369.315	605.75
369.541	576.75
369.767	579.75
369.993	616.75
370.219	611.75
370.445	603.75
370.672	620.75
370.898	602.75
371.124	619.75
371.35	619.75
371.576	618.75
371.802	627.75
372.028	616.75
372.254	616.75
372.48	615.75
372.706	629.75
372.932	639.75
373.158	626.75
373.384	616.75
373.61	622.75
373.835	616.75
374.061	618.75
374.287	644.75
374.513	659.75
374.739	662.75
374.965	694.75
375.191	674.75
375.416	688.75
375.642	656.75
375.868	649.75
376.094	658.75
376.319	630.75
376.545	617.75
376.771	644.75
376.997	636.75
377.222	609.75
377.448	626.75
377.674	592.75
377.899	610.75
378.125	637.75
378.35	614.75
378.576	593.75
378.802	622.75
379.027	613.75
379.253	602.75
379.478	591.75
379.704	603.75
379.929	626.75
380.155	595.75
380.38	606.75
380.606	608.75
380.831	621.75
381.057	618.75
381.282	608.75
381.507	635.75
381.733	615.75
381.958	614.75
382.184	638.75
382.409	657.75
382.634	647.75
382.86	650.75
383.085	670.75
383.31	668.75
383.535	663.75
383.761	687.75
383.986	681.75
384.211	713.75
384.436	733.75
384.662	755.75
384.887	722.75
385.112	758.75
385.337	746.75
385.562	755.75
385.787	744.75
386.013	755.75
386.238	747.75
386.463	766.75
386.688	758.75
386.913	712.75
387.138	724.75
387.363	724.75
387.588	699.75
387.813	710.75
388.038	721.75
388.263	729.75
388.488	719.75
388.713	743.75
388.938	709.75
389.163	690.75
389.387	706.75
389.612	703.75
389.837	727.75
390.062	703.75
390.287	716.75
390.512	718.75
390.736	703.75
390.961	725.75
391.186	732.75
391.411	773.75
391.636	820.75
391.86	803.75
392.085	806.75
392.31	808.75
392.534	803.75
392.759	806.75
392.984	781.75
393.208	774.75
393.433	763.75
393.658	809.75
393.882	783.75
394.107	804.75
394.331	776.75
394.556	798.75
394.78	788.75
395.005	818.75
395.229	781.75
395.454	814.75
395.678	856.75
395.903	847.75
396.127	821.75
396.352	766.75
396.576	798.75
396.801	742.75
397.025	765.75
397.249	794.75
397.474	835.75
397.698	828.75
397.922	824.75
398.147	800.75
398.371	850.75
398.595	872.75
398.82	905.75
399.044	948.75
399.268	1054.75
399.492	1282.75
399.717	1464.75
399.941	1428.75
400.165	1227.75
400.389	1084.75
400.613	990.75
400.837	943.75
401.062	924.75
401.286	922.75
401.51	917.75
401.734	917.75
401.958	927.75
402.182	927.75
402.406	946.75
402.63	998.75
402.854	985.75
403.078	996.75
403.302	1022.75
403.526	1055.75
403.75	1088.75
403.974	1094.75
404.198	1127.75
404.422	1096.75
404.645	1100.75
404.869	1047.75
405.093	1070.75
405.317	1044.75
405.541	1053.75
405.765	1026.75
405.988	1026.75
406.212	1043.75
406.436	990.75
406.66	1032.75
406.883	1010.75
407.107	1109.75
407.331	1183.75
407.555	1215.75
407.778	1222.75
408.002	1200.75
408.226	1105.75
408.449	1154.75
408.673	1093.75
408.896	1082.75
409.12	1067.75
409.344	1081.75
409.567	1051.75
409.791	1086.75
410.014	1078.75
410.238	1072.75
410.461	1085.75
410.685	1039.75
410.908	1065.75
411.132	979.75
411.355	967.75
411.578	960.75
411.802	964.75
412.025	978.75
412.249	1007.75
412.472	989.75
412.695	976.75
412.919	920.75
413.142	937.75
413.365	943.75
413.589	935.75
413.812	922.75
414.035	920.75
414.258	942.75
414.482	948.75
414.705	972.75
414.928	956.75
415.151	947.75
415.374	958.75
415.597	948.75
415.821	918.75
416.044	903.75
416.267	894.75
416.49	880.75
416.713	932.75
416.936	930.75
417.159	902.75
417.382	909.75
417.605	920.75
417.828	916.75
418.051	957.75
418.274	943.75
418.497	932.75
418.72	963.75
418.943	964.75
419.166	1014.75
419.389	1088.75
419.611	1051.75
419.834	1015.75
420.057	986.75
420.28	950.75
420.503	931.75
420.726	926.75
420.948	923.75
421.171	936.75
421.394	918.75
421.617	934.75
421.839	921.75
422.062	954.75
422.285	911.75
422.507	975.75
422.73	963.75
422.953	958.75
423.175	962.75
423.398	987.75
423.621	1023.75
423.843	1029.75
424.066	1005.75
424.288	1006.75
424.511	1006.75
424.733	984.75
424.956	983.75
425.178	955.75
425.401	934.75
425.623	948.75
425.846	927.75
426.068	889.75
426.291	931.75
426.513	893.75
426.735	900.75
426.958	882.75
427.18	834.75
427.402	878.75
427.625	852.75
427.847	802.75
428.069	817.75
428.292	850.75
428.514	831.75
428.736	811.75
428.958	841.75
429.181	825.75
429.403	814.75
429.625	822.75
429.847	792.75
430.069	810.75
430.292	800.75
430.514	822.75
430.736	814.75
430.958	815.75
431.18	820.75
431.402	815.75
431.624	823.75
431.846	855.75
432.068	840.75
432.29	866.75
432.512	824.75
432.734	852.75
432.956	815.75
433.178	843.75
433.4	871.75
433.622	868.75
433.844	857.75
434.066	854.75
434.287	849.75
434.509	892.75
434.731	936.75
434.953	966.75
435.175	958.75
435.397	935.75
435.618	884.75
435.84	860.75
436.062	848.75
436.284	852.75
436.505	811.75
436.727	869.75
436.949	876.75
437.17	833.75
437.392	822.75
437.614	809.75
437.835	819.75
438.057	810.75
438.278	794.75
438.5	811.75
438.721	787.75
438.943	819.75
439.165	813.75
439.386	823.75
439.608	840.75
439.829	843.75
440.05	855.75
440.272	864.75
440.493	860.75
440.715	879.75
440.936	900.75
441.158	899.75
441.379	946.75
441.6	976.75
441.822	975.75
442.043	985.75
442.264	937.75
442.486	928.75
442.707	923.75
442.928	929.75
443.149	969.75
443.371	936.75
443.592	950.75
443.813	953.75
444.034	993.75
444.255	994.75
444.476	1051.75
444.698	1130.75
444.919	1184.75
445.14	1252.75
445.361	1084.75
445.582	996.75
445.803	943.75
446.024	914.75
446.245	918.75
446.466	888.75
446.687	829.75
446.908	874.75
447.129	854.75
447.35	818.75
447.571	832.75
447.792	796.75
448.013	827.75
448.234	798.75
448.455	797.75
448.675	784.75
448.896	818.75
449.117	773.75
449.338	820.75
449.559	780.75
449.779	779.75
450	772.75
450.221	780.75
450.442	806.75
450.662	804.75
450.883	818.75
451.104	812.75
451.324	818.75
451.545	823.75
451.766	808.75
451.986	792.75
452.207	801.75
452.428	781.75
452.648	774.75
452.869	788.75
453.089	779.75
453.31	771.75
453.53	759.75
453.751	776.75
453.971	768.75
454.192	772.75
454.412	764.75
454.633	712.75
454.853	728.75
455.073	741.75
455.294	720.75
455.514	743.75
455.734	733.75
455.955	714.75
456.175	720.75
456.395	714.75
456.616	720.75
456.836	704.75
457.056	725.75
457.276	742.75
457.497	739.75
457.717	766.75
457.937	735.75
458.157	730.75
458.377	757.75
458.598	758.75
458.818	767.75
459.038	771.75
459.258	831.75
459.478	857.75
459.698	890.75
459.918	899.75
460.138	926.75
460.358	1026.75
460.578	1023.75
460.798	1006.75
461.018	1038.75
461.238	992.75
461.458	1007.75
461.678	1000.75
461.898	989.75
462.118	1007.75
462.338	1065.75
462.558	1095.75
462.777	1149.75
462.997	1240.75
463.217	1346.75
463.437	1381.75
463.657	1247.75
463.876	1188.75
464.096	1170.75
464.316	1172.75
464.536	1191.75
464.755	1156.75
464.975	1077.75
465.195	1024.75
465.414	984.75
465.634	907.75
465.854	863.75
466.073	879.75
466.293	870.75
466.512	843.75
466.732	822.75
466.951	811.75
467.171	830.75
467.391	818.75
467.61	797.75
467.829	820.75
468.049	802.75
468.268	784.75
468.488	764.75
468.707	778.75
468.927	805.75
469.146	825.75
469.365	784.75
469.585	785.75
469.804	802.75
470.023	830.75
470.243	824.75
470.462	849.75
470.681	835.75
470.901	845.75
471.12	813.75
471.339	815.75
471.558	783.75
471.777	800.75
471.997	791.75
472.216	768.75
472.435	747.75
472.654	758.75
472.873	754.75
473.092	749.75
473.311	768.75
473.53	754.75
473.749	762.75
473.968	740.75
474.187	739.75
474.406	772.75
474.625	779.75
474.844	751.75
475.063	782.75
475.282	761.75
475.501	779.75
475.72	759.75
475.939	776.75
476.158	789.75
476.377	797.75
476.596	792.75
476.814	797.75
477.033	818.75
477.252	811.75
477.471	838.75
477.69	846.75
477.908	917.75
478.127	911.75
478.346	921.75
478.564	943.75
478.783	920.75
479.002	942.75
479.22	980.75
479.439	968.75
479.658	927.75
479.876	946.75
480.095	954.75
480.313	1011.75
480.532	1051.75
480.751	1007.75
480.969	950.75
481.188	933.75
481.406	900.75
481.624	903.75
481.843	877.75
482.061	872.75
482.28	856.75
482.498	848.75
482.717	862.75
482.935	889.75
483.153	856.75
483.372	868.75
483.59	861.75
483.808	884.75
484.027	864.75
484.245	873.75
484.463	876.75
484.681	919.75
484.9	898.75
485.118	908.75
485.336	896.75
485.554	934.75
485.772	914.75
485.99	930.75
486.209	934.75
486.427	939.75
486.645	943.75
486.863	956.75
487.081	914.75
487.299	922.75
487.517	901.75
487.735	911.75
487.953	917.75
488.171	914.75
488.389	916.75
488.607	910.75
488.825	893.75
489.043	874.75
489.261	891.75
489.479	896.75
489.696	911.75
489.914	931.75
490.132	894.75
490.35	927.75
490.568	905.75
490.786	938.75
491.003	931.75
491.221	928.75
491.439	924.75
491.657	898.75
491.874	915.75
492.092	937.75
492.31	963.75
492.527	935.75
492.745	942.75
492.963	934.75
493.18	939.75
493.398	940.75
493.615	971.75
493.833	955.75
494.05	959.75
494.268	993.75
494.485	974.75
494.703	980.75
494.92	949.75
495.138	969.75
495.355	998.75
495.573	969.75
495.79	990.75
496.008	976.75
496.225	978.75
496.442	972.75
496.66	1000.75
496.877	1035.75
497.094	1039.75
497.312	1029.75
497.529	1043.75
497.746	1068.75
497.963	1125.75
498.181	1147.75
498.398	1197.75
498.615	1264.75
498.832	1368.75
499.049	1454.75
499.267	1590.75
499.484	1758.75
499.701	1968.75
499.918	2222.75
500.135	2470.75
500.352	2951.75
500.569	3075.75
500.786	3069.75
501.003	2730.75
501.22	2442.75
501.437	2124.75
501.654	1868.75
501.871	1677.75
502.088	1542.75
502.305	1412.75
502.522	1388.75
502.739	1326.75
502.956	1264.75
503.172	1196.75
503.389	1105.75
503.606	1102.75
503.823	1072.75
504.04	1086.75
504.256	1103.75
504.473	1144.75
504.69	1168.75
504.907	1136.75
505.123	1032.75
505.34	1001.75
505.557	978.75
505.773	925.75
505.99	930.75
506.207	888.75
506.423	888.75
506.64	886.75
506.856	858.75
507.073	854.75
507.289	873.75
507.506	848.75
507.722	846.75
507.939	831.75
508.155	819.75
508.372	804.75
508.588	807.75
508.805	806.75
509.021	842.75
509.238	815.75
509.454	796.75
509.67	786.75
509.887	798.75
510.103	780.75
510.319	786.75
510.536	784.75
510.752	758.75
510.968	795.75
511.184	783.75
511.401	779.75
511.617	782.75
511.833	771.75
512.049	772.75
512.265	784.75
512.481	777.75
512.698	758.75
512.914	776.75
513.13	770.75
513.346	768.75
513.562	790.75
513.778	757.75
513.994	774.75
514.21	788.75
514.426	777.75
514.642	780.75
514.858	797.75
515.074	822.75
515.29	788.75
515.506	796.75
515.721	823.75
515.937	857.75
516.153	815.75
516.369	863.75
516.585	877.75
516.801	937.75
517.016	972.75
517.232	1010.75
517.448	1100.75
517.664	1103.75
517.879	1097.75
518.095	1102.75
518.311	1117.75
518.527	1051.75
518.742	958.75
518.958	978.75
519.173	900.75
519.389	888.75
519.605	862.75
519.82	855.75
520.036	811.75
520.251	822.75
520.467	802.75
520.682	796.75
520.898	790.75
521.113	788.75
521.329	772.75
521.544	788.75
521.76	766.75
521.975	732.75
522.19	738.75
522.406	741.75
522.621	755.75
522.836	731.75
523.052	736.75
523.267	727.75
523.482	738.75
523.698	745.75
523.913	726.75
524.128	721.75
524.343	730.75
524.559	734.75
524.774	712.75
524.989	722.75
525.204	701.75
525.419	710.75
525.634	705.75
525.849	708.75
526.064	704.75
526.28	710.75
526.495	707.75
526.71	694.75
526.925	686.75
527.14	706.75
527.355	709.75
527.57	741.75
527.785	686.75
527.999	695.75
528.214	688.75
528.429	703.75
528.644	696.75
528.859	726.75
529.074	698.75
529.289	717.75
529.503	716.75
529.718	714.75
529.933	710.75
530.148	701.75
530.363	728.75
530.577	667.75
530.792	700.75
531.007	716.75
531.221	703.75
531.436	718.75
531.651	729.75
531.865	686.75
532.08	695.75
532.295	708.75
532.509	697.75
532.724	705.75
532.938	681.75
533.153	692.75
533.367	706.75
533.582	711.75
533.796	705.75
534.011	702.75
534.225	705.75
534.44	686.75
534.654	686.75
534.868	680.75
535.083	690.75
535.297	683.75
535.511	675.75
535.726	686.75
535.94	684.75
536.154	693.75
536.369	660.75
536.583	688.75
536.797	635.75
537.011	665.75
537.225	654.75
537.44	640.75
537.654	640.75
537.868	651.75
538.082	646.75
538.296	662.75
538.51	639.75
538.724	659.75
538.938	663.75
539.153	641.75
539.367	606.75
539.581	625.75
539.795	628.75
540.009	622.75
540.222	626.75
540.436	640.75
540.65	635.75
540.864	635.75
541.078	633.75
541.292	640.75
541.506	648.75
541.72	647.75
541.934	635.75
542.147	652.75
542.361	644.75
542.575	614.75
542.789	642.75
543.002	635.75
543.216	618.75
543.43	613.75
543.644	611.75
543.857	635.75
544.071	636.75
544.285	644.75
544.498	637.75
544.712	653.75
544.925	651.75
545.139	656.75
545.352	663.75
545.566	669.75
545.779	640.75
545.993	660.75
546.206	654.75
546.42	656.75
546.633	672.75
546.847	661.75
547.06	662.75
547.274	650.75
547.487	648.75
547.7	677.75
547.914	654.75
548.127	675.75
548.34	670.75
548.554	666.75
548.767	665.75
548.98	657.75
549.193	671.75
549.407	674.75
549.62	677.75
549.833	684.75
550.046	678.75
550.259	674.75
550.473	636.75
550.686	641.75
550.899	620.75
551.112	620.75
551.325	643.75
551.538	638.75
551.751	632.75
551.964	631.75
552.177	647.75
552.39	648.75
552.603	671.75
552.816	680.75
553.029	693.75
553.242	715.75
553.455	719.75
553.667	757.75
553.88	710.75
554.093	665.75
554.306	667.75
554.519	675.75
554.732	645.75
554.944	623.75
555.157	614.75
555.37	622.75
555.583	617.75
555.795	615.75
556.008	592.75
556.221	573.75
556.433	579.75
556.646	574.75
556.859	572.75
557.071	557.75
557.284	581.75
557.496	585.75
557.709	557.75
557.921	559.75
558.134	563.75
558.346	566.75
558.559	547.75
558.771	564.75
558.984	557.75
559.196	553.75
559.409	539.75
559.621	546.75
559.833	514.75
560.046	516.75
560.258	530.75
560.47	532.75
560.683	555.75
560.895	552.75
561.107	523.75
561.32	532.75
561.532	518.75
561.744	536.75
561.956	526.75
562.168	534.75
562.381	540.75
562.593	542.75
562.805	552.75
563.017	536.75
563.229	551.75
563.441	543.75
563.653	547.75
563.865	537.75
564.077	526.75
564.289	548.75
564.501	557.75
564.713	560.75
564.925	555.75
565.137	578.75
565.349	597.75
565.561	619.75
565.773	646.75
565.985	669.75
566.197	693.75
566.408	748.75
566.62	818.75
566.832	902.75
567.044	882.75
567.255	876.75
567.467	879.75
567.679	957.75
567.891	1097.75
568.102	1081.75
568.314	1021.75
568.526	912.75
568.737	824.75
568.949	744.75
569.161	669.75
569.372	626.75
569.584	596.75
569.795	582.75
570.007	599.75
570.218	570.75
570.43	555.75
570.641	526.75
570.853	538.75
571.064	559.75
571.276	564.75
571.487	534.75
571.698	504.75
571.91	494.75
572.121	514.75
572.333	487.75
572.544	483.75
572.755	457.75
572.966	479.75
573.178	461.75
573.389	463.75
573.6	440.75
573.811	467.75
574.023	449.75
574.234	447.75
574.445	454.75
574.656	447.75
574.867	466.75
575.078	440.75
575.289	428.75
575.501	419.75
575.712	423.75
575.923	422.75
576.134	416.75
576.345	412.75
576.556	431.75
576.767	434.75
576.978	438.75
577.188	436.75
577.399	424.75
577.61	414.75
577.821	394.75
578.032	392.75
578.243	425.75
578.454	413.75
578.665	405.75
578.875	407.75
579.086	394.75
579.297	390.75
579.508	385.75
579.718	397.75
579.929	404.75
580.14	378.75
580.35	382.75
580.561	375.75
580.772	375.75
580.982	384.75
581.193	382.75
581.403	366.75
581.614	372.75
581.825	364.75
582.035	380.75
582.246	382.75
582.456	379.75
582.667	375.75
582.877	376.75
583.087	387.75
583.298	382.75
583.508	372.75
583.719	371.75
583.929	370.75
584.139	358.75
584.35	367.75
584.56	395.75
584.77	348.75
584.981	352.75
585.191	378.75
585.401	363.75
585.611	364.75
585.821	356.75
586.032	357.75
586.242	360.75
586.452	368.75
586.662	385.75
586.872	366.75
587.082	354.75
587.292	365.75
587.502	357.75
587.713	367.75
587.923	359.75
588.133	352.75
588.343	339.75
588.553	352.75
588.762	363.75
588.972	350.75
589.182	343.75
589.392	382.75
589.602	358.75
589.812	359.75
590.022	342.75
590.232	365.75
590.441	364.75
590.651	375.75
590.861	358.75
591.071	354.75
591.281	383.75
591.49	377.75
591.7	380.75
591.91	384.75
592.119	390.75
592.329	394.75
592.539	420.75
592.748	436.75
592.958	440.75
593.167	447.75
593.377	447.75
593.587	464.75
593.796	471.75
594.006	466.75
594.215	482.75
594.424	501.75
594.634	471.75
594.843	457.75
595.053	418.75
595.262	401.75
595.472	383.75
595.681	374.75
595.89	372.75
596.1	362.75
596.309	367.75
596.518	365.75
596.727	336.75
596.937	347.75
597.146	354.75
597.355	337.75
597.564	331.75
597.774	335.75
597.983	318.75
598.192	302.75
598.401	320.75
598.61	333.75
598.819	312.75
599.028	324.75
599.237	313.75
599.446	296.75
599.655	322.75
599.864	310.75
600.073	299.75
600.282	303.75
600.491	311.75
600.7	302.75
600.909	311.75
601.118	308.75
601.327	275.75
601.536	304.75
601.745	302.75
601.953	299.75
602.162	303.75
602.371	314.75
602.58	294.75
602.789	303.75
602.997	294.75
603.206	301.75
603.415	304.75
603.623	302.75
603.832	298.75
604.041	287.75
604.249	287.75
604.458	288.75
604.666	271.75
604.875	286.75
605.084	266.75
605.292	271.75
605.501	295.75
605.709	274.75
605.918	281.75
606.126	302.75
606.334	280.75
606.543	270.75
606.751	294.75
606.96	281.75
607.168	264.75
607.376	280.75
607.585	267.75
607.793	262.75
608.001	281.75
608.21	278.75
608.418	288.75
608.626	268.75
608.834	280.75
609.043	280.75
609.251	282.75
609.459	280.75
609.667	285.75
609.875	281.75
610.083	272.75
610.291	261.75
610.499	262.75
610.707	258.75
610.916	268.75
611.124	269.75
611.332	260.75
611.54	272.75
611.748	268.75
611.955	278.75
612.163	247.75
612.371	271.75
612.579	274.75
612.787	264.75
612.995	269.75
613.203	287.75
613.411	286.75
613.618	286.75
613.826	276.75
614.034	264.75
614.242	285.75
614.449	274.75
614.657	262.75
614.865	265.75
615.072	274.75
615.28	287.75
615.488	259.75
615.695	253.75
615.903	252.75
616.111	263.75
616.318	264.75
616.526	271.75
616.733	288.75
616.941	254.75
617.148	263.75
617.356	282.75
617.563	288.75
617.771	275.75
617.978	264.75
618.185	266.75
618.393	278.75
618.6	267.75
618.807	278.75
619.015	262.75
619.222	291.75
619.429	262.75
619.637	261.75
619.844	255.75
620.051	269.75
620.258	258.75
620.466	252.75
620.673	250.75
620.88	259.75
621.087	256.75
621.294	260.75
621.501	251.75
621.708	247.75
621.915	236.75
622.122	232.75
622.329	248.75
622.536	242.75
622.743	235.75
622.95	222.75
623.157	225.75
623.364	228.75
623.571	229.75
623.778	250.75
623.985	248.75
624.192	247.75
624.399	224.75
624.606	227.75
624.812	233.75
625.019	251.75
625.226	231.75
625.433	218.75
625.639	247.75
625.846	239.75
626.053	218.75
626.259	222.75
626.466	223.75
626.673	226.75
626.879	237.75
627.086	223.75
627.293	232.75
627.499	242.75
627.706	235.75
627.912	224.75
628.119	214.75
628.325	239.75
628.532	220.75
628.738	216.75
628.945	219.75
629.151	223.75
629.357	231.75
629.564	207.75
629.77	244.75
629.976	202.75
630.183	202.75
630.389	227.75
630.595	212.75
630.802	219.75
631.008	203.75
631.214	202.75
631.42	205.75
631.627	220.75
631.833	200.75
632.039	204.75
632.245	208.75
632.451	204.75
632.657	210.75
632.863	203.75
633.069	202.75
633.275	203.75
633.481	212.75
633.688	209.75
633.893	232.75
634.099	201.75
634.305	215.75
634.511	194.75
634.717	202.75
634.923	188.75
635.129	209.75
635.335	195.75
635.541	214.75
635.747	208.75
635.952	199.75
636.158	208.75
636.364	188.75
636.57	193.75
636.775	192.75
636.981	172.75
637.187	200.75
637.392	211.75
637.598	200.75
637.804	182.75
638.009	205.75
638.215	193.75
638.421	187.75
638.626	203.75
638.832	189.75
639.037	199.75
639.243	181.75
639.448	205.75
639.654	192.75
639.859	186.75
640.065	187.75
640.27	178.75
640.475	183.75
640.681	187.75
640.886	187.75
641.091	204.75
641.297	183.75
641.502	182.75
641.707	184.75
641.913	191.75
642.118	178.75
642.323	168.75
642.528	188.75
642.733	172.75
642.939	197.75
643.144	184.75
643.349	178.75
643.554	166.75
643.759	188.75
643.964	177.75
644.169	178.75
644.374	181.75
644.579	190.75
644.784	180.75
644.989	175.75
645.194	188.75
645.399	192.75
645.604	195.75
645.809	192.75
646.014	180.75
646.219	187.75
646.423	178.75
646.628	175.75
646.833	184.75
647.038	178.75
647.243	170.75
647.447	187.75
647.652	190.75
647.857	198.75
648.062	201.75
648.266	186.75
648.471	194.75
648.676	195.75
648.88	180.75
649.085	192.75
649.289	183.75
649.494	186.75
649.698	162.75
649.903	184.75
650.107	193.75
650.312	165.75
650.516	162.75
650.721	154.75
650.925	160.75
651.13	157.75
651.334	166.75
651.539	168.75
651.743	170.75
651.947	145.75
652.152	168.75
652.356	163.75
652.56	139.75
652.764	159.75
652.969	160.75
653.173	157.75
653.377	139.75
653.581	164.75
653.785	138.75
653.99	138.75
654.194	141.75
654.398	124.75
654.602	156.75
654.806	136.75
655.01	135.75
655.214	142.75
655.418	152.75
655.622	138.75
655.826	128.75
656.03	153.75
656.234	144.75
656.438	138.75
656.642	142.75
656.846	133.75
657.049	139.75
657.253	118.75
657.457	130.75
657.661	111.75
657.865	133.75
658.068	108.75
658.272	109.75
658.476	103.75
658.68	124.75
658.883	124.75
659.087	121.75
659.291	101.75
659.494	123.75
659.698	104.75
659.901	111.75
660.105	111.75
660.309	94.75
660.512	94.75
660.716	98.75
660.919	102.75
661.123	88.75
661.326	91.75
661.53	87.75
661.733	92.75
661.936	88.75
662.14	90.75
662.343	94.75
662.546	96.75
662.75	96.75
662.953	94.75
663.156	85.75
663.36	87.75
663.563	75.75
663.766	93.75
663.969	98.75
664.173	75.75
664.376	98.75
664.579	105.75
664.782	92.75
664.985	94.75
665.188	89.75
665.391	78.75
665.594	73.75
665.797	79.75
666	87.75
666.203	94.75
666.406	80.75
666.609	90.75
666.812	80.75
667.015	72.75
667.218	72.75
667.421	92.75
667.624	84.75
667.827	82.75
668.03	75.75
668.232	83.75
668.435	89.75
668.638	79.75
668.841	83.75
669.043	85.75
669.246	91.75
669.449	95.75
669.651	75.75
669.854	87.75
670.057	84.75
670.259	86.75
670.462	91.75
670.665	82.75
670.867	80.75
671.07	84.75
671.272	82.75
671.475	103.75
671.677	72.75
671.88	101.75
672.082	88.75
672.284	85.75
672.487	84.75
672.689	85.75
672.892	85.75
