Data from Ni(NO3)2@0.125M.TitratingCurve.Agarose3%dH2O.NegLispCup.LampEnergy10.LIBS07252019_HRD10591_18-09-32-567.txt Node
Date: Thu Jul 25 18:09:32 EDT 2019
User: cochatt
Spectrometer: HR+D1059
Trigger mode: 1
Integration Time (sec): 1.000000E-1
Scans to average: 1
Electric dark correction enabled: true
Nonlinearity correction enabled: false
Boxcar width: 0
XAxis mode: Wavelengths
Number of Pixels in Spectrum: 2048
>>>>>Begin Spectral Data<<<<<
223.165	-16.56
223.4	-16.56
223.635	-16.56
223.869	-16.56
224.104	-19.56
224.338	-27.56
224.573	-14.56
224.808	-14.56
225.042	1.44
225.277	8.44
225.511	-3.56
225.746	6.44
225.98	1.44
226.215	7.44
226.449	26.44
226.683	11.44
226.918	23.44
227.152	26.44
227.387	37.44
227.621	38.44
227.856	43.44
228.09	57.44
228.324	54.44
228.559	58.44
228.793	62.44
229.027	110.44
229.262	109.44
229.496	129.44
229.73	149.44
229.964	131.44
230.199	152.44
230.433	140.44
230.667	157.44
230.901	153.44
231.136	150.44
231.37	151.44
231.604	155.44
231.838	155.44
232.072	155.44
232.306	160.44
232.541	175.44
232.775	175.44
233.009	162.44
233.243	171.44
233.477	185.44
233.711	181.44
233.945	166.44
234.179	165.44
234.413	176.44
234.647	181.44
234.881	178.44
235.115	179.44
235.349	180.44
235.583	183.44
235.817	183.44
236.051	185.44
236.285	167.44
236.519	178.44
236.753	164.44
236.987	181.44
237.221	191.44
237.455	191.44
237.689	188.44
237.922	193.44
238.156	201.44
238.39	217.44
238.624	196.44
238.858	189.44
239.091	195.44
239.325	183.44
239.559	195.44
239.793	202.44
240.027	207.44
240.26	194.44
240.494	223.44
240.728	224.44
240.961	215.44
241.195	212.44
241.429	224.44
241.662	215.44
241.896	236.44
242.13	236.44
242.363	223.44
242.597	245.44
242.83	233.44
243.064	243.44
243.298	250.44
243.531	242.44
243.765	258.44
243.998	274.44
244.232	251.44
244.465	261.44
244.699	245.44
244.932	246.44
245.166	269.44
245.399	251.44
245.633	265.44
245.866	273.44
246.099	281.44
246.333	266.44
246.566	270.44
246.8	280.44
247.033	281.44
247.266	277.44
247.5	307.44
247.733	284.44
247.966	284.44
248.2	301.44
248.433	289.44
248.666	294.44
248.899	301.44
249.133	302.44
249.366	311.44
249.599	309.44
249.832	299.44
250.066	305.44
250.299	302.44
250.532	313.44
250.765	315.44
250.998	328.44
251.231	316.44
251.465	314.44
251.698	324.44
251.931	321.44
252.164	352.44
252.397	344.44
252.63	347.44
252.863	329.44
253.096	326.44
253.329	329.44
253.562	341.44
253.795	355.44
254.028	348.44
254.261	341.44
254.494	352.44
254.727	341.44
254.96	358.44
255.193	350.44
255.426	334.44
255.659	342.44
255.892	372.44
256.124	364.44
256.357	375.44
256.59	396.44
256.823	384.44
257.056	377.44
257.289	367.44
257.521	385.44
257.754	389.44
257.987	364.44
258.22	386.44
258.452	376.44
258.685	386.44
258.918	385.44
259.151	373.44
259.383	369.44
259.616	396.44
259.849	389.44
260.081	407.44
260.314	400.44
260.547	410.44
260.779	399.44
261.012	410.44
261.244	385.44
261.477	410.44
261.71	403.44
261.942	419.44
262.175	420.44
262.407	426.44
262.64	395.44
262.872	429.44
263.105	439.44
263.337	445.44
263.57	434.44
263.802	446.44
264.035	428.44
264.267	440.44
264.499	429.44
264.732	432.44
264.964	441.44
265.197	455.44
265.429	450.44
265.661	439.44
265.894	463.44
266.126	461.44
266.358	460.44
266.591	462.44
266.823	447.44
267.055	461.44
267.287	447.44
267.52	438.44
267.752	452.44
267.984	471.44
268.216	451.44
268.448	467.44
268.681	461.44
268.913	474.44
269.145	476.44
269.377	463.44
269.609	484.44
269.841	469.44
270.073	483.44
270.306	483.44
270.538	476.44
270.77	497.44
271.002	489.44
271.234	490.44
271.466	491.44
271.698	501.44
271.93	504.44
272.162	495.44
272.394	504.44
272.626	513.44
272.858	492.44
273.09	497.44
273.322	491.44
273.553	518.44
273.785	491.44
274.017	505.44
274.249	532.44
274.481	523.44
274.713	536.44
274.945	525.44
275.176	521.44
275.408	516.44
275.64	524.44
275.872	549.44
276.104	519.44
276.335	541.44
276.567	524.44
276.799	534.44
277.031	561.44
277.262	526.44
277.494	558.44
277.726	552.44
277.957	556.44
278.189	550.44
278.421	551.44
278.652	545.44
278.884	552.44
279.115	555.44
279.347	569.44
279.579	561.44
279.81	557.44
280.042	577.44
280.273	573.44
280.505	566.44
280.736	600.44
280.968	561.44
281.199	589.44
281.431	604.44
281.662	570.44
281.894	603.44
282.125	590.44
282.356	589.44
282.588	618.44
282.819	619.44
283.051	621.44
283.282	604.44
283.513	625.44
283.745	597.44
283.976	616.44
284.207	618.44
284.439	623.44
284.67	637.44
284.901	635.44
285.132	628.44
285.364	638.44
285.595	652.44
285.826	642.44
286.057	638.44
286.288	636.44
286.52	637.44
286.751	658.44
286.982	657.44
287.213	664.44
287.444	629.44
287.675	656.44
287.906	669.44
288.138	655.44
288.369	659.44
288.6	671.44
288.831	676.44
289.062	664.44
289.293	667.44
289.524	662.44
289.755	645.44
289.986	681.44
290.217	662.44
290.448	678.44
290.679	675.44
290.91	668.44
291.141	652.44
291.371	691.44
291.602	679.44
291.833	691.44
292.064	677.44
292.295	689.44
292.526	671.44
292.757	675.44
292.987	674.44
293.218	666.44
293.449	687.44
293.68	681.44
293.91	696.44
294.141	660.44
294.372	694.44
294.603	678.44
294.833	685.44
295.064	691.44
295.295	709.44
295.525	712.44
295.756	695.44
295.987	680.44
296.217	684.44
296.448	712.44
296.679	705.44
296.909	720.44
297.14	738.44
297.37	721.44
297.601	706.44
297.831	746.44
298.062	691.44
298.292	758.44
298.523	755.44
298.753	747.44
298.984	715.44
299.214	741.44
299.445	738.44
299.675	757.44
299.905	730.44
300.136	724.44
300.366	753.44
300.597	758.44
300.827	749.44
301.057	777.44
301.288	777.44
301.518	761.44
301.748	783.44
301.979	806.44
302.209	802.44
302.439	809.44
302.669	814.44
302.9	758.44
303.13	763.44
303.36	763.44
303.59	741.44
303.82	771.44
304.051	781.44
304.281	780.44
304.511	784.44
304.741	762.44
304.971	781.44
305.201	777.44
305.431	762.44
305.661	765.44
305.891	746.44
306.121	783.44
306.352	763.44
306.582	764.44
306.812	730.44
307.042	737.44
307.272	777.44
307.502	758.44
307.731	739.44
307.961	750.44
308.191	763.44
308.421	747.44
308.651	739.44
308.881	748.44
309.111	733.44
309.341	740.44
309.571	778.44
309.8	746.44
310.03	760.44
310.26	758.44
310.49	770.44
310.72	741.44
310.949	773.44
311.179	768.44
311.409	766.44
311.639	763.44
311.868	761.44
312.098	764.44
312.328	804.44
312.557	780.44
312.787	803.44
313.017	793.44
313.246	799.44
313.476	810.44
313.706	813.44
313.935	826.44
314.165	840.44
314.394	856.44
314.624	819.44
314.853	806.44
315.083	820.44
315.312	823.44
315.542	828.44
315.771	828.44
316.001	798.44
316.23	813.44
316.46	798.44
316.689	830.44
316.919	809.44
317.148	798.44
317.377	809.44
317.607	796.44
317.836	780.44
318.065	827.44
318.295	809.44
318.524	817.44
318.753	805.44
318.983	793.44
319.212	759.44
319.441	812.44
319.67	813.44
319.9	795.44
320.129	822.44
320.358	838.44
320.587	802.44
320.816	843.44
321.046	832.44
321.275	806.44
321.504	806.44
321.733	807.44
321.962	798.44
322.191	818.44
322.42	792.44
322.649	827.44
322.878	812.44
323.108	848.44
323.337	834.44
323.566	839.44
323.795	827.44
324.024	835.44
324.253	820.44
324.482	833.44
324.71	833.44
324.939	856.44
325.168	840.44
325.397	854.44
325.626	844.44
325.855	879.44
326.084	897.44
326.313	907.44
326.542	919.44
326.77	897.44
326.999	898.44
327.228	873.44
327.457	897.44
327.686	875.44
327.914	889.44
328.143	901.44
328.372	897.44
328.6	874.44
328.829	910.44
329.058	910.44
329.287	900.44
329.515	941.44
329.744	895.44
329.972	928.44
330.201	906.44
330.43	913.44
330.658	916.44
330.887	927.44
331.115	929.44
331.344	945.44
331.572	935.44
331.801	965.44
332.03	1010.44
332.258	1014.44
332.486	1055.44
332.715	1076.44
332.943	1106.44
333.172	1185.44
333.4	1222.44
333.629	1215.44
333.857	1283.44
334.085	1250.44
334.314	1207.44
334.542	1180.44
334.771	1179.44
334.999	1129.44
335.227	1160.44
335.455	1142.44
335.684	1139.44
335.912	1111.44
336.14	1117.44
336.369	1099.44
336.597	1111.44
336.825	1095.44
337.053	1091.44
337.281	1079.44
337.51	1068.44
337.738	1029.44
337.966	1028.44
338.194	1034.44
338.422	970.44
338.65	978.44
338.878	967.44
339.106	1005.44
339.334	1006.44
339.562	962.44
339.79	949.44
340.018	925.44
340.246	939.44
340.474	926.44
340.702	947.44
340.93	965.44
341.158	926.44
341.386	936.44
341.614	958.44
341.842	942.44
342.07	929.44
342.298	956.44
342.526	919.44
342.754	927.44
342.981	944.44
343.209	965.44
343.437	1017.44
343.665	1081.44
343.893	1180.44
344.12	1180.44
344.348	1142.44
344.576	1079.44
344.804	1031.44
345.031	980.44
345.259	976.44
345.487	972.44
345.714	958.44
345.942	921.44
346.17	960.44
346.397	911.44
346.625	936.44
346.853	916.44
347.08	901.44
347.308	916.44
347.535	909.44
347.763	942.44
347.99	912.44
348.218	927.44
348.445	916.44
348.673	897.44
348.9	888.44
349.128	922.44
349.355	903.44
349.583	903.44
349.81	896.44
350.037	893.44
350.265	897.44
350.492	860.44
350.72	868.44
350.947	869.44
351.174	887.44
351.402	897.44
351.629	886.44
351.856	859.44
352.083	896.44
352.311	875.44
352.538	884.44
352.765	905.44
352.992	863.44
353.22	872.44
353.447	850.44
353.674	859.44
353.901	886.44
354.128	871.44
354.355	892.44
354.583	877.44
354.81	901.44
355.037	888.44
355.264	900.44
355.491	904.44
355.718	874.44
355.945	909.44
356.172	878.44
356.399	907.44
356.626	897.44
356.853	881.44
357.08	899.44
357.307	903.44
357.534	885.44
357.761	885.44
357.988	909.44
358.215	869.44
358.441	883.44
358.668	873.44
358.895	875.44
359.122	874.44
359.349	893.44
359.576	876.44
359.802	903.44
360.029	883.44
360.256	916.44
360.483	885.44
360.709	906.44
360.936	889.44
361.163	863.44
361.39	879.44
361.616	886.44
361.843	891.44
362.07	887.44
362.296	886.44
362.523	873.44
362.749	867.44
362.976	893.44
363.203	894.44
363.429	858.44
363.656	875.44
363.882	876.44
364.109	888.44
364.335	881.44
364.562	853.44
364.788	893.44
365.015	845.44
365.241	870.44
365.468	868.44
365.694	874.44
365.92	888.44
366.147	873.44
366.373	866.44
366.599	864.44
366.826	850.44
367.052	870.44
367.278	855.44
367.505	856.44
367.731	890.44
367.957	869.44
368.184	873.44
368.41	891.44
368.636	870.44
368.862	882.44
369.089	893.44
369.315	927.44
369.541	909.44
369.767	903.44
369.993	910.44
370.219	907.44
370.445	906.44
370.672	916.44
370.898	946.44
371.124	955.44
371.35	962.44
371.576	956.44
371.802	951.44
372.028	972.44
372.254	939.44
372.48	949.44
372.706	963.44
372.932	1006.44
373.158	970.44
373.384	961.44
373.61	954.44
373.835	955.44
374.061	957.44
374.287	977.44
374.513	970.44
374.739	1004.44
374.965	1043.44
375.191	1050.44
375.416	1038.44
375.642	1015.44
375.868	1008.44
376.094	998.44
376.319	995.44
376.545	969.44
376.771	956.44
376.997	946.44
377.222	982.44
377.448	971.44
377.674	959.44
377.899	918.44
378.125	963.44
378.35	935.44
378.576	932.44
378.802	932.44
379.027	912.44
379.253	925.44
379.478	924.44
379.704	941.44
379.929	934.44
380.155	938.44
380.38	948.44
380.606	927.44
380.831	930.44
381.057	974.44
381.282	957.44
381.507	966.44
381.733	956.44
381.958	971.44
382.184	986.44
382.409	994.44
382.634	1018.44
382.86	990.44
383.085	1004.44
383.31	1052.44
383.535	1059.44
383.761	1063.44
383.986	1060.44
384.211	1113.44
384.436	1109.44
384.662	1158.44
384.887	1196.44
385.112	1124.44
385.337	1188.44
385.562	1170.44
385.787	1147.44
386.013	1153.44
386.238	1198.44
386.463	1169.44
386.688	1161.44
386.913	1123.44
387.138	1121.44
387.363	1148.44
387.588	1149.44
387.813	1145.44
388.038	1148.44
388.263	1137.44
388.488	1154.44
388.713	1160.44
388.938	1125.44
389.163	1091.44
389.387	1132.44
389.612	1121.44
389.837	1111.44
390.062	1151.44
390.287	1146.44
390.512	1143.44
390.736	1144.44
390.961	1153.44
391.186	1187.44
391.411	1200.44
391.636	1292.44
391.86	1303.44
392.085	1330.44
392.31	1300.44
392.534	1293.44
392.759	1228.44
392.984	1230.44
393.208	1247.44
393.433	1225.44
393.658	1252.44
393.882	1213.44
394.107	1221.44
394.331	1225.44
394.556	1240.44
394.78	1236.44
395.005	1259.44
395.229	1251.44
395.454	1262.44
395.678	1309.44
395.903	1294.44
396.127	1245.44
396.352	1243.44
396.576	1193.44
396.801	1226.44
397.025	1235.44
397.249	1249.44
397.474	1323.44
397.698	1302.44
397.922	1305.44
398.147	1272.44
398.371	1317.44
398.595	1382.44
398.82	1406.44
399.044	1548.44
399.268	1700.44
399.492	2008.44
399.717	2346.44
399.941	2268.44
400.165	1969.44
400.389	1758.44
400.613	1614.44
400.837	1509.44
401.062	1476.44
401.286	1460.44
401.51	1444.44
401.734	1442.44
401.958	1471.44
402.182	1461.44
402.406	1506.44
402.63	1556.44
402.854	1551.44
403.078	1569.44
403.302	1625.44
403.526	1657.44
403.75	1683.44
403.974	1706.44
404.198	1715.44
404.422	1729.44
404.645	1725.44
404.869	1674.44
405.093	1677.44
405.317	1628.44
405.541	1661.44
405.765	1616.44
405.988	1604.44
406.212	1575.44
406.436	1609.44
406.66	1651.44
406.883	1686.44
407.107	1780.44
407.331	1832.44
407.555	1901.44
407.778	1932.44
408.002	1871.44
408.226	1799.44
408.449	1778.44
408.673	1730.44
408.896	1674.44
409.12	1634.44
409.344	1651.44
409.567	1642.44
409.791	1683.44
410.014	1619.44
410.238	1637.44
410.461	1661.44
410.685	1613.44
410.908	1571.44
411.132	1598.44
411.355	1491.44
411.578	1486.44
411.802	1505.44
412.025	1497.44
412.249	1599.44
412.472	1504.44
412.695	1470.44
412.919	1444.44
413.142	1453.44
413.365	1516.44
413.589	1459.44
413.812	1431.44
414.035	1452.44
414.258	1429.44
414.482	1471.44
414.705	1487.44
414.928	1464.44
415.151	1481.44
415.374	1490.44
415.597	1505.44
415.821	1425.44
416.044	1397.44
416.267	1426.44
416.49	1406.44
416.713	1418.44
416.936	1453.44
417.159	1407.44
417.382	1429.44
417.605	1421.44
417.828	1433.44
418.051	1474.44
418.274	1450.44
418.497	1426.44
418.72	1480.44
418.943	1434.44
419.166	1580.44
419.389	1671.44
419.611	1657.44
419.834	1588.44
420.057	1529.44
420.28	1445.44
420.503	1425.44
420.726	1390.44
420.948	1404.44
421.171	1437.44
421.394	1409.44
421.617	1448.44
421.839	1484.44
422.062	1459.44
422.285	1431.44
422.507	1494.44
422.73	1454.44
422.953	1483.44
423.175	1519.44
423.398	1546.44
423.621	1540.44
423.843	1568.44
424.066	1570.44
424.288	1572.44
424.511	1551.44
424.733	1509.44
424.956	1473.44
425.178	1470.44
425.401	1460.44
425.623	1485.44
425.846	1421.44
426.068	1378.44
426.291	1371.44
426.513	1351.44
426.735	1348.44
426.958	1349.44
427.18	1303.44
427.402	1337.44
427.625	1313.44
427.847	1313.44
428.069	1276.44
428.292	1292.44
428.514	1255.44
428.736	1237.44
428.958	1290.44
429.181	1237.44
429.403	1233.44
429.625	1198.44
429.847	1213.44
430.069	1250.44
430.292	1240.44
430.514	1213.44
430.736	1231.44
430.958	1223.44
431.18	1226.44
431.402	1235.44
431.624	1278.44
431.846	1296.44
432.068	1308.44
432.29	1277.44
432.512	1299.44
432.734	1295.44
432.956	1292.44
433.178	1286.44
433.4	1250.44
433.622	1307.44
433.844	1307.44
434.066	1270.44
434.287	1299.44
434.509	1351.44
434.731	1390.44
434.953	1461.44
435.175	1443.44
435.397	1445.44
435.618	1348.44
435.84	1339.44
436.062	1310.44
436.284	1291.44
436.505	1274.44
436.727	1306.44
436.949	1303.44
437.17	1319.44
437.392	1265.44
437.614	1234.44
437.835	1213.44
438.057	1191.44
438.278	1210.44
438.5	1219.44
438.721	1203.44
438.943	1224.44
439.165	1213.44
439.386	1265.44
439.608	1261.44
439.829	1245.44
440.05	1268.44
440.272	1287.44
440.493	1281.44
440.715	1312.44
440.936	1306.44
441.158	1351.44
441.379	1413.44
441.6	1446.44
441.822	1488.44
442.043	1452.44
442.264	1430.44
442.486	1394.44
442.707	1420.44
442.928	1427.44
443.149	1428.44
443.371	1407.44
443.592	1375.44
443.813	1461.44
444.034	1468.44
444.255	1529.44
444.476	1604.44
444.698	1715.44
444.919	1774.44
445.14	1837.44
445.361	1651.44
445.582	1487.44
445.803	1413.44
446.024	1373.44
446.245	1321.44
446.466	1316.44
446.687	1247.44
446.908	1308.44
447.129	1277.44
447.35	1231.44
447.571	1238.44
447.792	1205.44
448.013	1210.44
448.234	1186.44
448.455	1181.44
448.675	1183.44
448.896	1163.44
449.117	1146.44
449.338	1147.44
449.559	1144.44
449.779	1147.44
450	1135.44
450.221	1163.44
450.442	1185.44
450.662	1128.44
450.883	1201.44
451.104	1230.44
451.324	1194.44
451.545	1187.44
451.766	1183.44
451.986	1163.44
452.207	1161.44
452.428	1174.44
452.648	1149.44
452.869	1159.44
453.089	1147.44
453.31	1165.44
453.53	1143.44
453.751	1134.44
453.971	1116.44
454.192	1124.44
454.412	1116.44
454.633	1100.44
454.853	1140.44
455.073	1075.44
455.294	1123.44
455.514	1070.44
455.734	1101.44
455.955	1077.44
456.175	1055.44
456.395	1082.44
456.616	1064.44
456.836	1065.44
457.056	1073.44
457.276	1065.44
457.497	1089.44
457.717	1107.44
457.937	1114.44
458.157	1113.44
458.377	1116.44
458.598	1135.44
458.818	1162.44
459.038	1199.44
459.258	1233.44
459.478	1277.44
459.698	1301.44
459.918	1377.44
460.138	1417.44
460.358	1521.44
460.578	1540.44
460.798	1544.44
461.018	1534.44
461.238	1485.44
461.458	1500.44
461.678	1491.44
461.898	1560.44
462.118	1505.44
462.338	1639.44
462.558	1655.44
462.777	1725.44
462.997	1885.44
463.217	2119.44
463.437	2132.44
463.657	1863.44
463.876	1761.44
464.096	1780.44
464.316	1748.44
464.536	1827.44
464.755	1689.44
464.975	1658.44
465.195	1571.44
465.414	1498.44
465.634	1384.44
465.854	1333.44
466.073	1333.44
466.293	1272.44
466.512	1264.44
466.732	1226.44
466.951	1255.44
467.171	1210.44
467.391	1236.44
467.61	1231.44
467.829	1219.44
468.049	1197.44
468.268	1183.44
468.488	1145.44
468.707	1155.44
468.927	1148.44
469.146	1161.44
469.365	1162.44
469.585	1181.44
469.804	1222.44
470.023	1263.44
470.243	1284.44
470.462	1249.44
470.681	1271.44
470.901	1267.44
471.12	1227.44
471.339	1221.44
471.558	1197.44
471.777	1192.44
471.997	1157.44
472.216	1163.44
472.435	1201.44
472.654	1151.44
472.873	1129.44
473.092	1123.44
473.311	1096.44
473.53	1121.44
473.749	1136.44
473.968	1109.44
474.187	1137.44
474.406	1133.44
474.625	1132.44
474.844	1126.44
475.063	1133.44
475.282	1130.44
475.501	1111.44
475.72	1119.44
475.939	1118.44
476.158	1173.44
476.377	1189.44
476.596	1164.44
476.814	1178.44
477.033	1183.44
477.252	1179.44
477.471	1236.44
477.69	1287.44
477.908	1313.44
478.127	1353.44
478.346	1353.44
478.564	1397.44
478.783	1379.44
479.002	1457.44
479.22	1421.44
479.439	1437.44
479.658	1380.44
479.876	1409.44
480.095	1445.44
480.313	1529.44
480.532	1624.44
480.751	1587.44
480.969	1497.44
481.188	1412.44
481.406	1335.44
481.624	1335.44
481.843	1310.44
482.061	1317.44
482.28	1290.44
482.498	1288.44
482.717	1261.44
482.935	1289.44
483.153	1271.44
483.372	1287.44
483.59	1256.44
483.808	1288.44
484.027	1279.44
484.245	1317.44
484.463	1308.44
484.681	1332.44
484.9	1351.44
485.118	1339.44
485.336	1314.44
485.554	1335.44
485.772	1403.44
485.99	1384.44
486.209	1335.44
486.427	1377.44
486.645	1350.44
486.863	1373.44
487.081	1366.44
487.299	1385.44
487.517	1333.44
487.735	1337.44
487.953	1379.44
488.171	1394.44
488.389	1366.44
488.607	1337.44
488.825	1339.44
489.043	1321.44
489.261	1301.44
489.479	1337.44
489.696	1359.44
489.914	1347.44
490.132	1326.44
490.35	1364.44
490.568	1366.44
490.786	1365.44
491.003	1354.44
491.221	1368.44
491.439	1388.44
491.657	1372.44
491.874	1332.44
492.092	1382.44
492.31	1371.44
492.527	1410.44
492.745	1395.44
492.963	1416.44
493.18	1401.44
493.398	1435.44
493.615	1447.44
493.833	1433.44
494.05	1446.44
494.268	1430.44
494.485	1443.44
494.703	1419.44
494.92	1438.44
495.138	1421.44
495.355	1399.44
495.573	1442.44
495.79	1460.44
496.008	1446.44
496.225	1481.44
496.442	1489.44
496.66	1461.44
496.877	1507.44
497.094	1509.44
497.312	1548.44
497.529	1588.44
497.746	1647.44
497.963	1710.44
498.181	1754.44
498.398	1816.44
498.615	1947.44
498.832	2108.44
499.049	2289.44
499.267	2434.44
499.484	2726.44
499.701	3004.44
499.918	3347.44
500.135	3927.44
500.352	4601.44
500.569	4739.44
500.786	4691.44
501.003	4291.44
501.22	3807.44
501.437	3292.44
501.654	2864.44
501.871	2598.44
502.088	2378.44
502.305	2177.44
502.522	2079.44
502.739	2038.44
502.956	1903.44
503.172	1764.44
503.389	1753.44
503.606	1632.44
503.823	1661.44
504.04	1653.44
504.256	1670.44
504.473	1710.44
504.69	1794.44
504.907	1767.44
505.123	1607.44
505.34	1548.44
505.557	1450.44
505.773	1407.44
505.99	1359.44
506.207	1340.44
506.423	1340.44
506.64	1319.44
506.856	1317.44
507.073	1285.44
507.289	1274.44
507.506	1279.44
507.722	1289.44
507.939	1268.44
508.155	1242.44
508.372	1213.44
508.588	1192.44
508.805	1215.44
509.021	1217.44
509.238	1205.44
509.454	1179.44
509.67	1149.44
509.887	1169.44
510.103	1188.44
510.319	1141.44
510.536	1168.44
510.752	1157.44
510.968	1160.44
511.184	1151.44
511.401	1131.44
511.617	1157.44
511.833	1126.44
512.049	1120.44
512.265	1148.44
512.481	1153.44
512.698	1115.44
512.914	1147.44
513.13	1126.44
513.346	1117.44
513.562	1118.44
513.778	1147.44
513.994	1167.44
514.21	1166.44
514.426	1140.44
514.642	1166.44
514.858	1174.44
515.074	1176.44
515.29	1232.44
515.506	1215.44
515.721	1222.44
515.937	1253.44
516.153	1257.44
516.369	1313.44
516.585	1320.44
516.801	1354.44
517.016	1422.44
517.232	1561.44
517.448	1594.44
517.664	1679.44
517.879	1669.44
518.095	1671.44
518.311	1673.44
518.527	1553.44
518.742	1468.44
518.958	1433.44
519.173	1337.44
519.389	1283.44
519.605	1252.44
519.82	1226.44
520.036	1252.44
520.251	1196.44
520.467	1193.44
520.682	1161.44
520.898	1201.44
521.113	1148.44
521.329	1141.44
521.544	1094.44
521.76	1134.44
521.975	1129.44
522.19	1100.44
522.406	1125.44
522.621	1118.44
522.836	1113.44
523.052	1097.44
523.267	1050.44
523.482	1054.44
523.698	1060.44
523.913	1077.44
524.128	1037.44
524.343	1074.44
524.559	1029.44
524.774	1052.44
524.989	1034.44
525.204	1046.44
525.419	1083.44
525.634	1049.44
525.849	1060.44
526.064	1054.44
526.28	1044.44
526.495	1027.44
526.71	1038.44
526.925	1027.44
527.14	1043.44
527.355	1029.44
527.57	1039.44
527.785	1036.44
527.999	1068.44
528.214	1032.44
528.429	1043.44
528.644	1047.44
528.859	1037.44
529.074	1073.44
529.289	1043.44
529.503	1060.44
529.718	1053.44
529.933	1054.44
530.148	1048.44
530.363	1019.44
530.577	998.44
530.792	1043.44
531.007	1055.44
531.221	1057.44
531.436	1046.44
531.651	1050.44
531.865	1031.44
532.08	1025.44
532.295	1049.44
532.509	1042.44
532.724	1043.44
532.938	1037.44
533.153	1015.44
533.367	1031.44
533.582	1033.44
533.796	1019.44
534.011	1028.44
534.225	1003.44
534.44	971.44
534.654	988.44
534.868	1040.44
535.083	1012.44
535.297	1011.44
535.511	1026.44
535.726	1013.44
535.94	1006.44
536.154	975.44
536.369	968.44
536.583	982.44
536.797	989.44
537.011	953.44
537.225	965.44
537.44	976.44
537.654	977.44
537.868	933.44
538.082	939.44
538.296	941.44
538.51	937.44
538.724	940.44
538.938	962.44
539.153	941.44
539.367	934.44
539.581	931.44
539.795	927.44
540.009	937.44
540.222	935.44
540.436	937.44
540.65	885.44
540.864	928.44
541.078	914.44
541.292	949.44
541.506	944.44
541.72	920.44
541.934	912.44
542.147	911.44
542.361	946.44
542.575	911.44
542.789	893.44
543.002	914.44
543.216	897.44
543.43	900.44
543.644	894.44
543.857	930.44
544.071	937.44
544.285	919.44
544.498	920.44
544.712	914.44
544.925	955.44
545.139	931.44
545.352	958.44
545.566	961.44
545.779	935.44
545.993	924.44
546.206	956.44
546.42	962.44
546.633	970.44
546.847	948.44
547.06	970.44
547.274	956.44
547.487	943.44
547.7	977.44
547.914	961.44
548.127	951.44
548.34	974.44
548.554	981.44
548.767	963.44
548.98	977.44
549.193	939.44
549.407	971.44
549.62	1020.44
549.833	971.44
550.046	985.44
550.259	951.44
550.473	936.44
550.686	955.44
550.899	925.44
551.112	911.44
551.325	924.44
551.538	940.44
551.751	920.44
551.964	926.44
552.177	929.44
552.39	956.44
552.603	998.44
552.816	1016.44
553.029	1060.44
553.242	1036.44
553.455	1037.44
553.667	1065.44
553.88	1078.44
554.093	993.44
554.306	958.44
554.519	974.44
554.732	949.44
554.944	955.44
555.157	901.44
555.37	921.44
555.583	896.44
555.795	867.44
556.008	868.44
556.221	828.44
556.433	823.44
556.646	820.44
556.859	835.44
557.071	816.44
557.284	809.44
557.496	804.44
557.709	822.44
557.921	814.44
558.134	791.44
558.346	773.44
558.559	781.44
558.771	792.44
558.984	782.44
559.196	805.44
559.409	789.44
559.621	793.44
559.833	781.44
560.046	786.44
560.258	775.44
560.47	787.44
560.683	791.44
560.895	774.44
561.107	784.44
561.32	782.44
561.532	761.44
561.744	780.44
561.956	760.44
562.168	776.44
562.381	784.44
562.593	762.44
562.805	775.44
563.017	757.44
563.229	765.44
563.441	779.44
563.653	788.44
563.865	774.44
564.077	814.44
564.289	788.44
564.501	827.44
564.713	821.44
564.925	836.44
565.137	818.44
565.349	883.44
565.561	892.44
565.773	926.44
565.985	951.44
566.197	1002.44
566.408	1068.44
566.62	1244.44
566.832	1333.44
567.044	1336.44
567.255	1327.44
567.467	1390.44
567.679	1469.44
567.891	1585.44
568.102	1679.44
568.314	1540.44
568.526	1357.44
568.737	1211.44
568.949	1102.44
569.161	1017.44
569.372	930.44
569.584	860.44
569.795	855.44
570.007	833.44
570.218	803.44
570.43	803.44
570.641	827.44
570.853	806.44
571.064	818.44
571.276	814.44
571.487	799.44
571.698	725.44
571.91	706.44
572.121	722.44
572.333	695.44
572.544	679.44
572.755	670.44
572.966	659.44
573.178	675.44
573.389	653.44
573.6	669.44
573.811	640.44
574.023	634.44
574.234	628.44
574.445	636.44
574.656	613.44
574.867	631.44
575.078	645.44
575.289	653.44
575.501	613.44
575.712	627.44
575.923	616.44
576.134	603.44
576.345	617.44
576.556	614.44
576.767	585.44
576.978	619.44
577.188	610.44
577.399	598.44
577.61	596.44
577.821	609.44
578.032	585.44
578.243	579.44
578.454	574.44
578.665	551.44
578.875	551.44
579.086	554.44
579.297	557.44
579.508	562.44
579.718	558.44
579.929	555.44
580.14	542.44
580.35	556.44
580.561	540.44
580.772	543.44
580.982	533.44
581.193	556.44
581.403	540.44
581.614	549.44
581.825	557.44
582.035	555.44
582.246	535.44
582.456	515.44
582.667	554.44
582.877	516.44
583.087	523.44
583.298	522.44
583.508	545.44
583.719	497.44
583.929	521.44
584.139	511.44
584.35	527.44
584.56	534.44
584.77	527.44
584.981	518.44
585.191	488.44
585.401	516.44
585.611	495.44
585.821	505.44
586.032	517.44
586.242	491.44
586.452	500.44
586.662	517.44
586.872	503.44
587.082	501.44
587.292	511.44
587.502	505.44
587.713	484.44
587.923	485.44
588.133	497.44
588.343	506.44
588.553	492.44
588.762	494.44
588.972	507.44
589.182	515.44
589.392	511.44
589.602	511.44
589.812	494.44
590.022	495.44
590.232	487.44
590.441	515.44
590.651	486.44
590.861	496.44
591.071	515.44
591.281	503.44
591.49	526.44
591.7	538.44
591.91	536.44
592.119	534.44
592.329	556.44
592.539	579.44
592.748	590.44
592.958	636.44
593.167	631.44
593.377	656.44
593.587	675.44
593.796	659.44
594.006	672.44
594.215	695.44
594.424	695.44
594.634	665.44
594.843	629.44
595.053	590.44
595.262	583.44
595.472	566.44
595.681	550.44
595.89	528.44
596.1	499.44
596.309	499.44
596.518	497.44
596.727	469.44
596.937	491.44
597.146	485.44
597.355	483.44
597.564	436.44
597.774	454.44
597.983	473.44
598.192	443.44
598.401	423.44
598.61	430.44
598.819	461.44
599.028	434.44
599.237	433.44
599.446	443.44
599.655	414.44
599.864	424.44
600.073	422.44
600.282	439.44
600.491	401.44
600.7	429.44
600.909	422.44
601.118	436.44
601.327	414.44
601.536	427.44
601.745	400.44
601.953	422.44
602.162	418.44
602.371	432.44
602.58	397.44
602.789	406.44
602.997	414.44
603.206	409.44
603.415	392.44
603.623	418.44
603.832	401.44
604.041	410.44
604.249	381.44
604.458	403.44
604.666	398.44
604.875	395.44
605.084	380.44
605.292	379.44
605.501	385.44
605.709	403.44
605.918	396.44
606.126	401.44
606.334	391.44
606.543	363.44
606.751	374.44
606.96	399.44
607.168	386.44
607.376	377.44
607.585	374.44
607.793	391.44
608.001	378.44
608.21	366.44
608.418	385.44
608.626	370.44
608.834	383.44
609.043	375.44
609.251	369.44
609.459	385.44
609.667	391.44
609.875	359.44
610.083	385.44
610.291	379.44
610.499	357.44
610.707	377.44
610.916	383.44
611.124	364.44
611.332	355.44
611.54	366.44
611.748	361.44
611.955	370.44
612.163	354.44
612.371	358.44
612.579	363.44
612.787	374.44
612.995	373.44
613.203	383.44
613.411	357.44
613.618	364.44
613.826	362.44
614.034	358.44
614.242	345.44
614.449	355.44
614.657	373.44
614.865	369.44
615.072	379.44
615.28	372.44
615.488	384.44
615.695	354.44
615.903	357.44
616.111	378.44
616.318	369.44
616.526	342.44
616.733	373.44
616.941	364.44
617.148	355.44
617.356	359.44
617.563	384.44
617.771	371.44
617.978	395.44
618.185	380.44
618.393	345.44
618.6	377.44
618.807	362.44
619.015	353.44
619.222	357.44
619.429	367.44
619.637	360.44
619.844	342.44
620.051	357.44
620.258	334.44
620.466	327.44
620.673	318.44
620.88	339.44
621.087	337.44
621.294	341.44
621.501	331.44
621.708	320.44
621.915	337.44
622.122	329.44
622.329	332.44
622.536	335.44
622.743	320.44
622.95	335.44
623.157	321.44
623.364	316.44
623.571	329.44
623.778	313.44
623.985	322.44
624.192	311.44
624.399	307.44
624.606	322.44
624.812	326.44
625.019	301.44
625.226	301.44
625.433	301.44
625.639	281.44
625.846	305.44
626.053	298.44
626.259	305.44
626.466	308.44
626.673	290.44
626.879	311.44
627.086	286.44
627.293	270.44
627.499	301.44
627.706	306.44
627.912	286.44
628.119	313.44
628.325	287.44
628.532	295.44
628.738	287.44
628.945	287.44
629.151	269.44
629.357	285.44
629.564	284.44
629.77	295.44
629.976	285.44
630.183	296.44
630.389	268.44
630.595	289.44
630.802	274.44
631.008	247.44
631.214	286.44
631.42	262.44
631.627	281.44
631.833	253.44
632.039	266.44
632.245	265.44
632.451	266.44
632.657	269.44
632.863	272.44
633.069	254.44
633.275	269.44
633.481	259.44
633.688	257.44
633.893	271.44
634.099	255.44
634.305	257.44
634.511	283.44
634.717	245.44
634.923	248.44
635.129	259.44
635.335	262.44
635.541	259.44
635.747	263.44
635.952	247.44
636.158	255.44
636.364	241.44
636.57	247.44
636.775	254.44
636.981	242.44
637.187	236.44
637.392	234.44
637.598	253.44
637.804	255.44
638.009	253.44
638.215	236.44
638.421	253.44
638.626	231.44
638.832	227.44
639.037	251.44
639.243	237.44
639.448	255.44
639.654	238.44
639.859	255.44
640.065	246.44
640.27	246.44
640.475	245.44
640.681	235.44
640.886	230.44
641.091	224.44
641.297	222.44
641.502	225.44
641.707	230.44
641.913	226.44
642.118	233.44
642.323	231.44
642.528	237.44
642.733	237.44
642.939	238.44
643.144	225.44
643.349	219.44
643.554	247.44
643.759	223.44
643.964	236.44
644.169	235.44
644.374	246.44
644.579	235.44
644.784	234.44
644.989	227.44
645.194	214.44
645.399	219.44
645.604	217.44
645.809	233.44
646.014	234.44
646.219	229.44
646.423	249.44
646.628	215.44
646.833	222.44
647.038	215.44
647.243	254.44
647.447	227.44
647.652	225.44
647.857	237.44
648.062	234.44
648.266	244.44
648.471	231.44
648.676	257.44
648.88	241.44
649.085	261.44
649.289	236.44
649.494	234.44
649.698	228.44
649.903	227.44
650.107	213.44
650.312	232.44
650.516	222.44
650.721	214.44
650.925	218.44
651.13	208.44
651.334	225.44
651.539	200.44
651.743	191.44
651.947	212.44
652.152	181.44
652.356	180.44
652.56	184.44
652.764	174.44
652.969	160.44
653.173	182.44
653.377	181.44
653.581	180.44
653.785	165.44
653.99	177.44
654.194	169.44
654.398	172.44
654.602	177.44
654.806	156.44
655.01	152.44
655.214	153.44
655.418	167.44
655.622	144.44
655.826	145.44
656.03	170.44
656.234	149.44
656.438	163.44
656.642	165.44
656.846	161.44
657.049	141.44
657.253	166.44
657.457	144.44
657.661	141.44
657.865	145.44
658.068	134.44
658.272	129.44
658.476	129.44
658.68	126.44
658.883	133.44
659.087	115.44
659.291	115.44
659.494	125.44
659.698	106.44
659.901	98.44
660.105	115.44
660.309	101.44
660.512	107.44
660.716	98.44
660.919	88.44
661.123	96.44
661.326	92.44
661.53	103.44
661.733	95.44
661.936	82.44
662.14	105.44
662.343	88.44
662.546	83.44
662.75	88.44
662.953	96.44
663.156	86.44
663.36	96.44
663.563	97.44
663.766	90.44
663.969	78.44
664.173	92.44
664.376	75.44
664.579	90.44
664.782	81.44
664.985	73.44
665.188	86.44
665.391	86.44
665.594	90.44
665.797	76.44
666	84.44
666.203	89.44
666.406	89.44
666.609	93.44
666.812	86.44
667.015	86.44
667.218	75.44
667.421	73.44
667.624	91.44
667.827	70.44
668.03	91.44
668.232	84.44
668.435	87.44
668.638	68.44
668.841	67.44
669.043	93.44
669.246	83.44
669.449	84.44
669.651	98.44
669.854	97.44
670.057	89.44
670.259	82.44
670.462	78.44
670.665	69.44
670.867	83.44
671.07	74.44
671.272	83.44
671.475	94.44
671.677	89.44
671.88	99.44
672.082	90.44
672.284	105.44
672.487	76.44
672.689	76.44
672.892	82.44
