Data from Ni(NO3)2@0.125M.TitratingCurve.Agarose3%dH2O.NegLispCup.LampEnergy10.LIBS07252019_HRD10591_18-11-06-568.txt Node
Date: Thu Jul 25 18:11:06 EDT 2019
User: cochatt
Spectrometer: HR+D1059
Trigger mode: 1
Integration Time (sec): 1.000000E-1
Scans to average: 1
Electric dark correction enabled: true
Nonlinearity correction enabled: false
Boxcar width: 0
XAxis mode: Wavelengths
Number of Pixels in Spectrum: 2048
>>>>>Begin Spectral Data<<<<<
223.165	-11.75
223.4	-11.75
223.635	-11.75
223.869	-29.75
224.104	-16.75
224.338	-13.75
224.573	-8.75
224.808	-5.75
225.042	-12.75
225.277	-1.75
225.511	-11.75
225.746	-14.75
225.98	15.25
226.215	10.25
226.449	30.25
226.683	12.25
226.918	26.25
227.152	33.25
227.387	28.25
227.621	42.25
227.856	46.25
228.09	49.25
228.324	45.25
228.559	51.25
228.793	61.25
229.027	92.25
229.262	83.25
229.496	124.25
229.73	106.25
229.964	104.25
230.199	107.25
230.433	135.25
230.667	123.25
230.901	121.25
231.136	116.25
231.37	127.25
231.604	117.25
231.838	129.25
232.072	122.25
232.306	131.25
232.541	125.25
232.775	121.25
233.009	129.25
233.243	133.25
233.477	127.25
233.711	133.25
233.945	135.25
234.179	135.25
234.413	143.25
234.647	129.25
234.881	147.25
235.115	125.25
235.349	125.25
235.583	121.25
235.817	131.25
236.051	147.25
236.285	144.25
236.519	137.25
236.753	151.25
236.987	139.25
237.221	141.25
237.455	131.25
237.689	146.25
237.922	139.25
238.156	149.25
238.39	143.25
238.624	141.25
238.858	150.25
239.091	153.25
239.325	158.25
239.559	143.25
239.793	148.25
240.027	161.25
240.26	162.25
240.494	161.25
240.728	154.25
240.961	149.25
241.195	164.25
241.429	164.25
241.662	174.25
241.896	167.25
242.13	173.25
242.363	174.25
242.597	177.25
242.83	188.25
243.064	173.25
243.298	171.25
243.531	177.25
243.765	193.25
243.998	183.25
244.232	177.25
244.465	181.25
244.699	189.25
244.932	185.25
245.166	193.25
245.399	195.25
245.633	194.25
245.866	178.25
246.099	195.25
246.333	205.25
246.566	207.25
246.8	198.25
247.033	214.25
247.266	209.25
247.5	216.25
247.733	195.25
247.966	206.25
248.2	199.25
248.433	213.25
248.666	182.25
248.899	212.25
249.133	220.25
249.366	228.25
249.599	231.25
249.832	214.25
250.066	230.25
250.299	214.25
250.532	212.25
250.765	231.25
250.998	226.25
251.231	205.25
251.465	215.25
251.698	214.25
251.931	234.25
252.164	235.25
252.397	241.25
252.63	237.25
252.863	229.25
253.096	242.25
253.329	237.25
253.562	252.25
253.795	220.25
254.028	228.25
254.261	231.25
254.494	237.25
254.727	242.25
254.96	242.25
255.193	235.25
255.426	244.25
255.659	236.25
255.892	257.25
256.124	238.25
256.357	267.25
256.59	251.25
256.823	257.25
257.056	249.25
257.289	247.25
257.521	247.25
257.754	269.25
257.987	259.25
258.22	254.25
258.452	265.25
258.685	274.25
258.918	281.25
259.151	276.25
259.383	267.25
259.616	269.25
259.849	268.25
260.081	281.25
260.314	275.25
260.547	276.25
260.779	259.25
261.012	272.25
261.244	292.25
261.477	284.25
261.71	272.25
261.942	263.25
262.175	259.25
262.407	286.25
262.64	303.25
262.872	271.25
263.105	280.25
263.337	281.25
263.57	288.25
263.802	299.25
264.035	291.25
264.267	281.25
264.499	296.25
264.732	288.25
264.964	293.25
265.197	288.25
265.429	295.25
265.661	292.25
265.894	299.25
266.126	289.25
266.358	308.25
266.591	303.25
266.823	297.25
267.055	313.25
267.287	320.25
267.52	313.25
267.752	309.25
267.984	321.25
268.216	296.25
268.448	325.25
268.681	313.25
268.913	309.25
269.145	318.25
269.377	338.25
269.609	321.25
269.841	334.25
270.073	316.25
270.306	317.25
270.538	326.25
270.77	327.25
271.002	321.25
271.234	333.25
271.466	338.25
271.698	327.25
271.93	323.25
272.162	319.25
272.394	329.25
272.626	314.25
272.858	334.25
273.09	333.25
273.322	336.25
273.553	355.25
273.785	343.25
274.017	347.25
274.249	352.25
274.481	347.25
274.713	338.25
274.945	350.25
275.176	330.25
275.408	349.25
275.64	346.25
275.872	345.25
276.104	358.25
276.335	343.25
276.567	362.25
276.799	364.25
277.031	380.25
277.262	379.25
277.494	378.25
277.726	363.25
277.957	371.25
278.189	359.25
278.421	357.25
278.652	386.25
278.884	381.25
279.115	384.25
279.347	364.25
279.579	385.25
279.81	381.25
280.042	377.25
280.273	357.25
280.505	387.25
280.736	389.25
280.968	375.25
281.199	383.25
281.431	399.25
281.662	415.25
281.894	400.25
282.125	422.25
282.356	409.25
282.588	394.25
282.819	410.25
283.051	402.25
283.282	389.25
283.513	401.25
283.745	399.25
283.976	415.25
284.207	400.25
284.439	403.25
284.67	419.25
284.901	411.25
285.132	392.25
285.364	398.25
285.595	416.25
285.826	437.25
286.057	423.25
286.288	405.25
286.52	426.25
286.751	405.25
286.982	426.25
287.213	419.25
287.444	403.25
287.675	402.25
287.906	422.25
288.138	453.25
288.369	425.25
288.6	415.25
288.831	440.25
289.062	447.25
289.293	449.25
289.524	444.25
289.755	455.25
289.986	442.25
290.217	461.25
290.448	428.25
290.679	437.25
290.91	405.25
291.141	443.25
291.371	451.25
291.602	443.25
291.833	440.25
292.064	445.25
292.295	445.25
292.526	430.25
292.757	417.25
292.987	422.25
293.218	431.25
293.449	443.25
293.68	434.25
293.91	457.25
294.141	445.25
294.372	451.25
294.603	442.25
294.833	433.25
295.064	456.25
295.295	454.25
295.525	452.25
295.756	465.25
295.987	473.25
296.217	466.25
296.448	469.25
296.679	455.25
296.909	444.25
297.14	475.25
297.37	469.25
297.601	463.25
297.831	479.25
298.062	489.25
298.292	472.25
298.523	474.25
298.753	492.25
298.984	476.25
299.214	475.25
299.445	488.25
299.675	493.25
299.905	507.25
300.136	485.25
300.366	473.25
300.597	458.25
300.827	516.25
301.057	499.25
301.288	504.25
301.518	515.25
301.748	502.25
301.979	509.25
302.209	519.25
302.439	514.25
302.669	499.25
302.9	528.25
303.13	519.25
303.36	518.25
303.59	478.25
303.82	483.25
304.051	504.25
304.281	489.25
304.511	504.25
304.741	508.25
304.971	519.25
305.201	476.25
305.431	506.25
305.661	499.25
305.891	489.25
306.121	515.25
306.352	494.25
306.582	493.25
306.812	488.25
307.042	481.25
307.272	479.25
307.502	502.25
307.731	467.25
307.961	497.25
308.191	488.25
308.421	488.25
308.651	499.25
308.881	481.25
309.111	482.25
309.341	487.25
309.571	509.25
309.8	469.25
310.03	510.25
310.26	494.25
310.49	485.25
310.72	481.25
310.949	487.25
311.179	490.25
311.409	493.25
311.639	510.25
311.868	489.25
312.098	489.25
312.328	509.25
312.557	502.25
312.787	499.25
313.017	539.25
313.246	515.25
313.476	525.25
313.706	543.25
313.935	554.25
314.165	538.25
314.394	523.25
314.624	533.25
314.853	525.25
315.083	518.25
315.312	543.25
315.542	526.25
315.771	521.25
316.001	526.25
316.23	525.25
316.46	509.25
316.689	520.25
316.919	537.25
317.148	544.25
317.377	497.25
317.607	524.25
317.836	514.25
318.065	518.25
318.295	519.25
318.524	506.25
318.753	499.25
318.983	515.25
319.212	514.25
319.441	511.25
319.67	539.25
319.9	523.25
320.129	525.25
320.358	528.25
320.587	533.25
320.816	507.25
321.046	515.25
321.275	526.25
321.504	538.25
321.733	546.25
321.962	512.25
322.191	521.25
322.42	527.25
322.649	534.25
322.878	523.25
323.108	542.25
323.337	555.25
323.566	545.25
323.795	547.25
324.024	541.25
324.253	562.25
324.482	547.25
324.71	556.25
324.939	571.25
325.168	537.25
325.397	537.25
325.626	564.25
325.855	555.25
326.084	576.25
326.313	567.25
326.542	563.25
326.77	571.25
326.999	573.25
327.228	579.25
327.457	576.25
327.686	558.25
327.914	580.25
328.143	566.25
328.372	588.25
328.6	604.25
328.829	590.25
329.058	584.25
329.287	577.25
329.515	563.25
329.744	589.25
329.972	565.25
330.201	577.25
330.43	584.25
330.658	581.25
330.887	590.25
331.115	599.25
331.344	622.25
331.572	626.25
331.801	638.25
332.03	627.25
332.258	635.25
332.486	654.25
332.715	700.25
332.943	717.25
333.172	739.25
333.4	771.25
333.629	782.25
333.857	785.25
334.085	766.25
334.314	767.25
334.542	743.25
334.771	722.25
334.999	730.25
335.227	721.25
335.455	714.25
335.684	704.25
335.912	728.25
336.14	677.25
336.369	714.25
336.597	693.25
336.825	705.25
337.053	711.25
337.281	662.25
337.51	670.25
337.738	676.25
337.966	668.25
338.194	662.25
338.422	626.25
338.65	646.25
338.878	641.25
339.106	640.25
339.334	626.25
339.562	601.25
339.79	627.25
340.018	615.25
340.246	601.25
340.474	588.25
340.702	605.25
340.93	609.25
341.158	630.25
341.386	612.25
341.614	597.25
341.842	625.25
342.07	613.25
342.298	592.25
342.526	601.25
342.754	616.25
342.981	621.25
343.209	619.25
343.437	630.25
343.665	682.25
343.893	740.25
344.12	781.25
344.348	707.25
344.576	672.25
344.804	664.25
345.031	641.25
345.259	621.25
345.487	612.25
345.714	601.25
345.942	591.25
346.17	600.25
346.397	594.25
346.625	571.25
346.853	591.25
347.08	581.25
347.308	578.25
347.535	582.25
347.763	591.25
347.99	600.25
348.218	594.25
348.445	570.25
348.673	593.25
348.9	611.25
349.128	577.25
349.355	573.25
349.583	578.25
349.81	537.25
350.037	574.25
350.265	565.25
350.492	577.25
350.72	563.25
350.947	568.25
351.174	560.25
351.402	557.25
351.629	564.25
351.856	573.25
352.083	554.25
352.311	545.25
352.538	564.25
352.765	563.25
352.992	569.25
353.22	559.25
353.447	563.25
353.674	557.25
353.901	546.25
354.128	556.25
354.355	585.25
354.583	554.25
354.81	553.25
355.037	556.25
355.264	565.25
355.491	581.25
355.718	557.25
355.945	555.25
356.172	583.25
356.399	567.25
356.626	571.25
356.853	572.25
357.08	565.25
357.307	568.25
357.534	574.25
357.761	554.25
357.988	597.25
358.215	559.25
358.441	545.25
358.668	558.25
358.895	577.25
359.122	580.25
359.349	570.25
359.576	562.25
359.802	567.25
360.029	568.25
360.256	558.25
360.483	553.25
360.709	553.25
360.936	577.25
361.163	566.25
361.39	587.25
361.616	577.25
361.843	564.25
362.07	582.25
362.296	571.25
362.523	563.25
362.749	568.25
362.976	570.25
363.203	579.25
363.429	568.25
363.656	550.25
363.882	590.25
364.109	567.25
364.335	556.25
364.562	565.25
364.788	557.25
365.015	545.25
365.241	565.25
365.468	575.25
365.694	541.25
365.92	555.25
366.147	561.25
366.373	581.25
366.599	552.25
366.826	563.25
367.052	559.25
367.278	566.25
367.505	549.25
367.731	577.25
367.957	554.25
368.184	565.25
368.41	566.25
368.636	574.25
368.862	567.25
369.089	563.25
369.315	552.25
369.541	591.25
369.767	599.25
369.993	602.25
370.219	590.25
370.445	594.25
370.672	595.25
370.898	618.25
371.124	610.25
371.35	627.25
371.576	635.25
371.802	620.25
372.028	587.25
372.254	615.25
372.48	623.25
372.706	637.25
372.932	654.25
373.158	635.25
373.384	626.25
373.61	640.25
373.835	615.25
374.061	627.25
374.287	655.25
374.513	655.25
374.739	654.25
374.965	671.25
375.191	684.25
375.416	667.25
375.642	666.25
375.868	638.25
376.094	628.25
376.319	635.25
376.545	615.25
376.771	620.25
376.997	643.25
377.222	625.25
377.448	626.25
377.674	616.25
377.899	621.25
378.125	611.25
378.35	582.25
378.576	615.25
378.802	603.25
379.027	619.25
379.253	628.25
379.478	603.25
379.704	605.25
379.929	628.25
380.155	593.25
380.38	613.25
380.606	634.25
380.831	613.25
381.057	609.25
381.282	589.25
381.507	629.25
381.733	635.25
381.958	592.25
382.184	634.25
382.409	629.25
382.634	637.25
382.86	663.25
383.085	665.25
383.31	661.25
383.535	674.25
383.761	695.25
383.986	707.25
384.211	703.25
384.436	707.25
384.662	714.25
384.887	754.25
385.112	729.25
385.337	742.25
385.562	743.25
385.787	716.25
386.013	753.25
386.238	721.25
386.463	734.25
386.688	749.25
386.913	710.25
387.138	711.25
387.363	717.25
387.588	725.25
387.813	705.25
388.038	701.25
388.263	760.25
388.488	718.25
388.713	719.25
388.938	707.25
389.163	727.25
389.387	732.25
389.612	725.25
389.837	712.25
390.062	713.25
390.287	696.25
390.512	707.25
390.736	724.25
390.961	741.25
391.186	779.25
391.411	765.25
391.636	782.25
391.86	808.25
392.085	831.25
392.31	835.25
392.534	801.25
392.759	797.25
392.984	796.25
393.208	783.25
393.433	785.25
393.658	783.25
393.882	784.25
394.107	787.25
394.331	784.25
394.556	774.25
394.78	791.25
395.005	792.25
395.229	787.25
395.454	804.25
395.678	819.25
395.903	826.25
396.127	799.25
396.352	768.25
396.576	761.25
396.801	747.25
397.025	775.25
397.249	782.25
397.474	822.25
397.698	838.25
397.922	826.25
398.147	829.25
398.371	837.25
398.595	879.25
398.82	907.25
399.044	938.25
399.268	1059.25
399.492	1254.25
399.717	1413.25
399.941	1413.25
400.165	1244.25
400.389	1089.25
400.613	1008.25
400.837	951.25
401.062	915.25
401.286	948.25
401.51	897.25
401.734	911.25
401.958	934.25
402.182	950.25
402.406	952.25
402.63	963.25
402.854	1007.25
403.078	981.25
403.302	1036.25
403.526	1060.25
403.75	1055.25
403.974	1090.25
404.198	1081.25
404.422	1097.25
404.645	1074.25
404.869	1059.25
405.093	1057.25
405.317	1033.25
405.541	1040.25
405.765	1012.25
405.988	979.25
406.212	987.25
406.436	1000.25
406.66	1023.25
406.883	1036.25
407.107	1111.25
407.331	1160.25
407.555	1191.25
407.778	1175.25
408.002	1182.25
408.226	1148.25
408.449	1090.25
408.673	1051.25
408.896	1051.25
409.12	1017.25
409.344	1069.25
409.567	1071.25
409.791	1071.25
410.014	1069.25
410.238	1039.25
410.461	1048.25
410.685	1031.25
410.908	988.25
411.132	1007.25
411.355	934.25
411.578	949.25
411.802	949.25
412.025	946.25
412.249	983.25
412.472	1009.25
412.695	928.25
412.919	950.25
413.142	917.25
413.365	905.25
413.589	955.25
413.812	910.25
414.035	876.25
414.258	925.25
414.482	909.25
414.705	940.25
414.928	935.25
415.151	942.25
415.374	926.25
415.597	907.25
415.821	893.25
416.044	885.25
416.267	879.25
416.49	843.25
416.713	920.25
416.936	922.25
417.159	910.25
417.382	890.25
417.605	925.25
417.828	876.25
418.051	888.25
418.274	921.25
418.497	883.25
418.72	936.25
418.943	914.25
419.166	1001.25
419.389	1053.25
419.611	1045.25
419.834	971.25
420.057	945.25
420.28	931.25
420.503	887.25
420.726	920.25
420.948	889.25
421.171	905.25
421.394	904.25
421.617	904.25
421.839	903.25
422.062	922.25
422.285	908.25
422.507	962.25
422.73	938.25
422.953	941.25
423.175	969.25
423.398	962.25
423.621	969.25
423.843	963.25
424.066	999.25
424.288	964.25
424.511	984.25
424.733	959.25
424.956	927.25
425.178	927.25
425.401	935.25
425.623	945.25
425.846	873.25
426.068	861.25
426.291	878.25
426.513	849.25
426.735	852.25
426.958	891.25
427.18	844.25
427.402	831.25
427.625	812.25
427.847	821.25
428.069	819.25
428.292	808.25
428.514	827.25
428.736	791.25
428.958	821.25
429.181	827.25
429.403	796.25
429.625	785.25
429.847	791.25
430.069	778.25
430.292	801.25
430.514	783.25
430.736	827.25
430.958	809.25
431.18	795.25
431.402	807.25
431.624	795.25
431.846	783.25
432.068	821.25
432.29	829.25
432.512	816.25
432.734	796.25
432.956	801.25
433.178	817.25
433.4	833.25
433.622	812.25
433.844	858.25
434.066	824.25
434.287	837.25
434.509	881.25
434.731	903.25
434.953	925.25
435.175	917.25
435.397	907.25
435.618	892.25
435.84	844.25
436.062	833.25
436.284	818.25
436.505	798.25
436.727	821.25
436.949	835.25
437.17	819.25
437.392	799.25
437.614	788.25
437.835	796.25
438.057	796.25
438.278	767.25
438.5	784.25
438.721	779.25
438.943	798.25
439.165	777.25
439.386	775.25
439.608	836.25
439.829	823.25
440.05	791.25
440.272	834.25
440.493	823.25
440.715	850.25
440.936	871.25
441.158	843.25
441.379	864.25
441.6	918.25
441.822	942.25
442.043	941.25
442.264	910.25
442.486	902.25
442.707	926.25
442.928	903.25
443.149	924.25
443.371	910.25
443.592	906.25
443.813	933.25
444.034	929.25
444.255	955.25
444.476	989.25
444.698	1060.25
444.919	1107.25
445.14	1167.25
445.361	1018.25
445.582	941.25
445.803	905.25
446.024	866.25
446.245	849.25
446.466	846.25
446.687	836.25
446.908	836.25
447.129	826.25
447.35	803.25
447.571	777.25
447.792	756.25
448.013	759.25
448.234	761.25
448.455	754.25
448.675	743.25
448.896	743.25
449.117	742.25
449.338	735.25
449.559	756.25
449.779	759.25
450	751.25
450.221	746.25
450.442	765.25
450.662	753.25
450.883	776.25
451.104	743.25
451.324	744.25
451.545	773.25
451.766	771.25
451.986	768.25
452.207	742.25
452.428	757.25
452.648	759.25
452.869	749.25
453.089	755.25
453.31	745.25
453.53	720.25
453.751	748.25
453.971	724.25
454.192	731.25
454.412	724.25
454.633	717.25
454.853	711.25
455.073	703.25
455.294	699.25
455.514	716.25
455.734	700.25
455.955	680.25
456.175	699.25
456.395	703.25
456.616	692.25
456.836	679.25
457.056	709.25
457.276	709.25
457.497	707.25
457.717	685.25
457.937	718.25
458.157	693.25
458.377	723.25
458.598	732.25
458.818	750.25
459.038	742.25
459.258	798.25
459.478	809.25
459.698	859.25
459.918	876.25
460.138	918.25
460.358	963.25
460.578	991.25
460.798	964.25
461.018	948.25
461.238	958.25
461.458	967.25
461.678	954.25
461.898	957.25
462.118	960.25
462.338	1036.25
462.558	1076.25
462.777	1097.25
462.997	1177.25
463.217	1337.25
463.437	1326.25
463.657	1188.25
463.876	1130.25
464.096	1117.25
464.316	1131.25
464.536	1137.25
464.755	1080.25
464.975	1059.25
465.195	990.25
465.414	970.25
465.634	873.25
465.854	847.25
466.073	830.25
466.293	846.25
466.512	778.25
466.732	789.25
466.951	775.25
467.171	778.25
467.391	781.25
467.61	801.25
467.829	783.25
468.049	801.25
468.268	732.25
468.488	760.25
468.707	742.25
468.927	730.25
469.146	735.25
469.365	746.25
469.585	745.25
469.804	779.25
470.023	796.25
470.243	803.25
470.462	810.25
470.681	825.25
470.901	822.25
471.12	808.25
471.339	805.25
471.558	780.25
471.777	792.25
471.997	754.25
472.216	749.25
472.435	753.25
472.654	734.25
472.873	721.25
473.092	739.25
473.311	705.25
473.53	728.25
473.749	714.25
473.968	731.25
474.187	724.25
474.406	748.25
474.625	709.25
474.844	712.25
475.063	734.25
475.282	741.25
475.501	744.25
475.72	749.25
475.939	741.25
476.158	773.25
476.377	748.25
476.596	771.25
476.814	780.25
477.033	761.25
477.252	792.25
477.471	811.25
477.69	809.25
477.908	832.25
478.127	852.25
478.346	876.25
478.564	888.25
478.783	883.25
479.002	906.25
479.22	929.25
479.439	899.25
479.658	893.25
479.876	887.25
480.095	893.25
480.313	959.25
480.532	981.25
480.751	959.25
480.969	920.25
481.188	892.25
481.406	874.25
481.624	856.25
481.843	836.25
482.061	842.25
482.28	840.25
482.498	825.25
482.717	818.25
482.935	814.25
483.153	862.25
483.372	803.25
483.59	834.25
483.808	823.25
484.027	822.25
484.245	846.25
484.463	839.25
484.681	872.25
484.9	875.25
485.118	857.25
485.336	873.25
485.554	869.25
485.772	857.25
485.99	872.25
486.209	885.25
486.427	859.25
486.645	857.25
486.863	920.25
487.081	862.25
487.299	884.25
487.517	903.25
487.735	879.25
487.953	862.25
488.171	895.25
488.389	862.25
488.607	865.25
488.825	859.25
489.043	846.25
489.261	852.25
489.479	865.25
489.696	844.25
489.914	868.25
490.132	859.25
490.35	863.25
490.568	851.25
490.786	882.25
491.003	872.25
491.221	894.25
491.439	890.25
491.657	874.25
491.874	883.25
492.092	895.25
492.31	874.25
492.527	869.25
492.745	907.25
492.963	893.25
493.18	902.25
493.398	915.25
493.615	917.25
493.833	903.25
494.05	901.25
494.268	926.25
494.485	923.25
494.703	915.25
494.92	942.25
495.138	902.25
495.355	912.25
495.573	934.25
495.79	887.25
496.008	950.25
496.225	918.25
496.442	944.25
496.66	946.25
496.877	954.25
497.094	975.25
497.312	968.25
497.529	987.25
497.746	1035.25
497.963	1091.25
498.181	1115.25
498.398	1140.25
498.615	1221.25
498.832	1270.25
499.049	1415.25
499.267	1507.25
499.484	1659.25
499.701	1826.25
499.918	2016.25
500.135	2371.25
500.352	2716.25
500.569	2925.25
500.786	2865.25
501.003	2617.25
501.22	2319.25
501.437	1995.25
501.654	1758.25
501.871	1588.25
502.088	1467.25
502.305	1363.25
502.522	1277.25
502.739	1251.25
502.956	1177.25
503.172	1111.25
503.389	1067.25
503.606	1042.25
503.823	1030.25
504.04	1034.25
504.256	1050.25
504.473	1057.25
504.69	1099.25
504.907	1114.25
505.123	1019.25
505.34	964.25
505.557	905.25
505.773	909.25
505.99	866.25
506.207	842.25
506.423	854.25
506.64	859.25
506.856	809.25
507.073	821.25
507.289	805.25
507.506	829.25
507.722	803.25
507.939	814.25
508.155	788.25
508.372	807.25
508.588	753.25
508.805	769.25
509.021	780.25
509.238	776.25
509.454	754.25
509.67	727.25
509.887	731.25
510.103	748.25
510.319	753.25
510.536	750.25
510.752	763.25
510.968	772.25
511.184	728.25
511.401	755.25
511.617	719.25
511.833	712.25
512.049	735.25
512.265	749.25
512.481	757.25
512.698	740.25
512.914	723.25
513.13	744.25
513.346	743.25
513.562	723.25
513.778	730.25
513.994	759.25
514.21	740.25
514.426	749.25
514.642	755.25
514.858	773.25
515.074	771.25
515.29	786.25
515.506	789.25
515.721	803.25
515.937	790.25
516.153	789.25
516.369	816.25
516.585	827.25
516.801	870.25
517.016	937.25
517.232	955.25
517.448	999.25
517.664	1055.25
517.879	1052.25
518.095	1064.25
518.311	1031.25
518.527	962.25
518.742	933.25
518.958	927.25
519.173	859.25
519.389	829.25
519.605	813.25
519.82	810.25
520.036	798.25
520.251	780.25
520.467	765.25
520.682	738.25
520.898	765.25
521.113	745.25
521.329	717.25
521.544	732.25
521.76	717.25
521.975	721.25
522.19	695.25
522.406	695.25
522.621	693.25
522.836	690.25
523.052	707.25
523.267	716.25
523.482	678.25
523.698	684.25
523.913	686.25
524.128	675.25
524.343	687.25
524.559	655.25
524.774	675.25
524.989	682.25
525.204	659.25
525.419	683.25
525.634	699.25
525.849	679.25
526.064	689.25
526.28	669.25
526.495	670.25
526.71	672.25
526.925	651.25
527.14	682.25
527.355	656.25
527.57	649.25
527.785	685.25
527.999	666.25
528.214	661.25
528.429	690.25
528.644	658.25
528.859	681.25
529.074	671.25
529.289	693.25
529.503	689.25
529.718	690.25
529.933	669.25
530.148	669.25
530.363	680.25
530.577	666.25
530.792	680.25
531.007	661.25
531.221	669.25
531.436	698.25
531.651	673.25
531.865	678.25
532.08	683.25
532.295	680.25
532.509	677.25
532.724	650.25
532.938	681.25
533.153	666.25
533.367	681.25
533.582	674.25
533.796	686.25
534.011	684.25
534.225	682.25
534.44	643.25
534.654	652.25
534.868	651.25
535.083	649.25
535.297	646.25
535.511	628.25
535.726	666.25
535.94	665.25
536.154	643.25
536.369	646.25
536.583	636.25
536.797	644.25
537.011	630.25
537.225	644.25
537.44	617.25
537.654	635.25
537.868	600.25
538.082	606.25
538.296	604.25
538.51	614.25
538.724	609.25
538.938	620.25
539.153	613.25
539.367	613.25
539.581	598.25
539.795	594.25
540.009	585.25
540.222	603.25
540.436	610.25
540.65	592.25
540.864	605.25
541.078	615.25
541.292	627.25
541.506	639.25
541.72	589.25
541.934	585.25
542.147	603.25
542.361	615.25
542.575	587.25
542.789	597.25
543.002	604.25
543.216	563.25
543.43	571.25
543.644	597.25
543.857	581.25
544.071	613.25
544.285	601.25
544.498	601.25
544.712	595.25
544.925	591.25
545.139	624.25
545.352	617.25
545.566	597.25
545.779	635.25
545.993	619.25
546.206	607.25
546.42	601.25
546.633	594.25
546.847	616.25
547.06	609.25
547.274	608.25
547.487	611.25
547.7	635.25
547.914	615.25
548.127	621.25
548.34	640.25
548.554	649.25
548.767	614.25
548.98	631.25
549.193	634.25
549.407	639.25
549.62	626.25
549.833	623.25
550.046	634.25
550.259	637.25
550.473	602.25
550.686	611.25
550.899	591.25
551.112	613.25
551.325	591.25
551.538	615.25
551.751	616.25
551.964	607.25
552.177	622.25
552.39	636.25
552.603	646.25
552.816	648.25
553.029	663.25
553.242	640.25
553.455	681.25
553.667	674.25
553.88	684.25
554.093	682.25
554.306	638.25
554.519	621.25
554.732	628.25
554.944	614.25
555.157	590.25
555.37	571.25
555.583	586.25
555.795	581.25
556.008	545.25
556.221	563.25
556.433	534.25
556.646	538.25
556.859	521.25
557.071	521.25
557.284	531.25
557.496	540.25
557.709	523.25
557.921	542.25
558.134	534.25
558.346	546.25
558.559	528.25
558.771	523.25
558.984	512.25
559.196	513.25
559.409	502.25
559.621	536.25
559.833	491.25
560.046	502.25
560.258	507.25
560.47	513.25
560.683	488.25
560.895	486.25
561.107	501.25
561.32	513.25
561.532	509.25
561.744	520.25
561.956	517.25
562.168	501.25
562.381	512.25
562.593	499.25
562.805	520.25
563.017	505.25
563.229	499.25
563.441	511.25
563.653	511.25
563.865	520.25
564.077	524.25
564.289	541.25
564.501	545.25
564.713	543.25
564.925	550.25
565.137	559.25
565.349	568.25
565.561	579.25
565.773	598.25
565.985	617.25
566.197	653.25
566.408	678.25
566.62	782.25
566.832	843.25
567.044	837.25
567.255	842.25
567.467	878.25
567.679	885.25
567.891	965.25
568.102	1020.25
568.314	990.25
568.526	870.25
568.737	791.25
568.949	739.25
569.161	638.25
569.372	585.25
569.584	569.25
569.795	567.25
570.007	520.25
570.218	500.25
570.43	501.25
570.641	521.25
570.853	522.25
571.064	524.25
571.276	539.25
571.487	521.25
571.698	486.25
571.91	485.25
572.121	466.25
572.333	459.25
572.544	454.25
572.755	420.25
572.966	428.25
573.178	434.25
573.389	446.25
573.6	438.25
573.811	435.25
574.023	434.25
574.234	418.25
574.445	422.25
574.656	431.25
574.867	430.25
575.078	445.25
575.289	430.25
575.501	407.25
575.712	397.25
575.923	410.25
576.134	407.25
576.345	417.25
576.556	417.25
576.767	392.25
576.978	395.25
577.188	402.25
577.399	399.25
577.61	381.25
577.821	367.25
578.032	389.25
578.243	386.25
578.454	381.25
578.665	366.25
578.875	371.25
579.086	373.25
579.297	381.25
579.508	379.25
579.718	381.25
579.929	361.25
580.14	357.25
580.35	349.25
580.561	372.25
580.772	366.25
580.982	363.25
581.193	374.25
581.403	380.25
581.614	347.25
581.825	371.25
582.035	359.25
582.246	369.25
582.456	355.25
582.667	359.25
582.877	366.25
583.087	364.25
583.298	335.25
583.508	359.25
583.719	349.25
583.929	370.25
584.139	341.25
584.35	362.25
584.56	365.25
584.77	346.25
584.981	354.25
585.191	330.25
585.401	343.25
585.611	331.25
585.821	345.25
586.032	369.25
586.242	353.25
586.452	335.25
586.662	370.25
586.872	353.25
587.082	345.25
587.292	345.25
587.502	356.25
587.713	340.25
587.923	334.25
588.133	322.25
588.343	341.25
588.553	343.25
588.762	334.25
588.972	343.25
589.182	342.25
589.392	312.25
589.602	354.25
589.812	340.25
590.022	334.25
590.232	334.25
590.441	356.25
590.651	334.25
590.861	334.25
591.071	345.25
591.281	350.25
591.49	361.25
591.7	349.25
591.91	362.25
592.119	369.25
592.329	372.25
592.539	387.25
592.748	385.25
592.958	430.25
593.167	407.25
593.377	439.25
593.587	420.25
593.796	418.25
594.006	455.25
594.215	473.25
594.424	439.25
594.634	443.25
594.843	410.25
595.053	391.25
595.262	389.25
595.472	378.25
595.681	362.25
595.89	363.25
596.1	352.25
596.309	337.25
596.518	340.25
596.727	314.25
596.937	336.25
597.146	327.25
597.355	320.25
597.564	300.25
597.774	325.25
597.983	317.25
598.192	302.25
598.401	299.25
598.61	302.25
598.819	287.25
599.028	294.25
599.237	305.25
599.446	293.25
599.655	295.25
599.864	316.25
600.073	296.25
600.282	289.25
600.491	290.25
600.7	296.25
600.909	298.25
601.118	287.25
601.327	272.25
601.536	297.25
601.745	287.25
601.953	285.25
602.162	292.25
602.371	276.25
602.58	284.25
602.789	280.25
602.997	290.25
603.206	275.25
603.415	296.25
603.623	275.25
603.832	268.25
604.041	286.25
604.249	279.25
604.458	286.25
604.666	277.25
604.875	281.25
605.084	276.25
605.292	279.25
605.501	275.25
605.709	278.25
605.918	265.25
606.126	265.25
606.334	289.25
606.543	267.25
606.751	268.25
606.96	262.25
607.168	265.25
607.376	261.25
607.585	257.25
607.793	268.25
608.001	263.25
608.21	263.25
608.418	263.25
608.626	254.25
608.834	273.25
609.043	268.25
609.251	257.25
609.459	251.25
609.667	242.25
609.875	262.25
610.083	262.25
610.291	254.25
610.499	247.25
610.707	232.25
610.916	258.25
611.124	257.25
611.332	271.25
611.54	246.25
611.748	257.25
611.955	242.25
612.163	252.25
612.371	272.25
612.579	249.25
612.787	259.25
612.995	257.25
613.203	259.25
613.411	233.25
613.618	263.25
613.826	227.25
614.034	245.25
614.242	242.25
614.449	263.25
614.657	238.25
614.865	245.25
615.072	249.25
615.28	244.25
615.488	259.25
615.695	243.25
615.903	269.25
616.111	241.25
616.318	258.25
616.526	271.25
616.733	271.25
616.941	254.25
617.148	245.25
617.356	262.25
617.563	253.25
617.771	261.25
617.978	246.25
618.185	271.25
618.393	248.25
618.6	253.25
618.807	235.25
619.015	263.25
619.222	262.25
619.429	261.25
619.637	228.25
619.844	247.25
620.051	238.25
620.258	244.25
620.466	237.25
620.673	241.25
620.88	221.25
621.087	227.25
621.294	227.25
621.501	220.25
621.708	226.25
621.915	223.25
622.122	235.25
622.329	230.25
622.536	228.25
622.743	235.25
622.95	219.25
623.157	225.25
623.364	225.25
623.571	235.25
623.778	235.25
623.985	216.25
624.192	195.25
624.399	222.25
624.606	227.25
624.812	221.25
625.019	227.25
625.226	217.25
625.433	207.25
625.639	217.25
625.846	198.25
626.053	208.25
626.259	207.25
626.466	217.25
626.673	198.25
626.879	197.25
627.086	212.25
627.293	234.25
627.499	221.25
627.706	225.25
627.912	206.25
628.119	214.25
628.325	219.25
628.532	197.25
628.738	201.25
628.945	217.25
629.151	221.25
629.357	199.25
629.564	200.25
629.77	185.25
629.976	193.25
630.183	197.25
630.389	202.25
630.595	209.25
630.802	198.25
631.008	205.25
631.214	201.25
631.42	179.25
631.627	202.25
631.833	178.25
632.039	195.25
632.245	213.25
632.451	193.25
632.657	178.25
632.863	210.25
633.069	198.25
633.275	197.25
633.481	188.25
633.688	181.25
633.893	186.25
634.099	194.25
634.305	177.25
634.511	189.25
634.717	185.25
634.923	198.25
635.129	190.25
635.335	180.25
635.541	193.25
635.747	181.25
635.952	175.25
636.158	197.25
636.364	181.25
636.57	190.25
636.775	173.25
636.981	187.25
637.187	185.25
637.392	164.25
637.598	165.25
637.804	185.25
638.009	193.25
638.215	171.25
638.421	183.25
638.626	173.25
638.832	196.25
639.037	188.25
639.243	178.25
639.448	190.25
639.654	179.25
639.859	183.25
640.065	170.25
640.27	186.25
640.475	174.25
640.681	169.25
640.886	169.25
641.091	182.25
641.297	179.25
641.502	161.25
641.707	164.25
641.913	174.25
642.118	190.25
642.323	181.25
642.528	164.25
642.733	176.25
642.939	187.25
643.144	162.25
643.349	185.25
643.554	189.25
643.759	178.25
643.964	185.25
644.169	165.25
644.374	170.25
644.579	169.25
644.784	174.25
644.989	149.25
645.194	154.25
645.399	181.25
645.604	178.25
645.809	163.25
646.014	165.25
646.219	171.25
646.423	155.25
646.628	173.25
646.833	173.25
647.038	170.25
647.243	194.25
647.447	181.25
647.652	186.25
647.857	179.25
648.062	175.25
648.266	173.25
648.471	195.25
648.676	185.25
648.88	175.25
649.085	188.25
649.289	190.25
649.494	175.25
649.698	178.25
649.903	153.25
650.107	155.25
650.312	172.25
650.516	153.25
650.721	158.25
650.925	158.25
651.13	152.25
651.334	178.25
651.539	160.25
651.743	162.25
651.947	143.25
652.152	153.25
652.356	138.25
652.56	140.25
652.764	151.25
652.969	142.25
653.173	135.25
653.377	144.25
653.581	129.25
653.785	131.25
653.99	134.25
654.194	138.25
654.398	129.25
654.602	128.25
654.806	142.25
655.01	122.25
655.214	119.25
655.418	139.25
655.622	126.25
655.826	132.25
656.03	135.25
656.234	124.25
656.438	137.25
656.642	126.25
656.846	132.25
657.049	136.25
657.253	125.25
657.457	117.25
657.661	124.25
657.865	109.25
658.068	111.25
658.272	105.25
658.476	116.25
658.68	106.25
658.883	92.25
659.087	117.25
659.291	99.25
659.494	93.25
659.698	93.25
659.901	86.25
660.105	91.25
660.309	94.25
660.512	94.25
660.716	110.25
660.919	85.25
661.123	93.25
661.326	94.25
661.53	101.25
661.733	90.25
661.936	89.25
662.14	90.25
662.343	99.25
662.546	85.25
662.75	76.25
662.953	88.25
663.156	76.25
663.36	88.25
663.563	77.25
663.766	77.25
663.969	72.25
664.173	88.25
664.376	92.25
664.579	83.25
664.782	88.25
664.985	92.25
665.188	89.25
665.391	84.25
665.594	73.25
665.797	93.25
666	75.25
666.203	88.25
666.406	80.25
666.609	94.25
666.812	108.25
667.015	85.25
667.218	78.25
667.421	87.25
667.624	86.25
667.827	89.25
668.03	82.25
668.232	75.25
668.435	87.25
668.638	86.25
668.841	87.25
669.043	86.25
669.246	88.25
669.449	68.25
669.651	88.25
669.854	77.25
670.057	94.25
670.259	81.25
670.462	74.25
670.665	82.25
670.867	89.25
671.07	94.25
671.272	96.25
671.475	90.25
671.677	81.25
671.88	74.25
672.082	80.25
672.284	82.25
672.487	89.25
672.689	82.25
672.892	84.25
