Data from Ni(NO3)2@0.0625M.TitratingCurve.Agarose3%dH2O.NegLispCup.LampEnergy10.LIBS07252019_HRD10591_18-13-36-569.txt Node
Date: Thu Jul 25 18:13:36 EDT 2019
User: cochatt
Spectrometer: HR+D1059
Trigger mode: 1
Integration Time (sec): 1.000000E-1
Scans to average: 1
Electric dark correction enabled: true
Nonlinearity correction enabled: false
Boxcar width: 0
XAxis mode: Wavelengths
Number of Pixels in Spectrum: 2048
>>>>>Begin Spectral Data<<<<<
223.165	-16.94
223.4	-16.94
223.635	-16.94
223.869	-19.94
224.104	-29.94
224.338	-16.94
224.573	-17.94
224.808	-16.94
225.042	-6.94
225.277	-4.94
225.511	-5.94
225.746	13.06
225.98	12.06
226.215	14.06
226.449	17.06
226.683	16.06
226.918	37.06
227.152	27.06
227.387	27.06
227.621	28.06
227.856	44.06
228.09	51.06
228.324	47.06
228.559	56.06
228.793	71.06
229.027	117.06
229.262	125.06
229.496	110.06
229.73	131.06
229.964	139.06
230.199	142.06
230.433	131.06
230.667	135.06
230.901	128.06
231.136	139.06
231.37	137.06
231.604	132.06
231.838	157.06
232.072	150.06
232.306	155.06
232.541	146.06
232.775	155.06
233.009	157.06
233.243	157.06
233.477	164.06
233.711	152.06
233.945	162.06
234.179	156.06
234.413	159.06
234.647	138.06
234.881	148.06
235.115	168.06
235.349	174.06
235.583	163.06
235.817	176.06
236.051	195.06
236.285	151.06
236.519	168.06
236.753	165.06
236.987	169.06
237.221	163.06
237.455	171.06
237.689	181.06
237.922	176.06
238.156	188.06
238.39	174.06
238.624	171.06
238.858	179.06
239.091	181.06
239.325	195.06
239.559	190.06
239.793	184.06
240.027	185.06
240.26	200.06
240.494	196.06
240.728	183.06
240.961	190.06
241.195	213.06
241.429	203.06
241.662	221.06
241.896	220.06
242.13	212.06
242.363	196.06
242.597	200.06
242.83	227.06
243.064	223.06
243.298	216.06
243.531	217.06
243.765	226.06
243.998	217.06
244.232	231.06
244.465	231.06
244.699	227.06
244.932	204.06
245.166	229.06
245.399	240.06
245.633	240.06
245.866	234.06
246.099	236.06
246.333	240.06
246.566	266.06
246.8	235.06
247.033	221.06
247.266	250.06
247.5	247.06
247.733	254.06
247.966	260.06
248.2	256.06
248.433	264.06
248.666	243.06
248.899	256.06
249.133	279.06
249.366	278.06
249.599	261.06
249.832	274.06
250.066	269.06
250.299	259.06
250.532	277.06
250.765	268.06
250.998	265.06
251.231	274.06
251.465	283.06
251.698	287.06
251.931	295.06
252.164	291.06
252.397	292.06
252.63	309.06
252.863	292.06
253.096	275.06
253.329	298.06
253.562	300.06
253.795	293.06
254.028	302.06
254.261	321.06
254.494	310.06
254.727	314.06
254.96	310.06
255.193	305.06
255.426	326.06
255.659	307.06
255.892	324.06
256.124	319.06
256.357	327.06
256.59	320.06
256.823	297.06
257.056	317.06
257.289	322.06
257.521	321.06
257.754	351.06
257.987	323.06
258.22	323.06
258.452	332.06
258.685	323.06
258.918	325.06
259.151	336.06
259.383	341.06
259.616	335.06
259.849	330.06
260.081	348.06
260.314	337.06
260.547	361.06
260.779	344.06
261.012	366.06
261.244	353.06
261.477	356.06
261.71	352.06
261.942	369.06
262.175	357.06
262.407	358.06
262.64	383.06
262.872	345.06
263.105	346.06
263.337	364.06
263.57	365.06
263.802	369.06
264.035	373.06
264.267	376.06
264.499	378.06
264.732	391.06
264.964	378.06
265.197	386.06
265.429	399.06
265.661	378.06
265.894	387.06
266.126	401.06
266.358	381.06
266.591	391.06
266.823	397.06
267.055	384.06
267.287	405.06
267.52	397.06
267.752	381.06
267.984	390.06
268.216	391.06
268.448	412.06
268.681	405.06
268.913	418.06
269.145	410.06
269.377	427.06
269.609	397.06
269.841	423.06
270.073	411.06
270.306	413.06
270.538	421.06
270.77	420.06
271.002	423.06
271.234	436.06
271.466	422.06
271.698	425.06
271.93	410.06
272.162	423.06
272.394	427.06
272.626	419.06
272.858	416.06
273.09	447.06
273.322	424.06
273.553	426.06
273.785	423.06
274.017	443.06
274.249	435.06
274.481	476.06
274.713	438.06
274.945	439.06
275.176	429.06
275.408	457.06
275.64	459.06
275.872	463.06
276.104	456.06
276.335	456.06
276.567	459.06
276.799	457.06
277.031	452.06
277.262	443.06
277.494	437.06
277.726	472.06
277.957	464.06
278.189	479.06
278.421	458.06
278.652	468.06
278.884	503.06
279.115	475.06
279.347	485.06
279.579	469.06
279.81	463.06
280.042	476.06
280.273	497.06
280.505	489.06
280.736	511.06
280.968	487.06
281.199	494.06
281.431	522.06
281.662	499.06
281.894	472.06
282.125	499.06
282.356	517.06
282.588	518.06
282.819	524.06
283.051	499.06
283.282	492.06
283.513	497.06
283.745	507.06
283.976	507.06
284.207	505.06
284.439	510.06
284.67	536.06
284.901	529.06
285.132	503.06
285.364	517.06
285.595	543.06
285.826	545.06
286.057	539.06
286.288	536.06
286.52	539.06
286.751	538.06
286.982	546.06
287.213	554.06
287.444	518.06
287.675	542.06
287.906	544.06
288.138	568.06
288.369	563.06
288.6	586.06
288.831	572.06
289.062	555.06
289.293	565.06
289.524	568.06
289.755	548.06
289.986	561.06
290.217	584.06
290.448	561.06
290.679	546.06
290.91	570.06
291.141	565.06
291.371	572.06
291.602	570.06
291.833	557.06
292.064	559.06
292.295	561.06
292.526	583.06
292.757	571.06
292.987	556.06
293.218	584.06
293.449	596.06
293.68	571.06
293.91	565.06
294.141	556.06
294.372	584.06
294.603	593.06
294.833	564.06
295.064	587.06
295.295	592.06
295.525	586.06
295.756	571.06
295.987	588.06
296.217	572.06
296.448	602.06
296.679	620.06
296.909	603.06
297.14	606.06
297.37	620.06
297.601	608.06
297.831	617.06
298.062	634.06
298.292	633.06
298.523	653.06
298.753	647.06
298.984	635.06
299.214	656.06
299.445	637.06
299.675	623.06
299.905	603.06
300.136	620.06
300.366	638.06
300.597	634.06
300.827	648.06
301.057	637.06
301.288	665.06
301.518	661.06
301.748	649.06
301.979	652.06
302.209	647.06
302.439	657.06
302.669	644.06
302.9	622.06
303.13	626.06
303.36	646.06
303.59	651.06
303.82	653.06
304.051	643.06
304.281	651.06
304.511	672.06
304.741	635.06
304.971	652.06
305.201	639.06
305.431	629.06
305.661	643.06
305.891	661.06
306.121	643.06
306.352	632.06
306.582	609.06
306.812	615.06
307.042	643.06
307.272	641.06
307.502	618.06
307.731	645.06
307.961	621.06
308.191	638.06
308.421	619.06
308.651	630.06
308.881	639.06
309.111	642.06
309.341	647.06
309.571	639.06
309.8	634.06
310.03	635.06
310.26	641.06
310.49	628.06
310.72	637.06
310.949	637.06
311.179	643.06
311.409	617.06
311.639	643.06
311.868	646.06
312.098	625.06
312.328	666.06
312.557	664.06
312.787	633.06
313.017	680.06
313.246	671.06
313.476	678.06
313.706	665.06
313.935	680.06
314.165	679.06
314.394	694.06
314.624	678.06
314.853	681.06
315.083	663.06
315.312	664.06
315.542	653.06
315.771	657.06
316.001	683.06
316.23	656.06
316.46	645.06
316.689	634.06
316.919	650.06
317.148	641.06
317.377	649.06
317.607	651.06
317.836	652.06
318.065	654.06
318.295	657.06
318.524	639.06
318.753	648.06
318.983	656.06
319.212	641.06
319.441	662.06
319.67	655.06
319.9	658.06
320.129	667.06
320.358	647.06
320.587	636.06
320.816	670.06
321.046	670.06
321.275	643.06
321.504	677.06
321.733	677.06
321.962	652.06
322.191	661.06
322.42	673.06
322.649	674.06
322.878	683.06
323.108	640.06
323.337	671.06
323.566	658.06
323.795	681.06
324.024	670.06
324.253	665.06
324.482	652.06
324.71	679.06
324.939	670.06
325.168	672.06
325.397	697.06
325.626	693.06
325.855	689.06
326.084	695.06
326.313	703.06
326.542	717.06
326.77	760.06
326.999	724.06
327.228	744.06
327.457	714.06
327.686	698.06
327.914	721.06
328.143	693.06
328.372	697.06
328.6	718.06
328.829	714.06
329.058	727.06
329.287	739.06
329.515	770.06
329.744	735.06
329.972	744.06
330.201	736.06
330.43	733.06
330.658	750.06
330.887	755.06
331.115	763.06
331.344	741.06
331.572	774.06
331.801	787.06
332.03	797.06
332.258	824.06
332.486	847.06
332.715	886.06
332.943	884.06
333.172	947.06
333.4	991.06
333.629	1003.06
333.857	1016.06
334.085	985.06
334.314	971.06
334.542	923.06
334.771	935.06
334.999	939.06
335.227	909.06
335.455	900.06
335.684	893.06
335.912	896.06
336.14	871.06
336.369	856.06
336.597	845.06
336.825	873.06
337.053	872.06
337.281	857.06
337.51	860.06
337.738	823.06
337.966	825.06
338.194	829.06
338.422	804.06
338.65	810.06
338.878	798.06
339.106	778.06
339.334	809.06
339.562	791.06
339.79	779.06
340.018	766.06
340.246	752.06
340.474	748.06
340.702	728.06
340.93	740.06
341.158	781.06
341.386	733.06
341.614	762.06
341.842	760.06
342.07	760.06
342.298	747.06
342.526	763.06
342.754	748.06
342.981	736.06
343.209	767.06
343.437	808.06
343.665	862.06
343.893	933.06
344.12	970.06
344.348	931.06
344.576	874.06
344.804	852.06
345.031	779.06
345.259	793.06
345.487	745.06
345.714	775.06
345.942	734.06
346.17	729.06
346.397	739.06
346.625	725.06
346.853	733.06
347.08	733.06
347.308	750.06
347.535	737.06
347.763	774.06
347.99	748.06
348.218	782.06
348.445	748.06
348.673	752.06
348.9	739.06
349.128	744.06
349.355	720.06
349.583	749.06
349.81	735.06
350.037	717.06
350.265	737.06
350.492	729.06
350.72	684.06
350.947	706.06
351.174	726.06
351.402	725.06
351.629	711.06
351.856	707.06
352.083	727.06
352.311	718.06
352.538	704.06
352.765	681.06
352.992	702.06
353.22	706.06
353.447	721.06
353.674	695.06
353.901	682.06
354.128	693.06
354.355	688.06
354.583	699.06
354.81	718.06
355.037	720.06
355.264	729.06
355.491	706.06
355.718	724.06
355.945	723.06
356.172	712.06
356.399	730.06
356.626	719.06
356.853	714.06
357.08	717.06
357.307	719.06
357.534	727.06
357.761	729.06
357.988	718.06
358.215	723.06
358.441	702.06
358.668	713.06
358.895	715.06
359.122	727.06
359.349	681.06
359.576	727.06
359.802	730.06
360.029	695.06
360.256	711.06
360.483	725.06
360.709	716.06
360.936	724.06
361.163	722.06
361.39	701.06
361.616	720.06
361.843	727.06
362.07	717.06
362.296	695.06
362.523	688.06
362.749	722.06
362.976	705.06
363.203	717.06
363.429	688.06
363.656	701.06
363.882	707.06
364.109	734.06
364.335	698.06
364.562	712.06
364.788	715.06
365.015	708.06
365.241	691.06
365.468	699.06
365.694	713.06
365.92	720.06
366.147	732.06
366.373	717.06
366.599	726.06
366.826	710.06
367.052	692.06
367.278	706.06
367.505	694.06
367.731	698.06
367.957	703.06
368.184	698.06
368.41	728.06
368.636	709.06
368.862	747.06
369.089	714.06
369.315	728.06
369.541	726.06
369.767	735.06
369.993	726.06
370.219	728.06
370.445	773.06
370.672	755.06
370.898	741.06
371.124	740.06
371.35	774.06
371.576	769.06
371.802	779.06
372.028	762.06
372.254	776.06
372.48	773.06
372.706	791.06
372.932	803.06
373.158	782.06
373.384	760.06
373.61	782.06
373.835	752.06
374.061	769.06
374.287	800.06
374.513	788.06
374.739	822.06
374.965	840.06
375.191	863.06
375.416	868.06
375.642	849.06
375.868	847.06
376.094	804.06
376.319	793.06
376.545	780.06
376.771	791.06
376.997	762.06
377.222	763.06
377.448	775.06
377.674	777.06
377.899	771.06
378.125	779.06
378.35	764.06
378.576	742.06
378.802	784.06
379.027	776.06
379.253	781.06
379.478	778.06
379.704	762.06
379.929	782.06
380.155	765.06
380.38	781.06
380.606	754.06
380.831	772.06
381.057	774.06
381.282	773.06
381.507	781.06
381.733	764.06
381.958	782.06
382.184	790.06
382.409	797.06
382.634	805.06
382.86	816.06
383.085	848.06
383.31	831.06
383.535	861.06
383.761	870.06
383.986	897.06
384.211	895.06
384.436	917.06
384.662	938.06
384.887	954.06
385.112	909.06
385.337	947.06
385.562	928.06
385.787	932.06
386.013	920.06
386.238	947.06
386.463	953.06
386.688	948.06
386.913	912.06
387.138	911.06
387.363	893.06
387.588	929.06
387.813	917.06
388.038	906.06
388.263	916.06
388.488	932.06
388.713	913.06
388.938	902.06
389.163	901.06
389.387	886.06
389.612	894.06
389.837	876.06
390.062	899.06
390.287	914.06
390.512	933.06
390.736	930.06
390.961	944.06
391.186	956.06
391.411	977.06
391.636	1015.06
391.86	1035.06
392.085	1061.06
392.31	1040.06
392.534	1004.06
392.759	997.06
392.984	984.06
393.208	990.06
393.433	951.06
393.658	1002.06
393.882	982.06
394.107	1003.06
394.331	996.06
394.556	1014.06
394.78	982.06
395.005	1015.06
395.229	1006.06
395.454	1025.06
395.678	1059.06
395.903	1036.06
396.127	1032.06
396.352	1001.06
396.576	981.06
396.801	987.06
397.025	975.06
397.249	1005.06
397.474	1026.06
397.698	1034.06
397.922	1023.06
398.147	1037.06
398.371	1054.06
398.595	1102.06
398.82	1135.06
399.044	1219.06
399.268	1344.06
399.492	1565.06
399.717	1821.06
399.941	1863.06
400.165	1604.06
400.389	1399.06
400.613	1307.06
400.837	1233.06
401.062	1154.06
401.286	1167.06
401.51	1159.06
401.734	1139.06
401.958	1168.06
402.182	1197.06
402.406	1191.06
402.63	1222.06
402.854	1251.06
403.078	1284.06
403.302	1299.06
403.526	1342.06
403.75	1384.06
403.974	1366.06
404.198	1384.06
404.422	1363.06
404.645	1388.06
404.869	1370.06
405.093	1344.06
405.317	1291.06
405.541	1305.06
405.765	1271.06
405.988	1288.06
406.212	1295.06
406.436	1269.06
406.66	1332.06
406.883	1274.06
407.107	1405.06
407.331	1445.06
407.555	1504.06
407.778	1537.06
408.002	1480.06
408.226	1448.06
408.449	1410.06
408.673	1345.06
408.896	1337.06
409.12	1311.06
409.344	1339.06
409.567	1321.06
409.791	1344.06
410.014	1309.06
410.238	1329.06
410.461	1320.06
410.685	1305.06
410.908	1292.06
411.132	1235.06
411.355	1219.06
411.578	1241.06
411.802	1212.06
412.025	1219.06
412.249	1237.06
412.472	1230.06
412.695	1181.06
412.919	1152.06
413.142	1153.06
413.365	1156.06
413.589	1165.06
413.812	1169.06
414.035	1137.06
414.258	1147.06
414.482	1150.06
414.705	1224.06
414.928	1193.06
415.151	1191.06
415.374	1192.06
415.597	1137.06
415.821	1147.06
416.044	1129.06
416.267	1115.06
416.49	1118.06
416.713	1149.06
416.936	1134.06
417.159	1105.06
417.382	1144.06
417.605	1152.06
417.828	1153.06
418.051	1165.06
418.274	1144.06
418.497	1148.06
418.72	1196.06
418.943	1197.06
419.166	1268.06
419.389	1330.06
419.611	1315.06
419.834	1241.06
420.057	1225.06
420.28	1172.06
420.503	1132.06
420.726	1150.06
420.948	1179.06
421.171	1142.06
421.394	1146.06
421.617	1157.06
421.839	1144.06
422.062	1175.06
422.285	1159.06
422.507	1162.06
422.73	1187.06
422.953	1191.06
423.175	1241.06
423.398	1239.06
423.621	1242.06
423.843	1246.06
424.066	1258.06
424.288	1229.06
424.511	1260.06
424.733	1175.06
424.956	1194.06
425.178	1174.06
425.401	1181.06
425.623	1144.06
425.846	1153.06
426.068	1121.06
426.291	1114.06
426.513	1093.06
426.735	1075.06
426.958	1060.06
427.18	1040.06
427.402	1029.06
427.625	1031.06
427.847	1017.06
428.069	1022.06
428.292	1057.06
428.514	1009.06
428.736	1013.06
428.958	1024.06
429.181	983.06
429.403	991.06
429.625	998.06
429.847	988.06
430.069	1012.06
430.292	998.06
430.514	986.06
430.736	1002.06
430.958	973.06
431.18	985.06
431.402	992.06
431.624	992.06
431.846	1027.06
432.068	1053.06
432.29	1032.06
432.512	1000.06
432.734	1018.06
432.956	1043.06
433.178	1033.06
433.4	1034.06
433.622	1033.06
433.844	1064.06
434.066	1031.06
434.287	1063.06
434.509	1113.06
434.731	1135.06
434.953	1177.06
435.175	1173.06
435.397	1177.06
435.618	1088.06
435.84	1111.06
436.062	1036.06
436.284	1040.06
436.505	1030.06
436.727	1022.06
436.949	1044.06
437.17	1046.06
437.392	1051.06
437.614	1024.06
437.835	982.06
438.057	985.06
438.278	949.06
438.5	992.06
438.721	976.06
438.943	974.06
439.165	995.06
439.386	981.06
439.608	989.06
439.829	1017.06
440.05	1016.06
440.272	1020.06
440.493	1034.06
440.715	1041.06
440.936	1078.06
441.158	1072.06
441.379	1105.06
441.6	1165.06
441.822	1165.06
442.043	1176.06
442.264	1180.06
442.486	1130.06
442.707	1167.06
442.928	1128.06
443.149	1113.06
443.371	1144.06
443.592	1171.06
443.813	1165.06
444.034	1157.06
444.255	1189.06
444.476	1282.06
444.698	1366.06
444.919	1455.06
445.14	1464.06
445.361	1309.06
445.582	1216.06
445.803	1115.06
446.024	1081.06
446.245	1097.06
446.466	1064.06
446.687	1049.06
446.908	1047.06
447.129	993.06
447.35	1005.06
447.571	991.06
447.792	966.06
448.013	992.06
448.234	959.06
448.455	957.06
448.675	922.06
448.896	967.06
449.117	913.06
449.338	931.06
449.559	935.06
449.779	936.06
450	951.06
450.221	942.06
450.442	944.06
450.662	953.06
450.883	980.06
451.104	1005.06
451.324	966.06
451.545	949.06
451.766	948.06
451.986	940.06
452.207	943.06
452.428	930.06
452.648	972.06
452.869	931.06
453.089	925.06
453.31	948.06
453.53	933.06
453.751	942.06
453.971	918.06
454.192	897.06
454.412	913.06
454.633	921.06
454.853	904.06
455.073	908.06
455.294	905.06
455.514	891.06
455.734	869.06
455.955	878.06
456.175	867.06
456.395	892.06
456.616	865.06
456.836	871.06
457.056	865.06
457.276	886.06
457.497	895.06
457.717	877.06
457.937	887.06
458.157	892.06
458.377	908.06
458.598	953.06
458.818	950.06
459.038	961.06
459.258	1023.06
459.478	1059.06
459.698	1081.06
459.918	1109.06
460.138	1163.06
460.358	1219.06
460.578	1226.06
460.798	1232.06
461.018	1264.06
461.238	1218.06
461.458	1223.06
461.678	1239.06
461.898	1247.06
462.118	1232.06
462.338	1293.06
462.558	1339.06
462.777	1382.06
462.997	1515.06
463.217	1688.06
463.437	1759.06
463.657	1576.06
463.876	1464.06
464.096	1443.06
464.316	1435.06
464.536	1482.06
464.755	1420.06
464.975	1374.06
465.195	1278.06
465.414	1223.06
465.634	1132.06
465.854	1110.06
466.073	1060.06
466.293	1053.06
466.512	1018.06
466.732	1022.06
466.951	1010.06
467.171	979.06
467.391	996.06
467.61	1017.06
467.829	965.06
468.049	966.06
468.268	959.06
468.488	943.06
468.707	966.06
468.927	943.06
469.146	923.06
469.365	947.06
469.585	938.06
469.804	1002.06
470.023	1004.06
470.243	1011.06
470.462	1047.06
470.681	1023.06
470.901	1049.06
471.12	1025.06
471.339	1000.06
471.558	963.06
471.777	972.06
471.997	953.06
472.216	979.06
472.435	958.06
472.654	957.06
472.873	928.06
473.092	921.06
473.311	907.06
473.53	915.06
473.749	917.06
473.968	896.06
474.187	913.06
474.406	919.06
474.625	921.06
474.844	903.06
475.063	925.06
475.282	914.06
475.501	927.06
475.72	950.06
475.939	939.06
476.158	943.06
476.377	957.06
476.596	960.06
476.814	992.06
477.033	959.06
477.252	1002.06
477.471	1042.06
477.69	1017.06
477.908	1068.06
478.127	1117.06
478.346	1096.06
478.564	1120.06
478.783	1141.06
479.002	1184.06
479.22	1184.06
479.439	1170.06
479.658	1132.06
479.876	1130.06
480.095	1165.06
480.313	1237.06
480.532	1247.06
480.751	1274.06
480.969	1220.06
481.188	1155.06
481.406	1128.06
481.624	1096.06
481.843	1053.06
482.061	1056.06
482.28	1049.06
482.498	1037.06
482.717	1053.06
482.935	1042.06
483.153	1053.06
483.372	1045.06
483.59	1062.06
483.808	1045.06
484.027	1038.06
484.245	1075.06
484.463	1053.06
484.681	1098.06
484.9	1090.06
485.118	1081.06
485.336	1092.06
485.554	1115.06
485.772	1104.06
485.99	1109.06
486.209	1113.06
486.427	1114.06
486.645	1142.06
486.863	1141.06
487.081	1107.06
487.299	1122.06
487.517	1101.06
487.735	1113.06
487.953	1096.06
488.171	1120.06
488.389	1099.06
488.607	1111.06
488.825	1072.06
489.043	1096.06
489.261	1087.06
489.479	1065.06
489.696	1094.06
489.914	1100.06
490.132	1120.06
490.35	1114.06
490.568	1103.06
490.786	1114.06
491.003	1094.06
491.221	1136.06
491.439	1120.06
491.657	1148.06
491.874	1116.06
492.092	1112.06
492.31	1123.06
492.527	1114.06
492.745	1172.06
492.963	1141.06
493.18	1157.06
493.398	1130.06
493.615	1175.06
493.833	1126.06
494.05	1181.06
494.268	1161.06
494.485	1176.06
494.703	1153.06
494.92	1152.06
495.138	1150.06
495.355	1159.06
495.573	1140.06
495.79	1162.06
496.008	1192.06
496.225	1202.06
496.442	1195.06
496.66	1217.06
496.877	1219.06
497.094	1254.06
497.312	1287.06
497.529	1305.06
497.746	1292.06
497.963	1332.06
498.181	1420.06
498.398	1474.06
498.615	1582.06
498.832	1687.06
499.049	1769.06
499.267	1951.06
499.484	2119.06
499.701	2387.06
499.918	2723.06
500.135	3085.06
500.352	3638.06
500.569	3767.06
500.786	3809.06
501.003	3484.06
501.22	3089.06
501.437	2690.06
501.654	2327.06
501.871	2127.06
502.088	1904.06
502.305	1753.06
502.522	1691.06
502.739	1663.06
502.956	1513.06
503.172	1411.06
503.389	1393.06
503.606	1370.06
503.823	1344.06
504.04	1326.06
504.256	1358.06
504.473	1408.06
504.69	1465.06
504.907	1439.06
505.123	1337.06
505.34	1205.06
505.557	1217.06
505.773	1143.06
505.99	1142.06
506.207	1084.06
506.423	1085.06
506.64	1063.06
506.856	1063.06
507.073	1066.06
507.289	1013.06
507.506	1060.06
507.722	1032.06
507.939	1027.06
508.155	1015.06
508.372	999.06
508.588	986.06
508.805	987.06
509.021	988.06
509.238	971.06
509.454	962.06
509.67	969.06
509.887	963.06
510.103	967.06
510.319	956.06
510.536	943.06
510.752	954.06
510.968	945.06
511.184	930.06
511.401	969.06
511.617	963.06
511.833	949.06
512.049	943.06
512.265	929.06
512.481	916.06
512.698	933.06
512.914	940.06
513.13	960.06
513.346	942.06
513.562	959.06
513.778	962.06
513.994	933.06
514.21	971.06
514.426	974.06
514.642	963.06
514.858	970.06
515.074	1001.06
515.29	1002.06
515.506	993.06
515.721	992.06
515.937	1009.06
516.153	1044.06
516.369	1096.06
516.585	1121.06
516.801	1131.06
517.016	1179.06
517.232	1246.06
517.448	1323.06
517.664	1380.06
517.879	1351.06
518.095	1352.06
518.311	1311.06
518.527	1311.06
518.742	1196.06
518.958	1173.06
519.173	1118.06
519.389	1047.06
519.605	1040.06
519.82	1014.06
520.036	1023.06
520.251	1004.06
520.467	998.06
520.682	971.06
520.898	972.06
521.113	972.06
521.329	942.06
521.544	943.06
521.76	920.06
521.975	910.06
522.19	906.06
522.406	893.06
522.621	899.06
522.836	887.06
523.052	912.06
523.267	892.06
523.482	900.06
523.698	859.06
523.913	869.06
524.128	897.06
524.343	888.06
524.559	885.06
524.774	877.06
524.989	888.06
525.204	869.06
525.419	896.06
525.634	873.06
525.849	874.06
526.064	845.06
526.28	871.06
526.495	836.06
526.71	872.06
526.925	889.06
527.14	877.06
527.355	847.06
527.57	870.06
527.785	887.06
527.999	870.06
528.214	877.06
528.429	863.06
528.644	856.06
528.859	882.06
529.074	867.06
529.289	876.06
529.503	878.06
529.718	857.06
529.933	868.06
530.148	853.06
530.363	871.06
530.577	864.06
530.792	829.06
531.007	878.06
531.221	870.06
531.436	859.06
531.651	856.06
531.865	860.06
532.08	871.06
532.295	880.06
532.509	860.06
532.724	851.06
532.938	868.06
533.153	854.06
533.367	848.06
533.582	847.06
533.796	855.06
534.011	854.06
534.225	860.06
534.44	826.06
534.654	860.06
534.868	831.06
535.083	853.06
535.297	877.06
535.511	855.06
535.726	840.06
535.94	819.06
536.154	823.06
536.369	822.06
536.583	812.06
536.797	811.06
537.011	823.06
537.225	821.06
537.44	813.06
537.654	821.06
537.868	789.06
538.082	802.06
538.296	803.06
538.51	788.06
538.724	806.06
538.938	810.06
539.153	762.06
539.367	798.06
539.581	763.06
539.795	781.06
540.009	780.06
540.222	767.06
540.436	777.06
540.65	781.06
540.864	771.06
541.078	768.06
541.292	750.06
541.506	757.06
541.72	752.06
541.934	776.06
542.147	727.06
542.361	761.06
542.575	724.06
542.789	749.06
543.002	745.06
543.216	758.06
543.43	742.06
543.644	722.06
543.857	753.06
544.071	750.06
544.285	753.06
544.498	777.06
544.712	769.06
544.925	776.06
545.139	816.06
545.352	784.06
545.566	749.06
545.779	797.06
545.993	790.06
546.206	786.06
546.42	785.06
546.633	800.06
546.847	792.06
547.06	763.06
547.274	773.06
547.487	774.06
547.7	778.06
547.914	783.06
548.127	784.06
548.34	804.06
548.554	784.06
548.767	800.06
548.98	775.06
549.193	810.06
549.407	814.06
549.62	800.06
549.833	833.06
550.046	825.06
550.259	811.06
550.473	785.06
550.686	775.06
550.899	761.06
551.112	758.06
551.325	779.06
551.538	776.06
551.751	764.06
551.964	765.06
552.177	792.06
552.39	797.06
552.603	821.06
552.816	823.06
553.029	829.06
553.242	873.06
553.455	883.06
553.667	887.06
553.88	864.06
554.093	861.06
554.306	820.06
554.519	803.06
554.732	795.06
554.944	768.06
555.157	769.06
555.37	757.06
555.583	735.06
555.795	737.06
556.008	708.06
556.221	701.06
556.433	697.06
556.646	688.06
556.859	706.06
557.071	683.06
557.284	679.06
557.496	665.06
557.709	657.06
557.921	661.06
558.134	687.06
558.346	677.06
558.559	661.06
558.771	685.06
558.984	683.06
559.196	663.06
559.409	659.06
559.621	645.06
559.833	666.06
560.046	641.06
560.258	647.06
560.47	645.06
560.683	668.06
560.895	635.06
561.107	642.06
561.32	636.06
561.532	640.06
561.744	647.06
561.956	662.06
562.168	634.06
562.381	643.06
562.593	636.06
562.805	664.06
563.017	673.06
563.229	655.06
563.441	666.06
563.653	661.06
563.865	667.06
564.077	691.06
564.289	684.06
564.501	669.06
564.713	692.06
564.925	703.06
565.137	697.06
565.349	754.06
565.561	761.06
565.773	754.06
565.985	821.06
566.197	855.06
566.408	891.06
566.62	1005.06
566.832	1094.06
567.044	1132.06
567.255	1104.06
567.467	1096.06
567.679	1193.06
567.891	1325.06
568.102	1397.06
568.314	1333.06
568.526	1150.06
568.737	1052.06
568.949	928.06
569.161	859.06
569.372	790.06
569.584	757.06
569.795	702.06
570.007	699.06
570.218	679.06
570.43	668.06
570.641	660.06
570.853	687.06
571.064	712.06
571.276	689.06
571.487	670.06
571.698	633.06
571.91	615.06
572.121	595.06
572.333	587.06
572.544	574.06
572.755	546.06
572.966	548.06
573.178	566.06
573.389	556.06
573.6	555.06
573.811	540.06
574.023	564.06
574.234	521.06
574.445	533.06
574.656	543.06
574.867	553.06
575.078	555.06
575.289	552.06
575.501	535.06
575.712	528.06
575.923	543.06
576.134	528.06
576.345	510.06
576.556	533.06
576.767	507.06
576.978	506.06
577.188	521.06
577.399	493.06
577.61	481.06
577.821	491.06
578.032	485.06
578.243	481.06
578.454	494.06
578.665	470.06
578.875	468.06
579.086	467.06
579.297	460.06
579.508	488.06
579.718	480.06
579.929	476.06
580.14	476.06
580.35	483.06
580.561	453.06
580.772	456.06
580.982	484.06
581.193	466.06
581.403	460.06
581.614	469.06
581.825	462.06
582.035	469.06
582.246	473.06
582.456	449.06
582.667	463.06
582.877	443.06
583.087	454.06
583.298	464.06
583.508	456.06
583.719	436.06
583.929	441.06
584.139	429.06
584.35	439.06
584.56	455.06
584.77	459.06
584.981	438.06
585.191	451.06
585.401	447.06
585.611	475.06
585.821	435.06
586.032	443.06
586.242	437.06
586.452	449.06
586.662	414.06
586.872	447.06
587.082	433.06
587.292	429.06
587.502	435.06
587.713	437.06
587.923	432.06
588.133	442.06
588.343	452.06
588.553	433.06
588.762	430.06
588.972	430.06
589.182	431.06
589.392	438.06
589.602	439.06
589.812	411.06
590.022	433.06
590.232	436.06
590.441	437.06
590.651	432.06
590.861	430.06
591.071	451.06
591.281	439.06
591.49	453.06
591.7	449.06
591.91	468.06
592.119	456.06
592.329	484.06
592.539	504.06
592.748	508.06
592.958	521.06
593.167	520.06
593.377	548.06
593.587	584.06
593.796	557.06
594.006	575.06
594.215	603.06
594.424	573.06
594.634	572.06
594.843	535.06
595.053	529.06
595.262	501.06
595.472	472.06
595.681	469.06
595.89	447.06
596.1	435.06
596.309	438.06
596.518	422.06
596.727	392.06
596.937	404.06
597.146	411.06
597.355	416.06
597.564	399.06
597.774	382.06
597.983	388.06
598.192	397.06
598.401	382.06
598.61	396.06
598.819	401.06
599.028	387.06
599.237	379.06
599.446	370.06
599.655	372.06
599.864	368.06
600.073	377.06
600.282	361.06
600.491	367.06
600.7	364.06
600.909	352.06
601.118	364.06
601.327	384.06
601.536	359.06
601.745	371.06
601.953	338.06
602.162	364.06
602.371	349.06
602.58	340.06
602.789	357.06
602.997	376.06
603.206	351.06
603.415	341.06
603.623	334.06
603.832	348.06
604.041	361.06
604.249	348.06
604.458	333.06
604.666	363.06
604.875	350.06
605.084	341.06
605.292	348.06
605.501	338.06
605.709	356.06
605.918	335.06
606.126	340.06
606.334	339.06
606.543	338.06
606.751	333.06
606.96	335.06
607.168	338.06
607.376	326.06
607.585	319.06
607.793	332.06
608.001	317.06
608.21	339.06
608.418	318.06
608.626	325.06
608.834	326.06
609.043	330.06
609.251	326.06
609.459	328.06
609.667	342.06
609.875	328.06
610.083	329.06
610.291	325.06
610.499	347.06
610.707	344.06
610.916	327.06
611.124	319.06
611.332	332.06
611.54	333.06
611.748	311.06
611.955	321.06
612.163	307.06
612.371	313.06
612.579	318.06
612.787	332.06
612.995	313.06
613.203	316.06
613.411	311.06
613.618	330.06
613.826	321.06
614.034	318.06
614.242	326.06
614.449	294.06
614.657	327.06
614.865	329.06
615.072	321.06
615.28	328.06
615.488	319.06
615.695	304.06
615.903	316.06
616.111	311.06
616.318	322.06
616.526	312.06
616.733	314.06
616.941	314.06
617.148	327.06
617.356	323.06
617.563	318.06
617.771	335.06
617.978	326.06
618.185	317.06
618.393	313.06
618.6	309.06
618.807	331.06
619.015	309.06
619.222	338.06
619.429	297.06
619.637	313.06
619.844	313.06
620.051	308.06
620.258	303.06
620.466	325.06
620.673	294.06
620.88	287.06
621.087	293.06
621.294	284.06
621.501	279.06
621.708	284.06
621.915	299.06
622.122	308.06
622.329	283.06
622.536	277.06
622.743	280.06
622.95	286.06
623.157	284.06
623.364	273.06
623.571	292.06
623.778	273.06
623.985	277.06
624.192	291.06
624.399	277.06
624.606	291.06
624.812	288.06
625.019	278.06
625.226	303.06
625.433	273.06
625.639	277.06
625.846	284.06
626.053	259.06
626.259	272.06
626.466	268.06
626.673	267.06
626.879	250.06
627.086	264.06
627.293	262.06
627.499	260.06
627.706	259.06
627.912	279.06
628.119	279.06
628.325	248.06
628.532	263.06
628.738	268.06
628.945	250.06
629.151	249.06
629.357	259.06
629.564	243.06
629.77	267.06
629.976	257.06
630.183	269.06
630.389	255.06
630.595	238.06
630.802	222.06
631.008	251.06
631.214	248.06
631.42	250.06
631.627	249.06
631.833	242.06
632.039	240.06
632.245	237.06
632.451	262.06
632.657	240.06
632.863	234.06
633.069	223.06
633.275	229.06
633.481	234.06
633.688	218.06
633.893	221.06
634.099	220.06
634.305	240.06
634.511	239.06
634.717	229.06
634.923	214.06
635.129	228.06
635.335	232.06
635.541	230.06
635.747	231.06
635.952	217.06
636.158	224.06
636.364	235.06
636.57	205.06
636.775	218.06
636.981	219.06
637.187	241.06
637.392	237.06
637.598	231.06
637.804	206.06
638.009	225.06
638.215	230.06
638.421	209.06
638.626	230.06
638.832	222.06
639.037	222.06
639.243	208.06
639.448	220.06
639.654	219.06
639.859	224.06
640.065	223.06
640.27	200.06
640.475	210.06
640.681	220.06
640.886	220.06
641.091	216.06
641.297	207.06
641.502	205.06
641.707	215.06
641.913	196.06
642.118	200.06
642.323	216.06
642.528	214.06
642.733	209.06
642.939	206.06
643.144	216.06
643.349	207.06
643.554	207.06
643.759	202.06
643.964	224.06
644.169	202.06
644.374	186.06
644.579	203.06
644.784	207.06
644.989	205.06
645.194	193.06
645.399	188.06
645.604	186.06
645.809	183.06
646.014	182.06
646.219	197.06
646.423	219.06
646.628	215.06
646.833	206.06
647.038	212.06
647.243	202.06
647.447	210.06
647.652	213.06
647.857	209.06
648.062	206.06
648.266	230.06
648.471	224.06
648.676	235.06
648.88	226.06
649.085	202.06
649.289	197.06
649.494	198.06
649.698	197.06
649.903	209.06
650.107	198.06
650.312	198.06
650.516	198.06
650.721	198.06
650.925	190.06
651.13	193.06
651.334	189.06
651.539	187.06
651.743	175.06
651.947	180.06
652.152	158.06
652.356	173.06
652.56	174.06
652.764	170.06
652.969	165.06
653.173	159.06
653.377	156.06
653.581	163.06
653.785	152.06
653.99	155.06
654.194	148.06
654.398	157.06
654.602	167.06
654.806	151.06
655.01	149.06
655.214	134.06
655.418	153.06
655.622	154.06
655.826	132.06
656.03	134.06
656.234	134.06
656.438	142.06
656.642	151.06
656.846	121.06
657.049	144.06
657.253	126.06
657.457	129.06
657.661	114.06
657.865	125.06
658.068	123.06
658.272	120.06
658.476	103.06
658.68	119.06
658.883	108.06
659.087	115.06
659.291	122.06
659.494	107.06
659.698	106.06
659.901	103.06
660.105	92.06
660.309	94.06
660.512	100.06
660.716	99.06
660.919	90.06
661.123	87.06
661.326	85.06
661.53	85.06
661.733	94.06
661.936	79.06
662.14	88.06
662.343	91.06
662.546	89.06
662.75	88.06
662.953	84.06
663.156	103.06
663.36	78.06
663.563	80.06
663.766	84.06
663.969	97.06
664.173	79.06
664.376	75.06
664.579	90.06
664.782	91.06
664.985	78.06
665.188	79.06
665.391	86.06
665.594	72.06
665.797	76.06
666	81.06
666.203	74.06
666.406	82.06
666.609	83.06
666.812	82.06
667.015	87.06
667.218	97.06
667.421	83.06
667.624	93.06
667.827	88.06
668.03	79.06
668.232	85.06
668.435	94.06
668.638	97.06
668.841	89.06
669.043	74.06
669.246	94.06
669.449	95.06
669.651	82.06
669.854	89.06
670.057	93.06
670.259	87.06
670.462	78.06
670.665	98.06
670.867	82.06
671.07	89.06
671.272	92.06
671.475	90.06
671.677	71.06
671.88	99.06
672.082	89.06
672.284	101.06
672.487	71.06
672.689	75.06
672.892	96.06
