Data from Ni(NO3)2@0.5M.TitratingCurve.Agarose3%dH2O.NegLispCup.LampEnergy10.LIBS07252019_HRD10591_17-59-37-564.txt Node
Date: Thu Jul 25 17:59:37 EDT 2019
User: cochatt
Spectrometer: HR+D1059
Trigger mode: 1
Integration Time (sec): 1.000000E-1
Scans to average: 1
Electric dark correction enabled: true
Nonlinearity correction enabled: false
Boxcar width: 0
XAxis mode: Wavelengths
Number of Pixels in Spectrum: 2048
>>>>>Begin Spectral Data<<<<<
223.165	-16.56
223.4	-16.56
223.635	-16.56
223.869	-21.56
224.104	-27.56
224.338	-4.56
224.573	1.44
224.808	-19.56
225.042	-20.56
225.277	-4.56
225.511	-0.56
225.746	14.44
225.98	6.44
226.215	11.44
226.449	10.44
226.683	20.44
226.918	28.44
227.152	22.44
227.387	41.44
227.621	41.44
227.856	53.44
228.09	62.44
228.324	69.44
228.559	45.44
228.793	72.44
229.027	117.44
229.262	118.44
229.496	124.44
229.73	130.44
229.964	154.44
230.199	168.44
230.433	174.44
230.667	171.44
230.901	172.44
231.136	167.44
231.37	142.44
231.604	154.44
231.838	173.44
232.072	196.44
232.306	175.44
232.541	164.44
232.775	137.44
233.009	152.44
233.243	158.44
233.477	137.44
233.711	158.44
233.945	141.44
234.179	161.44
234.413	161.44
234.647	164.44
234.881	156.44
235.115	166.44
235.349	140.44
235.583	147.44
235.817	144.44
236.051	152.44
236.285	139.44
236.519	166.44
236.753	162.44
236.987	146.44
237.221	166.44
237.455	158.44
237.689	146.44
237.922	161.44
238.156	170.44
238.39	145.44
238.624	160.44
238.858	152.44
239.091	161.44
239.325	163.44
239.559	178.44
239.793	202.44
240.027	204.44
240.26	165.44
240.494	181.44
240.728	171.44
240.961	186.44
241.195	172.44
241.429	174.44
241.662	177.44
241.896	202.44
242.13	204.44
242.363	182.44
242.597	184.44
242.83	168.44
243.064	178.44
243.298	192.44
243.531	182.44
243.765	177.44
243.998	208.44
244.232	199.44
244.465	202.44
244.699	198.44
244.932	183.44
245.166	182.44
245.399	204.44
245.633	192.44
245.866	207.44
246.099	198.44
246.333	202.44
246.566	196.44
246.8	184.44
247.033	204.44
247.266	212.44
247.5	208.44
247.733	196.44
247.966	215.44
248.2	219.44
248.433	215.44
248.666	216.44
248.899	203.44
249.133	204.44
249.366	224.44
249.599	233.44
249.832	229.44
250.066	227.44
250.299	209.44
250.532	217.44
250.765	244.44
250.998	245.44
251.231	262.44
251.465	280.44
251.698	237.44
251.931	259.44
252.164	234.44
252.397	239.44
252.63	253.44
252.863	229.44
253.096	252.44
253.329	228.44
253.562	253.44
253.795	259.44
254.028	239.44
254.261	262.44
254.494	230.44
254.727	245.44
254.96	245.44
255.193	263.44
255.426	264.44
255.659	262.44
255.892	264.44
256.124	263.44
256.357	266.44
256.59	252.44
256.823	255.44
257.056	271.44
257.289	265.44
257.521	279.44
257.754	273.44
257.987	276.44
258.22	275.44
258.452	277.44
258.685	281.44
258.918	272.44
259.151	269.44
259.383	295.44
259.616	277.44
259.849	287.44
260.081	270.44
260.314	280.44
260.547	293.44
260.779	273.44
261.012	282.44
261.244	292.44
261.477	311.44
261.71	300.44
261.942	303.44
262.175	283.44
262.407	294.44
262.64	302.44
262.872	301.44
263.105	314.44
263.337	310.44
263.57	302.44
263.802	301.44
264.035	313.44
264.267	323.44
264.499	309.44
264.732	301.44
264.964	302.44
265.197	318.44
265.429	336.44
265.661	302.44
265.894	319.44
266.126	324.44
266.358	330.44
266.591	315.44
266.823	337.44
267.055	309.44
267.287	320.44
267.52	312.44
267.752	329.44
267.984	328.44
268.216	323.44
268.448	327.44
268.681	338.44
268.913	336.44
269.145	326.44
269.377	335.44
269.609	349.44
269.841	332.44
270.073	337.44
270.306	338.44
270.538	321.44
270.77	344.44
271.002	344.44
271.234	357.44
271.466	343.44
271.698	327.44
271.93	357.44
272.162	356.44
272.394	337.44
272.626	363.44
272.858	337.44
273.09	330.44
273.322	357.44
273.553	364.44
273.785	350.44
274.017	359.44
274.249	364.44
274.481	378.44
274.713	364.44
274.945	357.44
275.176	374.44
275.408	370.44
275.64	367.44
275.872	364.44
276.104	373.44
276.335	387.44
276.567	389.44
276.799	376.44
277.031	368.44
277.262	383.44
277.494	399.44
277.726	383.44
277.957	377.44
278.189	386.44
278.421	377.44
278.652	393.44
278.884	393.44
279.115	394.44
279.347	399.44
279.579	390.44
279.81	391.44
280.042	398.44
280.273	390.44
280.505	414.44
280.736	411.44
280.968	392.44
281.199	388.44
281.431	408.44
281.662	394.44
281.894	423.44
282.125	404.44
282.356	417.44
282.588	406.44
282.819	409.44
283.051	412.44
283.282	436.44
283.513	410.44
283.745	409.44
283.976	428.44
284.207	428.44
284.439	425.44
284.67	433.44
284.901	421.44
285.132	412.44
285.364	422.44
285.595	421.44
285.826	429.44
286.057	432.44
286.288	428.44
286.52	430.44
286.751	445.44
286.982	416.44
287.213	436.44
287.444	457.44
287.675	422.44
287.906	459.44
288.138	449.44
288.369	452.44
288.6	439.44
288.831	416.44
289.062	446.44
289.293	440.44
289.524	448.44
289.755	434.44
289.986	456.44
290.217	443.44
290.448	445.44
290.679	471.44
290.91	443.44
291.141	470.44
291.371	464.44
291.602	454.44
291.833	441.44
292.064	446.44
292.295	480.44
292.526	466.44
292.757	473.44
292.987	432.44
293.218	469.44
293.449	469.44
293.68	484.44
293.91	476.44
294.141	463.44
294.372	479.44
294.603	466.44
294.833	476.44
295.064	480.44
295.295	469.44
295.525	474.44
295.756	470.44
295.987	461.44
296.217	493.44
296.448	455.44
296.679	469.44
296.909	477.44
297.14	477.44
297.37	482.44
297.601	498.44
297.831	481.44
298.062	497.44
298.292	497.44
298.523	509.44
298.753	502.44
298.984	499.44
299.214	496.44
299.445	478.44
299.675	497.44
299.905	489.44
300.136	504.44
300.366	542.44
300.597	530.44
300.827	517.44
301.057	547.44
301.288	505.44
301.518	537.44
301.748	502.44
301.979	511.44
302.209	521.44
302.439	525.44
302.669	513.44
302.9	489.44
303.13	500.44
303.36	511.44
303.59	536.44
303.82	542.44
304.051	540.44
304.281	539.44
304.511	536.44
304.741	524.44
304.971	530.44
305.201	528.44
305.431	535.44
305.661	556.44
305.891	548.44
306.121	541.44
306.352	534.44
306.582	517.44
306.812	518.44
307.042	526.44
307.272	505.44
307.502	512.44
307.731	520.44
307.961	524.44
308.191	529.44
308.421	524.44
308.651	505.44
308.881	543.44
309.111	553.44
309.341	538.44
309.571	545.44
309.8	544.44
310.03	547.44
310.26	567.44
310.49	568.44
310.72	561.44
310.949	544.44
311.179	540.44
311.409	545.44
311.639	549.44
311.868	535.44
312.098	521.44
312.328	557.44
312.557	553.44
312.787	575.44
313.017	566.44
313.246	575.44
313.476	585.44
313.706	584.44
313.935	547.44
314.165	578.44
314.394	581.44
314.624	577.44
314.853	573.44
315.083	595.44
315.312	566.44
315.542	582.44
315.771	579.44
316.001	559.44
316.23	566.44
316.46	562.44
316.689	595.44
316.919	586.44
317.148	588.44
317.377	574.44
317.607	566.44
317.836	570.44
318.065	599.44
318.295	588.44
318.524	591.44
318.753	579.44
318.983	577.44
319.212	568.44
319.441	574.44
319.67	588.44
319.9	582.44
320.129	578.44
320.358	585.44
320.587	606.44
320.816	577.44
321.046	600.44
321.275	609.44
321.504	600.44
321.733	608.44
321.962	605.44
322.191	574.44
322.42	624.44
322.649	589.44
322.878	605.44
323.108	608.44
323.337	645.44
323.566	636.44
323.795	620.44
324.024	618.44
324.253	624.44
324.482	618.44
324.71	612.44
324.939	612.44
325.168	639.44
325.397	641.44
325.626	637.44
325.855	632.44
326.084	632.44
326.313	640.44
326.542	641.44
326.77	635.44
326.999	624.44
327.228	640.44
327.457	620.44
327.686	634.44
327.914	634.44
328.143	630.44
328.372	636.44
328.6	662.44
328.829	655.44
329.058	613.44
329.287	661.44
329.515	660.44
329.744	659.44
329.972	670.44
330.201	655.44
330.43	670.44
330.658	663.44
330.887	645.44
331.115	655.44
331.344	678.44
331.572	658.44
331.801	671.44
332.03	686.44
332.258	712.44
332.486	692.44
332.715	721.44
332.943	719.44
333.172	730.44
333.4	732.44
333.629	720.44
333.857	735.44
334.085	737.44
334.314	747.44
334.542	776.44
334.771	763.44
334.999	776.44
335.227	769.44
335.455	761.44
335.684	734.44
335.912	745.44
336.14	757.44
336.369	751.44
336.597	748.44
336.825	762.44
337.053	749.44
337.281	769.44
337.51	756.44
337.738	742.44
337.966	738.44
338.194	743.44
338.422	736.44
338.65	699.44
338.878	706.44
339.106	741.44
339.334	719.44
339.562	717.44
339.79	728.44
340.018	721.44
340.246	677.44
340.474	712.44
340.702	727.44
340.93	709.44
341.158	711.44
341.386	719.44
341.614	773.44
341.842	740.44
342.07	698.44
342.298	680.44
342.526	715.44
342.754	714.44
342.981	689.44
343.209	708.44
343.437	703.44
343.665	761.44
343.893	763.44
344.12	758.44
344.348	734.44
344.576	762.44
344.804	761.44
345.031	742.44
345.259	723.44
345.487	743.44
345.714	727.44
345.942	729.44
346.17	747.44
346.397	698.44
346.625	700.44
346.853	692.44
347.08	697.44
347.308	667.44
347.535	711.44
347.763	678.44
347.99	672.44
348.218	677.44
348.445	705.44
348.673	670.44
348.9	668.44
349.128	674.44
349.355	694.44
349.583	705.44
349.81	681.44
350.037	662.44
350.265	646.44
350.492	656.44
350.72	701.44
350.947	679.44
351.174	694.44
351.402	705.44
351.629	708.44
351.856	702.44
352.083	667.44
352.311	701.44
352.538	729.44
352.765	712.44
352.992	673.44
353.22	659.44
353.447	626.44
353.674	658.44
353.901	677.44
354.128	638.44
354.355	661.44
354.583	658.44
354.81	654.44
355.037	677.44
355.264	655.44
355.491	650.44
355.718	664.44
355.945	663.44
356.172	667.44
356.399	686.44
356.626	682.44
356.853	693.44
357.08	656.44
357.307	640.44
357.534	685.44
357.761	672.44
357.988	660.44
358.215	659.44
358.441	638.44
358.668	632.44
358.895	637.44
359.122	654.44
359.349	665.44
359.576	671.44
359.802	657.44
360.029	676.44
360.256	690.44
360.483	644.44
360.709	658.44
360.936	698.44
361.163	694.44
361.39	661.44
361.616	708.44
361.843	692.44
362.07	692.44
362.296	700.44
362.523	659.44
362.749	662.44
362.976	669.44
363.203	667.44
363.429	664.44
363.656	648.44
363.882	666.44
364.109	670.44
364.335	665.44
364.562	651.44
364.788	657.44
365.015	656.44
365.241	661.44
365.468	644.44
365.694	672.44
365.92	650.44
366.147	689.44
366.373	674.44
366.599	668.44
366.826	668.44
367.052	678.44
367.278	682.44
367.505	680.44
367.731	673.44
367.957	678.44
368.184	669.44
368.41	678.44
368.636	671.44
368.862	693.44
369.089	692.44
369.315	673.44
369.541	709.44
369.767	690.44
369.993	701.44
370.219	672.44
370.445	699.44
370.672	693.44
370.898	684.44
371.124	710.44
371.35	709.44
371.576	719.44
371.802	708.44
372.028	699.44
372.254	709.44
372.48	708.44
372.706	721.44
372.932	709.44
373.158	712.44
373.384	722.44
373.61	709.44
373.835	714.44
374.061	733.44
374.287	717.44
374.513	733.44
374.739	725.44
374.965	746.44
375.191	734.44
375.416	737.44
375.642	716.44
375.868	712.44
376.094	717.44
376.319	706.44
376.545	712.44
376.771	716.44
376.997	703.44
377.222	704.44
377.448	709.44
377.674	721.44
377.899	712.44
378.125	694.44
378.35	703.44
378.576	710.44
378.802	674.44
379.027	710.44
379.253	692.44
379.478	693.44
379.704	683.44
379.929	703.44
380.155	712.44
380.38	717.44
380.606	703.44
380.831	699.44
381.057	715.44
381.282	710.44
381.507	689.44
381.733	698.44
381.958	710.44
382.184	710.44
382.409	728.44
382.634	715.44
382.86	696.44
383.085	732.44
383.31	720.44
383.535	749.44
383.761	740.44
383.986	758.44
384.211	746.44
384.436	766.44
384.662	756.44
384.887	778.44
385.112	767.44
385.337	786.44
385.562	785.44
385.787	800.44
386.013	810.44
386.238	814.44
386.463	824.44
386.688	814.44
386.913	805.44
387.138	805.44
387.363	800.44
387.588	816.44
387.813	822.44
388.038	781.44
388.263	788.44
388.488	800.44
388.713	793.44
388.938	794.44
389.163	805.44
389.387	822.44
389.612	788.44
389.837	813.44
390.062	782.44
390.287	826.44
390.512	794.44
390.736	812.44
390.961	826.44
391.186	786.44
391.411	810.44
391.636	812.44
391.86	829.44
392.085	856.44
392.31	866.44
392.534	860.44
392.759	865.44
392.984	842.44
393.208	844.44
393.433	821.44
393.658	867.44
393.882	830.44
394.107	837.44
394.331	810.44
394.556	830.44
394.78	842.44
395.005	826.44
395.229	821.44
395.454	866.44
395.678	854.44
395.903	857.44
396.127	848.44
396.352	870.44
396.576	882.44
396.801	878.44
397.025	851.44
397.249	886.44
397.474	873.44
397.698	888.44
397.922	900.44
398.147	885.44
398.371	909.44
398.595	940.44
398.82	936.44
399.044	968.44
399.268	1008.44
399.492	1042.44
399.717	1061.44
399.941	1107.44
400.165	1092.44
400.389	1024.44
400.613	1033.44
400.837	964.44
401.062	975.44
401.286	964.44
401.51	918.44
401.734	928.44
401.958	941.44
402.182	937.44
402.406	937.44
402.63	935.44
402.854	956.44
403.078	965.44
403.302	941.44
403.526	949.44
403.75	963.44
403.974	955.44
404.198	970.44
404.422	956.44
404.645	956.44
404.869	961.44
405.093	967.44
405.317	944.44
405.541	977.44
405.765	1002.44
405.988	1020.44
406.212	982.44
406.436	977.44
406.66	1017.44
406.883	1031.44
407.107	1073.44
407.331	1081.44
407.555	1097.44
407.778	1097.44
408.002	1064.44
408.226	1080.44
408.449	1096.44
408.673	1043.44
408.896	1021.44
409.12	996.44
409.344	1034.44
409.567	1029.44
409.791	1017.44
410.014	992.44
410.238	975.44
410.461	974.44
410.685	983.44
410.908	999.44
411.132	993.44
411.355	981.44
411.578	983.44
411.802	981.44
412.025	965.44
412.249	1009.44
412.472	998.44
412.695	978.44
412.919	957.44
413.142	984.44
413.365	952.44
413.589	967.44
413.812	941.44
414.035	946.44
414.258	932.44
414.482	959.44
414.705	962.44
414.928	937.44
415.151	958.44
415.374	954.44
415.597	936.44
415.821	938.44
416.044	920.44
416.267	901.44
416.49	925.44
416.713	902.44
416.936	936.44
417.159	900.44
417.382	937.44
417.605	911.44
417.828	910.44
418.051	940.44
418.274	900.44
418.497	898.44
418.72	927.44
418.943	902.44
419.166	950.44
419.389	997.44
419.611	990.44
419.834	956.44
420.057	950.44
420.28	931.44
420.503	900.44
420.726	905.44
420.948	924.44
421.171	913.44
421.394	892.44
421.617	897.44
421.839	928.44
422.062	939.44
422.285	884.44
422.507	890.44
422.73	916.44
422.953	931.44
423.175	901.44
423.398	923.44
423.621	914.44
423.843	906.44
424.066	917.44
424.288	899.44
424.511	923.44
424.733	884.44
424.956	912.44
425.178	902.44
425.401	920.44
425.623	912.44
425.846	908.44
426.068	897.44
426.291	878.44
426.513	885.44
426.735	895.44
426.958	889.44
427.18	895.44
427.402	892.44
427.625	872.44
427.847	865.44
428.069	866.44
428.292	885.44
428.514	860.44
428.736	876.44
428.958	897.44
429.181	820.44
429.403	849.44
429.625	838.44
429.847	874.44
430.069	870.44
430.292	866.44
430.514	864.44
430.736	873.44
430.958	873.44
431.18	860.44
431.402	858.44
431.624	878.44
431.846	864.44
432.068	896.44
432.29	897.44
432.512	866.44
432.734	896.44
432.956	881.44
433.178	936.44
433.4	891.44
433.622	902.44
433.844	913.44
434.066	894.44
434.287	904.44
434.509	910.44
434.731	920.44
434.953	939.44
435.175	933.44
435.397	935.44
435.618	912.44
435.84	918.44
436.062	898.44
436.284	878.44
436.505	860.44
436.727	893.44
436.949	891.44
437.17	901.44
437.392	859.44
437.614	852.44
437.835	844.44
438.057	854.44
438.278	844.44
438.5	846.44
438.721	825.44
438.943	854.44
439.165	858.44
439.386	851.44
439.608	862.44
439.829	871.44
440.05	869.44
440.272	876.44
440.493	882.44
440.715	922.44
440.936	875.44
441.158	879.44
441.379	889.44
441.6	952.44
441.822	924.44
442.043	939.44
442.264	915.44
442.486	917.44
442.707	911.44
442.928	898.44
443.149	920.44
443.371	949.44
443.592	999.44
443.813	968.44
444.034	938.44
444.255	930.44
444.476	957.44
444.698	988.44
444.919	1018.44
445.14	1101.44
445.361	1041.44
445.582	964.44
445.803	926.44
446.024	915.44
446.245	912.44
446.466	876.44
446.687	872.44
446.908	861.44
447.129	873.44
447.35	863.44
447.571	849.44
447.792	829.44
448.013	840.44
448.234	820.44
448.455	831.44
448.675	828.44
448.896	812.44
449.117	828.44
449.338	810.44
449.559	796.44
449.779	803.44
450	762.44
450.221	794.44
450.442	808.44
450.662	793.44
450.883	849.44
451.104	820.44
451.324	815.44
451.545	787.44
451.766	796.44
451.986	798.44
452.207	795.44
452.428	801.44
452.648	798.44
452.869	779.44
453.089	790.44
453.31	801.44
453.53	757.44
453.751	779.44
453.971	761.44
454.192	802.44
454.412	787.44
454.633	789.44
454.853	758.44
455.073	791.44
455.294	734.44
455.514	777.44
455.734	794.44
455.955	830.44
456.175	806.44
456.395	761.44
456.616	748.44
456.836	739.44
457.056	769.44
457.276	757.44
457.497	764.44
457.717	808.44
457.937	808.44
458.157	773.44
458.377	796.44
458.598	808.44
458.818	822.44
459.038	834.44
459.258	852.44
459.478	865.44
459.698	958.44
459.918	934.44
460.138	942.44
460.358	947.44
460.578	942.44
460.798	978.44
461.018	1003.44
461.238	966.44
461.458	944.44
461.678	912.44
461.898	928.44
462.118	964.44
462.338	965.44
462.558	1031.44
462.777	1040.44
462.997	1089.44
463.217	1105.44
463.437	1127.44
463.657	1121.44
463.876	1012.44
464.096	1043.44
464.316	1041.44
464.536	1042.44
464.755	1028.44
464.975	991.44
465.195	954.44
465.414	920.44
465.634	867.44
465.854	906.44
466.073	889.44
466.293	858.44
466.512	856.44
466.732	841.44
466.951	848.44
467.171	882.44
467.391	844.44
467.61	825.44
467.829	849.44
468.049	820.44
468.268	820.44
468.488	800.44
468.707	829.44
468.927	830.44
469.146	840.44
469.365	871.44
469.585	839.44
469.804	814.44
470.023	854.44
470.243	854.44
470.462	844.44
470.681	839.44
470.901	856.44
471.12	838.44
471.339	854.44
471.558	860.44
471.777	863.44
471.997	858.44
472.216	823.44
472.435	833.44
472.654	806.44
472.873	834.44
473.092	840.44
473.311	837.44
473.53	816.44
473.749	845.44
473.968	828.44
474.187	817.44
474.406	826.44
474.625	850.44
474.844	857.44
475.063	849.44
475.282	868.44
475.501	844.44
475.72	859.44
475.939	872.44
476.158	866.44
476.377	865.44
476.596	875.44
476.814	884.44
477.033	894.44
477.252	912.44
477.471	907.44
477.69	903.44
477.908	966.44
478.127	938.44
478.346	961.44
478.564	959.44
478.783	994.44
479.002	989.44
479.22	1032.44
479.439	1022.44
479.658	998.44
479.876	991.44
480.095	964.44
480.313	1001.44
480.532	991.44
480.751	1019.44
480.969	997.44
481.188	1018.44
481.406	987.44
481.624	980.44
481.843	988.44
482.061	975.44
482.28	991.44
482.498	988.44
482.717	1002.44
482.935	1017.44
483.153	1011.44
483.372	1027.44
483.59	1061.44
483.808	1016.44
484.027	999.44
484.245	1015.44
484.463	986.44
484.681	1036.44
484.9	1012.44
485.118	995.44
485.336	1040.44
485.554	1001.44
485.772	1007.44
485.99	1013.44
486.209	1009.44
486.427	1038.44
486.645	1047.44
486.863	1028.44
487.081	1017.44
487.299	1046.44
487.517	1041.44
487.735	1030.44
487.953	1059.44
488.171	1065.44
488.389	1007.44
488.607	1028.44
488.825	1049.44
489.043	985.44
489.261	1037.44
489.479	1054.44
489.696	1010.44
489.914	1045.44
490.132	1034.44
490.35	1007.44
490.568	984.44
490.786	1015.44
491.003	1046.44
491.221	1043.44
491.439	1067.44
491.657	1016.44
491.874	1045.44
492.092	1081.44
492.31	1087.44
492.527	1032.44
492.745	1066.44
492.963	1047.44
493.18	1041.44
493.398	1048.44
493.615	1061.44
493.833	1055.44
494.05	1069.44
494.268	1056.44
494.485	1050.44
494.703	1078.44
494.92	1060.44
495.138	1071.44
495.355	1063.44
495.573	1076.44
495.79	1089.44
496.008	1079.44
496.225	1085.44
496.442	1096.44
496.66	1120.44
496.877	1048.44
497.094	1106.44
497.312	1126.44
497.529	1118.44
497.746	1152.44
497.963	1196.44
498.181	1218.44
498.398	1241.44
498.615	1272.44
498.832	1302.44
499.049	1339.44
499.267	1412.44
499.484	1507.44
499.701	1595.44
499.918	1632.44
500.135	1696.44
500.352	1829.44
500.569	1820.44
500.786	1796.44
501.003	1756.44
501.22	1699.44
501.437	1649.44
501.654	1532.44
501.871	1466.44
502.088	1413.44
502.305	1376.44
502.522	1366.44
502.739	1272.44
502.956	1225.44
503.172	1208.44
503.389	1159.44
503.606	1169.44
503.823	1124.44
504.04	1144.44
504.256	1140.44
504.473	1097.44
504.69	1069.44
504.907	1048.44
505.123	1030.44
505.34	1021.44
505.557	1002.44
505.773	991.44
505.99	977.44
506.207	954.44
506.423	932.44
506.64	943.44
506.856	909.44
507.073	929.44
507.289	904.44
507.506	916.44
507.722	900.44
507.939	903.44
508.155	883.44
508.372	922.44
508.588	890.44
508.805	901.44
509.021	870.44
509.238	857.44
509.454	870.44
509.67	857.44
509.887	863.44
510.103	861.44
510.319	832.44
510.536	830.44
510.752	841.44
510.968	861.44
511.184	834.44
511.401	833.44
511.617	832.44
511.833	864.44
512.049	846.44
512.265	841.44
512.481	827.44
512.698	848.44
512.914	845.44
513.13	821.44
513.346	828.44
513.562	833.44
513.778	831.44
513.994	836.44
514.21	831.44
514.426	840.44
514.642	840.44
514.858	851.44
515.074	859.44
515.29	857.44
515.506	854.44
515.721	861.44
515.937	858.44
516.153	879.44
516.369	863.44
516.585	879.44
516.801	886.44
517.016	920.44
517.232	914.44
517.448	935.44
517.664	926.44
517.879	964.44
518.095	931.44
518.311	936.44
518.527	898.44
518.742	925.44
518.958	887.44
519.173	898.44
519.389	870.44
519.605	864.44
519.82	859.44
520.036	857.44
520.251	841.44
520.467	822.44
520.682	817.44
520.898	836.44
521.113	827.44
521.329	792.44
521.544	786.44
521.76	780.44
521.975	798.44
522.19	776.44
522.406	804.44
522.621	790.44
522.836	786.44
523.052	781.44
523.267	760.44
523.482	766.44
523.698	764.44
523.913	757.44
524.128	769.44
524.343	757.44
524.559	774.44
524.774	760.44
524.989	776.44
525.204	735.44
525.419	776.44
525.634	729.44
525.849	728.44
526.064	761.44
526.28	719.44
526.495	756.44
526.71	750.44
526.925	727.44
527.14	718.44
527.355	717.44
527.57	706.44
527.785	713.44
527.999	737.44
528.214	709.44
528.429	722.44
528.644	730.44
528.859	746.44
529.074	725.44
529.289	730.44
529.503	714.44
529.718	714.44
529.933	711.44
530.148	703.44
530.363	719.44
530.577	715.44
530.792	707.44
531.007	723.44
531.221	710.44
531.436	716.44
531.651	704.44
531.865	690.44
532.08	700.44
532.295	722.44
532.509	702.44
532.724	708.44
532.938	697.44
533.153	707.44
533.367	710.44
533.582	718.44
533.796	708.44
534.011	711.44
534.225	699.44
534.44	700.44
534.654	700.44
534.868	681.44
535.083	699.44
535.297	671.44
535.511	689.44
535.726	714.44
535.94	680.44
536.154	682.44
536.369	686.44
536.583	677.44
536.797	682.44
537.011	671.44
537.225	645.44
537.44	651.44
537.654	669.44
537.868	666.44
538.082	658.44
538.296	659.44
538.51	673.44
538.724	653.44
538.938	677.44
539.153	644.44
539.367	665.44
539.581	658.44
539.795	646.44
540.009	640.44
540.222	640.44
540.436	669.44
540.65	659.44
540.864	657.44
541.078	646.44
541.292	668.44
541.506	660.44
541.72	665.44
541.934	657.44
542.147	668.44
542.361	639.44
542.575	640.44
542.789	648.44
543.002	662.44
543.216	646.44
543.43	646.44
543.644	641.44
543.857	657.44
544.071	657.44
544.285	668.44
544.498	648.44
544.712	650.44
544.925	657.44
545.139	624.44
545.352	611.44
545.566	646.44
545.779	648.44
545.993	655.44
546.206	645.44
546.42	646.44
546.633	672.44
546.847	657.44
547.06	662.44
547.274	628.44
547.487	642.44
547.7	652.44
547.914	657.44
548.127	666.44
548.34	645.44
548.554	662.44
548.767	648.44
548.98	663.44
549.193	638.44
549.407	644.44
549.62	655.44
549.833	670.44
550.046	633.44
550.259	638.44
550.473	630.44
550.686	647.44
550.899	621.44
551.112	629.44
551.325	633.44
551.538	654.44
551.751	620.44
551.964	619.44
552.177	638.44
552.39	620.44
552.603	648.44
552.816	645.44
553.029	660.44
553.242	661.44
553.455	645.44
553.667	658.44
553.88	629.44
554.093	646.44
554.306	619.44
554.519	626.44
554.732	589.44
554.944	617.44
555.157	596.44
555.37	620.44
555.583	606.44
555.795	571.44
556.008	593.44
556.221	566.44
556.433	577.44
556.646	590.44
556.859	572.44
557.071	572.44
557.284	552.44
557.496	582.44
557.709	550.44
557.921	568.44
558.134	538.44
558.346	561.44
558.559	556.44
558.771	557.44
558.984	556.44
559.196	562.44
559.409	544.44
559.621	575.44
559.833	565.44
560.046	534.44
560.258	556.44
560.47	549.44
560.683	561.44
560.895	537.44
561.107	535.44
561.32	543.44
561.532	536.44
561.744	540.44
561.956	540.44
562.168	545.44
562.381	530.44
562.593	559.44
562.805	553.44
563.017	529.44
563.229	543.44
563.441	555.44
563.653	541.44
563.865	562.44
564.077	573.44
564.289	562.44
564.501	557.44
564.713	549.44
564.925	585.44
565.137	579.44
565.349	606.44
565.561	589.44
565.773	586.44
565.985	617.44
566.197	629.44
566.408	653.44
566.62	657.44
566.832	675.44
567.044	665.44
567.255	686.44
567.467	685.44
567.679	698.44
567.891	719.44
568.102	664.44
568.314	698.44
568.526	659.44
568.737	625.44
568.949	603.44
569.161	581.44
569.372	562.44
569.584	575.44
569.795	560.44
570.007	534.44
570.218	530.44
570.43	525.44
570.641	517.44
570.853	526.44
571.064	513.44
571.276	507.44
571.487	512.44
571.698	485.44
571.91	472.44
572.121	506.44
572.333	488.44
572.544	464.44
572.755	473.44
572.966	479.44
573.178	494.44
573.389	479.44
573.6	442.44
573.811	423.44
574.023	444.44
574.234	456.44
574.445	436.44
574.656	444.44
574.867	443.44
575.078	443.44
575.289	434.44
575.501	444.44
575.712	440.44
575.923	424.44
576.134	424.44
576.345	419.44
576.556	421.44
576.767	437.44
576.978	408.44
577.188	408.44
577.399	430.44
577.61	402.44
577.821	440.44
578.032	403.44
578.243	416.44
578.454	395.44
578.665	399.44
578.875	410.44
579.086	390.44
579.297	408.44
579.508	411.44
579.718	401.44
579.929	387.44
580.14	395.44
580.35	382.44
580.561	384.44
580.772	372.44
580.982	395.44
581.193	397.44
581.403	381.44
581.614	392.44
581.825	382.44
582.035	388.44
582.246	384.44
582.456	383.44
582.667	380.44
582.877	392.44
583.087	384.44
583.298	384.44
583.508	373.44
583.719	383.44
583.929	375.44
584.139	382.44
584.35	388.44
584.56	376.44
584.77	355.44
584.981	380.44
585.191	366.44
585.401	351.44
585.611	356.44
585.821	357.44
586.032	372.44
586.242	369.44
586.452	382.44
586.662	384.44
586.872	379.44
587.082	382.44
587.292	365.44
587.502	353.44
587.713	341.44
587.923	348.44
588.133	361.44
588.343	365.44
588.553	373.44
588.762	372.44
588.972	387.44
589.182	407.44
589.392	374.44
589.602	381.44
589.812	372.44
590.022	353.44
590.232	357.44
590.441	374.44
590.651	367.44
590.861	360.44
591.071	359.44
591.281	360.44
591.49	373.44
591.7	352.44
591.91	380.44
592.119	362.44
592.329	385.44
592.539	392.44
592.748	382.44
592.958	357.44
593.167	376.44
593.377	378.44
593.587	390.44
593.796	376.44
594.006	403.44
594.215	395.44
594.424	376.44
594.634	368.44
594.843	388.44
595.053	372.44
595.262	381.44
595.472	346.44
595.681	362.44
595.89	352.44
596.1	354.44
596.309	339.44
596.518	344.44
596.727	338.44
596.937	326.44
597.146	334.44
597.355	328.44
597.564	342.44
597.774	336.44
597.983	326.44
598.192	338.44
598.401	339.44
598.61	320.44
598.819	316.44
599.028	325.44
599.237	318.44
599.446	307.44
599.655	310.44
599.864	329.44
600.073	310.44
600.282	336.44
600.491	297.44
600.7	315.44
600.909	308.44
601.118	291.44
601.327	286.44
601.536	314.44
601.745	287.44
601.953	284.44
602.162	308.44
602.371	296.44
602.58	292.44
602.789	304.44
602.997	306.44
603.206	297.44
603.415	285.44
603.623	292.44
603.832	292.44
604.041	277.44
604.249	293.44
604.458	283.44
604.666	270.44
604.875	286.44
605.084	260.44
605.292	278.44
605.501	287.44
605.709	283.44
605.918	266.44
606.126	302.44
606.334	294.44
606.543	288.44
606.751	269.44
606.96	278.44
607.168	283.44
607.376	263.44
607.585	296.44
607.793	287.44
608.001	286.44
608.21	292.44
608.418	293.44
608.626	276.44
608.834	285.44
609.043	282.44
609.251	280.44
609.459	286.44
609.667	278.44
609.875	286.44
610.083	276.44
610.291	260.44
610.499	270.44
610.707	283.44
610.916	269.44
611.124	263.44
611.332	272.44
611.54	261.44
611.748	280.44
611.955	279.44
612.163	265.44
612.371	296.44
612.579	305.44
612.787	275.44
612.995	272.44
613.203	277.44
613.411	271.44
613.618	267.44
613.826	279.44
614.034	271.44
614.242	282.44
614.449	278.44
614.657	266.44
614.865	267.44
615.072	272.44
615.28	253.44
615.488	249.44
615.695	264.44
615.903	265.44
616.111	279.44
616.318	269.44
616.526	256.44
616.733	273.44
616.941	264.44
617.148	264.44
617.356	260.44
617.563	264.44
617.771	255.44
617.978	265.44
618.185	247.44
618.393	263.44
618.6	263.44
618.807	265.44
619.015	280.44
619.222	246.44
619.429	247.44
619.637	253.44
619.844	240.44
620.051	264.44
620.258	257.44
620.466	254.44
620.673	234.44
620.88	246.44
621.087	260.44
621.294	229.44
621.501	245.44
621.708	240.44
621.915	256.44
622.122	248.44
622.329	246.44
622.536	255.44
622.743	239.44
622.95	263.44
623.157	239.44
623.364	249.44
623.571	245.44
623.778	239.44
623.985	222.44
624.192	250.44
624.399	244.44
624.606	238.44
624.812	252.44
625.019	232.44
625.226	240.44
625.433	252.44
625.639	236.44
625.846	225.44
626.053	229.44
626.259	249.44
626.466	239.44
626.673	245.44
626.879	225.44
627.086	242.44
627.293	237.44
627.499	234.44
627.706	234.44
627.912	246.44
628.119	220.44
628.325	236.44
628.532	234.44
628.738	237.44
628.945	231.44
629.151	228.44
629.357	233.44
629.564	233.44
629.77	215.44
629.976	222.44
630.183	231.44
630.389	234.44
630.595	231.44
630.802	223.44
631.008	221.44
631.214	225.44
631.42	226.44
631.627	230.44
631.833	217.44
632.039	221.44
632.245	239.44
632.451	224.44
632.657	231.44
632.863	216.44
633.069	206.44
633.275	232.44
633.481	216.44
633.688	208.44
633.893	212.44
634.099	211.44
634.305	232.44
634.511	216.44
634.717	214.44
634.923	211.44
635.129	225.44
635.335	215.44
635.541	209.44
635.747	214.44
635.952	208.44
636.158	214.44
636.364	204.44
636.57	209.44
636.775	213.44
636.981	218.44
637.187	207.44
637.392	208.44
637.598	193.44
637.804	227.44
638.009	220.44
638.215	206.44
638.421	201.44
638.626	207.44
638.832	192.44
639.037	223.44
639.243	220.44
639.448	200.44
639.654	221.44
639.859	206.44
640.065	207.44
640.27	209.44
640.475	212.44
640.681	217.44
640.886	205.44
641.091	200.44
641.297	206.44
641.502	227.44
641.707	209.44
641.913	209.44
642.118	199.44
642.323	201.44
642.528	207.44
642.733	209.44
642.939	206.44
643.144	216.44
643.349	213.44
643.554	212.44
643.759	206.44
643.964	203.44
644.169	217.44
644.374	212.44
644.579	220.44
644.784	205.44
644.989	188.44
645.194	209.44
645.399	196.44
645.604	222.44
645.809	198.44
646.014	199.44
646.219	209.44
646.423	206.44
646.628	206.44
646.833	220.44
647.038	225.44
647.243	210.44
647.447	209.44
647.652	204.44
647.857	204.44
648.062	240.44
648.266	226.44
648.471	217.44
648.676	228.44
648.88	207.44
649.085	210.44
649.289	225.44
649.494	226.44
649.698	231.44
649.903	222.44
650.107	209.44
650.312	212.44
650.516	212.44
650.721	217.44
650.925	206.44
651.13	205.44
651.334	233.44
651.539	197.44
651.743	213.44
651.947	208.44
652.152	210.44
652.356	210.44
652.56	207.44
652.764	220.44
652.969	223.44
653.173	213.44
653.377	207.44
653.581	206.44
653.785	217.44
653.99	218.44
654.194	230.44
654.398	211.44
654.602	225.44
654.806	216.44
655.01	203.44
655.214	220.44
655.418	221.44
655.622	213.44
655.826	222.44
656.03	210.44
656.234	238.44
656.438	257.44
656.642	234.44
656.846	233.44
657.049	223.44
657.253	200.44
657.457	194.44
657.661	205.44
657.865	175.44
658.068	166.44
658.272	160.44
658.476	163.44
658.68	158.44
658.883	158.44
659.087	125.44
659.291	146.44
659.494	124.44
659.698	142.44
659.901	109.44
660.105	118.44
660.309	108.44
660.512	128.44
660.716	123.44
660.919	106.44
661.123	120.44
661.326	100.44
661.53	112.44
661.733	88.44
661.936	108.44
662.14	94.44
662.343	88.44
662.546	95.44
662.75	97.44
662.953	106.44
663.156	101.44
663.36	85.44
663.563	111.44
663.766	86.44
663.969	88.44
664.173	73.44
664.376	81.44
664.579	102.44
664.782	92.44
664.985	89.44
665.188	71.44
665.391	79.44
665.594	83.44
665.797	87.44
666	82.44
666.203	94.44
666.406	85.44
666.609	74.44
666.812	94.44
667.015	77.44
667.218	80.44
667.421	94.44
667.624	101.44
667.827	78.44
668.03	74.44
668.232	81.44
668.435	83.44
668.638	93.44
668.841	84.44
669.043	83.44
669.246	79.44
669.449	86.44
669.651	92.44
669.854	80.44
670.057	81.44
670.259	77.44
670.462	94.44
670.665	95.44
670.867	102.44
671.07	84.44
671.272	84.44
671.475	91.44
671.677	89.44
671.88	88.44
672.082	81.44
672.284	85.44
672.487	92.44
672.689	91.44
672.892	81.44
