Data from Ni(NO3)2@0.25M.TitratingCurve.Agarose3%dH2O.NegLispCup.LampEnergy10.LIBS07252019_HRD10591_18-05-02-566.txt Node
Date: Thu Jul 25 18:05:02 EDT 2019
User: cochatt
Spectrometer: HR+D1059
Trigger mode: 1
Integration Time (sec): 1.000000E-1
Scans to average: 1
Electric dark correction enabled: true
Nonlinearity correction enabled: false
Boxcar width: 0
XAxis mode: Wavelengths
Number of Pixels in Spectrum: 2048
>>>>>Begin Spectral Data<<<<<
223.165	-19.44
223.4	-19.44
223.635	-19.44
223.869	-15.44
224.104	-20.44
224.338	-9.44
224.573	-0.44
224.808	-14.44
225.042	-10.44
225.277	-8.44
225.511	-7.44
225.746	6.56
225.98	2.56
226.215	19.56
226.449	10.56
226.683	16.56
226.918	14.56
227.152	35.56
227.387	40.56
227.621	40.56
227.856	46.56
228.09	45.56
228.324	48.56
228.559	64.56
228.793	60.56
229.027	102.56
229.262	112.56
229.496	109.56
229.73	114.56
229.964	110.56
230.199	114.56
230.433	131.56
230.667	113.56
230.901	120.56
231.136	126.56
231.37	124.56
231.604	122.56
231.838	137.56
232.072	128.56
232.306	121.56
232.541	112.56
232.775	124.56
233.009	118.56
233.243	132.56
233.477	122.56
233.711	125.56
233.945	109.56
234.179	123.56
234.413	125.56
234.647	109.56
234.881	123.56
235.115	114.56
235.349	136.56
235.583	136.56
235.817	134.56
236.051	125.56
236.285	141.56
236.519	117.56
236.753	130.56
236.987	128.56
237.221	120.56
237.455	141.56
237.689	123.56
237.922	139.56
238.156	125.56
238.39	122.56
238.624	136.56
238.858	135.56
239.091	139.56
239.325	137.56
239.559	146.56
239.793	147.56
240.027	146.56
240.26	139.56
240.494	142.56
240.728	143.56
240.961	141.56
241.195	145.56
241.429	150.56
241.662	138.56
241.896	143.56
242.13	154.56
242.363	170.56
242.597	155.56
242.83	158.56
243.064	151.56
243.298	164.56
243.531	136.56
243.765	173.56
243.998	176.56
244.232	175.56
244.465	160.56
244.699	166.56
244.932	174.56
245.166	172.56
245.399	170.56
245.633	179.56
245.866	170.56
246.099	180.56
246.333	150.56
246.566	163.56
246.8	165.56
247.033	166.56
247.266	180.56
247.5	180.56
247.733	185.56
247.966	190.56
248.2	186.56
248.433	189.56
248.666	189.56
248.899	186.56
249.133	191.56
249.366	198.56
249.599	196.56
249.832	196.56
250.066	206.56
250.299	202.56
250.532	205.56
250.765	224.56
250.998	226.56
251.231	224.56
251.465	227.56
251.698	235.56
251.931	215.56
252.164	228.56
252.397	244.56
252.63	229.56
252.863	244.56
253.096	241.56
253.329	241.56
253.562	242.56
253.795	250.56
254.028	259.56
254.261	253.56
254.494	264.56
254.727	281.56
254.96	263.56
255.193	253.56
255.426	276.56
255.659	273.56
255.892	273.56
256.124	260.56
256.357	270.56
256.59	276.56
256.823	277.56
257.056	278.56
257.289	276.56
257.521	293.56
257.754	297.56
257.987	275.56
258.22	277.56
258.452	305.56
258.685	308.56
258.918	294.56
259.151	301.56
259.383	295.56
259.616	314.56
259.849	300.56
260.081	297.56
260.314	283.56
260.547	315.56
260.779	313.56
261.012	327.56
261.244	324.56
261.477	322.56
261.71	325.56
261.942	326.56
262.175	304.56
262.407	314.56
262.64	316.56
262.872	330.56
263.105	325.56
263.337	334.56
263.57	323.56
263.802	345.56
264.035	342.56
264.267	347.56
264.499	344.56
264.732	368.56
264.964	325.56
265.197	366.56
265.429	360.56
265.661	344.56
265.894	337.56
266.126	366.56
266.358	352.56
266.591	361.56
266.823	354.56
267.055	347.56
267.287	362.56
267.52	348.56
267.752	347.56
267.984	356.56
268.216	365.56
268.448	358.56
268.681	358.56
268.913	357.56
269.145	366.56
269.377	369.56
269.609	365.56
269.841	393.56
270.073	370.56
270.306	362.56
270.538	384.56
270.77	373.56
271.002	373.56
271.234	397.56
271.466	369.56
271.698	389.56
271.93	388.56
272.162	382.56
272.394	387.56
272.626	376.56
272.858	359.56
273.09	388.56
273.322	388.56
273.553	381.56
273.785	382.56
274.017	382.56
274.249	393.56
274.481	388.56
274.713	416.56
274.945	393.56
275.176	410.56
275.408	413.56
275.64	424.56
275.872	406.56
276.104	406.56
276.335	389.56
276.567	395.56
276.799	414.56
277.031	418.56
277.262	406.56
277.494	403.56
277.726	418.56
277.957	388.56
278.189	429.56
278.421	425.56
278.652	419.56
278.884	405.56
279.115	413.56
279.347	427.56
279.579	412.56
279.81	421.56
280.042	421.56
280.273	435.56
280.505	419.56
280.736	428.56
280.968	422.56
281.199	396.56
281.431	434.56
281.662	437.56
281.894	424.56
282.125	424.56
282.356	423.56
282.588	441.56
282.819	427.56
283.051	428.56
283.282	444.56
283.513	435.56
283.745	440.56
283.976	425.56
284.207	427.56
284.439	431.56
284.67	445.56
284.901	436.56
285.132	458.56
285.364	433.56
285.595	446.56
285.826	442.56
286.057	442.56
286.288	468.56
286.52	466.56
286.751	461.56
286.982	450.56
287.213	444.56
287.444	446.56
287.675	451.56
287.906	456.56
288.138	451.56
288.369	450.56
288.6	464.56
288.831	484.56
289.062	476.56
289.293	472.56
289.524	475.56
289.755	451.56
289.986	454.56
290.217	441.56
290.448	461.56
290.679	468.56
290.91	468.56
291.141	465.56
291.371	477.56
291.602	437.56
291.833	458.56
292.064	449.56
292.295	469.56
292.526	456.56
292.757	452.56
292.987	452.56
293.218	456.56
293.449	463.56
293.68	483.56
293.91	464.56
294.141	475.56
294.372	466.56
294.603	472.56
294.833	463.56
295.064	482.56
295.295	475.56
295.525	453.56
295.756	446.56
295.987	455.56
296.217	475.56
296.448	463.56
296.679	466.56
296.909	469.56
297.14	463.56
297.37	482.56
297.601	467.56
297.831	491.56
298.062	493.56
298.292	472.56
298.523	495.56
298.753	518.56
298.984	490.56
299.214	487.56
299.445	502.56
299.675	503.56
299.905	503.56
300.136	485.56
300.366	508.56
300.597	513.56
300.827	500.56
301.057	487.56
301.288	518.56
301.518	506.56
301.748	512.56
301.979	512.56
302.209	525.56
302.439	514.56
302.669	517.56
302.9	513.56
303.13	509.56
303.36	490.56
303.59	515.56
303.82	525.56
304.051	548.56
304.281	527.56
304.511	513.56
304.741	525.56
304.971	521.56
305.201	545.56
305.431	546.56
305.661	512.56
305.891	520.56
306.121	537.56
306.352	506.56
306.582	502.56
306.812	509.56
307.042	533.56
307.272	521.56
307.502	533.56
307.731	532.56
307.961	507.56
308.191	507.56
308.421	518.56
308.651	527.56
308.881	508.56
309.111	536.56
309.341	528.56
309.571	536.56
309.8	527.56
310.03	551.56
310.26	561.56
310.49	546.56
310.72	553.56
310.949	552.56
311.179	541.56
311.409	573.56
311.639	556.56
311.868	536.56
312.098	572.56
312.328	570.56
312.557	557.56
312.787	584.56
313.017	576.56
313.246	583.56
313.476	595.56
313.706	576.56
313.935	573.56
314.165	557.56
314.394	590.56
314.624	596.56
314.853	610.56
315.083	627.56
315.312	602.56
315.542	594.56
315.771	594.56
316.001	603.56
316.23	581.56
316.46	607.56
316.689	610.56
316.919	606.56
317.148	599.56
317.377	615.56
317.607	610.56
317.836	614.56
318.065	620.56
318.295	636.56
318.524	638.56
318.753	629.56
318.983	632.56
319.212	643.56
319.441	631.56
319.67	624.56
319.9	643.56
320.129	649.56
320.358	646.56
320.587	629.56
320.816	634.56
321.046	645.56
321.275	660.56
321.504	656.56
321.733	660.56
321.962	647.56
322.191	648.56
322.42	664.56
322.649	688.56
322.878	648.56
323.108	692.56
323.337	699.56
323.566	683.56
323.795	707.56
324.024	688.56
324.253	717.56
324.482	720.56
324.71	698.56
324.939	706.56
325.168	724.56
325.397	725.56
325.626	749.56
325.855	716.56
326.084	735.56
326.313	740.56
326.542	746.56
326.77	768.56
326.999	748.56
327.228	753.56
327.457	753.56
327.686	779.56
327.914	764.56
328.143	782.56
328.372	764.56
328.6	789.56
328.829	789.56
329.058	756.56
329.287	774.56
329.515	814.56
329.744	780.56
329.972	822.56
330.201	794.56
330.43	800.56
330.658	812.56
330.887	808.56
331.115	818.56
331.344	832.56
331.572	851.56
331.801	844.56
332.03	853.56
332.258	867.56
332.486	890.56
332.715	897.56
332.943	931.56
333.172	957.56
333.4	964.56
333.629	975.56
333.857	970.56
334.085	989.56
334.314	1030.56
334.542	987.56
334.771	1014.56
334.999	1010.56
335.227	980.56
335.455	994.56
335.684	1005.56
335.912	990.56
336.14	1009.56
336.369	974.56
336.597	1010.56
336.825	1016.56
337.053	971.56
337.281	1005.56
337.51	974.56
337.738	955.56
337.966	939.56
338.194	938.56
338.422	928.56
338.65	922.56
338.878	921.56
339.106	907.56
339.334	942.56
339.562	921.56
339.79	915.56
340.018	892.56
340.246	850.56
340.474	908.56
340.702	886.56
340.93	889.56
341.158	896.56
341.386	917.56
341.614	890.56
341.842	899.56
342.07	911.56
342.298	882.56
342.526	870.56
342.754	892.56
342.981	874.56
343.209	900.56
343.437	926.56
343.665	973.56
343.893	973.56
344.12	1003.56
344.348	1018.56
344.576	981.56
344.804	1004.56
345.031	939.56
345.259	925.56
345.487	923.56
345.714	917.56
345.942	924.56
346.17	927.56
346.397	893.56
346.625	883.56
346.853	856.56
347.08	873.56
347.308	884.56
347.535	884.56
347.763	845.56
347.99	864.56
348.218	837.56
348.445	843.56
348.673	845.56
348.9	847.56
349.128	865.56
349.355	853.56
349.583	837.56
349.81	840.56
350.037	844.56
350.265	813.56
350.492	849.56
350.72	814.56
350.947	820.56
351.174	865.56
351.402	865.56
351.629	838.56
351.856	837.56
352.083	839.56
352.311	838.56
352.538	877.56
352.765	845.56
352.992	843.56
353.22	810.56
353.447	833.56
353.674	820.56
353.901	803.56
354.128	811.56
354.355	823.56
354.583	816.56
354.81	808.56
355.037	826.56
355.264	844.56
355.491	827.56
355.718	814.56
355.945	818.56
356.172	807.56
356.399	828.56
356.626	827.56
356.853	829.56
357.08	824.56
357.307	811.56
357.534	836.56
357.761	819.56
357.988	850.56
358.215	825.56
358.441	793.56
358.668	786.56
358.895	821.56
359.122	835.56
359.349	855.56
359.576	834.56
359.802	833.56
360.029	812.56
360.256	817.56
360.483	803.56
360.709	797.56
360.936	804.56
361.163	826.56
361.39	825.56
361.616	816.56
361.843	833.56
362.07	830.56
362.296	840.56
362.523	826.56
362.749	833.56
362.976	823.56
363.203	816.56
363.429	827.56
363.656	816.56
363.882	827.56
364.109	822.56
364.335	838.56
364.562	811.56
364.788	807.56
365.015	817.56
365.241	804.56
365.468	800.56
365.694	831.56
365.92	825.56
366.147	817.56
366.373	806.56
366.599	827.56
366.826	805.56
367.052	811.56
367.278	817.56
367.505	816.56
367.731	811.56
367.957	790.56
368.184	829.56
368.41	820.56
368.636	810.56
368.862	806.56
369.089	826.56
369.315	814.56
369.541	809.56
369.767	832.56
369.993	830.56
370.219	846.56
370.445	826.56
370.672	858.56
370.898	857.56
371.124	831.56
371.35	857.56
371.576	864.56
371.802	858.56
372.028	886.56
372.254	866.56
372.48	860.56
372.706	861.56
372.932	873.56
373.158	864.56
373.384	861.56
373.61	872.56
373.835	880.56
374.061	864.56
374.287	848.56
374.513	868.56
374.739	881.56
374.965	920.56
375.191	917.56
375.416	888.56
375.642	873.56
375.868	875.56
376.094	875.56
376.319	865.56
376.545	826.56
376.771	836.56
376.997	838.56
377.222	838.56
377.448	832.56
377.674	850.56
377.899	824.56
378.125	845.56
378.35	836.56
378.576	842.56
378.802	819.56
379.027	810.56
379.253	837.56
379.478	827.56
379.704	811.56
379.929	846.56
380.155	809.56
380.38	807.56
380.606	838.56
380.831	822.56
381.057	813.56
381.282	816.56
381.507	830.56
381.733	822.56
381.958	831.56
382.184	820.56
382.409	862.56
382.634	849.56
382.86	843.56
383.085	886.56
383.31	871.56
383.535	877.56
383.761	847.56
383.986	885.56
384.211	885.56
384.436	906.56
384.662	890.56
384.887	925.56
385.112	928.56
385.337	929.56
385.562	946.56
385.787	946.56
386.013	966.56
386.238	956.56
386.463	955.56
386.688	970.56
386.913	964.56
387.138	952.56
387.363	956.56
387.588	957.56
387.813	968.56
388.038	971.56
388.263	955.56
388.488	981.56
388.713	939.56
388.938	971.56
389.163	963.56
389.387	934.56
389.612	958.56
389.837	969.56
390.062	938.56
390.287	957.56
390.512	968.56
390.736	944.56
390.961	981.56
391.186	1005.56
391.411	1002.56
391.636	1032.56
391.86	1041.56
392.085	1036.56
392.31	1069.56
392.534	1036.56
392.759	1029.56
392.984	1028.56
393.208	1001.56
393.433	1023.56
393.658	1032.56
393.882	1018.56
394.107	989.56
394.331	1014.56
394.556	1029.56
394.78	1001.56
395.005	1044.56
395.229	1035.56
395.454	1049.56
395.678	1069.56
395.903	1053.56
396.127	1073.56
396.352	1057.56
396.576	1048.56
396.801	1009.56
397.025	1062.56
397.249	1092.56
397.474	1099.56
397.698	1092.56
397.922	1126.56
398.147	1093.56
398.371	1127.56
398.595	1177.56
398.82	1206.56
399.044	1232.56
399.268	1347.56
399.492	1462.56
399.717	1524.56
399.941	1553.56
400.165	1492.56
400.389	1411.56
400.613	1378.56
400.837	1295.56
401.062	1299.56
401.286	1248.56
401.51	1235.56
401.734	1208.56
401.958	1211.56
402.182	1212.56
402.406	1256.56
402.63	1232.56
402.854	1227.56
403.078	1250.56
403.302	1293.56
403.526	1318.56
403.75	1291.56
403.974	1285.56
404.198	1262.56
404.422	1310.56
404.645	1305.56
404.869	1258.56
405.093	1309.56
405.317	1288.56
405.541	1313.56
405.765	1303.56
405.988	1286.56
406.212	1324.56
406.436	1310.56
406.66	1358.56
406.883	1349.56
407.107	1398.56
407.331	1425.56
407.555	1498.56
407.778	1485.56
408.002	1459.56
408.226	1443.56
408.449	1444.56
408.673	1384.56
408.896	1386.56
409.12	1376.56
409.344	1370.56
409.567	1334.56
409.791	1371.56
410.014	1369.56
410.238	1340.56
410.461	1322.56
410.685	1315.56
410.908	1317.56
411.132	1325.56
411.355	1296.56
411.578	1313.56
411.802	1295.56
412.025	1292.56
412.249	1312.56
412.472	1256.56
412.695	1282.56
412.919	1250.56
413.142	1281.56
413.365	1264.56
413.589	1266.56
413.812	1267.56
414.035	1254.56
414.258	1248.56
414.482	1244.56
414.705	1242.56
414.928	1292.56
415.151	1246.56
415.374	1230.56
415.597	1255.56
415.821	1227.56
416.044	1211.56
416.267	1214.56
416.49	1217.56
416.713	1223.56
416.936	1225.56
417.159	1229.56
417.382	1189.56
417.605	1215.56
417.828	1221.56
418.051	1241.56
418.274	1217.56
418.497	1224.56
418.72	1236.56
418.943	1224.56
419.166	1333.56
419.389	1416.56
419.611	1394.56
419.834	1325.56
420.057	1316.56
420.28	1270.56
420.503	1209.56
420.726	1222.56
420.948	1228.56
421.171	1257.56
421.394	1234.56
421.617	1213.56
421.839	1273.56
422.062	1252.56
422.285	1217.56
422.507	1247.56
422.73	1265.56
422.953	1252.56
423.175	1245.56
423.398	1252.56
423.621	1227.56
423.843	1264.56
424.066	1294.56
424.288	1245.56
424.511	1252.56
424.733	1255.56
424.956	1246.56
425.178	1257.56
425.401	1271.56
425.623	1294.56
425.846	1235.56
426.068	1220.56
426.291	1242.56
426.513	1208.56
426.735	1199.56
426.958	1234.56
427.18	1194.56
427.402	1197.56
427.625	1185.56
427.847	1179.56
428.069	1155.56
428.292	1172.56
428.514	1180.56
428.736	1173.56
428.958	1182.56
429.181	1157.56
429.403	1165.56
429.625	1180.56
429.847	1157.56
430.069	1162.56
430.292	1175.56
430.514	1176.56
430.736	1188.56
430.958	1194.56
431.18	1169.56
431.402	1146.56
431.624	1168.56
431.846	1186.56
432.068	1157.56
432.29	1173.56
432.512	1171.56
432.734	1192.56
432.956	1174.56
433.178	1195.56
433.4	1228.56
433.622	1216.56
433.844	1228.56
434.066	1206.56
434.287	1227.56
434.509	1243.56
434.731	1266.56
434.953	1319.56
435.175	1264.56
435.397	1266.56
435.618	1229.56
435.84	1216.56
436.062	1214.56
436.284	1210.56
436.505	1190.56
436.727	1232.56
436.949	1194.56
437.17	1198.56
437.392	1174.56
437.614	1166.56
437.835	1164.56
438.057	1140.56
438.278	1176.56
438.5	1143.56
438.721	1133.56
438.943	1170.56
439.165	1192.56
439.386	1181.56
439.608	1188.56
439.829	1192.56
440.05	1180.56
440.272	1165.56
440.493	1170.56
440.715	1222.56
440.936	1225.56
441.158	1280.56
441.379	1270.56
441.6	1314.56
441.822	1298.56
442.043	1268.56
442.264	1271.56
442.486	1270.56
442.707	1282.56
442.928	1293.56
443.149	1309.56
443.371	1289.56
443.592	1281.56
443.813	1326.56
444.034	1316.56
444.255	1317.56
444.476	1349.56
444.698	1407.56
444.919	1423.56
445.14	1549.56
445.361	1451.56
445.582	1344.56
445.803	1315.56
446.024	1256.56
446.245	1261.56
446.466	1262.56
446.687	1182.56
446.908	1247.56
447.129	1190.56
447.35	1190.56
447.571	1158.56
447.792	1170.56
448.013	1149.56
448.234	1116.56
448.455	1145.56
448.675	1107.56
448.896	1132.56
449.117	1090.56
449.338	1114.56
449.559	1107.56
449.779	1128.56
450	1099.56
450.221	1102.56
450.442	1126.56
450.662	1124.56
450.883	1094.56
451.104	1085.56
451.324	1089.56
451.545	1099.56
451.766	1094.56
451.986	1100.56
452.207	1085.56
452.428	1097.56
452.648	1100.56
452.869	1016.56
453.089	1060.56
453.31	1078.56
453.53	1042.56
453.751	1028.56
453.971	1076.56
454.192	1070.56
454.412	1038.56
454.633	1012.56
454.853	1063.56
455.073	1055.56
455.294	1061.56
455.514	1031.56
455.734	1035.56
455.955	1027.56
456.175	1023.56
456.395	1038.56
456.616	1042.56
456.836	1034.56
457.056	1051.56
457.276	1031.56
457.497	1054.56
457.717	1045.56
457.937	1073.56
458.157	1082.56
458.377	1104.56
458.598	1089.56
458.818	1092.56
459.038	1152.56
459.258	1161.56
459.478	1225.56
459.698	1236.56
459.918	1270.56
460.138	1283.56
460.358	1298.56
460.578	1345.56
460.798	1335.56
461.018	1384.56
461.238	1388.56
461.458	1389.56
461.678	1381.56
461.898	1377.56
462.118	1378.56
462.338	1413.56
462.558	1486.56
462.777	1523.56
462.997	1595.56
463.217	1660.56
463.437	1618.56
463.657	1609.56
463.876	1561.56
464.096	1550.56
464.316	1528.56
464.536	1542.56
464.755	1481.56
464.975	1436.56
465.195	1391.56
465.414	1363.56
465.634	1291.56
465.854	1259.56
466.073	1267.56
466.293	1217.56
466.512	1178.56
466.732	1176.56
466.951	1180.56
467.171	1162.56
467.391	1157.56
467.61	1158.56
467.829	1168.56
468.049	1166.56
468.268	1152.56
468.488	1138.56
468.707	1108.56
468.927	1112.56
469.146	1130.56
469.365	1138.56
469.585	1150.56
469.804	1183.56
470.023	1168.56
470.243	1166.56
470.462	1163.56
470.681	1154.56
470.901	1182.56
471.12	1147.56
471.339	1186.56
471.558	1188.56
471.777	1149.56
471.997	1148.56
472.216	1124.56
472.435	1148.56
472.654	1145.56
472.873	1145.56
473.092	1116.56
473.311	1090.56
473.53	1129.56
473.749	1110.56
473.968	1114.56
474.187	1136.56
474.406	1094.56
474.625	1125.56
474.844	1119.56
475.063	1106.56
475.282	1122.56
475.501	1144.56
475.72	1117.56
475.939	1150.56
476.158	1152.56
476.377	1157.56
476.596	1194.56
476.814	1196.56
477.033	1165.56
477.252	1184.56
477.471	1218.56
477.69	1238.56
477.908	1236.56
478.127	1305.56
478.346	1310.56
478.564	1351.56
478.783	1333.56
479.002	1353.56
479.22	1368.56
479.439	1377.56
479.658	1367.56
479.876	1344.56
480.095	1353.56
480.313	1399.56
480.532	1434.56
480.751	1393.56
480.969	1394.56
481.188	1372.56
481.406	1305.56
481.624	1292.56
481.843	1314.56
482.061	1306.56
482.28	1281.56
482.498	1294.56
482.717	1282.56
482.935	1312.56
483.153	1305.56
483.372	1321.56
483.59	1329.56
483.808	1293.56
484.027	1284.56
484.245	1288.56
484.463	1293.56
484.681	1348.56
484.9	1366.56
485.118	1358.56
485.336	1334.56
485.554	1350.56
485.772	1355.56
485.99	1308.56
486.209	1360.56
486.427	1337.56
486.645	1333.56
486.863	1361.56
487.081	1334.56
487.299	1363.56
487.517	1336.56
487.735	1365.56
487.953	1345.56
488.171	1325.56
488.389	1350.56
488.607	1353.56
488.825	1330.56
489.043	1328.56
489.261	1345.56
489.479	1346.56
489.696	1336.56
489.914	1364.56
490.132	1335.56
490.35	1332.56
490.568	1344.56
490.786	1360.56
491.003	1346.56
491.221	1363.56
491.439	1386.56
491.657	1378.56
491.874	1372.56
492.092	1399.56
492.31	1440.56
492.527	1432.56
492.745	1450.56
492.963	1418.56
493.18	1401.56
493.398	1440.56
493.615	1430.56
493.833	1461.56
494.05	1483.56
494.268	1450.56
494.485	1454.56
494.703	1445.56
494.92	1467.56
495.138	1465.56
495.355	1456.56
495.573	1472.56
495.79	1472.56
496.008	1530.56
496.225	1514.56
496.442	1573.56
496.66	1565.56
496.877	1595.56
497.094	1609.56
497.312	1657.56
497.529	1656.56
497.746	1697.56
497.963	1732.56
498.181	1849.56
498.398	1905.56
498.615	1936.56
498.832	2026.56
499.049	2154.56
499.267	2253.56
499.484	2412.56
499.701	2595.56
499.918	2744.56
500.135	2985.56
500.352	3121.56
500.569	3202.56
500.786	3148.56
501.003	3086.56
501.22	2890.56
501.437	2747.56
501.654	2532.56
501.871	2401.56
502.088	2260.56
502.305	2160.56
502.522	2077.56
502.739	2005.56
502.956	1929.56
503.172	1841.56
503.389	1799.56
503.606	1750.56
503.823	1752.56
504.04	1693.56
504.256	1720.56
504.473	1687.56
504.69	1650.56
504.907	1652.56
505.123	1559.56
505.34	1542.56
505.557	1479.56
505.773	1480.56
505.99	1440.56
506.207	1402.56
506.423	1369.56
506.64	1360.56
506.856	1348.56
507.073	1339.56
507.289	1300.56
507.506	1288.56
507.722	1252.56
507.939	1309.56
508.155	1259.56
508.372	1282.56
508.588	1227.56
508.805	1238.56
509.021	1264.56
509.238	1246.56
509.454	1276.56
509.67	1206.56
509.887	1208.56
510.103	1202.56
510.319	1200.56
510.536	1189.56
510.752	1168.56
510.968	1176.56
511.184	1192.56
511.401	1203.56
511.617	1176.56
511.833	1166.56
512.049	1202.56
512.265	1177.56
512.481	1147.56
512.698	1197.56
512.914	1188.56
513.13	1180.56
513.346	1163.56
513.562	1181.56
513.778	1204.56
513.994	1178.56
514.21	1213.56
514.426	1206.56
514.642	1222.56
514.858	1212.56
515.074	1235.56
515.29	1239.56
515.506	1211.56
515.721	1261.56
515.937	1244.56
516.153	1276.56
516.369	1307.56
516.585	1294.56
516.801	1339.56
517.016	1382.56
517.232	1418.56
517.448	1460.56
517.664	1466.56
517.879	1445.56
518.095	1464.56
518.311	1455.56
518.527	1415.56
518.742	1431.56
518.958	1360.56
519.173	1352.56
519.389	1303.56
519.605	1269.56
519.82	1250.56
520.036	1222.56
520.251	1205.56
520.467	1204.56
520.682	1204.56
520.898	1174.56
521.113	1165.56
521.329	1149.56
521.544	1131.56
521.76	1128.56
521.975	1130.56
522.19	1118.56
522.406	1122.56
522.621	1113.56
522.836	1105.56
523.052	1101.56
523.267	1109.56
523.482	1098.56
523.698	1074.56
523.913	1116.56
524.128	1131.56
524.343	1120.56
524.559	1082.56
524.774	1098.56
524.989	1089.56
525.204	1101.56
525.419	1050.56
525.634	1038.56
525.849	1062.56
526.064	1076.56
526.28	1059.56
526.495	1060.56
526.71	1047.56
526.925	1046.56
527.14	1062.56
527.355	1059.56
527.57	1028.56
527.785	1053.56
527.999	1040.56
528.214	1094.56
528.429	1046.56
528.644	1037.56
528.859	1072.56
529.074	1034.56
529.289	1084.56
529.503	1054.56
529.718	1066.56
529.933	1049.56
530.148	1047.56
530.363	1032.56
530.577	1050.56
530.792	1004.56
531.007	1037.56
531.221	1059.56
531.436	1012.56
531.651	1017.56
531.865	1030.56
532.08	1019.56
532.295	1030.56
532.509	1050.56
532.724	1057.56
532.938	1011.56
533.153	1030.56
533.367	1021.56
533.582	1004.56
533.796	1027.56
534.011	1028.56
534.225	1017.56
534.44	1024.56
534.654	990.56
534.868	998.56
535.083	977.56
535.297	988.56
535.511	989.56
535.726	1019.56
535.94	1004.56
536.154	980.56
536.369	949.56
536.583	999.56
536.797	976.56
537.011	968.56
537.225	968.56
537.44	956.56
537.654	979.56
537.868	945.56
538.082	948.56
538.296	960.56
538.51	939.56
538.724	957.56
538.938	948.56
539.153	944.56
539.367	967.56
539.581	931.56
539.795	961.56
540.009	960.56
540.222	937.56
540.436	937.56
540.65	940.56
540.864	951.56
541.078	946.56
541.292	944.56
541.506	947.56
541.72	933.56
541.934	951.56
542.147	963.56
542.361	956.56
542.575	944.56
542.789	930.56
543.002	925.56
543.216	921.56
543.43	906.56
543.644	925.56
543.857	932.56
544.071	929.56
544.285	944.56
544.498	932.56
544.712	925.56
544.925	956.56
545.139	964.56
545.352	942.56
545.566	942.56
545.779	941.56
545.993	953.56
546.206	964.56
546.42	954.56
546.633	967.56
546.847	964.56
547.06	961.56
547.274	966.56
547.487	984.56
547.7	979.56
547.914	968.56
548.127	961.56
548.34	934.56
548.554	957.56
548.767	952.56
548.98	967.56
549.193	962.56
549.407	933.56
549.62	956.56
549.833	988.56
550.046	956.56
550.259	958.56
550.473	934.56
550.686	962.56
550.899	946.56
551.112	922.56
551.325	945.56
551.538	918.56
551.751	956.56
551.964	954.56
552.177	953.56
552.39	955.56
552.603	961.56
552.816	969.56
553.029	968.56
553.242	1004.56
553.455	999.56
553.667	991.56
553.88	986.56
554.093	973.56
554.306	948.56
554.519	973.56
554.732	917.56
554.944	933.56
555.157	888.56
555.37	908.56
555.583	896.56
555.795	891.56
556.008	900.56
556.221	860.56
556.433	869.56
556.646	868.56
556.859	820.56
557.071	841.56
557.284	834.56
557.496	802.56
557.709	833.56
557.921	836.56
558.134	824.56
558.346	807.56
558.559	840.56
558.771	802.56
558.984	801.56
559.196	800.56
559.409	784.56
559.621	800.56
559.833	788.56
560.046	771.56
560.258	814.56
560.47	797.56
560.683	811.56
560.895	803.56
561.107	792.56
561.32	798.56
561.532	806.56
561.744	813.56
561.956	798.56
562.168	788.56
562.381	801.56
562.593	821.56
562.805	832.56
563.017	805.56
563.229	796.56
563.441	816.56
563.653	824.56
563.865	844.56
564.077	827.56
564.289	839.56
564.501	850.56
564.713	880.56
564.925	872.56
565.137	844.56
565.349	901.56
565.561	936.56
565.773	933.56
565.985	955.56
566.197	1022.56
566.408	1040.56
566.62	1076.56
566.832	1095.56
567.044	1122.56
567.255	1125.56
567.467	1158.56
567.679	1192.56
567.891	1203.56
568.102	1186.56
568.314	1147.56
568.526	1111.56
568.737	1051.56
568.949	988.56
569.161	963.56
569.372	896.56
569.584	882.56
569.795	868.56
570.007	859.56
570.218	829.56
570.43	828.56
570.641	788.56
570.853	780.56
571.064	800.56
571.276	750.56
571.487	754.56
571.698	756.56
571.91	741.56
572.121	731.56
572.333	722.56
572.544	726.56
572.755	708.56
572.966	681.56
573.178	668.56
573.389	682.56
573.6	682.56
573.811	671.56
574.023	688.56
574.234	650.56
574.445	657.56
574.656	632.56
574.867	650.56
575.078	663.56
575.289	618.56
575.501	614.56
575.712	623.56
575.923	600.56
576.134	613.56
576.345	601.56
576.556	610.56
576.767	608.56
576.978	619.56
577.188	633.56
577.399	603.56
577.61	595.56
577.821	598.56
578.032	599.56
578.243	592.56
578.454	569.56
578.665	603.56
578.875	573.56
579.086	590.56
579.297	585.56
579.508	584.56
579.718	547.56
579.929	560.56
580.14	554.56
580.35	534.56
580.561	542.56
580.772	560.56
580.982	542.56
581.193	538.56
581.403	560.56
581.614	553.56
581.825	539.56
582.035	540.56
582.246	523.56
582.456	546.56
582.667	534.56
582.877	536.56
583.087	536.56
583.298	529.56
583.508	537.56
583.719	514.56
583.929	533.56
584.139	519.56
584.35	536.56
584.56	512.56
584.77	506.56
584.981	533.56
585.191	524.56
585.401	509.56
585.611	527.56
585.821	529.56
586.032	521.56
586.242	523.56
586.452	501.56
586.662	524.56
586.872	529.56
587.082	519.56
587.292	498.56
587.502	529.56
587.713	520.56
587.923	497.56
588.133	483.56
588.343	518.56
588.553	483.56
588.762	532.56
588.972	527.56
589.182	539.56
589.392	512.56
589.602	528.56
589.812	527.56
590.022	523.56
590.232	497.56
590.441	507.56
590.651	529.56
590.861	503.56
591.071	516.56
591.281	526.56
591.49	549.56
591.7	534.56
591.91	531.56
592.119	531.56
592.329	546.56
592.539	539.56
592.748	573.56
592.958	587.56
593.167	569.56
593.377	567.56
593.587	578.56
593.796	585.56
594.006	584.56
594.215	573.56
594.424	563.56
594.634	569.56
594.843	541.56
595.053	558.56
595.262	535.56
595.472	525.56
595.681	522.56
595.89	504.56
596.1	481.56
596.309	501.56
596.518	500.56
596.727	496.56
596.937	485.56
597.146	480.56
597.355	471.56
597.564	470.56
597.774	476.56
597.983	457.56
598.192	456.56
598.401	467.56
598.61	442.56
598.819	436.56
599.028	448.56
599.237	450.56
599.446	427.56
599.655	435.56
599.864	454.56
600.073	446.56
600.282	432.56
600.491	430.56
600.7	434.56
600.909	402.56
601.118	418.56
601.327	429.56
601.536	398.56
601.745	406.56
601.953	414.56
602.162	401.56
602.371	416.56
602.58	406.56
602.789	409.56
602.997	393.56
603.206	409.56
603.415	404.56
603.623	392.56
603.832	385.56
604.041	409.56
604.249	392.56
604.458	399.56
604.666	391.56
604.875	398.56
605.084	401.56
605.292	405.56
605.501	401.56
605.709	388.56
605.918	395.56
606.126	373.56
606.334	392.56
606.543	385.56
606.751	380.56
606.96	372.56
607.168	389.56
607.376	382.56
607.585	366.56
607.793	361.56
608.001	376.56
608.21	391.56
608.418	376.56
608.626	380.56
608.834	371.56
609.043	385.56
609.251	374.56
609.459	356.56
609.667	377.56
609.875	372.56
610.083	364.56
610.291	376.56
610.499	368.56
610.707	360.56
610.916	376.56
611.124	376.56
611.332	389.56
611.54	366.56
611.748	365.56
611.955	374.56
612.163	348.56
612.371	368.56
612.579	345.56
612.787	374.56
612.995	359.56
613.203	365.56
613.411	383.56
613.618	352.56
613.826	366.56
614.034	352.56
614.242	380.56
614.449	342.56
614.657	361.56
614.865	346.56
615.072	363.56
615.28	359.56
615.488	365.56
615.695	358.56
615.903	356.56
616.111	353.56
616.318	358.56
616.526	353.56
616.733	345.56
616.941	328.56
617.148	344.56
617.356	350.56
617.563	345.56
617.771	345.56
617.978	337.56
618.185	347.56
618.393	339.56
618.6	334.56
618.807	339.56
619.015	359.56
619.222	335.56
619.429	343.56
619.637	338.56
619.844	329.56
620.051	331.56
620.258	326.56
620.466	332.56
620.673	330.56
620.88	326.56
621.087	323.56
621.294	325.56
621.501	324.56
621.708	339.56
621.915	325.56
622.122	328.56
622.329	312.56
622.536	322.56
622.743	323.56
622.95	304.56
623.157	312.56
623.364	347.56
623.571	308.56
623.778	343.56
623.985	318.56
624.192	294.56
624.399	315.56
624.606	302.56
624.812	291.56
625.019	308.56
625.226	308.56
625.433	313.56
625.639	296.56
625.846	304.56
626.053	285.56
626.259	296.56
626.466	297.56
626.673	301.56
626.879	306.56
627.086	305.56
627.293	315.56
627.499	308.56
627.706	294.56
627.912	280.56
628.119	282.56
628.325	300.56
628.532	297.56
628.738	313.56
628.945	297.56
629.151	268.56
629.357	288.56
629.564	270.56
629.77	290.56
629.976	271.56
630.183	295.56
630.389	292.56
630.595	295.56
630.802	281.56
631.008	266.56
631.214	292.56
631.42	293.56
631.627	282.56
631.833	265.56
632.039	281.56
632.245	259.56
632.451	283.56
632.657	278.56
632.863	270.56
633.069	274.56
633.275	257.56
633.481	267.56
633.688	270.56
633.893	259.56
634.099	258.56
634.305	256.56
634.511	271.56
634.717	264.56
634.923	258.56
635.129	245.56
635.335	275.56
635.541	252.56
635.747	266.56
635.952	236.56
636.158	255.56
636.364	264.56
636.57	249.56
636.775	261.56
636.981	238.56
637.187	277.56
637.392	255.56
637.598	244.56
637.804	265.56
638.009	246.56
638.215	248.56
638.421	248.56
638.626	257.56
638.832	234.56
639.037	247.56
639.243	239.56
639.448	242.56
639.654	270.56
639.859	249.56
640.065	238.56
640.27	259.56
640.475	249.56
640.681	250.56
640.886	237.56
641.091	226.56
641.297	234.56
641.502	235.56
641.707	260.56
641.913	245.56
642.118	250.56
642.323	224.56
642.528	225.56
642.733	240.56
642.939	245.56
643.144	255.56
643.349	238.56
643.554	222.56
643.759	244.56
643.964	248.56
644.169	225.56
644.374	241.56
644.579	207.56
644.784	227.56
644.989	223.56
645.194	221.56
645.399	235.56
645.604	231.56
645.809	225.56
646.014	236.56
646.219	230.56
646.423	224.56
646.628	232.56
646.833	226.56
647.038	235.56
647.243	242.56
647.447	213.56
647.652	234.56
647.857	233.56
648.062	233.56
648.266	220.56
648.471	229.56
648.676	228.56
648.88	227.56
649.085	229.56
649.289	236.56
649.494	224.56
649.698	212.56
649.903	217.56
650.107	228.56
650.312	206.56
650.516	203.56
650.721	204.56
650.925	210.56
651.13	212.56
651.334	205.56
651.539	215.56
651.743	209.56
651.947	186.56
652.152	185.56
652.356	195.56
652.56	185.56
652.764	193.56
652.969	180.56
653.173	174.56
653.377	178.56
653.581	179.56
653.785	181.56
653.99	168.56
654.194	180.56
654.398	160.56
654.602	168.56
654.806	166.56
655.01	168.56
655.214	173.56
655.418	163.56
655.622	164.56
655.826	160.56
656.03	156.56
656.234	152.56
656.438	140.56
656.642	158.56
656.846	143.56
657.049	161.56
657.253	137.56
657.457	155.56
657.661	132.56
657.865	141.56
658.068	124.56
658.272	140.56
658.476	129.56
658.68	124.56
658.883	125.56
659.087	123.56
659.291	112.56
659.494	121.56
659.698	109.56
659.901	116.56
660.105	102.56
660.309	102.56
660.512	90.56
660.716	103.56
660.919	99.56
661.123	109.56
661.326	105.56
661.53	100.56
661.733	97.56
661.936	79.56
662.14	89.56
662.343	87.56
662.546	89.56
662.75	84.56
662.953	81.56
663.156	86.56
663.36	74.56
663.563	78.56
663.766	85.56
663.969	86.56
664.173	79.56
664.376	86.56
664.579	89.56
664.782	82.56
664.985	88.56
665.188	85.56
665.391	76.56
665.594	72.56
665.797	69.56
666	84.56
666.203	80.56
666.406	80.56
666.609	75.56
666.812	79.56
667.015	86.56
667.218	73.56
667.421	70.56
667.624	77.56
667.827	82.56
668.03	87.56
668.232	74.56
668.435	84.56
668.638	79.56
668.841	82.56
669.043	90.56
669.246	91.56
669.449	89.56
669.651	70.56
669.854	86.56
670.057	82.56
670.259	82.56
670.462	86.56
670.665	67.56
670.867	84.56
671.07	81.56
671.272	86.56
671.475	99.56
671.677	100.56
671.88	99.56
672.082	83.56
672.284	80.56
672.487	90.56
672.689	86.56
672.892	81.56
