Data from Ni(NO3)2@0.5M.TitratingCurve.Agarose3%dH2O.NegLispCup.LampEnergy10.LIBS07252019_HRD10591_17-59-16-564.txt Node
Date: Thu Jul 25 17:59:16 EDT 2019
User: cochatt
Spectrometer: HR+D1059
Trigger mode: 1
Integration Time (sec): 1.000000E-1
Scans to average: 1
Electric dark correction enabled: true
Nonlinearity correction enabled: false
Boxcar width: 0
XAxis mode: Wavelengths
Number of Pixels in Spectrum: 2048
>>>>>Begin Spectral Data<<<<<
223.165	-8.19
223.4	-8.19
223.635	-8.19
223.869	-6.19
224.104	-16.19
224.338	-6.19
224.573	-25.19
224.808	-17.19
225.042	-15.19
225.277	-15.19
225.511	-2.19
225.746	10.81
225.98	10.81
226.215	18.81
226.449	22.81
226.683	20.81
226.918	2.81
227.152	24.81
227.387	34.81
227.621	36.81
227.856	34.81
228.09	41.81
228.324	44.81
228.559	50.81
228.793	70.81
229.027	113.81
229.262	140.81
229.496	138.81
229.73	134.81
229.964	176.81
230.199	195.81
230.433	209.81
230.667	179.81
230.901	191.81
231.136	160.81
231.37	140.81
231.604	179.81
231.838	196.81
232.072	192.81
232.306	196.81
232.541	176.81
232.775	167.81
233.009	151.81
233.243	140.81
233.477	157.81
233.711	157.81
233.945	154.81
234.179	167.81
234.413	164.81
234.647	162.81
234.881	167.81
235.115	166.81
235.349	168.81
235.583	160.81
235.817	135.81
236.051	162.81
236.285	145.81
236.519	153.81
236.753	155.81
236.987	161.81
237.221	157.81
237.455	157.81
237.689	154.81
237.922	156.81
238.156	156.81
238.39	158.81
238.624	166.81
238.858	164.81
239.091	168.81
239.325	172.81
239.559	192.81
239.793	207.81
240.027	219.81
240.26	189.81
240.494	166.81
240.728	185.81
240.961	174.81
241.195	183.81
241.429	185.81
241.662	204.81
241.896	223.81
242.13	202.81
242.363	197.81
242.597	185.81
242.83	208.81
243.064	183.81
243.298	194.81
243.531	192.81
243.765	200.81
243.998	220.81
244.232	235.81
244.465	204.81
244.699	198.81
244.932	200.81
245.166	214.81
245.399	218.81
245.633	203.81
245.866	227.81
246.099	195.81
246.333	224.81
246.566	210.81
246.8	222.81
247.033	198.81
247.266	222.81
247.5	219.81
247.733	240.81
247.966	211.81
248.2	238.81
248.433	232.81
248.666	244.81
248.899	235.81
249.133	221.81
249.366	228.81
249.599	247.81
249.832	223.81
250.066	237.81
250.299	235.81
250.532	246.81
250.765	254.81
250.998	253.81
251.231	273.81
251.465	287.81
251.698	280.81
251.931	283.81
252.164	284.81
252.397	263.81
252.63	264.81
252.863	272.81
253.096	252.81
253.329	274.81
253.562	276.81
253.795	260.81
254.028	273.81
254.261	271.81
254.494	272.81
254.727	266.81
254.96	290.81
255.193	282.81
255.426	267.81
255.659	289.81
255.892	291.81
256.124	299.81
256.357	291.81
256.59	294.81
256.823	302.81
257.056	276.81
257.289	298.81
257.521	299.81
257.754	299.81
257.987	290.81
258.22	290.81
258.452	312.81
258.685	316.81
258.918	319.81
259.151	299.81
259.383	312.81
259.616	303.81
259.849	302.81
260.081	302.81
260.314	290.81
260.547	311.81
260.779	294.81
261.012	305.81
261.244	334.81
261.477	332.81
261.71	322.81
261.942	338.81
262.175	335.81
262.407	333.81
262.64	315.81
262.872	335.81
263.105	329.81
263.337	342.81
263.57	333.81
263.802	338.81
264.035	338.81
264.267	326.81
264.499	341.81
264.732	338.81
264.964	338.81
265.197	353.81
265.429	354.81
265.661	345.81
265.894	339.81
266.126	358.81
266.358	360.81
266.591	349.81
266.823	353.81
267.055	358.81
267.287	382.81
267.52	372.81
267.752	350.81
267.984	380.81
268.216	383.81
268.448	370.81
268.681	378.81
268.913	377.81
269.145	392.81
269.377	370.81
269.609	371.81
269.841	362.81
270.073	368.81
270.306	371.81
270.538	375.81
270.77	384.81
271.002	394.81
271.234	390.81
271.466	361.81
271.698	368.81
271.93	364.81
272.162	391.81
272.394	398.81
272.626	393.81
272.858	390.81
273.09	410.81
273.322	399.81
273.553	395.81
273.785	414.81
274.017	416.81
274.249	417.81
274.481	397.81
274.713	427.81
274.945	420.81
275.176	421.81
275.408	409.81
275.64	413.81
275.872	424.81
276.104	433.81
276.335	427.81
276.567	412.81
276.799	413.81
277.031	420.81
277.262	430.81
277.494	431.81
277.726	415.81
277.957	430.81
278.189	408.81
278.421	412.81
278.652	423.81
278.884	443.81
279.115	414.81
279.347	446.81
279.579	435.81
279.81	447.81
280.042	451.81
280.273	451.81
280.505	459.81
280.736	443.81
280.968	474.81
281.199	468.81
281.431	476.81
281.662	444.81
281.894	463.81
282.125	454.81
282.356	447.81
282.588	444.81
282.819	451.81
283.051	468.81
283.282	468.81
283.513	464.81
283.745	463.81
283.976	465.81
284.207	474.81
284.439	479.81
284.67	488.81
284.901	482.81
285.132	464.81
285.364	464.81
285.595	498.81
285.826	482.81
286.057	483.81
286.288	474.81
286.52	473.81
286.751	490.81
286.982	491.81
287.213	473.81
287.444	483.81
287.675	479.81
287.906	496.81
288.138	496.81
288.369	509.81
288.6	498.81
288.831	479.81
289.062	491.81
289.293	511.81
289.524	500.81
289.755	480.81
289.986	506.81
290.217	498.81
290.448	508.81
290.679	511.81
290.91	518.81
291.141	490.81
291.371	502.81
291.602	507.81
291.833	489.81
292.064	518.81
292.295	488.81
292.526	496.81
292.757	497.81
292.987	505.81
293.218	491.81
293.449	522.81
293.68	515.81
293.91	516.81
294.141	486.81
294.372	525.81
294.603	520.81
294.833	501.81
295.064	514.81
295.295	524.81
295.525	523.81
295.756	527.81
295.987	534.81
296.217	527.81
296.448	525.81
296.679	503.81
296.909	519.81
297.14	533.81
297.37	540.81
297.601	536.81
297.831	514.81
298.062	544.81
298.292	549.81
298.523	575.81
298.753	555.81
298.984	555.81
299.214	567.81
299.445	536.81
299.675	570.81
299.905	568.81
300.136	565.81
300.366	598.81
300.597	589.81
300.827	552.81
301.057	591.81
301.288	600.81
301.518	594.81
301.748	585.81
301.979	572.81
302.209	576.81
302.439	588.81
302.669	586.81
302.9	564.81
303.13	572.81
303.36	571.81
303.59	604.81
303.82	625.81
304.051	622.81
304.281	608.81
304.511	606.81
304.741	614.81
304.971	611.81
305.201	634.81
305.431	645.81
305.661	618.81
305.891	598.81
306.121	614.81
306.352	591.81
306.582	606.81
306.812	571.81
307.042	617.81
307.272	610.81
307.502	595.81
307.731	580.81
307.961	588.81
308.191	593.81
308.421	592.81
308.651	583.81
308.881	605.81
309.111	604.81
309.341	607.81
309.571	600.81
309.8	614.81
310.03	623.81
310.26	627.81
310.49	632.81
310.72	598.81
310.949	598.81
311.179	576.81
311.409	624.81
311.639	634.81
311.868	609.81
312.098	583.81
312.328	616.81
312.557	631.81
312.787	626.81
313.017	624.81
313.246	650.81
313.476	661.81
313.706	659.81
313.935	648.81
314.165	649.81
314.394	635.81
314.624	649.81
314.853	618.81
315.083	656.81
315.312	666.81
315.542	668.81
315.771	643.81
316.001	636.81
316.23	653.81
316.46	640.81
316.689	670.81
316.919	654.81
317.148	647.81
317.377	669.81
317.607	646.81
317.836	634.81
318.065	639.81
318.295	640.81
318.524	673.81
318.753	645.81
318.983	662.81
319.212	636.81
319.441	658.81
319.67	670.81
319.9	667.81
320.129	670.81
320.358	672.81
320.587	667.81
320.816	672.81
321.046	675.81
321.275	681.81
321.504	680.81
321.733	659.81
321.962	672.81
322.191	691.81
322.42	688.81
322.649	672.81
322.878	665.81
323.108	699.81
323.337	707.81
323.566	708.81
323.795	684.81
324.024	705.81
324.253	700.81
324.482	728.81
324.71	695.81
324.939	717.81
325.168	720.81
325.397	688.81
325.626	704.81
325.855	710.81
326.084	710.81
326.313	737.81
326.542	739.81
326.77	728.81
326.999	719.81
327.228	738.81
327.457	717.81
327.686	723.81
327.914	728.81
328.143	705.81
328.372	716.81
328.6	708.81
328.829	721.81
329.058	711.81
329.287	732.81
329.515	743.81
329.744	740.81
329.972	724.81
330.201	744.81
330.43	756.81
330.658	746.81
330.887	734.81
331.115	745.81
331.344	768.81
331.572	768.81
331.801	792.81
332.03	784.81
332.258	799.81
332.486	789.81
332.715	780.81
332.943	814.81
333.172	810.81
333.4	844.81
333.629	820.81
333.857	823.81
334.085	832.81
334.314	848.81
334.542	872.81
334.771	870.81
334.999	843.81
335.227	829.81
335.455	842.81
335.684	881.81
335.912	878.81
336.14	854.81
336.369	871.81
336.597	872.81
336.825	865.81
337.053	874.81
337.281	874.81
337.51	866.81
337.738	839.81
337.966	843.81
338.194	855.81
338.422	849.81
338.65	816.81
338.878	832.81
339.106	829.81
339.334	853.81
339.562	830.81
339.79	790.81
340.018	802.81
340.246	777.81
340.474	803.81
340.702	810.81
340.93	778.81
341.158	839.81
341.386	841.81
341.614	880.81
341.842	855.81
342.07	824.81
342.298	777.81
342.526	824.81
342.754	787.81
342.981	783.81
343.209	821.81
343.437	846.81
343.665	870.81
343.893	854.81
344.12	864.81
344.348	889.81
344.576	872.81
344.804	884.81
345.031	849.81
345.259	844.81
345.487	811.81
345.714	826.81
345.942	866.81
346.17	851.81
346.397	836.81
346.625	793.81
346.853	771.81
347.08	795.81
347.308	786.81
347.535	780.81
347.763	758.81
347.99	780.81
348.218	752.81
348.445	784.81
348.673	746.81
348.9	780.81
349.128	772.81
349.355	794.81
349.583	802.81
349.81	776.81
350.037	777.81
350.265	744.81
350.492	744.81
350.72	784.81
350.947	784.81
351.174	779.81
351.402	820.81
351.629	818.81
351.856	810.81
352.083	754.81
352.311	802.81
352.538	852.81
352.765	832.81
352.992	778.81
353.22	768.81
353.447	727.81
353.674	745.81
353.901	742.81
354.128	752.81
354.355	718.81
354.583	760.81
354.81	759.81
355.037	751.81
355.264	739.81
355.491	732.81
355.718	750.81
355.945	744.81
356.172	734.81
356.399	754.81
356.626	802.81
356.853	787.81
357.08	774.81
357.307	775.81
357.534	741.81
357.761	760.81
357.988	777.81
358.215	738.81
358.441	756.81
358.668	758.81
358.895	742.81
359.122	772.81
359.349	727.81
359.576	750.81
359.802	768.81
360.029	742.81
360.256	772.81
360.483	739.81
360.709	754.81
360.936	761.81
361.163	784.81
361.39	762.81
361.616	773.81
361.843	816.81
362.07	815.81
362.296	821.81
362.523	785.81
362.749	788.81
362.976	762.81
363.203	738.81
363.429	751.81
363.656	752.81
363.882	748.81
364.109	748.81
364.335	772.81
364.562	751.81
364.788	759.81
365.015	762.81
365.241	774.81
365.468	758.81
365.694	767.81
365.92	748.81
366.147	768.81
366.373	750.81
366.599	752.81
366.826	764.81
367.052	737.81
367.278	775.81
367.505	741.81
367.731	772.81
367.957	759.81
368.184	787.81
368.41	795.81
368.636	795.81
368.862	772.81
369.089	786.81
369.315	770.81
369.541	780.81
369.767	812.81
369.993	761.81
370.219	788.81
370.445	802.81
370.672	755.81
370.898	796.81
371.124	791.81
371.35	822.81
371.576	791.81
371.802	817.81
372.028	793.81
372.254	784.81
372.48	814.81
372.706	836.81
372.932	837.81
373.158	808.81
373.384	848.81
373.61	815.81
373.835	811.81
374.061	814.81
374.287	824.81
374.513	853.81
374.739	820.81
374.965	826.81
375.191	858.81
375.416	888.81
375.642	803.81
375.868	852.81
376.094	810.81
376.319	799.81
376.545	812.81
376.771	806.81
376.997	799.81
377.222	800.81
377.448	837.81
377.674	806.81
377.899	790.81
378.125	763.81
378.35	798.81
378.576	806.81
378.802	799.81
379.027	794.81
379.253	801.81
379.478	815.81
379.704	818.81
379.929	802.81
380.155	804.81
380.38	815.81
380.606	792.81
380.831	790.81
381.057	802.81
381.282	795.81
381.507	808.81
381.733	832.81
381.958	795.81
382.184	827.81
382.409	820.81
382.634	837.81
382.86	817.81
383.085	831.81
383.31	840.81
383.535	867.81
383.761	860.81
383.986	867.81
384.211	848.81
384.436	873.81
384.662	886.81
384.887	870.81
385.112	886.81
385.337	884.81
385.562	914.81
385.787	896.81
386.013	936.81
386.238	906.81
386.463	912.81
386.688	906.81
386.913	904.81
387.138	908.81
387.363	895.81
387.588	895.81
387.813	923.81
388.038	924.81
388.263	917.81
388.488	930.81
388.713	954.81
388.938	931.81
389.163	928.81
389.387	892.81
389.612	911.81
389.837	907.81
390.062	915.81
390.287	914.81
390.512	919.81
390.736	931.81
390.961	937.81
391.186	913.81
391.411	936.81
391.636	983.81
391.86	984.81
392.085	995.81
392.31	953.81
392.534	961.81
392.759	970.81
392.984	994.81
393.208	946.81
393.433	971.81
393.658	971.81
393.882	984.81
394.107	944.81
394.331	963.81
394.556	952.81
394.78	970.81
395.005	970.81
395.229	961.81
395.454	966.81
395.678	967.81
395.903	972.81
396.127	970.81
396.352	965.81
396.576	958.81
396.801	969.81
397.025	961.81
397.249	998.81
397.474	997.81
397.698	1003.81
397.922	1025.81
398.147	996.81
398.371	1042.81
398.595	1036.81
398.82	1079.81
399.044	1111.81
399.268	1160.81
399.492	1193.81
399.717	1245.81
399.941	1230.81
400.165	1229.81
400.389	1194.81
400.613	1189.81
400.837	1106.81
401.062	1123.81
401.286	1119.81
401.51	1081.81
401.734	1067.81
401.958	1094.81
402.182	1075.81
402.406	1044.81
402.63	1096.81
402.854	1088.81
403.078	1125.81
403.302	1089.81
403.526	1074.81
403.75	1090.81
403.974	1107.81
404.198	1084.81
404.422	1099.81
404.645	1065.81
404.869	1099.81
405.093	1103.81
405.317	1092.81
405.541	1112.81
405.765	1126.81
405.988	1122.81
406.212	1156.81
406.436	1131.81
406.66	1157.81
406.883	1151.81
407.107	1185.81
407.331	1211.81
407.555	1226.81
407.778	1237.81
408.002	1260.81
408.226	1239.81
408.449	1222.81
408.673	1233.81
408.896	1190.81
409.12	1192.81
409.344	1212.81
409.567	1166.81
409.791	1172.81
410.014	1163.81
410.238	1151.81
410.461	1167.81
410.685	1117.81
410.908	1121.81
411.132	1126.81
411.355	1144.81
411.578	1138.81
411.802	1124.81
412.025	1122.81
412.249	1115.81
412.472	1111.81
412.695	1095.81
412.919	1091.81
413.142	1114.81
413.365	1119.81
413.589	1095.81
413.812	1076.81
414.035	1079.81
414.258	1095.81
414.482	1092.81
414.705	1078.81
414.928	1077.81
415.151	1077.81
415.374	1099.81
415.597	1083.81
415.821	1074.81
416.044	1077.81
416.267	1050.81
416.49	1035.81
416.713	1045.81
416.936	1079.81
417.159	1048.81
417.382	1020.81
417.605	1055.81
417.828	1058.81
418.051	1061.81
418.274	1045.81
418.497	1037.81
418.72	1051.81
418.943	1050.81
419.166	1122.81
419.389	1142.81
419.611	1115.81
419.834	1103.81
420.057	1070.81
420.28	1039.81
420.503	1039.81
420.726	1020.81
420.948	1039.81
421.171	1016.81
421.394	1052.81
421.617	997.81
421.839	1022.81
422.062	1047.81
422.285	1019.81
422.507	1041.81
422.73	1037.81
422.953	1061.81
423.175	1055.81
423.398	1067.81
423.621	1033.81
423.843	1029.81
424.066	1050.81
424.288	1018.81
424.511	1050.81
424.733	1032.81
424.956	1010.81
425.178	1024.81
425.401	1054.81
425.623	1018.81
425.846	1018.81
426.068	1028.81
426.291	1028.81
426.513	1043.81
426.735	997.81
426.958	1008.81
427.18	1027.81
427.402	1019.81
427.625	1010.81
427.847	987.81
428.069	979.81
428.292	997.81
428.514	1002.81
428.736	997.81
428.958	1002.81
429.181	978.81
429.403	986.81
429.625	986.81
429.847	1008.81
430.069	989.81
430.292	994.81
430.514	990.81
430.736	1006.81
430.958	996.81
431.18	961.81
431.402	989.81
431.624	991.81
431.846	959.81
432.068	1003.81
432.29	1009.81
432.512	998.81
432.734	998.81
432.956	984.81
433.178	1011.81
433.4	1013.81
433.622	1056.81
433.844	1060.81
434.066	1025.81
434.287	1023.81
434.509	1037.81
434.731	1058.81
434.953	1082.81
435.175	1093.81
435.397	1096.81
435.618	1053.81
435.84	1013.81
436.062	995.81
436.284	1025.81
436.505	999.81
436.727	1014.81
436.949	1030.81
437.17	1008.81
437.392	1055.81
437.614	972.81
437.835	972.81
438.057	964.81
438.278	967.81
438.5	950.81
438.721	976.81
438.943	1003.81
439.165	964.81
439.386	972.81
439.608	991.81
439.829	1000.81
440.05	1020.81
440.272	1024.81
440.493	992.81
440.715	1036.81
440.936	1015.81
441.158	1022.81
441.379	1013.81
441.6	1054.81
441.822	1050.81
442.043	1066.81
442.264	1066.81
442.486	1027.81
442.707	1028.81
442.928	1028.81
443.149	1076.81
443.371	1098.81
443.592	1138.81
443.813	1119.81
444.034	1040.81
444.255	1079.81
444.476	1074.81
444.698	1095.81
444.919	1147.81
445.14	1232.81
445.361	1139.81
445.582	1102.81
445.803	1093.81
446.024	1008.81
446.245	1048.81
446.466	1001.81
446.687	967.81
446.908	1024.81
447.129	985.81
447.35	922.81
447.571	960.81
447.792	935.81
448.013	951.81
448.234	929.81
448.455	923.81
448.675	939.81
448.896	946.81
449.117	885.81
449.338	937.81
449.559	912.81
449.779	903.81
450	916.81
450.221	930.81
450.442	921.81
450.662	931.81
450.883	916.81
451.104	971.81
451.324	936.81
451.545	891.81
451.766	935.81
451.986	899.81
452.207	884.81
452.428	899.81
452.648	894.81
452.869	916.81
453.089	912.81
453.31	931.81
453.53	879.81
453.751	881.81
453.971	911.81
454.192	926.81
454.412	917.81
454.633	888.81
454.853	874.81
455.073	837.81
455.294	872.81
455.514	913.81
455.734	940.81
455.955	929.81
456.175	912.81
456.395	873.81
456.616	866.81
456.836	855.81
457.056	850.81
457.276	864.81
457.497	898.81
457.717	930.81
457.937	917.81
458.157	914.81
458.377	929.81
458.598	919.81
458.818	955.81
459.038	932.81
459.258	986.81
459.478	1028.81
459.698	1156.81
459.918	1119.81
460.138	1104.81
460.358	1097.81
460.578	1091.81
460.798	1124.81
461.018	1148.81
461.238	1043.81
461.458	1066.81
461.678	1060.81
461.898	1088.81
462.118	1094.81
462.338	1129.81
462.558	1196.81
462.777	1173.81
462.997	1235.81
463.217	1251.81
463.437	1335.81
463.657	1265.81
463.876	1227.81
464.096	1203.81
464.316	1201.81
464.536	1174.81
464.755	1141.81
464.975	1120.81
465.195	1090.81
465.414	1099.81
465.634	1033.81
465.854	1035.81
466.073	1003.81
466.293	979.81
466.512	1000.81
466.732	987.81
466.951	985.81
467.171	991.81
467.391	1001.81
467.61	982.81
467.829	950.81
468.049	948.81
468.268	956.81
468.488	964.81
468.707	952.81
468.927	974.81
469.146	948.81
469.365	985.81
469.585	947.81
469.804	960.81
470.023	975.81
470.243	977.81
470.462	993.81
470.681	964.81
470.901	946.81
471.12	966.81
471.339	979.81
471.558	972.81
471.777	976.81
471.997	945.81
472.216	924.81
472.435	942.81
472.654	959.81
472.873	939.81
473.092	955.81
473.311	947.81
473.53	927.81
473.749	961.81
473.968	957.81
474.187	939.81
474.406	932.81
474.625	955.81
474.844	977.81
475.063	990.81
475.282	1006.81
475.501	989.81
475.72	989.81
475.939	990.81
476.158	972.81
476.377	1018.81
476.596	971.81
476.814	990.81
477.033	1025.81
477.252	1012.81
477.471	1028.81
477.69	1051.81
477.908	1066.81
478.127	1090.81
478.346	1085.81
478.564	1082.81
478.783	1139.81
479.002	1164.81
479.22	1203.81
479.439	1163.81
479.658	1156.81
479.876	1166.81
480.095	1150.81
480.313	1158.81
480.532	1156.81
480.751	1177.81
480.969	1150.81
481.188	1113.81
481.406	1138.81
481.624	1111.81
481.843	1082.81
482.061	1135.81
482.28	1127.81
482.498	1120.81
482.717	1120.81
482.935	1144.81
483.153	1150.81
483.372	1192.81
483.59	1236.81
483.808	1146.81
484.027	1170.81
484.245	1151.81
484.463	1135.81
484.681	1178.81
484.9	1168.81
485.118	1172.81
485.336	1153.81
485.554	1152.81
485.772	1192.81
485.99	1174.81
486.209	1153.81
486.427	1123.81
486.645	1140.81
486.863	1158.81
487.081	1178.81
487.299	1170.81
487.517	1162.81
487.735	1191.81
487.953	1190.81
488.171	1229.81
488.389	1153.81
488.607	1176.81
488.825	1176.81
489.043	1125.81
489.261	1173.81
489.479	1138.81
489.696	1191.81
489.914	1169.81
490.132	1150.81
490.35	1147.81
490.568	1171.81
490.786	1178.81
491.003	1201.81
491.221	1201.81
491.439	1196.81
491.657	1170.81
491.874	1201.81
492.092	1203.81
492.31	1179.81
492.527	1227.81
492.745	1199.81
492.963	1210.81
493.18	1195.81
493.398	1195.81
493.615	1211.81
493.833	1205.81
494.05	1209.81
494.268	1186.81
494.485	1221.81
494.703	1213.81
494.92	1232.81
495.138	1218.81
495.355	1247.81
495.573	1271.81
495.79	1225.81
496.008	1233.81
496.225	1246.81
496.442	1276.81
496.66	1262.81
496.877	1273.81
497.094	1300.81
497.312	1327.81
497.529	1334.81
497.746	1322.81
497.963	1379.81
498.181	1392.81
498.398	1452.81
498.615	1477.81
498.832	1562.81
499.049	1595.81
499.267	1632.81
499.484	1703.81
499.701	1811.81
499.918	1867.81
500.135	1967.81
500.352	2054.81
500.569	2056.81
500.786	2044.81
501.003	1986.81
501.22	1939.81
501.437	1825.81
501.654	1776.81
501.871	1700.81
502.088	1631.81
502.305	1584.81
502.522	1507.81
502.739	1512.81
502.956	1424.81
503.172	1425.81
503.389	1331.81
503.606	1329.81
503.823	1316.81
504.04	1307.81
504.256	1315.81
504.473	1286.81
504.69	1222.81
504.907	1235.81
505.123	1222.81
505.34	1181.81
505.557	1153.81
505.773	1164.81
505.99	1137.81
506.207	1109.81
506.423	1111.81
506.64	1087.81
506.856	1084.81
507.073	1088.81
507.289	1074.81
507.506	1065.81
507.722	1040.81
507.939	1076.81
508.155	1053.81
508.372	1040.81
508.588	1049.81
508.805	1021.81
509.021	1003.81
509.238	982.81
509.454	985.81
509.67	991.81
509.887	993.81
510.103	979.81
510.319	963.81
510.536	974.81
510.752	926.81
510.968	971.81
511.184	947.81
511.401	969.81
511.617	1006.81
511.833	962.81
512.049	979.81
512.265	962.81
512.481	967.81
512.698	944.81
512.914	953.81
513.13	952.81
513.346	939.81
513.562	995.81
513.778	944.81
513.994	974.81
514.21	979.81
514.426	949.81
514.642	998.81
514.858	956.81
515.074	993.81
515.29	993.81
515.506	982.81
515.721	1012.81
515.937	997.81
516.153	1007.81
516.369	984.81
516.585	1007.81
516.801	1040.81
517.016	1056.81
517.232	1043.81
517.448	1065.81
517.664	1095.81
517.879	1103.81
518.095	1056.81
518.311	1071.81
518.527	1040.81
518.742	1046.81
518.958	1009.81
519.173	1010.81
519.389	985.81
519.605	1002.81
519.82	956.81
520.036	978.81
520.251	940.81
520.467	962.81
520.682	924.81
520.898	924.81
521.113	900.81
521.329	904.81
521.544	887.81
521.76	895.81
521.975	906.81
522.19	908.81
522.406	883.81
522.621	879.81
522.836	895.81
523.052	889.81
523.267	866.81
523.482	894.81
523.698	886.81
523.913	890.81
524.128	851.81
524.343	849.81
524.559	862.81
524.774	855.81
524.989	852.81
525.204	842.81
525.419	867.81
525.634	827.81
525.849	855.81
526.064	836.81
526.28	844.81
526.495	855.81
526.71	831.81
526.925	845.81
527.14	823.81
527.355	828.81
527.57	827.81
527.785	821.81
527.999	817.81
528.214	850.81
528.429	824.81
528.644	849.81
528.859	838.81
529.074	871.81
529.289	835.81
529.503	833.81
529.718	831.81
529.933	828.81
530.148	819.81
530.363	836.81
530.577	815.81
530.792	824.81
531.007	830.81
531.221	814.81
531.436	804.81
531.651	818.81
531.865	810.81
532.08	810.81
532.295	833.81
532.509	797.81
532.724	806.81
532.938	795.81
533.153	829.81
533.367	828.81
533.582	794.81
533.796	828.81
534.011	829.81
534.225	811.81
534.44	806.81
534.654	815.81
534.868	785.81
535.083	795.81
535.297	808.81
535.511	794.81
535.726	807.81
535.94	796.81
536.154	783.81
536.369	770.81
536.583	790.81
536.797	763.81
537.011	777.81
537.225	766.81
537.44	768.81
537.654	761.81
537.868	790.81
538.082	739.81
538.296	749.81
538.51	760.81
538.724	780.81
538.938	771.81
539.153	753.81
539.367	765.81
539.581	756.81
539.795	752.81
540.009	758.81
540.222	737.81
540.436	737.81
540.65	755.81
540.864	743.81
541.078	761.81
541.292	750.81
541.506	755.81
541.72	768.81
541.934	724.81
542.147	751.81
542.361	744.81
542.575	761.81
542.789	766.81
543.002	742.81
543.216	735.81
543.43	718.81
543.644	735.81
543.857	728.81
544.071	723.81
544.285	745.81
544.498	752.81
544.712	731.81
544.925	755.81
545.139	776.81
545.352	770.81
545.566	755.81
545.779	737.81
545.993	752.81
546.206	738.81
546.42	735.81
546.633	733.81
546.847	728.81
547.06	731.81
547.274	737.81
547.487	739.81
547.7	742.81
547.914	752.81
548.127	746.81
548.34	758.81
548.554	729.81
548.767	730.81
548.98	754.81
549.193	736.81
549.407	746.81
549.62	768.81
549.833	742.81
550.046	738.81
550.259	743.81
550.473	735.81
550.686	725.81
550.899	744.81
551.112	766.81
551.325	720.81
551.538	722.81
551.751	745.81
551.964	733.81
552.177	684.81
552.39	708.81
552.603	750.81
552.816	732.81
553.029	728.81
553.242	734.81
553.455	755.81
553.667	762.81
553.88	741.81
554.093	721.81
554.306	732.81
554.519	712.81
554.732	684.81
554.944	696.81
555.157	675.81
555.37	692.81
555.583	682.81
555.795	684.81
556.008	691.81
556.221	638.81
556.433	648.81
556.646	663.81
556.859	671.81
557.071	659.81
557.284	664.81
557.496	650.81
557.709	645.81
557.921	631.81
558.134	640.81
558.346	634.81
558.559	632.81
558.771	655.81
558.984	617.81
559.196	630.81
559.409	633.81
559.621	616.81
559.833	614.81
560.046	618.81
560.258	652.81
560.47	614.81
560.683	618.81
560.895	639.81
561.107	604.81
561.32	634.81
561.532	617.81
561.744	628.81
561.956	616.81
562.168	619.81
562.381	620.81
562.593	619.81
562.805	647.81
563.017	616.81
563.229	626.81
563.441	632.81
563.653	639.81
563.865	628.81
564.077	615.81
564.289	633.81
564.501	644.81
564.713	644.81
564.925	646.81
565.137	644.81
565.349	678.81
565.561	690.81
565.773	687.81
565.985	713.81
566.197	732.81
566.408	739.81
566.62	746.81
566.832	757.81
567.044	759.81
567.255	778.81
567.467	790.81
567.679	772.81
567.891	802.81
568.102	760.81
568.314	781.81
568.526	747.81
568.737	724.81
568.949	704.81
569.161	672.81
569.372	631.81
569.584	640.81
569.795	605.81
570.007	608.81
570.218	589.81
570.43	608.81
570.641	612.81
570.853	575.81
571.064	599.81
571.276	578.81
571.487	597.81
571.698	559.81
571.91	574.81
572.121	575.81
572.333	549.81
572.544	546.81
572.755	547.81
572.966	505.81
573.178	515.81
573.389	518.81
573.6	537.81
573.811	505.81
574.023	524.81
574.234	524.81
574.445	485.81
574.656	485.81
574.867	492.81
575.078	483.81
575.289	490.81
575.501	475.81
575.712	477.81
575.923	478.81
576.134	475.81
576.345	484.81
576.556	474.81
576.767	492.81
576.978	479.81
577.188	472.81
577.399	470.81
577.61	477.81
577.821	469.81
578.032	450.81
578.243	445.81
578.454	451.81
578.665	464.81
578.875	449.81
579.086	468.81
579.297	449.81
579.508	443.81
579.718	444.81
579.929	450.81
580.14	448.81
580.35	448.81
580.561	423.81
580.772	443.81
580.982	433.81
581.193	428.81
581.403	425.81
581.614	424.81
581.825	415.81
582.035	423.81
582.246	438.81
582.456	452.81
582.667	440.81
582.877	414.81
583.087	425.81
583.298	417.81
583.508	423.81
583.719	424.81
583.929	405.81
584.139	403.81
584.35	414.81
584.56	402.81
584.77	398.81
584.981	408.81
585.191	416.81
585.401	425.81
585.611	419.81
585.821	402.81
586.032	404.81
586.242	416.81
586.452	425.81
586.662	416.81
586.872	416.81
587.082	422.81
587.292	403.81
587.502	407.81
587.713	392.81
587.923	415.81
588.133	408.81
588.343	410.81
588.553	400.81
588.762	424.81
588.972	440.81
589.182	454.81
589.392	440.81
589.602	409.81
589.812	431.81
590.022	430.81
590.232	406.81
590.441	395.81
590.651	421.81
590.861	417.81
591.071	404.81
591.281	411.81
591.49	400.81
591.7	408.81
591.91	418.81
592.119	408.81
592.329	419.81
592.539	426.81
592.748	435.81
592.958	422.81
593.167	430.81
593.377	442.81
593.587	444.81
593.796	441.81
594.006	426.81
594.215	433.81
594.424	444.81
594.634	440.81
594.843	399.81
595.053	416.81
595.262	406.81
595.472	409.81
595.681	402.81
595.89	416.81
596.1	395.81
596.309	370.81
596.518	406.81
596.727	385.81
596.937	360.81
597.146	363.81
597.355	379.81
597.564	389.81
597.774	364.81
597.983	363.81
598.192	364.81
598.401	366.81
598.61	371.81
598.819	345.81
599.028	359.81
599.237	351.81
599.446	343.81
599.655	339.81
599.864	347.81
600.073	337.81
600.282	332.81
600.491	328.81
600.7	347.81
600.909	339.81
601.118	337.81
601.327	315.81
601.536	337.81
601.745	327.81
601.953	333.81
602.162	332.81
602.371	320.81
602.58	331.81
602.789	320.81
602.997	343.81
603.206	345.81
603.415	331.81
603.623	330.81
603.832	321.81
604.041	308.81
604.249	311.81
604.458	324.81
604.666	320.81
604.875	317.81
605.084	336.81
605.292	325.81
605.501	321.81
605.709	313.81
605.918	325.81
606.126	322.81
606.334	320.81
606.543	322.81
606.751	316.81
606.96	306.81
607.168	313.81
607.376	305.81
607.585	316.81
607.793	303.81
608.001	319.81
608.21	307.81
608.418	316.81
608.626	302.81
608.834	325.81
609.043	317.81
609.251	311.81
609.459	302.81
609.667	286.81
609.875	301.81
610.083	299.81
610.291	314.81
610.499	302.81
610.707	292.81
610.916	295.81
611.124	295.81
611.332	282.81
611.54	314.81
611.748	307.81
611.955	315.81
612.163	299.81
612.371	300.81
612.579	271.81
612.787	285.81
612.995	310.81
613.203	315.81
613.411	289.81
613.618	297.81
613.826	289.81
614.034	298.81
614.242	293.81
614.449	303.81
614.657	299.81
614.865	293.81
615.072	284.81
615.28	282.81
615.488	293.81
615.695	287.81
615.903	311.81
616.111	296.81
616.318	289.81
616.526	288.81
616.733	276.81
616.941	280.81
617.148	294.81
617.356	305.81
617.563	288.81
617.771	293.81
617.978	293.81
618.185	288.81
618.393	290.81
618.6	281.81
618.807	284.81
619.015	287.81
619.222	302.81
619.429	266.81
619.637	290.81
619.844	258.81
620.051	272.81
620.258	274.81
620.466	269.81
620.673	265.81
620.88	255.81
621.087	242.81
621.294	275.81
621.501	286.81
621.708	272.81
621.915	286.81
622.122	266.81
622.329	286.81
622.536	240.81
622.743	280.81
622.95	264.81
623.157	275.81
623.364	279.81
623.571	268.81
623.778	279.81
623.985	266.81
624.192	277.81
624.399	256.81
624.606	252.81
624.812	265.81
625.019	254.81
625.226	256.81
625.433	262.81
625.639	254.81
625.846	264.81
626.053	281.81
626.259	263.81
626.466	251.81
626.673	263.81
626.879	235.81
627.086	262.81
627.293	263.81
627.499	247.81
627.706	254.81
627.912	265.81
628.119	249.81
628.325	245.81
628.532	251.81
628.738	224.81
628.945	252.81
629.151	243.81
629.357	250.81
629.564	250.81
629.77	257.81
629.976	232.81
630.183	232.81
630.389	230.81
630.595	229.81
630.802	237.81
631.008	250.81
631.214	238.81
631.42	228.81
631.627	228.81
631.833	239.81
632.039	241.81
632.245	223.81
632.451	219.81
632.657	241.81
632.863	238.81
633.069	221.81
633.275	240.81
633.481	242.81
633.688	226.81
633.893	226.81
634.099	217.81
634.305	239.81
634.511	229.81
634.717	234.81
634.923	232.81
635.129	230.81
635.335	226.81
635.541	245.81
635.747	224.81
635.952	254.81
636.158	235.81
636.364	233.81
636.57	221.81
636.775	232.81
636.981	243.81
637.187	224.81
637.392	215.81
637.598	209.81
637.804	218.81
638.009	250.81
638.215	222.81
638.421	230.81
638.626	208.81
638.832	215.81
639.037	223.81
639.243	214.81
639.448	236.81
639.654	214.81
639.859	244.81
640.065	237.81
640.27	254.81
640.475	243.81
640.681	221.81
640.886	227.81
641.091	208.81
641.297	216.81
641.502	222.81
641.707	222.81
641.913	240.81
642.118	233.81
642.323	224.81
642.528	228.81
642.733	226.81
642.939	218.81
643.144	211.81
643.349	222.81
643.554	227.81
643.759	223.81
643.964	231.81
644.169	228.81
644.374	207.81
644.579	219.81
644.784	222.81
644.989	225.81
645.194	235.81
645.399	219.81
645.604	223.81
645.809	224.81
646.014	228.81
646.219	208.81
646.423	222.81
646.628	247.81
646.833	234.81
647.038	222.81
647.243	229.81
647.447	225.81
647.652	223.81
647.857	233.81
648.062	224.81
648.266	230.81
648.471	239.81
648.676	216.81
648.88	236.81
649.085	247.81
649.289	228.81
649.494	236.81
649.698	223.81
649.903	218.81
650.107	246.81
650.312	236.81
650.516	228.81
650.721	228.81
650.925	214.81
651.13	215.81
651.334	226.81
651.539	231.81
651.743	229.81
651.947	221.81
652.152	231.81
652.356	246.81
652.56	218.81
652.764	213.81
652.969	234.81
653.173	215.81
653.377	226.81
653.581	200.81
653.785	215.81
653.99	223.81
654.194	203.81
654.398	232.81
654.602	228.81
654.806	211.81
655.01	201.81
655.214	229.81
655.418	217.81
655.622	210.81
655.826	254.81
656.03	240.81
656.234	220.81
656.438	233.81
656.642	230.81
656.846	235.81
657.049	226.81
657.253	216.81
657.457	201.81
657.661	188.81
657.865	195.81
658.068	175.81
658.272	172.81
658.476	160.81
658.68	146.81
658.883	148.81
659.087	142.81
659.291	126.81
659.494	125.81
659.698	124.81
659.901	115.81
660.105	102.81
660.309	105.81
660.512	131.81
660.716	106.81
660.919	108.81
661.123	91.81
661.326	101.81
661.53	92.81
661.733	101.81
661.936	97.81
662.14	90.81
662.343	81.81
662.546	110.81
662.75	100.81
662.953	99.81
663.156	84.81
663.36	83.81
663.563	88.81
663.766	86.81
663.969	91.81
664.173	92.81
664.376	83.81
664.579	81.81
664.782	91.81
664.985	81.81
665.188	70.81
665.391	80.81
665.594	76.81
665.797	94.81
666	80.81
666.203	84.81
666.406	82.81
666.609	70.81
666.812	77.81
667.015	77.81
667.218	87.81
667.421	83.81
667.624	78.81
667.827	84.81
668.03	94.81
668.232	69.81
668.435	73.81
668.638	88.81
668.841	73.81
669.043	78.81
669.246	79.81
669.449	69.81
669.651	64.81
669.854	86.81
670.057	68.81
670.259	75.81
670.462	84.81
670.665	89.81
670.867	91.81
671.07	84.81
671.272	59.81
671.475	82.81
671.677	67.81
671.88	80.81
672.082	87.81
672.284	79.81
672.487	78.81
672.689	78.81
672.892	75.81
