Data from Ni(NO3)2@0.25M.TitratingCurve.Agarose3%dH2O.NegLispCup.LampEnergy10.LIBS07252019_HRD10591_18-04-36-566.txt Node
Date: Thu Jul 25 18:04:36 EDT 2019
User: cochatt
Spectrometer: HR+D1059
Trigger mode: 1
Integration Time (sec): 1.000000E-1
Scans to average: 1
Electric dark correction enabled: true
Nonlinearity correction enabled: false
Boxcar width: 0
XAxis mode: Wavelengths
Number of Pixels in Spectrum: 2048
>>>>>Begin Spectral Data<<<<<
223.165	-20.75
223.4	-20.75
223.635	-20.75
223.869	-23.75
224.104	-16.75
224.338	-17.75
224.573	-28.75
224.808	-16.75
225.042	-3.75
225.277	-2.75
225.511	-1.75
225.746	2.25
225.98	8.25
226.215	11.25
226.449	32.25
226.683	12.25
226.918	33.25
227.152	33.25
227.387	39.25
227.621	40.25
227.856	42.25
228.09	40.25
228.324	53.25
228.559	56.25
228.793	66.25
229.027	107.25
229.262	98.25
229.496	123.25
229.73	124.25
229.964	125.25
230.199	127.25
230.433	144.25
230.667	148.25
230.901	126.25
231.136	138.25
231.37	138.25
231.604	137.25
231.838	159.25
232.072	148.25
232.306	130.25
232.541	134.25
232.775	154.25
233.009	146.25
233.243	152.25
233.477	146.25
233.711	147.25
233.945	146.25
234.179	157.25
234.413	154.25
234.647	154.25
234.881	146.25
235.115	155.25
235.349	133.25
235.583	134.25
235.817	135.25
236.051	143.25
236.285	161.25
236.519	138.25
236.753	151.25
236.987	147.25
237.221	163.25
237.455	164.25
237.689	167.25
237.922	165.25
238.156	168.25
238.39	175.25
238.624	158.25
238.858	168.25
239.091	155.25
239.325	163.25
239.559	172.25
239.793	184.25
240.027	171.25
240.26	176.25
240.494	177.25
240.728	173.25
240.961	171.25
241.195	190.25
241.429	178.25
241.662	187.25
241.896	186.25
242.13	175.25
242.363	184.25
242.597	202.25
242.83	201.25
243.064	184.25
243.298	205.25
243.531	191.25
243.765	197.25
243.998	214.25
244.232	193.25
244.465	214.25
244.699	216.25
244.932	204.25
245.166	217.25
245.399	208.25
245.633	212.25
245.866	211.25
246.099	215.25
246.333	226.25
246.566	218.25
246.8	212.25
247.033	223.25
247.266	214.25
247.5	221.25
247.733	227.25
247.966	232.25
248.2	226.25
248.433	243.25
248.666	242.25
248.899	251.25
249.133	237.25
249.366	240.25
249.599	248.25
249.832	256.25
250.066	248.25
250.299	256.25
250.532	272.25
250.765	268.25
250.998	254.25
251.231	260.25
251.465	270.25
251.698	274.25
251.931	276.25
252.164	270.25
252.397	285.25
252.63	283.25
252.863	283.25
253.096	296.25
253.329	273.25
253.562	278.25
253.795	283.25
254.028	291.25
254.261	303.25
254.494	287.25
254.727	293.25
254.96	291.25
255.193	283.25
255.426	288.25
255.659	300.25
255.892	297.25
256.124	324.25
256.357	321.25
256.59	316.25
256.823	283.25
257.056	332.25
257.289	318.25
257.521	316.25
257.754	316.25
257.987	316.25
258.22	322.25
258.452	326.25
258.685	326.25
258.918	320.25
259.151	324.25
259.383	326.25
259.616	336.25
259.849	339.25
260.081	339.25
260.314	342.25
260.547	342.25
260.779	330.25
261.012	347.25
261.244	358.25
261.477	342.25
261.71	352.25
261.942	359.25
262.175	359.25
262.407	356.25
262.64	371.25
262.872	368.25
263.105	363.25
263.337	368.25
263.57	370.25
263.802	357.25
264.035	377.25
264.267	347.25
264.499	372.25
264.732	362.25
264.964	374.25
265.197	385.25
265.429	377.25
265.661	371.25
265.894	385.25
266.126	390.25
266.358	390.25
266.591	403.25
266.823	398.25
267.055	377.25
267.287	391.25
267.52	389.25
267.752	389.25
267.984	388.25
268.216	395.25
268.448	415.25
268.681	391.25
268.913	407.25
269.145	419.25
269.377	396.25
269.609	408.25
269.841	419.25
270.073	387.25
270.306	385.25
270.538	407.25
270.77	391.25
271.002	406.25
271.234	424.25
271.466	428.25
271.698	403.25
271.93	412.25
272.162	409.25
272.394	447.25
272.626	426.25
272.858	427.25
273.09	424.25
273.322	426.25
273.553	432.25
273.785	434.25
274.017	424.25
274.249	427.25
274.481	446.25
274.713	420.25
274.945	440.25
275.176	461.25
275.408	446.25
275.64	446.25
275.872	441.25
276.104	451.25
276.335	447.25
276.567	444.25
276.799	439.25
277.031	467.25
277.262	451.25
277.494	463.25
277.726	460.25
277.957	476.25
278.189	482.25
278.421	459.25
278.652	464.25
278.884	455.25
279.115	467.25
279.347	480.25
279.579	488.25
279.81	482.25
280.042	474.25
280.273	476.25
280.505	491.25
280.736	486.25
280.968	475.25
281.199	486.25
281.431	471.25
281.662	457.25
281.894	484.25
282.125	487.25
282.356	484.25
282.588	474.25
282.819	517.25
283.051	513.25
283.282	512.25
283.513	484.25
283.745	479.25
283.976	512.25
284.207	497.25
284.439	514.25
284.67	512.25
284.901	529.25
285.132	511.25
285.364	521.25
285.595	532.25
285.826	510.25
286.057	510.25
286.288	520.25
286.52	526.25
286.751	533.25
286.982	523.25
287.213	526.25
287.444	517.25
287.675	543.25
287.906	520.25
288.138	540.25
288.369	528.25
288.6	554.25
288.831	526.25
289.062	531.25
289.293	560.25
289.524	540.25
289.755	541.25
289.986	522.25
290.217	531.25
290.448	550.25
290.679	547.25
290.91	546.25
291.141	546.25
291.371	547.25
291.602	548.25
291.833	532.25
292.064	550.25
292.295	557.25
292.526	550.25
292.757	537.25
292.987	553.25
293.218	558.25
293.449	561.25
293.68	558.25
293.91	547.25
294.141	554.25
294.372	539.25
294.603	548.25
294.833	551.25
295.064	533.25
295.295	554.25
295.525	550.25
295.756	552.25
295.987	543.25
296.217	552.25
296.448	553.25
296.679	577.25
296.909	559.25
297.14	585.25
297.37	561.25
297.601	596.25
297.831	583.25
298.062	568.25
298.292	611.25
298.523	589.25
298.753	611.25
298.984	582.25
299.214	588.25
299.445	599.25
299.675	587.25
299.905	576.25
300.136	586.25
300.366	614.25
300.597	627.25
300.827	606.25
301.057	616.25
301.288	638.25
301.518	645.25
301.748	622.25
301.979	624.25
302.209	651.25
302.439	638.25
302.669	619.25
302.9	610.25
303.13	607.25
303.36	630.25
303.59	626.25
303.82	606.25
304.051	618.25
304.281	625.25
304.511	620.25
304.741	631.25
304.971	609.25
305.201	618.25
305.431	632.25
305.661	616.25
305.891	611.25
306.121	631.25
306.352	625.25
306.582	604.25
306.812	608.25
307.042	604.25
307.272	626.25
307.502	612.25
307.731	625.25
307.961	618.25
308.191	624.25
308.421	619.25
308.651	592.25
308.881	617.25
309.111	600.25
309.341	611.25
309.571	625.25
309.8	654.25
310.03	630.25
310.26	635.25
310.49	650.25
310.72	613.25
310.949	613.25
311.179	647.25
311.409	638.25
311.639	640.25
311.868	635.25
312.098	660.25
312.328	658.25
312.557	642.25
312.787	667.25
313.017	652.25
313.246	676.25
313.476	663.25
313.706	675.25
313.935	675.25
314.165	680.25
314.394	692.25
314.624	681.25
314.853	673.25
315.083	687.25
315.312	691.25
315.542	675.25
315.771	668.25
316.001	689.25
316.23	657.25
316.46	683.25
316.689	690.25
316.919	682.25
317.148	677.25
317.377	682.25
317.607	679.25
317.836	673.25
318.065	664.25
318.295	699.25
318.524	698.25
318.753	686.25
318.983	680.25
319.212	662.25
319.441	697.25
319.67	692.25
319.9	689.25
320.129	690.25
320.358	700.25
320.587	712.25
320.816	691.25
321.046	715.25
321.275	678.25
321.504	698.25
321.733	718.25
321.962	691.25
322.191	715.25
322.42	698.25
322.649	714.25
322.878	695.25
323.108	736.25
323.337	715.25
323.566	750.25
323.795	745.25
324.024	751.25
324.253	726.25
324.482	736.25
324.71	780.25
324.939	753.25
325.168	743.25
325.397	727.25
325.626	758.25
325.855	751.25
326.084	805.25
326.313	793.25
326.542	761.25
326.77	802.25
326.999	757.25
327.228	792.25
327.457	800.25
327.686	804.25
327.914	785.25
328.143	798.25
328.372	820.25
328.6	782.25
328.829	768.25
329.058	818.25
329.287	799.25
329.515	820.25
329.744	818.25
329.972	814.25
330.201	847.25
330.43	824.25
330.658	829.25
330.887	839.25
331.115	831.25
331.344	838.25
331.572	861.25
331.801	846.25
332.03	898.25
332.258	904.25
332.486	920.25
332.715	939.25
332.943	967.25
333.172	988.25
333.4	1051.25
333.629	1056.25
333.857	1067.25
334.085	1066.25
334.314	1050.25
334.542	1062.25
334.771	1077.25
334.999	1086.25
335.227	1033.25
335.455	1046.25
335.684	1040.25
335.912	1050.25
336.14	1002.25
336.369	1020.25
336.597	1022.25
336.825	1009.25
337.053	985.25
337.281	995.25
337.51	962.25
337.738	974.25
337.966	945.25
338.194	937.25
338.422	940.25
338.65	927.25
338.878	922.25
339.106	884.25
339.334	962.25
339.562	906.25
339.79	887.25
340.018	882.25
340.246	843.25
340.474	875.25
340.702	850.25
340.93	872.25
341.158	867.25
341.386	869.25
341.614	927.25
341.842	909.25
342.07	876.25
342.298	914.25
342.526	864.25
342.754	888.25
342.981	879.25
343.209	918.25
343.437	969.25
343.665	973.25
343.893	1003.25
344.12	1011.25
344.348	1052.25
344.576	1018.25
344.804	973.25
345.031	933.25
345.259	916.25
345.487	904.25
345.714	916.25
345.942	864.25
346.17	906.25
346.397	873.25
346.625	888.25
346.853	836.25
347.08	842.25
347.308	835.25
347.535	847.25
347.763	867.25
347.99	826.25
348.218	836.25
348.445	853.25
348.673	858.25
348.9	846.25
349.128	842.25
349.355	818.25
349.583	860.25
349.81	842.25
350.037	837.25
350.265	843.25
350.492	809.25
350.72	816.25
350.947	843.25
351.174	855.25
351.402	831.25
351.629	843.25
351.856	807.25
352.083	848.25
352.311	832.25
352.538	841.25
352.765	856.25
352.992	796.25
353.22	792.25
353.447	797.25
353.674	790.25
353.901	800.25
354.128	811.25
354.355	803.25
354.583	798.25
354.81	798.25
355.037	806.25
355.264	812.25
355.491	826.25
355.718	821.25
355.945	809.25
356.172	820.25
356.399	814.25
356.626	822.25
356.853	866.25
357.08	840.25
357.307	830.25
357.534	819.25
357.761	814.25
357.988	823.25
358.215	798.25
358.441	818.25
358.668	797.25
358.895	798.25
359.122	814.25
359.349	809.25
359.576	828.25
359.802	811.25
360.029	820.25
360.256	803.25
360.483	823.25
360.709	808.25
360.936	834.25
361.163	823.25
361.39	828.25
361.616	829.25
361.843	833.25
362.07	844.25
362.296	867.25
362.523	831.25
362.749	816.25
362.976	788.25
363.203	815.25
363.429	813.25
363.656	804.25
363.882	794.25
364.109	830.25
364.335	809.25
364.562	808.25
364.788	793.25
365.015	799.25
365.241	796.25
365.468	792.25
365.694	803.25
365.92	804.25
366.147	795.25
366.373	795.25
366.599	799.25
366.826	808.25
367.052	804.25
367.278	776.25
367.505	795.25
367.731	815.25
367.957	800.25
368.184	802.25
368.41	796.25
368.636	818.25
368.862	818.25
369.089	807.25
369.315	806.25
369.541	836.25
369.767	843.25
369.993	827.25
370.219	829.25
370.445	826.25
370.672	860.25
370.898	866.25
371.124	838.25
371.35	879.25
371.576	880.25
371.802	866.25
372.028	841.25
372.254	857.25
372.48	855.25
372.706	896.25
372.932	898.25
373.158	869.25
373.384	899.25
373.61	862.25
373.835	892.25
374.061	876.25
374.287	896.25
374.513	904.25
374.739	904.25
374.965	932.25
375.191	927.25
375.416	894.25
375.642	903.25
375.868	904.25
376.094	906.25
376.319	869.25
376.545	898.25
376.771	863.25
376.997	857.25
377.222	882.25
377.448	876.25
377.674	844.25
377.899	861.25
378.125	874.25
378.35	861.25
378.576	861.25
378.802	861.25
379.027	852.25
379.253	863.25
379.478	828.25
379.704	825.25
379.929	806.25
380.155	839.25
380.38	827.25
380.606	837.25
380.831	838.25
381.057	856.25
381.282	850.25
381.507	828.25
381.733	865.25
381.958	861.25
382.184	881.25
382.409	854.25
382.634	879.25
382.86	896.25
383.085	890.25
383.31	893.25
383.535	926.25
383.761	908.25
383.986	914.25
384.211	931.25
384.436	957.25
384.662	966.25
384.887	992.25
385.112	971.25
385.337	976.25
385.562	993.25
385.787	987.25
386.013	1009.25
386.238	997.25
386.463	1000.25
386.688	991.25
386.913	1007.25
387.138	991.25
387.363	1026.25
387.588	983.25
387.813	1024.25
388.038	1040.25
388.263	985.25
388.488	1020.25
388.713	1021.25
388.938	997.25
389.163	1000.25
389.387	1000.25
389.612	1015.25
389.837	958.25
390.062	988.25
390.287	983.25
390.512	1002.25
390.736	1049.25
390.961	1033.25
391.186	1045.25
391.411	1081.25
391.636	1088.25
391.86	1098.25
392.085	1131.25
392.31	1135.25
392.534	1108.25
392.759	1064.25
392.984	1097.25
393.208	1100.25
393.433	1086.25
393.658	1095.25
393.882	1068.25
394.107	1052.25
394.331	1078.25
394.556	1088.25
394.78	1078.25
395.005	1091.25
395.229	1087.25
395.454	1136.25
395.678	1158.25
395.903	1130.25
396.127	1123.25
396.352	1104.25
396.576	1123.25
396.801	1093.25
397.025	1108.25
397.249	1105.25
397.474	1152.25
397.698	1172.25
397.922	1179.25
398.147	1175.25
398.371	1218.25
398.595	1225.25
398.82	1307.25
399.044	1382.25
399.268	1456.25
399.492	1581.25
399.717	1733.25
399.941	1697.25
400.165	1648.25
400.389	1532.25
400.613	1480.25
400.837	1398.25
401.062	1377.25
401.286	1332.25
401.51	1350.25
401.734	1288.25
401.958	1320.25
402.182	1299.25
402.406	1332.25
402.63	1324.25
402.854	1351.25
403.078	1340.25
403.302	1353.25
403.526	1370.25
403.75	1372.25
403.974	1422.25
404.198	1387.25
404.422	1421.25
404.645	1420.25
404.869	1387.25
405.093	1388.25
405.317	1396.25
405.541	1408.25
405.765	1412.25
405.988	1392.25
406.212	1403.25
406.436	1406.25
406.66	1440.25
406.883	1417.25
407.107	1527.25
407.331	1600.25
407.555	1615.25
407.778	1650.25
408.002	1604.25
408.226	1558.25
408.449	1553.25
408.673	1520.25
408.896	1467.25
409.12	1422.25
409.344	1420.25
409.567	1430.25
409.791	1429.25
410.014	1411.25
410.238	1420.25
410.461	1392.25
410.685	1408.25
410.908	1387.25
411.132	1344.25
411.355	1360.25
411.578	1344.25
411.802	1374.25
412.025	1340.25
412.249	1375.25
412.472	1385.25
412.695	1359.25
412.919	1317.25
413.142	1353.25
413.365	1304.25
413.589	1295.25
413.812	1304.25
414.035	1291.25
414.258	1264.25
414.482	1323.25
414.705	1312.25
414.928	1332.25
415.151	1333.25
415.374	1313.25
415.597	1319.25
415.821	1268.25
416.044	1250.25
416.267	1252.25
416.49	1270.25
416.713	1278.25
416.936	1270.25
417.159	1290.25
417.382	1265.25
417.605	1268.25
417.828	1289.25
418.051	1265.25
418.274	1281.25
418.497	1279.25
418.72	1327.25
418.943	1320.25
419.166	1386.25
419.389	1451.25
419.611	1440.25
419.834	1370.25
420.057	1344.25
420.28	1291.25
420.503	1291.25
420.726	1293.25
420.948	1272.25
421.171	1320.25
421.394	1292.25
421.617	1298.25
421.839	1271.25
422.062	1281.25
422.285	1288.25
422.507	1306.25
422.73	1299.25
422.953	1292.25
423.175	1318.25
423.398	1310.25
423.621	1327.25
423.843	1340.25
424.066	1323.25
424.288	1334.25
424.511	1310.25
424.733	1311.25
424.956	1323.25
425.178	1295.25
425.401	1258.25
425.623	1285.25
425.846	1250.25
426.068	1267.25
426.291	1266.25
426.513	1248.25
426.735	1243.25
426.958	1227.25
427.18	1227.25
427.402	1210.25
427.625	1202.25
427.847	1205.25
428.069	1207.25
428.292	1184.25
428.514	1186.25
428.736	1169.25
428.958	1208.25
429.181	1165.25
429.403	1140.25
429.625	1150.25
429.847	1157.25
430.069	1177.25
430.292	1159.25
430.514	1154.25
430.736	1142.25
430.958	1173.25
431.18	1155.25
431.402	1191.25
431.624	1143.25
431.846	1184.25
432.068	1188.25
432.29	1187.25
432.512	1179.25
432.734	1193.25
432.956	1209.25
433.178	1226.25
433.4	1180.25
433.622	1201.25
433.844	1243.25
434.066	1198.25
434.287	1218.25
434.509	1250.25
434.731	1270.25
434.953	1301.25
435.175	1307.25
435.397	1282.25
435.618	1252.25
435.84	1224.25
436.062	1228.25
436.284	1199.25
436.505	1180.25
436.727	1207.25
436.949	1164.25
437.17	1184.25
437.392	1175.25
437.614	1174.25
437.835	1132.25
438.057	1144.25
438.278	1124.25
438.5	1150.25
438.721	1136.25
438.943	1152.25
439.165	1142.25
439.386	1148.25
439.608	1182.25
439.829	1180.25
440.05	1179.25
440.272	1189.25
440.493	1166.25
440.715	1212.25
440.936	1216.25
441.158	1238.25
441.379	1248.25
441.6	1323.25
441.822	1309.25
442.043	1315.25
442.264	1286.25
442.486	1281.25
442.707	1293.25
442.928	1268.25
443.149	1286.25
443.371	1263.25
443.592	1292.25
443.813	1332.25
444.034	1343.25
444.255	1331.25
444.476	1422.25
444.698	1426.25
444.919	1469.25
445.14	1552.25
445.361	1492.25
445.582	1382.25
445.803	1300.25
446.024	1309.25
446.245	1269.25
446.466	1250.25
446.687	1228.25
446.908	1202.25
447.129	1203.25
447.35	1185.25
447.571	1190.25
447.792	1154.25
448.013	1122.25
448.234	1126.25
448.455	1128.25
448.675	1111.25
448.896	1141.25
449.117	1075.25
449.338	1096.25
449.559	1115.25
449.779	1089.25
450	1083.25
450.221	1109.25
450.442	1109.25
450.662	1105.25
450.883	1110.25
451.104	1130.25
451.324	1118.25
451.545	1126.25
451.766	1084.25
451.986	1042.25
452.207	1086.25
452.428	1074.25
452.648	1058.25
452.869	1066.25
453.089	1067.25
453.31	1061.25
453.53	1025.25
453.751	1021.25
453.971	1048.25
454.192	1047.25
454.412	992.25
454.633	1028.25
454.853	999.25
455.073	1036.25
455.294	1037.25
455.514	1020.25
455.734	1024.25
455.955	1018.25
456.175	997.25
456.395	1019.25
456.616	1032.25
456.836	1020.25
457.056	1025.25
457.276	984.25
457.497	1024.25
457.717	1026.25
457.937	1058.25
458.157	1048.25
458.377	1075.25
458.598	1074.25
458.818	1080.25
459.038	1142.25
459.258	1160.25
459.478	1207.25
459.698	1226.25
459.918	1252.25
460.138	1283.25
460.358	1312.25
460.578	1365.25
460.798	1395.25
461.018	1406.25
461.238	1354.25
461.458	1374.25
461.678	1359.25
461.898	1390.25
462.118	1402.25
462.338	1493.25
462.558	1482.25
462.777	1582.25
462.997	1615.25
463.217	1689.25
463.437	1739.25
463.657	1643.25
463.876	1632.25
464.096	1570.25
464.316	1578.25
464.536	1569.25
464.755	1527.25
464.975	1489.25
465.195	1434.25
465.414	1354.25
465.634	1282.25
465.854	1240.25
466.073	1230.25
466.293	1198.25
466.512	1172.25
466.732	1139.25
466.951	1153.25
467.171	1158.25
467.391	1138.25
467.61	1122.25
467.829	1135.25
468.049	1097.25
468.268	1080.25
468.488	1075.25
468.707	1061.25
468.927	1097.25
469.146	1108.25
469.365	1141.25
469.585	1122.25
469.804	1125.25
470.023	1138.25
470.243	1172.25
470.462	1174.25
470.681	1180.25
470.901	1170.25
471.12	1160.25
471.339	1151.25
471.558	1123.25
471.777	1139.25
471.997	1093.25
472.216	1092.25
472.435	1081.25
472.654	1073.25
472.873	1079.25
473.092	1095.25
473.311	1072.25
473.53	1079.25
473.749	1065.25
473.968	1065.25
474.187	1039.25
474.406	1038.25
474.625	1079.25
474.844	1082.25
475.063	1073.25
475.282	1063.25
475.501	1078.25
475.72	1060.25
475.939	1069.25
476.158	1113.25
476.377	1081.25
476.596	1143.25
476.814	1138.25
477.033	1130.25
477.252	1118.25
477.471	1160.25
477.69	1191.25
477.908	1228.25
478.127	1225.25
478.346	1269.25
478.564	1303.25
478.783	1280.25
479.002	1346.25
479.22	1320.25
479.439	1310.25
479.658	1342.25
479.876	1307.25
480.095	1306.25
480.313	1365.25
480.532	1364.25
480.751	1360.25
480.969	1313.25
481.188	1305.25
481.406	1276.25
481.624	1271.25
481.843	1211.25
482.061	1218.25
482.28	1216.25
482.498	1201.25
482.717	1190.25
482.935	1254.25
483.153	1236.25
483.372	1235.25
483.59	1236.25
483.808	1231.25
484.027	1216.25
484.245	1258.25
484.463	1243.25
484.681	1243.25
484.9	1289.25
485.118	1241.25
485.336	1264.25
485.554	1262.25
485.772	1251.25
485.99	1296.25
486.209	1267.25
486.427	1288.25
486.645	1296.25
486.863	1280.25
487.081	1276.25
487.299	1283.25
487.517	1280.25
487.735	1284.25
487.953	1295.25
488.171	1248.25
488.389	1288.25
488.607	1264.25
488.825	1222.25
489.043	1244.25
489.261	1265.25
489.479	1255.25
489.696	1257.25
489.914	1265.25
490.132	1275.25
490.35	1273.25
490.568	1280.25
490.786	1280.25
491.003	1284.25
491.221	1325.25
491.439	1306.25
491.657	1277.25
491.874	1315.25
492.092	1355.25
492.31	1326.25
492.527	1367.25
492.745	1342.25
492.963	1331.25
493.18	1354.25
493.398	1355.25
493.615	1381.25
493.833	1363.25
494.05	1361.25
494.268	1374.25
494.485	1389.25
494.703	1416.25
494.92	1368.25
495.138	1384.25
495.355	1397.25
495.573	1394.25
495.79	1404.25
496.008	1403.25
496.225	1402.25
496.442	1494.25
496.66	1466.25
496.877	1506.25
497.094	1539.25
497.312	1567.25
497.529	1576.25
497.746	1585.25
497.963	1688.25
498.181	1758.25
498.398	1779.25
498.615	1886.25
498.832	2035.25
499.049	2123.25
499.267	2291.25
499.484	2473.25
499.701	2688.25
499.918	2860.25
500.135	3162.25
500.352	3386.25
500.569	3508.25
500.786	3531.25
501.003	3309.25
501.22	3101.25
501.437	2832.25
501.654	2588.25
501.871	2378.25
502.088	2265.25
502.305	2100.25
502.522	2000.25
502.739	1938.25
502.956	1837.25
503.172	1778.25
503.389	1718.25
503.606	1662.25
503.823	1624.25
504.04	1624.25
504.256	1606.25
504.473	1609.25
504.69	1576.25
504.907	1573.25
505.123	1537.25
505.34	1465.25
505.557	1383.25
505.773	1362.25
505.99	1348.25
506.207	1283.25
506.423	1270.25
506.64	1286.25
506.856	1243.25
507.073	1234.25
507.289	1235.25
507.506	1223.25
507.722	1186.25
507.939	1221.25
508.155	1201.25
508.372	1179.25
508.588	1185.25
508.805	1170.25
509.021	1153.25
509.238	1143.25
509.454	1136.25
509.67	1127.25
509.887	1099.25
510.103	1095.25
510.319	1111.25
510.536	1114.25
510.752	1091.25
510.968	1114.25
511.184	1094.25
511.401	1100.25
511.617	1066.25
511.833	1092.25
512.049	1065.25
512.265	1072.25
512.481	1110.25
512.698	1086.25
512.914	1088.25
513.13	1101.25
513.346	1114.25
513.562	1083.25
513.778	1095.25
513.994	1107.25
514.21	1114.25
514.426	1127.25
514.642	1144.25
514.858	1146.25
515.074	1145.25
515.29	1179.25
515.506	1160.25
515.721	1157.25
515.937	1180.25
516.153	1198.25
516.369	1257.25
516.585	1264.25
516.801	1326.25
517.016	1326.25
517.232	1372.25
517.448	1398.25
517.664	1466.25
517.879	1421.25
518.095	1410.25
518.311	1459.25
518.527	1359.25
518.742	1337.25
518.958	1315.25
519.173	1301.25
519.389	1251.25
519.605	1211.25
519.82	1196.25
520.036	1152.25
520.251	1148.25
520.467	1148.25
520.682	1107.25
520.898	1092.25
521.113	1096.25
521.329	1078.25
521.544	1076.25
521.76	1065.25
521.975	1031.25
522.19	1041.25
522.406	1044.25
522.621	1051.25
522.836	1044.25
523.052	1002.25
523.267	1058.25
523.482	1016.25
523.698	1000.25
523.913	1032.25
524.128	1044.25
524.343	1020.25
524.559	1014.25
524.774	1002.25
524.989	1025.25
525.204	1015.25
525.419	1010.25
525.634	984.25
525.849	1014.25
526.064	976.25
526.28	967.25
526.495	954.25
526.71	975.25
526.925	971.25
527.14	986.25
527.355	964.25
527.57	963.25
527.785	975.25
527.999	986.25
528.214	944.25
528.429	961.25
528.644	958.25
528.859	992.25
529.074	972.25
529.289	1007.25
529.503	1010.25
529.718	1004.25
529.933	952.25
530.148	985.25
530.363	995.25
530.577	951.25
530.792	981.25
531.007	958.25
531.221	959.25
531.436	964.25
531.651	986.25
531.865	966.25
532.08	971.25
532.295	935.25
532.509	972.25
532.724	946.25
532.938	956.25
533.153	963.25
533.367	968.25
533.582	949.25
533.796	935.25
534.011	949.25
534.225	958.25
534.44	935.25
534.654	964.25
534.868	953.25
535.083	957.25
535.297	955.25
535.511	954.25
535.726	955.25
535.94	936.25
536.154	942.25
536.369	920.25
536.583	906.25
536.797	916.25
537.011	889.25
537.225	912.25
537.44	903.25
537.654	920.25
537.868	883.25
538.082	878.25
538.296	896.25
538.51	890.25
538.724	898.25
538.938	874.25
539.153	874.25
539.367	887.25
539.581	861.25
539.795	884.25
540.009	859.25
540.222	890.25
540.436	890.25
540.65	884.25
540.864	880.25
541.078	881.25
541.292	881.25
541.506	908.25
541.72	881.25
541.934	875.25
542.147	904.25
542.361	892.25
542.575	870.25
542.789	872.25
543.002	891.25
543.216	864.25
543.43	862.25
543.644	882.25
543.857	875.25
544.071	886.25
544.285	917.25
544.498	886.25
544.712	864.25
544.925	912.25
545.139	890.25
545.352	880.25
545.566	904.25
545.779	919.25
545.993	898.25
546.206	873.25
546.42	891.25
546.633	914.25
546.847	908.25
547.06	907.25
547.274	931.25
547.487	928.25
547.7	894.25
547.914	926.25
548.127	934.25
548.34	898.25
548.554	905.25
548.767	933.25
548.98	911.25
549.193	917.25
549.407	903.25
549.62	915.25
549.833	938.25
550.046	936.25
550.259	895.25
550.473	863.25
550.686	900.25
550.899	894.25
551.112	887.25
551.325	908.25
551.538	905.25
551.751	881.25
551.964	871.25
552.177	932.25
552.39	932.25
552.603	936.25
552.816	957.25
553.029	942.25
553.242	954.25
553.455	980.25
553.667	954.25
553.88	951.25
554.093	942.25
554.306	939.25
554.519	903.25
554.732	902.25
554.944	873.25
555.157	878.25
555.37	862.25
555.583	858.25
555.795	834.25
556.008	820.25
556.221	809.25
556.433	796.25
556.646	792.25
556.859	769.25
557.071	793.25
557.284	784.25
557.496	774.25
557.709	766.25
557.921	763.25
558.134	761.25
558.346	774.25
558.559	765.25
558.771	758.25
558.984	763.25
559.196	741.25
559.409	752.25
559.621	758.25
559.833	732.25
560.046	772.25
560.258	726.25
560.47	722.25
560.683	745.25
560.895	753.25
561.107	748.25
561.32	728.25
561.532	745.25
561.744	755.25
561.956	729.25
562.168	718.25
562.381	732.25
562.593	732.25
562.805	745.25
563.017	741.25
563.229	735.25
563.441	745.25
563.653	752.25
563.865	786.25
564.077	748.25
564.289	755.25
564.501	799.25
564.713	819.25
564.925	836.25
565.137	838.25
565.349	881.25
565.561	878.25
565.773	894.25
565.985	923.25
566.197	960.25
566.408	1011.25
566.62	1034.25
566.832	1136.25
567.044	1146.25
567.255	1131.25
567.467	1151.25
567.679	1183.25
567.891	1270.25
568.102	1253.25
568.314	1186.25
568.526	1113.25
568.737	1042.25
568.949	974.25
569.161	922.25
569.372	880.25
569.584	841.25
569.795	830.25
570.007	818.25
570.218	800.25
570.43	802.25
570.641	741.25
570.853	747.25
571.064	732.25
571.276	739.25
571.487	731.25
571.698	729.25
571.91	690.25
572.121	663.25
572.333	638.25
572.544	665.25
572.755	632.25
572.966	623.25
573.178	638.25
573.389	618.25
573.6	589.25
573.811	617.25
574.023	610.25
574.234	584.25
574.445	596.25
574.656	591.25
574.867	606.25
575.078	583.25
575.289	581.25
575.501	587.25
575.712	578.25
575.923	590.25
576.134	572.25
576.345	560.25
576.556	594.25
576.767	569.25
576.978	574.25
577.188	556.25
577.399	570.25
577.61	539.25
577.821	546.25
578.032	552.25
578.243	563.25
578.454	534.25
578.665	532.25
578.875	547.25
579.086	515.25
579.297	539.25
579.508	532.25
579.718	529.25
579.929	507.25
580.14	527.25
580.35	532.25
580.561	526.25
580.772	492.25
580.982	529.25
581.193	518.25
581.403	502.25
581.614	512.25
581.825	476.25
582.035	494.25
582.246	486.25
582.456	501.25
582.667	512.25
582.877	514.25
583.087	498.25
583.298	489.25
583.508	502.25
583.719	478.25
583.929	485.25
584.139	487.25
584.35	469.25
584.56	489.25
584.77	500.25
584.981	492.25
585.191	496.25
585.401	475.25
585.611	480.25
585.821	471.25
586.032	505.25
586.242	494.25
586.452	507.25
586.662	487.25
586.872	480.25
587.082	478.25
587.292	483.25
587.502	481.25
587.713	472.25
587.923	482.25
588.133	481.25
588.343	473.25
588.553	483.25
588.762	478.25
588.972	495.25
589.182	498.25
589.392	490.25
589.602	480.25
589.812	496.25
590.022	488.25
590.232	466.25
590.441	468.25
590.651	482.25
590.861	500.25
591.071	503.25
591.281	510.25
591.49	495.25
591.7	511.25
591.91	525.25
592.119	516.25
592.329	528.25
592.539	551.25
592.748	543.25
592.958	530.25
593.167	571.25
593.377	564.25
593.587	588.25
593.796	562.25
594.006	578.25
594.215	590.25
594.424	566.25
594.634	564.25
594.843	563.25
595.053	563.25
595.262	505.25
595.472	508.25
595.681	498.25
595.89	464.25
596.1	463.25
596.309	474.25
596.518	446.25
596.727	458.25
596.937	442.25
597.146	442.25
597.355	453.25
597.564	424.25
597.774	438.25
597.983	434.25
598.192	427.25
598.401	392.25
598.61	421.25
598.819	406.25
599.028	411.25
599.237	410.25
599.446	406.25
599.655	400.25
599.864	387.25
600.073	404.25
600.282	379.25
600.491	391.25
600.7	392.25
600.909	390.25
601.118	405.25
601.327	392.25
601.536	392.25
601.745	400.25
601.953	390.25
602.162	392.25
602.371	389.25
602.58	382.25
602.789	389.25
602.997	384.25
603.206	377.25
603.415	369.25
603.623	377.25
603.832	396.25
604.041	359.25
604.249	359.25
604.458	364.25
604.666	379.25
604.875	370.25
605.084	354.25
605.292	344.25
605.501	369.25
605.709	373.25
605.918	389.25
606.126	377.25
606.334	382.25
606.543	372.25
606.751	354.25
606.96	374.25
607.168	361.25
607.376	357.25
607.585	343.25
607.793	359.25
608.001	351.25
608.21	340.25
608.418	369.25
608.626	360.25
608.834	341.25
609.043	363.25
609.251	368.25
609.459	342.25
609.667	330.25
609.875	341.25
610.083	329.25
610.291	347.25
610.499	346.25
610.707	347.25
610.916	350.25
611.124	347.25
611.332	364.25
611.54	362.25
611.748	350.25
611.955	355.25
612.163	356.25
612.371	331.25
612.579	333.25
612.787	342.25
612.995	347.25
613.203	341.25
613.411	343.25
613.618	328.25
613.826	336.25
614.034	345.25
614.242	339.25
614.449	315.25
614.657	334.25
614.865	331.25
615.072	318.25
615.28	330.25
615.488	322.25
615.695	313.25
615.903	344.25
616.111	335.25
616.318	342.25
616.526	325.25
616.733	318.25
616.941	334.25
617.148	318.25
617.356	346.25
617.563	352.25
617.771	331.25
617.978	326.25
618.185	330.25
618.393	331.25
618.6	338.25
618.807	346.25
619.015	331.25
619.222	332.25
619.429	305.25
619.637	338.25
619.844	318.25
620.051	321.25
620.258	297.25
620.466	318.25
620.673	305.25
620.88	316.25
621.087	292.25
621.294	337.25
621.501	330.25
621.708	324.25
621.915	312.25
622.122	302.25
622.329	306.25
622.536	313.25
622.743	311.25
622.95	299.25
623.157	296.25
623.364	298.25
623.571	284.25
623.778	290.25
623.985	279.25
624.192	326.25
624.399	310.25
624.606	286.25
624.812	305.25
625.019	304.25
625.226	297.25
625.433	297.25
625.639	283.25
625.846	273.25
626.053	283.25
626.259	274.25
626.466	280.25
626.673	274.25
626.879	288.25
627.086	306.25
627.293	265.25
627.499	286.25
627.706	283.25
627.912	276.25
628.119	265.25
628.325	282.25
628.532	268.25
628.738	291.25
628.945	280.25
629.151	278.25
629.357	276.25
629.564	265.25
629.77	273.25
629.976	276.25
630.183	253.25
630.389	250.25
630.595	274.25
630.802	271.25
631.008	246.25
631.214	257.25
631.42	256.25
631.627	269.25
631.833	273.25
632.039	284.25
632.245	244.25
632.451	248.25
632.657	256.25
632.863	256.25
633.069	257.25
633.275	232.25
633.481	236.25
633.688	240.25
633.893	232.25
634.099	240.25
634.305	263.25
634.511	254.25
634.717	254.25
634.923	242.25
635.129	242.25
635.335	245.25
635.541	253.25
635.747	247.25
635.952	242.25
636.158	249.25
636.364	226.25
636.57	219.25
636.775	226.25
636.981	228.25
637.187	238.25
637.392	215.25
637.598	224.25
637.804	232.25
638.009	238.25
638.215	242.25
638.421	239.25
638.626	228.25
638.832	216.25
639.037	218.25
639.243	233.25
639.448	224.25
639.654	218.25
639.859	231.25
640.065	222.25
640.27	238.25
640.475	220.25
640.681	202.25
640.886	238.25
641.091	219.25
641.297	219.25
641.502	223.25
641.707	217.25
641.913	220.25
642.118	210.25
642.323	217.25
642.528	225.25
642.733	218.25
642.939	224.25
643.144	232.25
643.349	222.25
643.554	223.25
643.759	212.25
643.964	196.25
644.169	220.25
644.374	217.25
644.579	191.25
644.784	225.25
644.989	232.25
645.194	212.25
645.399	213.25
645.604	223.25
645.809	236.25
646.014	214.25
646.219	195.25
646.423	216.25
646.628	222.25
646.833	220.25
647.038	210.25
647.243	226.25
647.447	219.25
647.652	208.25
647.857	231.25
648.062	231.25
648.266	230.25
648.471	215.25
648.676	220.25
648.88	200.25
649.085	214.25
649.289	219.25
649.494	214.25
649.698	214.25
649.903	197.25
650.107	200.25
650.312	221.25
650.516	192.25
650.721	193.25
650.925	178.25
651.13	197.25
651.334	167.25
651.539	186.25
651.743	182.25
651.947	197.25
652.152	198.25
652.356	190.25
652.56	180.25
652.764	180.25
652.969	184.25
653.173	176.25
653.377	196.25
653.581	164.25
653.785	161.25
653.99	169.25
654.194	160.25
654.398	166.25
654.602	148.25
654.806	152.25
655.01	153.25
655.214	155.25
655.418	151.25
655.622	160.25
655.826	154.25
656.03	144.25
656.234	154.25
656.438	147.25
656.642	166.25
656.846	142.25
657.049	141.25
657.253	145.25
657.457	137.25
657.661	119.25
657.865	139.25
658.068	130.25
658.272	112.25
658.476	124.25
658.68	124.25
658.883	121.25
659.087	102.25
659.291	115.25
659.494	117.25
659.698	100.25
659.901	102.25
660.105	103.25
660.309	92.25
660.512	86.25
660.716	87.25
660.919	84.25
661.123	98.25
661.326	97.25
661.53	86.25
661.733	98.25
661.936	94.25
662.14	79.25
662.343	94.25
662.546	87.25
662.75	87.25
662.953	93.25
663.156	78.25
663.36	98.25
663.563	82.25
663.766	87.25
663.969	76.25
664.173	82.25
664.376	73.25
664.579	81.25
664.782	79.25
664.985	81.25
665.188	81.25
665.391	71.25
665.594	81.25
665.797	81.25
666	73.25
666.203	77.25
666.406	91.25
666.609	76.25
666.812	80.25
667.015	73.25
667.218	70.25
667.421	73.25
667.624	66.25
667.827	86.25
668.03	90.25
668.232	89.25
668.435	84.25
668.638	69.25
668.841	90.25
669.043	80.25
669.246	85.25
669.449	95.25
669.651	81.25
669.854	79.25
670.057	83.25
670.259	76.25
670.462	82.25
670.665	68.25
670.867	78.25
671.07	95.25
671.272	92.25
671.475	77.25
671.677	81.25
671.88	86.25
672.082	76.25
672.284	80.25
672.487	98.25
672.689	80.25
672.892	83.25
