Data from Ni(NO3)2@0.5M.TitratingCurve.Agarose3%dH2O.NegLispCup.LampEnergy10.LIBS07252019_HRD10591_17-59-31-564.txt Node
Date: Thu Jul 25 17:59:31 EDT 2019
User: cochatt
Spectrometer: HR+D1059
Trigger mode: 1
Integration Time (sec): 1.000000E-1
Scans to average: 1
Electric dark correction enabled: true
Nonlinearity correction enabled: false
Boxcar width: 0
XAxis mode: Wavelengths
Number of Pixels in Spectrum: 2048
>>>>>Begin Spectral Data<<<<<
223.165	-18.88
223.4	-18.88
223.635	-18.88
223.869	-9.88
224.104	-28.88
224.338	-16.88
224.573	-12.88
224.808	-26.88
225.042	-3.88
225.277	1.12
225.511	-5.88
225.746	9.12
225.98	8.12
226.215	7.12
226.449	23.12
226.683	16.12
226.918	26.12
227.152	33.12
227.387	30.12
227.621	27.12
227.856	47.12
228.09	66.12
228.324	53.12
228.559	45.12
228.793	76.12
229.027	96.12
229.262	140.12
229.496	134.12
229.73	138.12
229.964	172.12
230.199	197.12
230.433	190.12
230.667	182.12
230.901	193.12
231.136	162.12
231.37	154.12
231.604	169.12
231.838	194.12
232.072	208.12
232.306	191.12
232.541	169.12
232.775	152.12
233.009	173.12
233.243	140.12
233.477	150.12
233.711	173.12
233.945	152.12
234.179	164.12
234.413	168.12
234.647	170.12
234.881	181.12
235.115	184.12
235.349	162.12
235.583	156.12
235.817	166.12
236.051	153.12
236.285	170.12
236.519	162.12
236.753	152.12
236.987	158.12
237.221	162.12
237.455	166.12
237.689	164.12
237.922	192.12
238.156	166.12
238.39	156.12
238.624	174.12
238.858	171.12
239.091	179.12
239.325	174.12
239.559	201.12
239.793	219.12
240.027	209.12
240.26	194.12
240.494	180.12
240.728	186.12
240.961	190.12
241.195	197.12
241.429	192.12
241.662	198.12
241.896	218.12
242.13	232.12
242.363	211.12
242.597	198.12
242.83	199.12
243.064	193.12
243.298	198.12
243.531	198.12
243.765	216.12
243.998	212.12
244.232	213.12
244.465	191.12
244.699	213.12
244.932	199.12
245.166	216.12
245.399	218.12
245.633	216.12
245.866	211.12
246.099	217.12
246.333	194.12
246.566	222.12
246.8	210.12
247.033	221.12
247.266	224.12
247.5	220.12
247.733	248.12
247.966	225.12
248.2	232.12
248.433	246.12
248.666	238.12
248.899	247.12
249.133	233.12
249.366	239.12
249.599	232.12
249.832	234.12
250.066	249.12
250.299	240.12
250.532	258.12
250.765	232.12
250.998	233.12
251.231	284.12
251.465	290.12
251.698	265.12
251.931	275.12
252.164	266.12
252.397	257.12
252.63	248.12
252.863	262.12
253.096	260.12
253.329	236.12
253.562	265.12
253.795	279.12
254.028	298.12
254.261	287.12
254.494	291.12
254.727	267.12
254.96	265.12
255.193	264.12
255.426	286.12
255.659	295.12
255.892	284.12
256.124	297.12
256.357	299.12
256.59	290.12
256.823	286.12
257.056	303.12
257.289	290.12
257.521	294.12
257.754	324.12
257.987	312.12
258.22	298.12
258.452	308.12
258.685	309.12
258.918	310.12
259.151	328.12
259.383	303.12
259.616	286.12
259.849	301.12
260.081	307.12
260.314	314.12
260.547	304.12
260.779	324.12
261.012	319.12
261.244	331.12
261.477	338.12
261.71	329.12
261.942	338.12
262.175	321.12
262.407	326.12
262.64	333.12
262.872	310.12
263.105	341.12
263.337	339.12
263.57	318.12
263.802	343.12
264.035	351.12
264.267	336.12
264.499	367.12
264.732	337.12
264.964	356.12
265.197	351.12
265.429	336.12
265.661	366.12
265.894	339.12
266.126	359.12
266.358	369.12
266.591	374.12
266.823	350.12
267.055	365.12
267.287	368.12
267.52	361.12
267.752	370.12
267.984	386.12
268.216	375.12
268.448	388.12
268.681	368.12
268.913	378.12
269.145	384.12
269.377	381.12
269.609	392.12
269.841	362.12
270.073	381.12
270.306	392.12
270.538	398.12
270.77	375.12
271.002	401.12
271.234	402.12
271.466	386.12
271.698	400.12
271.93	373.12
272.162	402.12
272.394	393.12
272.626	391.12
272.858	384.12
273.09	420.12
273.322	424.12
273.553	395.12
273.785	427.12
274.017	394.12
274.249	390.12
274.481	393.12
274.713	403.12
274.945	433.12
275.176	438.12
275.408	430.12
275.64	442.12
275.872	409.12
276.104	429.12
276.335	413.12
276.567	426.12
276.799	416.12
277.031	431.12
277.262	444.12
277.494	426.12
277.726	438.12
277.957	434.12
278.189	445.12
278.421	452.12
278.652	425.12
278.884	433.12
279.115	434.12
279.347	441.12
279.579	450.12
279.81	437.12
280.042	440.12
280.273	468.12
280.505	456.12
280.736	460.12
280.968	462.12
281.199	472.12
281.431	454.12
281.662	474.12
281.894	470.12
282.125	462.12
282.356	464.12
282.588	453.12
282.819	489.12
283.051	458.12
283.282	456.12
283.513	477.12
283.745	468.12
283.976	471.12
284.207	490.12
284.439	494.12
284.67	487.12
284.901	497.12
285.132	481.12
285.364	484.12
285.595	489.12
285.826	484.12
286.057	495.12
286.288	485.12
286.52	480.12
286.751	501.12
286.982	492.12
287.213	503.12
287.444	502.12
287.675	505.12
287.906	489.12
288.138	501.12
288.369	491.12
288.6	497.12
288.831	509.12
289.062	502.12
289.293	519.12
289.524	499.12
289.755	500.12
289.986	507.12
290.217	498.12
290.448	518.12
290.679	527.12
290.91	521.12
291.141	505.12
291.371	504.12
291.602	520.12
291.833	533.12
292.064	516.12
292.295	507.12
292.526	535.12
292.757	516.12
292.987	545.12
293.218	520.12
293.449	536.12
293.68	523.12
293.91	516.12
294.141	515.12
294.372	531.12
294.603	528.12
294.833	529.12
295.064	502.12
295.295	550.12
295.525	555.12
295.756	531.12
295.987	543.12
296.217	522.12
296.448	527.12
296.679	526.12
296.909	560.12
297.14	540.12
297.37	541.12
297.601	551.12
297.831	552.12
298.062	521.12
298.292	543.12
298.523	574.12
298.753	559.12
298.984	570.12
299.214	574.12
299.445	556.12
299.675	579.12
299.905	570.12
300.136	600.12
300.366	598.12
300.597	611.12
300.827	584.12
301.057	589.12
301.288	594.12
301.518	586.12
301.748	593.12
301.979	590.12
302.209	593.12
302.439	604.12
302.669	608.12
302.9	582.12
303.13	591.12
303.36	614.12
303.59	593.12
303.82	628.12
304.051	612.12
304.281	613.12
304.511	576.12
304.741	584.12
304.971	613.12
305.201	648.12
305.431	636.12
305.661	633.12
305.891	610.12
306.121	605.12
306.352	586.12
306.582	609.12
306.812	584.12
307.042	587.12
307.272	580.12
307.502	611.12
307.731	589.12
307.961	607.12
308.191	605.12
308.421	601.12
308.651	610.12
308.881	603.12
309.111	581.12
309.341	580.12
309.571	627.12
309.8	620.12
310.03	652.12
310.26	663.12
310.49	672.12
310.72	655.12
310.949	603.12
311.179	610.12
311.409	622.12
311.639	640.12
311.868	636.12
312.098	638.12
312.328	632.12
312.557	620.12
312.787	630.12
313.017	637.12
313.246	641.12
313.476	667.12
313.706	665.12
313.935	636.12
314.165	626.12
314.394	645.12
314.624	654.12
314.853	638.12
315.083	644.12
315.312	671.12
315.542	640.12
315.771	668.12
316.001	660.12
316.23	656.12
316.46	667.12
316.689	677.12
316.919	663.12
317.148	658.12
317.377	668.12
317.607	666.12
317.836	661.12
318.065	635.12
318.295	648.12
318.524	672.12
318.753	652.12
318.983	661.12
319.212	675.12
319.441	647.12
319.67	671.12
319.9	679.12
320.129	675.12
320.358	672.12
320.587	680.12
320.816	694.12
321.046	681.12
321.275	665.12
321.504	657.12
321.733	673.12
321.962	684.12
322.191	700.12
322.42	688.12
322.649	698.12
322.878	697.12
323.108	694.12
323.337	711.12
323.566	725.12
323.795	724.12
324.024	708.12
324.253	724.12
324.482	685.12
324.71	695.12
324.939	740.12
325.168	740.12
325.397	705.12
325.626	732.12
325.855	704.12
326.084	732.12
326.313	712.12
326.542	720.12
326.77	732.12
326.999	733.12
327.228	698.12
327.457	746.12
327.686	710.12
327.914	733.12
328.143	733.12
328.372	741.12
328.6	762.12
328.829	750.12
329.058	723.12
329.287	732.12
329.515	746.12
329.744	754.12
329.972	747.12
330.201	758.12
330.43	760.12
330.658	765.12
330.887	744.12
331.115	776.12
331.344	781.12
331.572	785.12
331.801	764.12
332.03	814.12
332.258	801.12
332.486	810.12
332.715	810.12
332.943	804.12
333.172	828.12
333.4	816.12
333.629	840.12
333.857	854.12
334.085	852.12
334.314	866.12
334.542	884.12
334.771	868.12
334.999	858.12
335.227	857.12
335.455	849.12
335.684	876.12
335.912	872.12
336.14	860.12
336.369	886.12
336.597	896.12
336.825	889.12
337.053	860.12
337.281	859.12
337.51	869.12
337.738	868.12
337.966	894.12
338.194	869.12
338.422	822.12
338.65	852.12
338.878	820.12
339.106	861.12
339.334	869.12
339.562	833.12
339.79	805.12
340.018	790.12
340.246	817.12
340.474	808.12
340.702	798.12
340.93	812.12
341.158	805.12
341.386	845.12
341.614	872.12
341.842	874.12
342.07	825.12
342.298	826.12
342.526	837.12
342.754	824.12
342.981	804.12
343.209	805.12
343.437	840.12
343.665	862.12
343.893	868.12
344.12	877.12
344.348	874.12
344.576	865.12
344.804	886.12
345.031	875.12
345.259	812.12
345.487	810.12
345.714	864.12
345.942	861.12
346.17	889.12
346.397	862.12
346.625	810.12
346.853	780.12
347.08	776.12
347.308	781.12
347.535	783.12
347.763	768.12
347.99	762.12
348.218	772.12
348.445	778.12
348.673	794.12
348.9	793.12
349.128	808.12
349.355	825.12
349.583	782.12
349.81	762.12
350.037	750.12
350.265	778.12
350.492	785.12
350.72	746.12
350.947	786.12
351.174	801.12
351.402	805.12
351.629	833.12
351.856	817.12
352.083	769.12
352.311	807.12
352.538	858.12
352.765	868.12
352.992	797.12
353.22	738.12
353.447	764.12
353.674	774.12
353.901	748.12
354.128	765.12
354.355	753.12
354.583	783.12
354.81	728.12
355.037	765.12
355.264	749.12
355.491	770.12
355.718	751.12
355.945	760.12
356.172	742.12
356.399	766.12
356.626	778.12
356.853	803.12
357.08	777.12
357.307	778.12
357.534	787.12
357.761	753.12
357.988	750.12
358.215	753.12
358.441	792.12
358.668	780.12
358.895	764.12
359.122	739.12
359.349	744.12
359.576	791.12
359.802	729.12
360.029	780.12
360.256	776.12
360.483	768.12
360.709	760.12
360.936	767.12
361.163	796.12
361.39	743.12
361.616	774.12
361.843	792.12
362.07	833.12
362.296	817.12
362.523	770.12
362.749	772.12
362.976	749.12
363.203	767.12
363.429	781.12
363.656	750.12
363.882	764.12
364.109	782.12
364.335	748.12
364.562	772.12
364.788	766.12
365.015	763.12
365.241	780.12
365.468	760.12
365.694	774.12
365.92	757.12
366.147	766.12
366.373	787.12
366.599	776.12
366.826	761.12
367.052	792.12
367.278	744.12
367.505	782.12
367.731	794.12
367.957	769.12
368.184	786.12
368.41	765.12
368.636	772.12
368.862	785.12
369.089	778.12
369.315	797.12
369.541	800.12
369.767	796.12
369.993	776.12
370.219	817.12
370.445	807.12
370.672	792.12
370.898	776.12
371.124	796.12
371.35	794.12
371.576	806.12
371.802	821.12
372.028	828.12
372.254	830.12
372.48	824.12
372.706	836.12
372.932	824.12
373.158	832.12
373.384	837.12
373.61	820.12
373.835	828.12
374.061	817.12
374.287	820.12
374.513	828.12
374.739	821.12
374.965	854.12
375.191	863.12
375.416	846.12
375.642	842.12
375.868	859.12
376.094	847.12
376.319	825.12
376.545	815.12
376.771	822.12
376.997	803.12
377.222	794.12
377.448	800.12
377.674	828.12
377.899	834.12
378.125	810.12
378.35	811.12
378.576	805.12
378.802	808.12
379.027	824.12
379.253	812.12
379.478	831.12
379.704	814.12
379.929	819.12
380.155	828.12
380.38	815.12
380.606	801.12
380.831	821.12
381.057	810.12
381.282	806.12
381.507	825.12
381.733	810.12
381.958	837.12
382.184	828.12
382.409	845.12
382.634	832.12
382.86	808.12
383.085	846.12
383.31	860.12
383.535	847.12
383.761	844.12
383.986	853.12
384.211	856.12
384.436	850.12
384.662	890.12
384.887	879.12
385.112	892.12
385.337	902.12
385.562	902.12
385.787	917.12
386.013	927.12
386.238	930.12
386.463	937.12
386.688	926.12
386.913	935.12
387.138	914.12
387.363	949.12
387.588	920.12
387.813	936.12
388.038	945.12
388.263	913.12
388.488	936.12
388.713	938.12
388.938	925.12
389.163	915.12
389.387	933.12
389.612	912.12
389.837	918.12
390.062	926.12
390.287	931.12
390.512	927.12
390.736	914.12
390.961	989.12
391.186	979.12
391.411	982.12
391.636	984.12
391.86	984.12
392.085	974.12
392.31	986.12
392.534	988.12
392.759	974.12
392.984	972.12
393.208	969.12
393.433	955.12
393.658	959.12
393.882	954.12
394.107	952.12
394.331	986.12
394.556	987.12
394.78	963.12
395.005	973.12
395.229	996.12
395.454	990.12
395.678	1004.12
395.903	1001.12
396.127	1030.12
396.352	1016.12
396.576	1012.12
396.801	987.12
397.025	1020.12
397.249	1029.12
397.474	1038.12
397.698	1010.12
397.922	1048.12
398.147	1038.12
398.371	1073.12
398.595	1078.12
398.82	1114.12
399.044	1142.12
399.268	1189.12
399.492	1224.12
399.717	1261.12
399.941	1290.12
400.165	1270.12
400.389	1213.12
400.613	1198.12
400.837	1166.12
401.062	1147.12
401.286	1096.12
401.51	1103.12
401.734	1090.12
401.958	1086.12
402.182	1069.12
402.406	1098.12
402.63	1089.12
402.854	1102.12
403.078	1097.12
403.302	1118.12
403.526	1112.12
403.75	1133.12
403.974	1140.12
404.198	1120.12
404.422	1142.12
404.645	1120.12
404.869	1128.12
405.093	1115.12
405.317	1127.12
405.541	1141.12
405.765	1147.12
405.988	1126.12
406.212	1171.12
406.436	1126.12
406.66	1182.12
406.883	1204.12
407.107	1245.12
407.331	1271.12
407.555	1276.12
407.778	1274.12
408.002	1261.12
408.226	1266.12
408.449	1284.12
408.673	1212.12
408.896	1226.12
409.12	1191.12
409.344	1229.12
409.567	1164.12
409.791	1180.12
410.014	1165.12
410.238	1166.12
410.461	1173.12
410.685	1163.12
410.908	1146.12
411.132	1132.12
411.355	1142.12
411.578	1162.12
411.802	1152.12
412.025	1132.12
412.249	1150.12
412.472	1158.12
412.695	1118.12
412.919	1110.12
413.142	1140.12
413.365	1113.12
413.589	1128.12
413.812	1114.12
414.035	1088.12
414.258	1108.12
414.482	1085.12
414.705	1091.12
414.928	1089.12
415.151	1096.12
415.374	1104.12
415.597	1059.12
415.821	1098.12
416.044	1088.12
416.267	1101.12
416.49	1058.12
416.713	1056.12
416.936	1095.12
417.159	1076.12
417.382	1040.12
417.605	1039.12
417.828	1063.12
418.051	1075.12
418.274	1050.12
418.497	1062.12
418.72	1053.12
418.943	1057.12
419.166	1115.12
419.389	1174.12
419.611	1164.12
419.834	1123.12
420.057	1100.12
420.28	1064.12
420.503	1059.12
420.726	1029.12
420.948	1045.12
421.171	1035.12
421.394	1046.12
421.617	1048.12
421.839	1062.12
422.062	1046.12
422.285	1028.12
422.507	1087.12
422.73	1039.12
422.953	1029.12
423.175	1056.12
423.398	1044.12
423.621	1057.12
423.843	1068.12
424.066	1083.12
424.288	1055.12
424.511	1056.12
424.733	1033.12
424.956	1044.12
425.178	1052.12
425.401	1019.12
425.623	1079.12
425.846	1036.12
426.068	1068.12
426.291	1050.12
426.513	1018.12
426.735	1035.12
426.958	1018.12
427.18	1012.12
427.402	1008.12
427.625	993.12
427.847	997.12
428.069	999.12
428.292	1026.12
428.514	990.12
428.736	1019.12
428.958	1002.12
429.181	955.12
429.403	982.12
429.625	1025.12
429.847	1007.12
430.069	1007.12
430.292	1018.12
430.514	974.12
430.736	1022.12
430.958	1018.12
431.18	989.12
431.402	1012.12
431.624	1017.12
431.846	996.12
432.068	1001.12
432.29	1026.12
432.512	979.12
432.734	1012.12
432.956	1034.12
433.178	1039.12
433.4	1065.12
433.622	1065.12
433.844	1022.12
434.066	1035.12
434.287	1009.12
434.509	1060.12
434.731	1052.12
434.953	1085.12
435.175	1115.12
435.397	1096.12
435.618	1054.12
435.84	1069.12
436.062	1025.12
436.284	1026.12
436.505	1030.12
436.727	1029.12
436.949	1029.12
437.17	1048.12
437.392	1032.12
437.614	1036.12
437.835	954.12
438.057	973.12
438.278	956.12
438.5	1001.12
438.721	952.12
438.943	970.12
439.165	971.12
439.386	983.12
439.608	998.12
439.829	992.12
440.05	1006.12
440.272	998.12
440.493	1029.12
440.715	1049.12
440.936	1032.12
441.158	1044.12
441.379	1029.12
441.6	1065.12
441.822	1063.12
442.043	1064.12
442.264	1039.12
442.486	1050.12
442.707	1040.12
442.928	1058.12
443.149	1049.12
443.371	1119.12
443.592	1156.12
443.813	1108.12
444.034	1093.12
444.255	1062.12
444.476	1087.12
444.698	1168.12
444.919	1159.12
445.14	1228.12
445.361	1156.12
445.582	1138.12
445.803	1062.12
446.024	1052.12
446.245	1014.12
446.466	1012.12
446.687	999.12
446.908	1027.12
447.129	957.12
447.35	992.12
447.571	970.12
447.792	930.12
448.013	940.12
448.234	932.12
448.455	917.12
448.675	931.12
448.896	944.12
449.117	920.12
449.338	922.12
449.559	926.12
449.779	927.12
450	910.12
450.221	939.12
450.442	907.12
450.662	913.12
450.883	929.12
451.104	949.12
451.324	914.12
451.545	914.12
451.766	874.12
451.986	899.12
452.207	906.12
452.428	884.12
452.648	900.12
452.869	902.12
453.089	890.12
453.31	943.12
453.53	881.12
453.751	914.12
453.971	898.12
454.192	901.12
454.412	915.12
454.633	881.12
454.853	859.12
455.073	885.12
455.294	888.12
455.514	884.12
455.734	912.12
455.955	948.12
456.175	937.12
456.395	861.12
456.616	862.12
456.836	887.12
457.056	896.12
457.276	865.12
457.497	902.12
457.717	924.12
457.937	925.12
458.157	924.12
458.377	899.12
458.598	908.12
458.818	928.12
459.038	934.12
459.258	982.12
459.478	1084.12
459.698	1154.12
459.918	1142.12
460.138	1109.12
460.358	1111.12
460.578	1103.12
460.798	1158.12
461.018	1170.12
461.238	1110.12
461.458	1064.12
461.678	1069.12
461.898	1090.12
462.118	1078.12
462.338	1146.12
462.558	1190.12
462.777	1248.12
462.997	1259.12
463.217	1276.12
463.437	1314.12
463.657	1288.12
463.876	1207.12
464.096	1185.12
464.316	1191.12
464.536	1176.12
464.755	1149.12
464.975	1158.12
465.195	1101.12
465.414	1092.12
465.634	1042.12
465.854	1008.12
466.073	970.12
466.293	969.12
466.512	993.12
466.732	993.12
466.951	998.12
467.171	1007.12
467.391	986.12
467.61	964.12
467.829	955.12
468.049	965.12
468.268	953.12
468.488	954.12
468.707	964.12
468.927	957.12
469.146	967.12
469.365	993.12
469.585	990.12
469.804	949.12
470.023	982.12
470.243	992.12
470.462	988.12
470.681	982.12
470.901	990.12
471.12	967.12
471.339	968.12
471.558	964.12
471.777	952.12
471.997	950.12
472.216	964.12
472.435	936.12
472.654	948.12
472.873	940.12
473.092	942.12
473.311	954.12
473.53	958.12
473.749	938.12
473.968	956.12
474.187	936.12
474.406	948.12
474.625	978.12
474.844	978.12
475.063	992.12
475.282	981.12
475.501	1018.12
475.72	972.12
475.939	1004.12
476.158	985.12
476.377	1018.12
476.596	982.12
476.814	1006.12
477.033	1023.12
477.252	1015.12
477.471	1045.12
477.69	1080.12
477.908	1070.12
478.127	1071.12
478.346	1077.12
478.564	1104.12
478.783	1113.12
479.002	1185.12
479.22	1201.12
479.439	1143.12
479.658	1137.12
479.876	1153.12
480.095	1145.12
480.313	1172.12
480.532	1196.12
480.751	1168.12
480.969	1142.12
481.188	1132.12
481.406	1136.12
481.624	1125.12
481.843	1119.12
482.061	1120.12
482.28	1112.12
482.498	1111.12
482.717	1129.12
482.935	1152.12
483.153	1166.12
483.372	1199.12
483.59	1219.12
483.808	1160.12
484.027	1169.12
484.245	1136.12
484.463	1191.12
484.681	1160.12
484.9	1174.12
485.118	1176.12
485.336	1170.12
485.554	1164.12
485.772	1172.12
485.99	1159.12
486.209	1154.12
486.427	1190.12
486.645	1156.12
486.863	1191.12
487.081	1185.12
487.299	1182.12
487.517	1188.12
487.735	1223.12
487.953	1222.12
488.171	1222.12
488.389	1195.12
488.607	1209.12
488.825	1178.12
489.043	1184.12
489.261	1192.12
489.479	1204.12
489.696	1186.12
489.914	1178.12
490.132	1154.12
490.35	1165.12
490.568	1191.12
490.786	1190.12
491.003	1169.12
491.221	1187.12
491.439	1226.12
491.657	1176.12
491.874	1204.12
492.092	1240.12
492.31	1209.12
492.527	1182.12
492.745	1224.12
492.963	1153.12
493.18	1226.12
493.398	1198.12
493.615	1200.12
493.833	1204.12
494.05	1200.12
494.268	1234.12
494.485	1209.12
494.703	1215.12
494.92	1238.12
495.138	1228.12
495.355	1254.12
495.573	1260.12
495.79	1263.12
496.008	1253.12
496.225	1227.12
496.442	1261.12
496.66	1286.12
496.877	1301.12
497.094	1292.12
497.312	1332.12
497.529	1311.12
497.746	1366.12
497.963	1409.12
498.181	1430.12
498.398	1465.12
498.615	1527.12
498.832	1575.12
499.049	1579.12
499.267	1671.12
499.484	1743.12
499.701	1834.12
499.918	1946.12
500.135	2008.12
500.352	2132.12
500.569	2152.12
500.786	2115.12
501.003	2074.12
501.22	2007.12
501.437	1900.12
501.654	1821.12
501.871	1710.12
502.088	1658.12
502.305	1590.12
502.522	1579.12
502.739	1529.12
502.956	1438.12
503.172	1419.12
503.389	1381.12
503.606	1406.12
503.823	1349.12
504.04	1334.12
504.256	1300.12
504.473	1270.12
504.69	1272.12
504.907	1288.12
505.123	1248.12
505.34	1191.12
505.557	1177.12
505.773	1144.12
505.99	1146.12
506.207	1096.12
506.423	1121.12
506.64	1101.12
506.856	1072.12
507.073	1090.12
507.289	1098.12
507.506	1047.12
507.722	1015.12
507.939	1028.12
508.155	1028.12
508.372	1064.12
508.588	1017.12
508.805	1013.12
509.021	1036.12
509.238	1015.12
509.454	1009.12
509.67	1007.12
509.887	970.12
510.103	993.12
510.319	978.12
510.536	997.12
510.752	968.12
510.968	956.12
511.184	960.12
511.401	977.12
511.617	976.12
511.833	954.12
512.049	950.12
512.265	955.12
512.481	949.12
512.698	917.12
512.914	942.12
513.13	929.12
513.346	961.12
513.562	957.12
513.778	977.12
513.994	970.12
514.21	962.12
514.426	953.12
514.642	966.12
514.858	974.12
515.074	961.12
515.29	987.12
515.506	972.12
515.721	981.12
515.937	986.12
516.153	1006.12
516.369	1027.12
516.585	1001.12
516.801	1031.12
517.016	1039.12
517.232	1056.12
517.448	1073.12
517.664	1093.12
517.879	1086.12
518.095	1103.12
518.311	1075.12
518.527	1060.12
518.742	1020.12
518.958	1032.12
519.173	1012.12
519.389	967.12
519.605	991.12
519.82	957.12
520.036	941.12
520.251	951.12
520.467	938.12
520.682	934.12
520.898	958.12
521.113	926.12
521.329	918.12
521.544	925.12
521.76	919.12
521.975	914.12
522.19	893.12
522.406	881.12
522.621	885.12
522.836	861.12
523.052	879.12
523.267	858.12
523.482	884.12
523.698	866.12
523.913	851.12
524.128	893.12
524.343	870.12
524.559	891.12
524.774	848.12
524.989	833.12
525.204	843.12
525.419	836.12
525.634	851.12
525.849	847.12
526.064	846.12
526.28	844.12
526.495	832.12
526.71	845.12
526.925	846.12
527.14	821.12
527.355	809.12
527.57	835.12
527.785	820.12
527.999	806.12
528.214	825.12
528.429	843.12
528.644	843.12
528.859	837.12
529.074	812.12
529.289	838.12
529.503	848.12
529.718	804.12
529.933	830.12
530.148	833.12
530.363	821.12
530.577	814.12
530.792	841.12
531.007	811.12
531.221	824.12
531.436	815.12
531.651	836.12
531.865	802.12
532.08	820.12
532.295	815.12
532.509	822.12
532.724	823.12
532.938	805.12
533.153	833.12
533.367	814.12
533.582	789.12
533.796	796.12
534.011	815.12
534.225	798.12
534.44	815.12
534.654	791.12
534.868	847.12
535.083	797.12
535.297	772.12
535.511	792.12
535.726	799.12
535.94	795.12
536.154	765.12
536.369	787.12
536.583	768.12
536.797	774.12
537.011	736.12
537.225	744.12
537.44	773.12
537.654	758.12
537.868	777.12
538.082	752.12
538.296	750.12
538.51	792.12
538.724	756.12
538.938	751.12
539.153	764.12
539.367	744.12
539.581	730.12
539.795	733.12
540.009	753.12
540.222	769.12
540.436	730.12
540.65	734.12
540.864	743.12
541.078	758.12
541.292	747.12
541.506	754.12
541.72	743.12
541.934	765.12
542.147	760.12
542.361	751.12
542.575	720.12
542.789	758.12
543.002	714.12
543.216	731.12
543.43	740.12
543.644	737.12
543.857	741.12
544.071	738.12
544.285	735.12
544.498	757.12
544.712	760.12
544.925	780.12
545.139	704.12
545.352	732.12
545.566	754.12
545.779	744.12
545.993	731.12
546.206	760.12
546.42	733.12
546.633	746.12
546.847	739.12
547.06	734.12
547.274	760.12
547.487	732.12
547.7	742.12
547.914	764.12
548.127	762.12
548.34	756.12
548.554	743.12
548.767	728.12
548.98	722.12
549.193	749.12
549.407	746.12
549.62	743.12
549.833	750.12
550.046	733.12
550.259	733.12
550.473	733.12
550.686	732.12
550.899	721.12
551.112	728.12
551.325	732.12
551.538	722.12
551.751	743.12
551.964	726.12
552.177	730.12
552.39	751.12
552.603	743.12
552.816	748.12
553.029	738.12
553.242	746.12
553.455	742.12
553.667	762.12
553.88	742.12
554.093	727.12
554.306	733.12
554.519	705.12
554.732	700.12
554.944	724.12
555.157	696.12
555.37	690.12
555.583	684.12
555.795	672.12
556.008	664.12
556.221	657.12
556.433	692.12
556.646	686.12
556.859	644.12
557.071	657.12
557.284	683.12
557.496	647.12
557.709	654.12
557.921	666.12
558.134	641.12
558.346	622.12
558.559	632.12
558.771	652.12
558.984	624.12
559.196	628.12
559.409	622.12
559.621	635.12
559.833	606.12
560.046	623.12
560.258	630.12
560.47	630.12
560.683	608.12
560.895	648.12
561.107	624.12
561.32	610.12
561.532	634.12
561.744	628.12
561.956	636.12
562.168	626.12
562.381	608.12
562.593	636.12
562.805	624.12
563.017	630.12
563.229	653.12
563.441	640.12
563.653	638.12
563.865	638.12
564.077	652.12
564.289	649.12
564.501	616.12
564.713	638.12
564.925	646.12
565.137	657.12
565.349	689.12
565.561	689.12
565.773	683.12
565.985	717.12
566.197	740.12
566.408	724.12
566.62	743.12
566.832	809.12
567.044	816.12
567.255	806.12
567.467	808.12
567.679	832.12
567.891	812.12
568.102	828.12
568.314	795.12
568.526	773.12
568.737	743.12
568.949	702.12
569.161	685.12
569.372	679.12
569.584	624.12
569.795	648.12
570.007	620.12
570.218	639.12
570.43	604.12
570.641	620.12
570.853	607.12
571.064	595.12
571.276	581.12
571.487	577.12
571.698	564.12
571.91	564.12
572.121	582.12
572.333	536.12
572.544	533.12
572.755	538.12
572.966	516.12
573.178	529.12
573.389	526.12
573.6	528.12
573.811	498.12
574.023	526.12
574.234	534.12
574.445	524.12
574.656	496.12
574.867	512.12
575.078	497.12
575.289	498.12
575.501	514.12
575.712	477.12
575.923	473.12
576.134	483.12
576.345	479.12
576.556	481.12
576.767	486.12
576.978	483.12
577.188	460.12
577.399	505.12
577.61	473.12
577.821	472.12
578.032	475.12
578.243	474.12
578.454	454.12
578.665	460.12
578.875	465.12
579.086	436.12
579.297	451.12
579.508	445.12
579.718	473.12
579.929	443.12
580.14	430.12
580.35	449.12
580.561	457.12
580.772	438.12
580.982	451.12
581.193	442.12
581.403	446.12
581.614	428.12
581.825	434.12
582.035	419.12
582.246	411.12
582.456	422.12
582.667	432.12
582.877	407.12
583.087	416.12
583.298	428.12
583.508	423.12
583.719	411.12
583.929	401.12
584.139	408.12
584.35	422.12
584.56	417.12
584.77	417.12
584.981	418.12
585.191	441.12
585.401	409.12
585.611	425.12
585.821	407.12
586.032	425.12
586.242	415.12
586.452	413.12
586.662	409.12
586.872	426.12
587.082	396.12
587.292	406.12
587.502	419.12
587.713	413.12
587.923	396.12
588.133	402.12
588.343	416.12
588.553	414.12
588.762	417.12
588.972	410.12
589.182	455.12
589.392	441.12
589.602	395.12
589.812	433.12
590.022	436.12
590.232	436.12
590.441	391.12
590.651	408.12
590.861	410.12
591.071	392.12
591.281	426.12
591.49	409.12
591.7	406.12
591.91	414.12
592.119	421.12
592.329	431.12
592.539	412.12
592.748	430.12
592.958	410.12
593.167	427.12
593.377	433.12
593.587	436.12
593.796	420.12
594.006	429.12
594.215	448.12
594.424	417.12
594.634	436.12
594.843	411.12
595.053	413.12
595.262	415.12
595.472	393.12
595.681	409.12
595.89	416.12
596.1	376.12
596.309	374.12
596.518	379.12
596.727	386.12
596.937	387.12
597.146	372.12
597.355	377.12
597.564	369.12
597.774	378.12
597.983	375.12
598.192	367.12
598.401	353.12
598.61	356.12
598.819	365.12
599.028	359.12
599.237	348.12
599.446	362.12
599.655	361.12
599.864	335.12
600.073	342.12
600.282	380.12
600.491	350.12
600.7	363.12
600.909	359.12
601.118	332.12
601.327	348.12
601.536	344.12
601.745	336.12
601.953	334.12
602.162	334.12
602.371	341.12
602.58	344.12
602.789	329.12
602.997	313.12
603.206	346.12
603.415	326.12
603.623	326.12
603.832	331.12
604.041	321.12
604.249	327.12
604.458	325.12
604.666	330.12
604.875	303.12
605.084	322.12
605.292	321.12
605.501	315.12
605.709	324.12
605.918	328.12
606.126	325.12
606.334	338.12
606.543	326.12
606.751	310.12
606.96	324.12
607.168	317.12
607.376	321.12
607.585	323.12
607.793	304.12
608.001	315.12
608.21	302.12
608.418	315.12
608.626	322.12
608.834	315.12
609.043	320.12
609.251	321.12
609.459	310.12
609.667	337.12
609.875	318.12
610.083	313.12
610.291	296.12
610.499	314.12
610.707	312.12
610.916	271.12
611.124	289.12
611.332	308.12
611.54	304.12
611.748	317.12
611.955	300.12
612.163	296.12
612.371	334.12
612.579	297.12
612.787	310.12
612.995	289.12
613.203	301.12
613.411	306.12
613.618	288.12
613.826	282.12
614.034	290.12
614.242	278.12
614.449	281.12
614.657	312.12
614.865	309.12
615.072	302.12
615.28	281.12
615.488	311.12
615.695	292.12
615.903	285.12
616.111	316.12
616.318	295.12
616.526	300.12
616.733	306.12
616.941	280.12
617.148	283.12
617.356	299.12
617.563	290.12
617.771	298.12
617.978	299.12
618.185	310.12
618.393	283.12
618.6	314.12
618.807	292.12
619.015	282.12
619.222	314.12
619.429	272.12
619.637	275.12
619.844	284.12
620.051	281.12
620.258	258.12
620.466	285.12
620.673	275.12
620.88	275.12
621.087	283.12
621.294	261.12
621.501	280.12
621.708	282.12
621.915	263.12
622.122	274.12
622.329	269.12
622.536	278.12
622.743	264.12
622.95	273.12
623.157	273.12
623.364	279.12
623.571	281.12
623.778	250.12
623.985	287.12
624.192	275.12
624.399	257.12
624.606	284.12
624.812	269.12
625.019	263.12
625.226	257.12
625.433	264.12
625.639	280.12
625.846	265.12
626.053	257.12
626.259	253.12
626.466	248.12
626.673	271.12
626.879	268.12
627.086	266.12
627.293	265.12
627.499	260.12
627.706	253.12
627.912	244.12
628.119	266.12
628.325	248.12
628.532	248.12
628.738	250.12
628.945	255.12
629.151	277.12
629.357	246.12
629.564	261.12
629.77	258.12
629.976	246.12
630.183	236.12
630.389	248.12
630.595	240.12
630.802	245.12
631.008	231.12
631.214	233.12
631.42	237.12
631.627	247.12
631.833	233.12
632.039	249.12
632.245	248.12
632.451	231.12
632.657	248.12
632.863	234.12
633.069	228.12
633.275	220.12
633.481	251.12
633.688	238.12
633.893	233.12
634.099	238.12
634.305	255.12
634.511	236.12
634.717	248.12
634.923	244.12
635.129	237.12
635.335	226.12
635.541	225.12
635.747	228.12
635.952	225.12
636.158	239.12
636.364	229.12
636.57	221.12
636.775	231.12
636.981	235.12
637.187	220.12
637.392	223.12
637.598	238.12
637.804	236.12
638.009	230.12
638.215	221.12
638.421	218.12
638.626	214.12
638.832	214.12
639.037	228.12
639.243	207.12
639.448	206.12
639.654	228.12
639.859	229.12
640.065	202.12
640.27	241.12
640.475	241.12
640.681	217.12
640.886	235.12
641.091	234.12
641.297	247.12
641.502	238.12
641.707	221.12
641.913	217.12
642.118	224.12
642.323	206.12
642.528	206.12
642.733	212.12
642.939	219.12
643.144	215.12
643.349	221.12
643.554	220.12
643.759	211.12
643.964	222.12
644.169	232.12
644.374	216.12
644.579	225.12
644.784	225.12
644.989	220.12
645.194	227.12
645.399	228.12
645.604	211.12
645.809	195.12
646.014	238.12
646.219	223.12
646.423	229.12
646.628	230.12
646.833	222.12
647.038	241.12
647.243	236.12
647.447	236.12
647.652	236.12
647.857	235.12
648.062	223.12
648.266	231.12
648.471	233.12
648.676	242.12
648.88	238.12
649.085	248.12
649.289	219.12
649.494	222.12
649.698	234.12
649.903	237.12
650.107	235.12
650.312	249.12
650.516	223.12
650.721	232.12
650.925	241.12
651.13	222.12
651.334	235.12
651.539	251.12
651.743	232.12
651.947	231.12
652.152	225.12
652.356	242.12
652.56	231.12
652.764	236.12
652.969	220.12
653.173	228.12
653.377	219.12
653.581	219.12
653.785	249.12
653.99	222.12
654.194	223.12
654.398	214.12
654.602	235.12
654.806	233.12
655.01	251.12
655.214	237.12
655.418	236.12
655.622	239.12
655.826	252.12
656.03	263.12
656.234	256.12
656.438	276.12
656.642	280.12
656.846	250.12
657.049	248.12
657.253	238.12
657.457	224.12
657.661	218.12
657.865	192.12
658.068	176.12
658.272	168.12
658.476	175.12
658.68	155.12
658.883	150.12
659.087	157.12
659.291	136.12
659.494	125.12
659.698	135.12
659.901	139.12
660.105	129.12
660.309	129.12
660.512	104.12
660.716	110.12
660.919	110.12
661.123	117.12
661.326	101.12
661.53	95.12
661.733	101.12
661.936	94.12
662.14	107.12
662.343	80.12
662.546	91.12
662.75	102.12
662.953	93.12
663.156	89.12
663.36	85.12
663.563	79.12
663.766	104.12
663.969	80.12
664.173	85.12
664.376	70.12
664.579	83.12
664.782	93.12
664.985	82.12
665.188	93.12
665.391	70.12
665.594	88.12
665.797	85.12
666	89.12
666.203	89.12
666.406	79.12
666.609	79.12
666.812	95.12
667.015	92.12
667.218	94.12
667.421	76.12
667.624	92.12
667.827	82.12
668.03	96.12
668.232	98.12
668.435	80.12
668.638	86.12
668.841	65.12
669.043	74.12
669.246	91.12
669.449	88.12
669.651	80.12
669.854	78.12
670.057	93.12
670.259	78.12
670.462	80.12
670.665	89.12
670.867	78.12
671.07	78.12
671.272	85.12
671.475	72.12
671.677	97.12
671.88	88.12
672.082	96.12
672.284	69.12
672.487	90.12
672.689	64.12
672.892	68.12
