Data from Ni(NO3)2@0.5M.TitratingCurve.Agarose3%dH2O.NegLispCup.LampEnergy10.LIBS07252019_HRD10591_18-00-03-565.txt Node
Date: Thu Jul 25 18:00:03 EDT 2019
User: cochatt
Spectrometer: HR+D1059
Trigger mode: 1
Integration Time (sec): 1.000000E-1
Scans to average: 1
Electric dark correction enabled: true
Nonlinearity correction enabled: false
Boxcar width: 0
XAxis mode: Wavelengths
Number of Pixels in Spectrum: 2048
>>>>>Begin Spectral Data<<<<<
223.165	-17.62
223.4	-17.62
223.635	-17.62
223.869	-36.62
224.104	-22.62
224.338	-27.62
224.573	-29.62
224.808	2.38
225.042	-5.62
225.277	-0.62
225.511	-3.62
225.746	-1.62
225.98	16.38
226.215	19.38
226.449	21.38
226.683	19.38
226.918	27.38
227.152	39.38
227.387	23.38
227.621	23.38
227.856	37.38
228.09	31.38
228.324	38.38
228.559	49.38
228.793	63.38
229.027	89.38
229.262	91.38
229.496	97.38
229.73	113.38
229.964	118.38
230.199	127.38
230.433	120.38
230.667	115.38
230.901	120.38
231.136	134.38
231.37	117.38
231.604	124.38
231.838	136.38
232.072	131.38
232.306	113.38
232.541	101.38
232.775	117.38
233.009	133.38
233.243	122.38
233.477	125.38
233.711	108.38
233.945	118.38
234.179	112.38
234.413	111.38
234.647	127.38
234.881	121.38
235.115	112.38
235.349	120.38
235.583	116.38
235.817	118.38
236.051	111.38
236.285	116.38
236.519	102.38
236.753	120.38
236.987	117.38
237.221	129.38
237.455	114.38
237.689	116.38
237.922	126.38
238.156	114.38
238.39	132.38
238.624	115.38
238.858	138.38
239.091	136.38
239.325	131.38
239.559	126.38
239.793	136.38
240.027	155.38
240.26	138.38
240.494	134.38
240.728	136.38
240.961	128.38
241.195	122.38
241.429	146.38
241.662	152.38
241.896	154.38
242.13	130.38
242.363	133.38
242.597	143.38
242.83	136.38
243.064	137.38
243.298	133.38
243.531	151.38
243.765	142.38
243.998	162.38
244.232	148.38
244.465	146.38
244.699	151.38
244.932	157.38
245.166	150.38
245.399	166.38
245.633	144.38
245.866	155.38
246.099	150.38
246.333	158.38
246.566	151.38
246.8	161.38
247.033	153.38
247.266	145.38
247.5	139.38
247.733	152.38
247.966	158.38
248.2	166.38
248.433	155.38
248.666	148.38
248.899	158.38
249.133	157.38
249.366	162.38
249.599	175.38
249.832	150.38
250.066	182.38
250.299	162.38
250.532	174.38
250.765	191.38
250.998	173.38
251.231	185.38
251.465	178.38
251.698	188.38
251.931	180.38
252.164	176.38
252.397	179.38
252.63	186.38
252.863	175.38
253.096	194.38
253.329	188.38
253.562	200.38
253.795	185.38
254.028	208.38
254.261	191.38
254.494	193.38
254.727	208.38
254.96	174.38
255.193	172.38
255.426	176.38
255.659	191.38
255.892	198.38
256.124	191.38
256.357	208.38
256.59	185.38
256.823	191.38
257.056	217.38
257.289	204.38
257.521	205.38
257.754	184.38
257.987	215.38
258.22	200.38
258.452	199.38
258.685	202.38
258.918	218.38
259.151	202.38
259.383	203.38
259.616	195.38
259.849	195.38
260.081	213.38
260.314	224.38
260.547	227.38
260.779	188.38
261.012	224.38
261.244	227.38
261.477	230.38
261.71	226.38
261.942	207.38
262.175	227.38
262.407	217.38
262.64	211.38
262.872	208.38
263.105	229.38
263.337	226.38
263.57	232.38
263.802	222.38
264.035	226.38
264.267	224.38
264.499	224.38
264.732	224.38
264.964	241.38
265.197	232.38
265.429	211.38
265.661	230.38
265.894	230.38
266.126	237.38
266.358	245.38
266.591	231.38
266.823	239.38
267.055	246.38
267.287	239.38
267.52	227.38
267.752	248.38
267.984	236.38
268.216	240.38
268.448	252.38
268.681	265.38
268.913	248.38
269.145	239.38
269.377	261.38
269.609	233.38
269.841	241.38
270.073	256.38
270.306	258.38
270.538	262.38
270.77	236.38
271.002	255.38
271.234	252.38
271.466	267.38
271.698	253.38
271.93	248.38
272.162	258.38
272.394	265.38
272.626	261.38
272.858	263.38
273.09	253.38
273.322	273.38
273.553	278.38
273.785	271.38
274.017	260.38
274.249	275.38
274.481	261.38
274.713	266.38
274.945	275.38
275.176	273.38
275.408	277.38
275.64	286.38
275.872	276.38
276.104	297.38
276.335	284.38
276.567	278.38
276.799	271.38
277.031	265.38
277.262	276.38
277.494	272.38
277.726	290.38
277.957	276.38
278.189	292.38
278.421	301.38
278.652	297.38
278.884	306.38
279.115	295.38
279.347	293.38
279.579	270.38
279.81	294.38
280.042	290.38
280.273	293.38
280.505	297.38
280.736	303.38
280.968	300.38
281.199	296.38
281.431	292.38
281.662	283.38
281.894	294.38
282.125	300.38
282.356	297.38
282.588	286.38
282.819	309.38
283.051	315.38
283.282	313.38
283.513	316.38
283.745	313.38
283.976	318.38
284.207	308.38
284.439	317.38
284.67	305.38
284.901	320.38
285.132	324.38
285.364	313.38
285.595	310.38
285.826	316.38
286.057	336.38
286.288	308.38
286.52	330.38
286.751	328.38
286.982	317.38
287.213	319.38
287.444	317.38
287.675	310.38
287.906	328.38
288.138	333.38
288.369	330.38
288.6	334.38
288.831	315.38
289.062	311.38
289.293	332.38
289.524	345.38
289.755	339.38
289.986	312.38
290.217	327.38
290.448	339.38
290.679	322.38
290.91	326.38
291.141	329.38
291.371	344.38
291.602	342.38
291.833	347.38
292.064	325.38
292.295	337.38
292.526	328.38
292.757	306.38
292.987	346.38
293.218	340.38
293.449	333.38
293.68	325.38
293.91	339.38
294.141	348.38
294.372	340.38
294.603	340.38
294.833	352.38
295.064	360.38
295.295	325.38
295.525	334.38
295.756	351.38
295.987	336.38
296.217	354.38
296.448	346.38
296.679	337.38
296.909	345.38
297.14	354.38
297.37	358.38
297.601	367.38
297.831	360.38
298.062	377.38
298.292	360.38
298.523	362.38
298.753	364.38
298.984	377.38
299.214	371.38
299.445	365.38
299.675	365.38
299.905	372.38
300.136	367.38
300.366	363.38
300.597	348.38
300.827	369.38
301.057	366.38
301.288	388.38
301.518	390.38
301.748	360.38
301.979	400.38
302.209	397.38
302.439	361.38
302.669	368.38
302.9	380.38
303.13	385.38
303.36	376.38
303.59	389.38
303.82	406.38
304.051	406.38
304.281	391.38
304.511	370.38
304.741	376.38
304.971	404.38
305.201	386.38
305.431	399.38
305.661	371.38
305.891	391.38
306.121	369.38
306.352	393.38
306.582	383.38
306.812	383.38
307.042	378.38
307.272	385.38
307.502	369.38
307.731	369.38
307.961	390.38
308.191	380.38
308.421	390.38
308.651	377.38
308.881	373.38
309.111	398.38
309.341	378.38
309.571	402.38
309.8	389.38
310.03	394.38
310.26	408.38
310.49	400.38
310.72	411.38
310.949	386.38
311.179	382.38
311.409	388.38
311.639	386.38
311.868	387.38
312.098	408.38
312.328	401.38
312.557	395.38
312.787	391.38
313.017	398.38
313.246	421.38
313.476	399.38
313.706	433.38
313.935	400.38
314.165	410.38
314.394	406.38
314.624	408.38
314.853	394.38
315.083	416.38
315.312	438.38
315.542	423.38
315.771	428.38
316.001	400.38
316.23	392.38
316.46	416.38
316.689	421.38
316.919	432.38
317.148	411.38
317.377	411.38
317.607	428.38
317.836	412.38
318.065	410.38
318.295	414.38
318.524	401.38
318.753	398.38
318.983	418.38
319.212	401.38
319.441	419.38
319.67	436.38
319.9	407.38
320.129	408.38
320.358	430.38
320.587	409.38
320.816	405.38
321.046	434.38
321.275	424.38
321.504	425.38
321.733	426.38
321.962	415.38
322.191	433.38
322.42	441.38
322.649	421.38
322.878	430.38
323.108	444.38
323.337	426.38
323.566	419.38
323.795	440.38
324.024	435.38
324.253	461.38
324.482	430.38
324.71	446.38
324.939	447.38
325.168	454.38
325.397	453.38
325.626	447.38
325.855	438.38
326.084	472.38
326.313	458.38
326.542	453.38
326.77	458.38
326.999	443.38
327.228	466.38
327.457	458.38
327.686	468.38
327.914	466.38
328.143	462.38
328.372	469.38
328.6	448.38
328.829	455.38
329.058	458.38
329.287	468.38
329.515	470.38
329.744	462.38
329.972	469.38
330.201	461.38
330.43	482.38
330.658	488.38
330.887	481.38
331.115	484.38
331.344	471.38
331.572	490.38
331.801	493.38
332.03	494.38
332.258	496.38
332.486	500.38
332.715	501.38
332.943	518.38
333.172	530.38
333.4	529.38
333.629	561.38
333.857	569.38
334.085	564.38
334.314	568.38
334.542	566.38
334.771	572.38
334.999	566.38
335.227	570.38
335.455	550.38
335.684	574.38
335.912	562.38
336.14	559.38
336.369	533.38
336.597	537.38
336.825	548.38
337.053	546.38
337.281	558.38
337.51	543.38
337.738	528.38
337.966	538.38
338.194	521.38
338.422	522.38
338.65	517.38
338.878	499.38
339.106	512.38
339.334	537.38
339.562	513.38
339.79	490.38
340.018	510.38
340.246	494.38
340.474	510.38
340.702	484.38
340.93	505.38
341.158	504.38
341.386	535.38
341.614	520.38
341.842	522.38
342.07	490.38
342.298	492.38
342.526	489.38
342.754	500.38
342.981	494.38
343.209	488.38
343.437	527.38
343.665	543.38
343.893	534.38
344.12	550.38
344.348	549.38
344.576	529.38
344.804	523.38
345.031	521.38
345.259	500.38
345.487	489.38
345.714	488.38
345.942	484.38
346.17	544.38
346.397	505.38
346.625	497.38
346.853	493.38
347.08	497.38
347.308	506.38
347.535	480.38
347.763	496.38
347.99	476.38
348.218	482.38
348.445	477.38
348.673	496.38
348.9	465.38
349.128	466.38
349.355	505.38
349.583	488.38
349.81	476.38
350.037	483.38
350.265	500.38
350.492	480.38
350.72	457.38
350.947	470.38
351.174	480.38
351.402	482.38
351.629	494.38
351.856	485.38
352.083	476.38
352.311	463.38
352.538	491.38
352.765	485.38
352.992	462.38
353.22	464.38
353.447	473.38
353.674	465.38
353.901	461.38
354.128	470.38
354.355	466.38
354.583	454.38
354.81	457.38
355.037	466.38
355.264	460.38
355.491	463.38
355.718	479.38
355.945	468.38
356.172	440.38
356.399	481.38
356.626	473.38
356.853	483.38
357.08	457.38
357.307	489.38
357.534	457.38
357.761	466.38
357.988	465.38
358.215	453.38
358.441	454.38
358.668	461.38
358.895	456.38
359.122	473.38
359.349	471.38
359.576	470.38
359.802	457.38
360.029	452.38
360.256	473.38
360.483	482.38
360.709	457.38
360.936	492.38
361.163	468.38
361.39	476.38
361.616	460.38
361.843	470.38
362.07	475.38
362.296	490.38
362.523	473.38
362.749	461.38
362.976	474.38
363.203	488.38
363.429	463.38
363.656	463.38
363.882	480.38
364.109	473.38
364.335	477.38
364.562	492.38
364.788	466.38
365.015	484.38
365.241	475.38
365.468	471.38
365.694	463.38
365.92	470.38
366.147	477.38
366.373	497.38
366.599	460.38
366.826	482.38
367.052	483.38
367.278	466.38
367.505	467.38
367.731	483.38
367.957	481.38
368.184	488.38
368.41	477.38
368.636	465.38
368.862	490.38
369.089	477.38
369.315	483.38
369.541	499.38
369.767	496.38
369.993	496.38
370.219	465.38
370.445	497.38
370.672	502.38
370.898	501.38
371.124	485.38
371.35	492.38
371.576	480.38
371.802	504.38
372.028	512.38
372.254	536.38
372.48	503.38
372.706	518.38
372.932	527.38
373.158	519.38
373.384	528.38
373.61	523.38
373.835	503.38
374.061	500.38
374.287	520.38
374.513	523.38
374.739	541.38
374.965	537.38
375.191	526.38
375.416	537.38
375.642	499.38
375.868	529.38
376.094	533.38
376.319	519.38
376.545	523.38
376.771	529.38
376.997	509.38
377.222	510.38
377.448	511.38
377.674	489.38
377.899	492.38
378.125	511.38
378.35	520.38
378.576	502.38
378.802	499.38
379.027	494.38
379.253	506.38
379.478	508.38
379.704	494.38
379.929	495.38
380.155	507.38
380.38	495.38
380.606	498.38
380.831	509.38
381.057	520.38
381.282	512.38
381.507	499.38
381.733	492.38
381.958	518.38
382.184	532.38
382.409	519.38
382.634	522.38
382.86	534.38
383.085	544.38
383.31	525.38
383.535	534.38
383.761	511.38
383.986	542.38
384.211	534.38
384.436	546.38
384.662	557.38
384.887	560.38
385.112	552.38
385.337	558.38
385.562	559.38
385.787	587.38
386.013	570.38
386.238	580.38
386.463	570.38
386.688	576.38
386.913	582.38
387.138	576.38
387.363	559.38
387.588	588.38
387.813	589.38
388.038	571.38
388.263	566.38
388.488	589.38
388.713	577.38
388.938	598.38
389.163	590.38
389.387	572.38
389.612	577.38
389.837	598.38
390.062	580.38
390.287	574.38
390.512	566.38
390.736	574.38
390.961	585.38
391.186	571.38
391.411	597.38
391.636	600.38
391.86	612.38
392.085	625.38
392.31	621.38
392.534	600.38
392.759	638.38
392.984	606.38
393.208	613.38
393.433	615.38
393.658	585.38
393.882	601.38
394.107	620.38
394.331	604.38
394.556	597.38
394.78	595.38
395.005	602.38
395.229	621.38
395.454	648.38
395.678	628.38
395.903	629.38
396.127	635.38
396.352	623.38
396.576	623.38
396.801	637.38
397.025	626.38
397.249	650.38
397.474	641.38
397.698	636.38
397.922	674.38
398.147	649.38
398.371	636.38
398.595	670.38
398.82	702.38
399.044	724.38
399.268	742.38
399.492	799.38
399.717	833.38
399.941	828.38
400.165	793.38
400.389	778.38
400.613	770.38
400.837	749.38
401.062	708.38
401.286	705.38
401.51	688.38
401.734	681.38
401.958	685.38
402.182	673.38
402.406	701.38
402.63	709.38
402.854	720.38
403.078	720.38
403.302	712.38
403.526	698.38
403.75	713.38
403.974	718.38
404.198	714.38
404.422	744.38
404.645	730.38
404.869	735.38
405.093	741.38
405.317	730.38
405.541	727.38
405.765	723.38
405.988	732.38
406.212	724.38
406.436	731.38
406.66	745.38
406.883	774.38
407.107	788.38
407.331	807.38
407.555	830.38
407.778	808.38
408.002	819.38
408.226	797.38
408.449	819.38
408.673	777.38
408.896	777.38
409.12	777.38
409.344	756.38
409.567	757.38
409.791	771.38
410.014	751.38
410.238	775.38
410.461	744.38
410.685	728.38
410.908	735.38
411.132	736.38
411.355	717.38
411.578	732.38
411.802	753.38
412.025	750.38
412.249	733.38
412.472	734.38
412.695	710.38
412.919	708.38
413.142	704.38
413.365	733.38
413.589	710.38
413.812	709.38
414.035	705.38
414.258	705.38
414.482	731.38
414.705	711.38
414.928	712.38
415.151	714.38
415.374	694.38
415.597	688.38
415.821	661.38
416.044	674.38
416.267	681.38
416.49	681.38
416.713	663.38
416.936	673.38
417.159	681.38
417.382	689.38
417.605	660.38
417.828	671.38
418.051	672.38
418.274	691.38
418.497	680.38
418.72	681.38
418.943	694.38
419.166	740.38
419.389	775.38
419.611	761.38
419.834	702.38
420.057	715.38
420.28	682.38
420.503	690.38
420.726	700.38
420.948	680.38
421.171	698.38
421.394	673.38
421.617	664.38
421.839	713.38
422.062	703.38
422.285	664.38
422.507	694.38
422.73	664.38
422.953	690.38
423.175	673.38
423.398	691.38
423.621	672.38
423.843	699.38
424.066	664.38
424.288	688.38
424.511	682.38
424.733	688.38
424.956	669.38
425.178	682.38
425.401	694.38
425.623	691.38
425.846	666.38
426.068	642.38
426.291	658.38
426.513	649.38
426.735	641.38
426.958	681.38
427.18	649.38
427.402	636.38
427.625	656.38
427.847	639.38
428.069	642.38
428.292	666.38
428.514	633.38
428.736	664.38
428.958	640.38
429.181	637.38
429.403	650.38
429.625	620.38
429.847	600.38
430.069	632.38
430.292	635.38
430.514	617.38
430.736	658.38
430.958	663.38
431.18	640.38
431.402	625.38
431.624	636.38
431.846	647.38
432.068	638.38
432.29	644.38
432.512	626.38
432.734	631.38
432.956	622.38
433.178	685.38
433.4	642.38
433.622	646.38
433.844	652.38
434.066	662.38
434.287	666.38
434.509	664.38
434.731	660.38
434.953	696.38
435.175	693.38
435.397	705.38
435.618	673.38
435.84	651.38
436.062	667.38
436.284	665.38
436.505	632.38
436.727	665.38
436.949	642.38
437.17	654.38
437.392	644.38
437.614	626.38
437.835	633.38
438.057	628.38
438.278	602.38
438.5	609.38
438.721	634.38
438.943	636.38
439.165	609.38
439.386	616.38
439.608	629.38
439.829	644.38
440.05	623.38
440.272	640.38
440.493	661.38
440.715	660.38
440.936	689.38
441.158	680.38
441.379	675.38
441.6	696.38
441.822	676.38
442.043	678.38
442.264	671.38
442.486	671.38
442.707	698.38
442.928	676.38
443.149	677.38
443.371	676.38
443.592	718.38
443.813	718.38
444.034	686.38
444.255	699.38
444.476	744.38
444.698	748.38
444.919	772.38
445.14	829.38
445.361	752.38
445.582	704.38
445.803	718.38
446.024	697.38
446.245	698.38
446.466	687.38
446.687	641.38
446.908	624.38
447.129	612.38
447.35	631.38
447.571	621.38
447.792	626.38
448.013	616.38
448.234	616.38
448.455	590.38
448.675	605.38
448.896	595.38
449.117	606.38
449.338	610.38
449.559	617.38
449.779	606.38
450	597.38
450.221	603.38
450.442	572.38
450.662	589.38
450.883	596.38
451.104	612.38
451.324	585.38
451.545	614.38
451.766	618.38
451.986	609.38
452.207	598.38
452.428	593.38
452.648	591.38
452.869	584.38
453.089	573.38
453.31	590.38
453.53	586.38
453.751	567.38
453.971	580.38
454.192	589.38
454.412	585.38
454.633	560.38
454.853	563.38
455.073	562.38
455.294	562.38
455.514	558.38
455.734	565.38
455.955	570.38
456.175	566.38
456.395	584.38
456.616	569.38
456.836	537.38
457.056	567.38
457.276	570.38
457.497	570.38
457.717	586.38
457.937	557.38
458.157	578.38
458.377	590.38
458.598	589.38
458.818	592.38
459.038	594.38
459.258	605.38
459.478	635.38
459.698	668.38
459.918	674.38
460.138	671.38
460.358	676.38
460.578	688.38
460.798	705.38
461.018	724.38
461.238	693.38
461.458	708.38
461.678	700.38
461.898	711.38
462.118	709.38
462.338	750.38
462.558	745.38
462.777	803.38
462.997	804.38
463.217	843.38
463.437	844.38
463.657	845.38
463.876	810.38
464.096	789.38
464.316	775.38
464.536	787.38
464.755	735.38
464.975	711.38
465.195	722.38
465.414	684.38
465.634	678.38
465.854	664.38
466.073	670.38
466.293	662.38
466.512	630.38
466.732	633.38
466.951	606.38
467.171	618.38
467.391	633.38
467.61	645.38
467.829	627.38
468.049	597.38
468.268	606.38
468.488	606.38
468.707	603.38
468.927	611.38
469.146	629.38
469.365	640.38
469.585	619.38
469.804	609.38
470.023	623.38
470.243	619.38
470.462	632.38
470.681	646.38
470.901	624.38
471.12	626.38
471.339	626.38
471.558	605.38
471.777	611.38
471.997	603.38
472.216	573.38
472.435	594.38
472.654	585.38
472.873	615.38
473.092	578.38
473.311	598.38
473.53	581.38
473.749	608.38
473.968	587.38
474.187	575.38
474.406	599.38
474.625	576.38
474.844	603.38
475.063	603.38
475.282	624.38
475.501	629.38
475.72	623.38
475.939	587.38
476.158	621.38
476.377	633.38
476.596	624.38
476.814	632.38
477.033	629.38
477.252	646.38
477.471	633.38
477.69	646.38
477.908	676.38
478.127	690.38
478.346	693.38
478.564	702.38
478.783	701.38
479.002	702.38
479.22	734.38
479.439	729.38
479.658	722.38
479.876	721.38
480.095	714.38
480.313	741.38
480.532	740.38
480.751	740.38
480.969	716.38
481.188	689.38
481.406	726.38
481.624	702.38
481.843	698.38
482.061	679.38
482.28	700.38
482.498	678.38
482.717	726.38
482.935	710.38
483.153	687.38
483.372	723.38
483.59	725.38
483.808	720.38
484.027	688.38
484.245	693.38
484.463	710.38
484.681	703.38
484.9	727.38
485.118	728.38
485.336	725.38
485.554	701.38
485.772	709.38
485.99	711.38
486.209	696.38
486.427	713.38
486.645	712.38
486.863	722.38
487.081	720.38
487.299	742.38
487.517	721.38
487.735	733.38
487.953	749.38
488.171	723.38
488.389	744.38
488.607	726.38
488.825	728.38
489.043	707.38
489.261	710.38
489.479	712.38
489.696	717.38
489.914	712.38
490.132	724.38
490.35	705.38
490.568	707.38
490.786	759.38
491.003	744.38
491.221	741.38
491.439	742.38
491.657	761.38
491.874	731.38
492.092	752.38
492.31	752.38
492.527	759.38
492.745	743.38
492.963	762.38
493.18	743.38
493.398	753.38
493.615	753.38
493.833	779.38
494.05	755.38
494.268	743.38
494.485	782.38
494.703	748.38
494.92	787.38
495.138	744.38
495.355	772.38
495.573	772.38
495.79	793.38
496.008	783.38
496.225	811.38
496.442	793.38
496.66	820.38
496.877	803.38
497.094	804.38
497.312	797.38
497.529	829.38
497.746	832.38
497.963	852.38
498.181	895.38
498.398	902.38
498.615	968.38
498.832	980.38
499.049	1007.38
499.267	1075.38
499.484	1144.38
499.701	1221.38
499.918	1312.38
500.135	1375.38
500.352	1449.38
500.569	1455.38
500.786	1472.38
501.003	1407.38
501.22	1312.38
501.437	1234.38
501.654	1201.38
501.871	1111.38
502.088	1076.38
502.305	1036.38
502.522	966.38
502.739	979.38
502.956	924.38
503.172	873.38
503.389	866.38
503.606	850.38
503.823	829.38
504.04	808.38
504.256	840.38
504.473	821.38
504.69	796.38
504.907	812.38
505.123	782.38
505.34	760.38
505.557	752.38
505.773	737.38
505.99	716.38
506.207	697.38
506.423	685.38
506.64	710.38
506.856	674.38
507.073	667.38
507.289	693.38
507.506	684.38
507.722	648.38
507.939	634.38
508.155	643.38
508.372	636.38
508.588	656.38
508.805	651.38
509.021	630.38
509.238	630.38
509.454	604.38
509.67	625.38
509.887	607.38
510.103	610.38
510.319	624.38
510.536	609.38
510.752	592.38
510.968	605.38
511.184	576.38
511.401	588.38
511.617	610.38
511.833	599.38
512.049	604.38
512.265	608.38
512.481	601.38
512.698	600.38
512.914	627.38
513.13	630.38
513.346	597.38
513.562	612.38
513.778	597.38
513.994	600.38
514.21	602.38
514.426	617.38
514.642	620.38
514.858	622.38
515.074	622.38
515.29	607.38
515.506	646.38
515.721	621.38
515.937	636.38
516.153	649.38
516.369	650.38
516.585	673.38
516.801	682.38
517.016	684.38
517.232	685.38
517.448	707.38
517.664	698.38
517.879	723.38
518.095	709.38
518.311	726.38
518.527	686.38
518.742	663.38
518.958	657.38
519.173	645.38
519.389	616.38
519.605	644.38
519.82	636.38
520.036	625.38
520.251	595.38
520.467	625.38
520.682	591.38
520.898	591.38
521.113	591.38
521.329	596.38
521.544	579.38
521.76	582.38
521.975	573.38
522.19	577.38
522.406	562.38
522.621	549.38
522.836	564.38
523.052	556.38
523.267	549.38
523.482	575.38
523.698	566.38
523.913	540.38
524.128	564.38
524.343	568.38
524.559	558.38
524.774	551.38
524.989	542.38
525.204	543.38
525.419	561.38
525.634	538.38
525.849	527.38
526.064	547.38
526.28	549.38
526.495	535.38
526.71	536.38
526.925	549.38
527.14	532.38
527.355	526.38
527.57	551.38
527.785	550.38
527.999	524.38
528.214	526.38
528.429	542.38
528.644	521.38
528.859	546.38
529.074	540.38
529.289	540.38
529.503	536.38
529.718	544.38
529.933	526.38
530.148	515.38
530.363	535.38
530.577	530.38
530.792	515.38
531.007	522.38
531.221	532.38
531.436	525.38
531.651	547.38
531.865	513.38
532.08	534.38
532.295	539.38
532.509	536.38
532.724	528.38
532.938	506.38
533.153	529.38
533.367	522.38
533.582	532.38
533.796	526.38
534.011	514.38
534.225	501.38
534.44	501.38
534.654	521.38
534.868	528.38
535.083	508.38
535.297	507.38
535.511	516.38
535.726	514.38
535.94	509.38
536.154	517.38
536.369	518.38
536.583	496.38
536.797	494.38
537.011	517.38
537.225	480.38
537.44	504.38
537.654	504.38
537.868	493.38
538.082	495.38
538.296	513.38
538.51	482.38
538.724	512.38
538.938	482.38
539.153	487.38
539.367	514.38
539.581	478.38
539.795	485.38
540.009	489.38
540.222	489.38
540.436	485.38
540.65	451.38
540.864	488.38
541.078	487.38
541.292	496.38
541.506	477.38
541.72	465.38
541.934	482.38
542.147	495.38
542.361	486.38
542.575	498.38
542.789	481.38
543.002	488.38
543.216	478.38
543.43	475.38
543.644	479.38
543.857	475.38
544.071	498.38
544.285	496.38
544.498	497.38
544.712	501.38
544.925	481.38
545.139	495.38
545.352	462.38
545.566	498.38
545.779	479.38
545.993	484.38
546.206	503.38
546.42	487.38
546.633	492.38
546.847	494.38
547.06	513.38
547.274	482.38
547.487	492.38
547.7	496.38
547.914	501.38
548.127	476.38
548.34	478.38
548.554	477.38
548.767	499.38
548.98	476.38
549.193	502.38
549.407	498.38
549.62	500.38
549.833	501.38
550.046	464.38
550.259	482.38
550.473	476.38
550.686	499.38
550.899	465.38
551.112	485.38
551.325	455.38
551.538	481.38
551.751	488.38
551.964	473.38
552.177	484.38
552.39	483.38
552.603	487.38
552.816	504.38
553.029	507.38
553.242	498.38
553.455	511.38
553.667	507.38
553.88	516.38
554.093	483.38
554.306	479.38
554.519	474.38
554.732	474.38
554.944	448.38
555.157	475.38
555.37	466.38
555.583	450.38
555.795	446.38
556.008	454.38
556.221	449.38
556.433	433.38
556.646	428.38
556.859	432.38
557.071	436.38
557.284	434.38
557.496	440.38
557.709	420.38
557.921	412.38
558.134	421.38
558.346	410.38
558.559	408.38
558.771	412.38
558.984	421.38
559.196	411.38
559.409	438.38
559.621	413.38
559.833	404.38
560.046	418.38
560.258	400.38
560.47	421.38
560.683	403.38
560.895	409.38
561.107	409.38
561.32	410.38
561.532	402.38
561.744	405.38
561.956	408.38
562.168	392.38
562.381	400.38
562.593	409.38
562.805	412.38
563.017	426.38
563.229	399.38
563.441	406.38
563.653	430.38
563.865	413.38
564.077	412.38
564.289	408.38
564.501	404.38
564.713	440.38
564.925	457.38
565.137	440.38
565.349	449.38
565.561	462.38
565.773	444.38
565.985	469.38
566.197	505.38
566.408	523.38
566.62	526.38
566.832	549.38
567.044	521.38
567.255	538.38
567.467	556.38
567.679	546.38
567.891	572.38
568.102	572.38
568.314	535.38
568.526	525.38
568.737	493.38
568.949	484.38
569.161	461.38
569.372	426.38
569.584	417.38
569.795	432.38
570.007	408.38
570.218	403.38
570.43	403.38
570.641	401.38
570.853	404.38
571.064	405.38
571.276	393.38
571.487	365.38
571.698	378.38
571.91	392.38
572.121	381.38
572.333	367.38
572.544	356.38
572.755	355.38
572.966	363.38
573.178	344.38
573.389	360.38
573.6	346.38
573.811	348.38
574.023	345.38
574.234	333.38
574.445	340.38
574.656	341.38
574.867	332.38
575.078	341.38
575.289	347.38
575.501	330.38
575.712	308.38
575.923	331.38
576.134	316.38
576.345	333.38
576.556	311.38
576.767	321.38
576.978	324.38
577.188	327.38
577.399	327.38
577.61	337.38
577.821	303.38
578.032	309.38
578.243	316.38
578.454	314.38
578.665	308.38
578.875	306.38
579.086	316.38
579.297	301.38
579.508	312.38
579.718	291.38
579.929	316.38
580.14	300.38
580.35	296.38
580.561	291.38
580.772	296.38
580.982	293.38
581.193	286.38
581.403	288.38
581.614	309.38
581.825	312.38
582.035	304.38
582.246	298.38
582.456	302.38
582.667	289.38
582.877	292.38
583.087	296.38
583.298	288.38
583.508	297.38
583.719	283.38
583.929	298.38
584.139	286.38
584.35	294.38
584.56	286.38
584.77	286.38
584.981	293.38
585.191	282.38
585.401	291.38
585.611	275.38
585.821	290.38
586.032	293.38
586.242	292.38
586.452	286.38
586.662	270.38
586.872	269.38
587.082	296.38
587.292	296.38
587.502	308.38
587.713	276.38
587.923	285.38
588.133	285.38
588.343	248.38
588.553	280.38
588.762	289.38
588.972	280.38
589.182	281.38
589.392	278.38
589.602	290.38
589.812	276.38
590.022	281.38
590.232	277.38
590.441	271.38
590.651	284.38
590.861	273.38
591.071	309.38
591.281	274.38
591.49	281.38
591.7	293.38
591.91	296.38
592.119	285.38
592.329	290.38
592.539	281.38
592.748	285.38
592.958	328.38
593.167	306.38
593.377	298.38
593.587	320.38
593.796	295.38
594.006	289.38
594.215	295.38
594.424	297.38
594.634	291.38
594.843	302.38
595.053	295.38
595.262	279.38
595.472	277.38
595.681	282.38
595.89	281.38
596.1	273.38
596.309	263.38
596.518	261.38
596.727	256.38
596.937	265.38
597.146	256.38
597.355	241.38
597.564	258.38
597.774	260.38
597.983	254.38
598.192	255.38
598.401	267.38
598.61	248.38
598.819	270.38
599.028	233.38
599.237	248.38
599.446	240.38
599.655	237.38
599.864	253.38
600.073	238.38
600.282	232.38
600.491	254.38
600.7	231.38
600.909	238.38
601.118	229.38
601.327	239.38
601.536	240.38
601.745	229.38
601.953	238.38
602.162	211.38
602.371	227.38
602.58	240.38
602.789	230.38
602.997	240.38
603.206	226.38
603.415	213.38
603.623	214.38
603.832	242.38
604.041	237.38
604.249	222.38
604.458	240.38
604.666	215.38
604.875	223.38
605.084	215.38
605.292	231.38
605.501	234.38
605.709	221.38
605.918	223.38
606.126	228.38
606.334	231.38
606.543	230.38
606.751	234.38
606.96	222.38
607.168	223.38
607.376	221.38
607.585	225.38
607.793	239.38
608.001	228.38
608.21	220.38
608.418	218.38
608.626	210.38
608.834	223.38
609.043	215.38
609.251	224.38
609.459	225.38
609.667	205.38
609.875	220.38
610.083	209.38
610.291	210.38
610.499	231.38
610.707	206.38
610.916	205.38
611.124	225.38
611.332	204.38
611.54	213.38
611.748	208.38
611.955	209.38
612.163	208.38
612.371	193.38
612.579	215.38
612.787	225.38
612.995	199.38
613.203	202.38
613.411	221.38
613.618	222.38
613.826	215.38
614.034	208.38
614.242	217.38
614.449	210.38
614.657	201.38
614.865	187.38
615.072	223.38
615.28	205.38
615.488	209.38
615.695	200.38
615.903	216.38
616.111	210.38
616.318	216.38
616.526	215.38
616.733	223.38
616.941	194.38
617.148	208.38
617.356	202.38
617.563	218.38
617.771	207.38
617.978	205.38
618.185	196.38
618.393	194.38
618.6	206.38
618.807	204.38
619.015	207.38
619.222	188.38
619.429	199.38
619.637	196.38
619.844	184.38
620.051	198.38
620.258	209.38
620.466	174.38
620.673	188.38
620.88	202.38
621.087	197.38
621.294	199.38
621.501	180.38
621.708	197.38
621.915	186.38
622.122	195.38
622.329	178.38
622.536	186.38
622.743	188.38
622.95	181.38
623.157	181.38
623.364	207.38
623.571	180.38
623.778	204.38
623.985	192.38
624.192	201.38
624.399	195.38
624.606	182.38
624.812	197.38
625.019	203.38
625.226	199.38
625.433	182.38
625.639	200.38
625.846	194.38
626.053	190.38
626.259	183.38
626.466	202.38
626.673	209.38
626.879	176.38
627.086	177.38
627.293	181.38
627.499	193.38
627.706	180.38
627.912	186.38
628.119	179.38
628.325	191.38
628.532	175.38
628.738	170.38
628.945	174.38
629.151	175.38
629.357	188.38
629.564	184.38
629.77	200.38
629.976	187.38
630.183	179.38
630.389	190.38
630.595	175.38
630.802	176.38
631.008	162.38
631.214	154.38
631.42	178.38
631.627	191.38
631.833	173.38
632.039	179.38
632.245	172.38
632.451	170.38
632.657	176.38
632.863	168.38
633.069	163.38
633.275	169.38
633.481	179.38
633.688	192.38
633.893	166.38
634.099	164.38
634.305	169.38
634.511	161.38
634.717	168.38
634.923	158.38
635.129	188.38
635.335	161.38
635.541	173.38
635.747	176.38
635.952	167.38
636.158	169.38
636.364	157.38
636.57	151.38
636.775	170.38
636.981	186.38
637.187	158.38
637.392	158.38
637.598	177.38
637.804	168.38
638.009	167.38
638.215	167.38
638.421	152.38
638.626	168.38
638.832	162.38
639.037	162.38
639.243	162.38
639.448	161.38
639.654	164.38
639.859	150.38
640.065	165.38
640.27	170.38
640.475	141.38
640.681	172.38
640.886	146.38
641.091	152.38
641.297	170.38
641.502	160.38
641.707	151.38
641.913	173.38
642.118	163.38
642.323	162.38
642.528	156.38
642.733	148.38
642.939	156.38
643.144	176.38
643.349	157.38
643.554	163.38
643.759	154.38
643.964	154.38
644.169	148.38
644.374	152.38
644.579	162.38
644.784	148.38
644.989	170.38
645.194	148.38
645.399	159.38
645.604	146.38
645.809	163.38
646.014	156.38
646.219	163.38
646.423	156.38
646.628	153.38
646.833	151.38
647.038	155.38
647.243	155.38
647.447	156.38
647.652	162.38
647.857	152.38
648.062	176.38
648.266	142.38
648.471	172.38
648.676	166.38
648.88	170.38
649.085	161.38
649.289	168.38
649.494	157.38
649.698	149.38
649.903	153.38
650.107	151.38
650.312	154.38
650.516	152.38
650.721	145.38
650.925	155.38
651.13	148.38
651.334	151.38
651.539	149.38
651.743	162.38
651.947	147.38
652.152	167.38
652.356	172.38
652.56	146.38
652.764	135.38
652.969	158.38
653.173	148.38
653.377	154.38
653.581	154.38
653.785	152.38
653.99	146.38
654.194	146.38
654.398	148.38
654.602	143.38
654.806	153.38
655.01	154.38
655.214	156.38
655.418	155.38
655.622	146.38
655.826	145.38
656.03	147.38
656.234	151.38
656.438	138.38
656.642	144.38
656.846	136.38
657.049	144.38
657.253	144.38
657.457	124.38
657.661	138.38
657.865	122.38
658.068	118.38
658.272	130.38
658.476	125.38
658.68	116.38
658.883	91.38
659.087	98.38
659.291	120.38
659.494	113.38
659.698	100.38
659.901	90.38
660.105	79.38
660.309	99.38
660.512	93.38
660.716	101.38
660.919	93.38
661.123	93.38
661.326	93.38
661.53	86.38
661.733	89.38
661.936	87.38
662.14	86.38
662.343	89.38
662.546	79.38
662.75	87.38
662.953	84.38
663.156	94.38
663.36	79.38
663.563	72.38
663.766	74.38
663.969	86.38
664.173	80.38
664.376	81.38
664.579	91.38
664.782	88.38
664.985	74.38
665.188	56.38
665.391	80.38
665.594	68.38
665.797	86.38
666	88.38
666.203	74.38
666.406	57.38
666.609	69.38
666.812	80.38
667.015	86.38
667.218	80.38
667.421	87.38
667.624	77.38
667.827	71.38
668.03	82.38
668.232	81.38
668.435	73.38
668.638	80.38
668.841	88.38
669.043	74.38
669.246	83.38
669.449	69.38
669.651	72.38
669.854	73.38
670.057	74.38
670.259	94.38
670.462	73.38
670.665	77.38
670.867	78.38
671.07	75.38
671.272	71.38
671.475	64.38
671.677	79.38
671.88	80.38
672.082	83.38
672.284	76.38
672.487	69.38
672.689	82.38
672.892	63.38
