Data from Ni(NO3)2@0.0625M.TitratingCurve.Agarose3%dH2O.NegLispCup.LampEnergy10.LIBS07252019_HRD10591_18-14-10-569.txt Node
Date: Thu Jul 25 18:14:10 EDT 2019
User: cochatt
Spectrometer: HR+D1059
Trigger mode: 1
Integration Time (sec): 1.000000E-1
Scans to average: 1
Electric dark correction enabled: true
Nonlinearity correction enabled: false
Boxcar width: 0
XAxis mode: Wavelengths
Number of Pixels in Spectrum: 2048
>>>>>Begin Spectral Data<<<<<
223.165	-14.94
223.4	-14.94
223.635	-14.94
223.869	-32.94
224.104	-27.94
224.338	-15.94
224.573	-20.94
224.808	-8.94
225.042	4.06
225.277	-2.94
225.511	5.06
225.746	23.06
225.98	7.06
226.215	7.06
226.449	10.06
226.683	12.06
226.918	26.06
227.152	30.06
227.387	24.06
227.621	31.06
227.856	61.06
228.09	49.06
228.324	57.06
228.559	65.06
228.793	72.06
229.027	110.06
229.262	124.06
229.496	123.06
229.73	115.06
229.964	126.06
230.199	125.06
230.433	131.06
230.667	134.06
230.901	146.06
231.136	138.06
231.37	157.06
231.604	133.06
231.838	148.06
232.072	156.06
232.306	150.06
232.541	157.06
232.775	144.06
233.009	146.06
233.243	146.06
233.477	156.06
233.711	145.06
233.945	146.06
234.179	163.06
234.413	166.06
234.647	159.06
234.881	144.06
235.115	157.06
235.349	152.06
235.583	151.06
235.817	148.06
236.051	152.06
236.285	170.06
236.519	158.06
236.753	170.06
236.987	158.06
237.221	165.06
237.455	172.06
237.689	171.06
237.922	138.06
238.156	151.06
238.39	167.06
238.624	177.06
238.858	173.06
239.091	179.06
239.325	175.06
239.559	160.06
239.793	179.06
240.027	157.06
240.26	167.06
240.494	170.06
240.728	188.06
240.961	193.06
241.195	185.06
241.429	182.06
241.662	177.06
241.896	205.06
242.13	203.06
242.363	189.06
242.597	201.06
242.83	209.06
243.064	203.06
243.298	204.06
243.531	195.06
243.765	203.06
243.998	213.06
244.232	206.06
244.465	219.06
244.699	205.06
244.932	217.06
245.166	246.06
245.399	225.06
245.633	225.06
245.866	230.06
246.099	248.06
246.333	241.06
246.566	222.06
246.8	225.06
247.033	226.06
247.266	238.06
247.5	233.06
247.733	233.06
247.966	242.06
248.2	243.06
248.433	242.06
248.666	254.06
248.899	246.06
249.133	245.06
249.366	274.06
249.599	255.06
249.832	239.06
250.066	277.06
250.299	250.06
250.532	254.06
250.765	247.06
250.998	261.06
251.231	255.06
251.465	257.06
251.698	277.06
251.931	290.06
252.164	263.06
252.397	290.06
252.63	273.06
252.863	278.06
253.096	282.06
253.329	275.06
253.562	281.06
253.795	293.06
254.028	291.06
254.261	266.06
254.494	299.06
254.727	303.06
254.96	267.06
255.193	283.06
255.426	295.06
255.659	282.06
255.892	309.06
256.124	291.06
256.357	296.06
256.59	293.06
256.823	289.06
257.056	300.06
257.289	298.06
257.521	291.06
257.754	308.06
257.987	305.06
258.22	295.06
258.452	316.06
258.685	314.06
258.918	327.06
259.151	313.06
259.383	338.06
259.616	330.06
259.849	321.06
260.081	315.06
260.314	330.06
260.547	313.06
260.779	317.06
261.012	351.06
261.244	333.06
261.477	356.06
261.71	330.06
261.942	332.06
262.175	341.06
262.407	348.06
262.64	324.06
262.872	341.06
263.105	358.06
263.337	332.06
263.57	346.06
263.802	357.06
264.035	367.06
264.267	350.06
264.499	339.06
264.732	369.06
264.964	366.06
265.197	366.06
265.429	369.06
265.661	377.06
265.894	377.06
266.126	389.06
266.358	367.06
266.591	375.06
266.823	384.06
267.055	364.06
267.287	374.06
267.52	378.06
267.752	362.06
267.984	389.06
268.216	379.06
268.448	383.06
268.681	399.06
268.913	381.06
269.145	383.06
269.377	375.06
269.609	392.06
269.841	387.06
270.073	387.06
270.306	370.06
270.538	390.06
270.77	390.06
271.002	387.06
271.234	392.06
271.466	377.06
271.698	403.06
271.93	395.06
272.162	386.06
272.394	404.06
272.626	397.06
272.858	419.06
273.09	395.06
273.322	401.06
273.553	409.06
273.785	413.06
274.017	426.06
274.249	409.06
274.481	417.06
274.713	414.06
274.945	427.06
275.176	414.06
275.408	425.06
275.64	415.06
275.872	426.06
276.104	458.06
276.335	417.06
276.567	438.06
276.799	412.06
277.031	431.06
277.262	438.06
277.494	418.06
277.726	429.06
277.957	441.06
278.189	442.06
278.421	443.06
278.652	456.06
278.884	456.06
279.115	434.06
279.347	453.06
279.579	436.06
279.81	445.06
280.042	453.06
280.273	463.06
280.505	462.06
280.736	459.06
280.968	474.06
281.199	466.06
281.431	471.06
281.662	479.06
281.894	467.06
282.125	481.06
282.356	467.06
282.588	482.06
282.819	448.06
283.051	491.06
283.282	480.06
283.513	489.06
283.745	472.06
283.976	493.06
284.207	476.06
284.439	497.06
284.67	497.06
284.901	505.06
285.132	489.06
285.364	500.06
285.595	515.06
285.826	517.06
286.057	517.06
286.288	489.06
286.52	492.06
286.751	517.06
286.982	508.06
287.213	517.06
287.444	520.06
287.675	522.06
287.906	491.06
288.138	528.06
288.369	511.06
288.6	529.06
288.831	538.06
289.062	533.06
289.293	513.06
289.524	519.06
289.755	541.06
289.986	547.06
290.217	555.06
290.448	533.06
290.679	529.06
290.91	554.06
291.141	537.06
291.371	544.06
291.602	542.06
291.833	522.06
292.064	532.06
292.295	542.06
292.526	538.06
292.757	503.06
292.987	544.06
293.218	514.06
293.449	543.06
293.68	553.06
293.91	538.06
294.141	550.06
294.372	541.06
294.603	565.06
294.833	543.06
295.064	525.06
295.295	566.06
295.525	556.06
295.756	570.06
295.987	562.06
296.217	557.06
296.448	556.06
296.679	558.06
296.909	565.06
297.14	550.06
297.37	569.06
297.601	577.06
297.831	602.06
298.062	599.06
298.292	604.06
298.523	620.06
298.753	583.06
298.984	598.06
299.214	608.06
299.445	587.06
299.675	584.06
299.905	600.06
300.136	603.06
300.366	587.06
300.597	597.06
300.827	618.06
301.057	627.06
301.288	621.06
301.518	636.06
301.748	635.06
301.979	634.06
302.209	636.06
302.439	620.06
302.669	602.06
302.9	600.06
303.13	607.06
303.36	585.06
303.59	615.06
303.82	589.06
304.051	611.06
304.281	602.06
304.511	596.06
304.741	613.06
304.971	601.06
305.201	603.06
305.431	581.06
305.661	615.06
305.891	613.06
306.121	583.06
306.352	590.06
306.582	600.06
306.812	594.06
307.042	622.06
307.272	604.06
307.502	581.06
307.731	570.06
307.961	603.06
308.191	597.06
308.421	572.06
308.651	586.06
308.881	595.06
309.111	594.06
309.341	589.06
309.571	583.06
309.8	610.06
310.03	602.06
310.26	601.06
310.49	594.06
310.72	590.06
310.949	614.06
311.179	614.06
311.409	604.06
311.639	604.06
311.868	615.06
312.098	591.06
312.328	595.06
312.557	597.06
312.787	633.06
313.017	622.06
313.246	615.06
313.476	610.06
313.706	656.06
313.935	641.06
314.165	633.06
314.394	643.06
314.624	655.06
314.853	633.06
315.083	633.06
315.312	639.06
315.542	615.06
315.771	614.06
316.001	610.06
316.23	637.06
316.46	609.06
316.689	605.06
316.919	636.06
317.148	617.06
317.377	620.06
317.607	635.06
317.836	611.06
318.065	605.06
318.295	613.06
318.524	609.06
318.753	617.06
318.983	614.06
319.212	620.06
319.441	619.06
319.67	614.06
319.9	626.06
320.129	610.06
320.358	609.06
320.587	630.06
320.816	635.06
321.046	618.06
321.275	622.06
321.504	630.06
321.733	630.06
321.962	622.06
322.191	627.06
322.42	632.06
322.649	640.06
322.878	658.06
323.108	630.06
323.337	636.06
323.566	629.06
323.795	630.06
324.024	651.06
324.253	662.06
324.482	645.06
324.71	665.06
324.939	638.06
325.168	646.06
325.397	659.06
325.626	635.06
325.855	645.06
326.084	670.06
326.313	658.06
326.542	679.06
326.77	690.06
326.999	673.06
327.228	664.06
327.457	665.06
327.686	673.06
327.914	689.06
328.143	689.06
328.372	681.06
328.6	694.06
328.829	706.06
329.058	688.06
329.287	682.06
329.515	701.06
329.744	669.06
329.972	677.06
330.201	685.06
330.43	694.06
330.658	690.06
330.887	719.06
331.115	718.06
331.344	715.06
331.572	730.06
331.801	724.06
332.03	764.06
332.258	750.06
332.486	763.06
332.715	789.06
332.943	839.06
333.172	875.06
333.4	948.06
333.629	959.06
333.857	964.06
334.085	921.06
334.314	898.06
334.542	893.06
334.771	861.06
334.999	849.06
335.227	833.06
335.455	855.06
335.684	841.06
335.912	848.06
336.14	819.06
336.369	806.06
336.597	835.06
336.825	826.06
337.053	837.06
337.281	805.06
337.51	776.06
337.738	784.06
337.966	772.06
338.194	757.06
338.422	738.06
338.65	727.06
338.878	747.06
339.106	730.06
339.334	719.06
339.562	728.06
339.79	720.06
340.018	692.06
340.246	709.06
340.474	692.06
340.702	708.06
340.93	706.06
341.158	723.06
341.386	717.06
341.614	684.06
341.842	692.06
342.07	691.06
342.298	695.06
342.526	722.06
342.754	706.06
342.981	722.06
343.209	739.06
343.437	746.06
343.665	783.06
343.893	852.06
344.12	907.06
344.348	871.06
344.576	804.06
344.804	744.06
345.031	751.06
345.259	738.06
345.487	719.06
345.714	723.06
345.942	710.06
346.17	676.06
346.397	721.06
346.625	681.06
346.853	683.06
347.08	710.06
347.308	695.06
347.535	699.06
347.763	723.06
347.99	728.06
348.218	727.06
348.445	712.06
348.673	697.06
348.9	680.06
349.128	682.06
349.355	693.06
349.583	666.06
349.81	671.06
350.037	672.06
350.265	669.06
350.492	692.06
350.72	669.06
350.947	661.06
351.174	658.06
351.402	664.06
351.629	652.06
351.856	668.06
352.083	673.06
352.311	652.06
352.538	665.06
352.765	672.06
352.992	637.06
353.22	667.06
353.447	665.06
353.674	642.06
353.901	639.06
354.128	688.06
354.355	645.06
354.583	674.06
354.81	674.06
355.037	675.06
355.264	671.06
355.491	670.06
355.718	661.06
355.945	691.06
356.172	654.06
356.399	691.06
356.626	651.06
356.853	679.06
357.08	684.06
357.307	653.06
357.534	668.06
357.761	651.06
357.988	684.06
358.215	651.06
358.441	679.06
358.668	652.06
358.895	657.06
359.122	645.06
359.349	669.06
359.576	675.06
359.802	694.06
360.029	680.06
360.256	671.06
360.483	659.06
360.709	669.06
360.936	674.06
361.163	661.06
361.39	670.06
361.616	663.06
361.843	654.06
362.07	663.06
362.296	676.06
362.523	669.06
362.749	676.06
362.976	662.06
363.203	639.06
363.429	661.06
363.656	647.06
363.882	673.06
364.109	665.06
364.335	637.06
364.562	650.06
364.788	674.06
365.015	665.06
365.241	647.06
365.468	685.06
365.694	667.06
365.92	675.06
366.147	663.06
366.373	660.06
366.599	673.06
366.826	657.06
367.052	683.06
367.278	655.06
367.505	677.06
367.731	675.06
367.957	654.06
368.184	661.06
368.41	661.06
368.636	679.06
368.862	653.06
369.089	673.06
369.315	680.06
369.541	680.06
369.767	671.06
369.993	702.06
370.219	706.06
370.445	709.06
370.672	702.06
370.898	704.06
371.124	725.06
371.35	737.06
371.576	716.06
371.802	735.06
372.028	737.06
372.254	725.06
372.48	729.06
372.706	719.06
372.932	745.06
373.158	747.06
373.384	736.06
373.61	710.06
373.835	731.06
374.061	735.06
374.287	736.06
374.513	739.06
374.739	761.06
374.965	797.06
375.191	805.06
375.416	824.06
375.642	791.06
375.868	781.06
376.094	791.06
376.319	717.06
376.545	737.06
376.771	700.06
376.997	720.06
377.222	757.06
377.448	729.06
377.674	701.06
377.899	714.06
378.125	726.06
378.35	707.06
378.576	712.06
378.802	727.06
379.027	715.06
379.253	709.06
379.478	707.06
379.704	714.06
379.929	736.06
380.155	717.06
380.38	722.06
380.606	713.06
380.831	701.06
381.057	721.06
381.282	713.06
381.507	711.06
381.733	734.06
381.958	717.06
382.184	734.06
382.409	755.06
382.634	762.06
382.86	768.06
383.085	790.06
383.31	768.06
383.535	803.06
383.761	823.06
383.986	835.06
384.211	847.06
384.436	866.06
384.662	857.06
384.887	877.06
385.112	874.06
385.337	898.06
385.562	897.06
385.787	883.06
386.013	875.06
386.238	872.06
386.463	909.06
386.688	911.06
386.913	856.06
387.138	886.06
387.363	867.06
387.588	858.06
387.813	861.06
388.038	823.06
388.263	862.06
388.488	888.06
388.713	878.06
388.938	857.06
389.163	835.06
389.387	846.06
389.612	838.06
389.837	849.06
390.062	844.06
390.287	858.06
390.512	829.06
390.736	866.06
390.961	846.06
391.186	890.06
391.411	904.06
391.636	949.06
391.86	973.06
392.085	989.06
392.31	1027.06
392.534	968.06
392.759	925.06
392.984	897.06
393.208	921.06
393.433	934.06
393.658	949.06
393.882	945.06
394.107	912.06
394.331	906.06
394.556	929.06
394.78	939.06
395.005	936.06
395.229	938.06
395.454	975.06
395.678	991.06
395.903	987.06
396.127	956.06
396.352	925.06
396.576	915.06
396.801	912.06
397.025	898.06
397.249	954.06
397.474	962.06
397.698	981.06
397.922	966.06
398.147	951.06
398.371	981.06
398.595	993.06
398.82	1062.06
399.044	1127.06
399.268	1230.06
399.492	1477.06
399.717	1693.06
399.941	1754.06
400.165	1484.06
400.389	1318.06
400.613	1210.06
400.837	1115.06
401.062	1096.06
401.286	1090.06
401.51	1096.06
401.734	1079.06
401.958	1093.06
402.182	1123.06
402.406	1117.06
402.63	1162.06
402.854	1182.06
403.078	1176.06
403.302	1223.06
403.526	1241.06
403.75	1274.06
403.974	1305.06
404.198	1297.06
404.422	1316.06
404.645	1289.06
404.869	1298.06
405.093	1224.06
405.317	1186.06
405.541	1217.06
405.765	1225.06
405.988	1200.06
406.212	1211.06
406.436	1189.06
406.66	1228.06
406.883	1207.06
407.107	1334.06
407.331	1401.06
407.555	1451.06
407.778	1447.06
408.002	1393.06
408.226	1337.06
408.449	1309.06
408.673	1245.06
408.896	1254.06
409.12	1235.06
409.344	1246.06
409.567	1280.06
409.791	1305.06
410.014	1260.06
410.238	1265.06
410.461	1234.06
410.685	1229.06
410.908	1215.06
411.132	1185.06
411.355	1125.06
411.578	1145.06
411.802	1115.06
412.025	1146.06
412.249	1165.06
412.472	1163.06
412.695	1109.06
412.919	1051.06
413.142	1073.06
413.365	1071.06
413.589	1067.06
413.812	1047.06
414.035	1062.06
414.258	1065.06
414.482	1121.06
414.705	1149.06
414.928	1125.06
415.151	1096.06
415.374	1086.06
415.597	1093.06
415.821	1043.06
416.044	1054.06
416.267	1045.06
416.49	1083.06
416.713	1058.06
416.936	1066.06
417.159	1077.06
417.382	1065.06
417.605	1063.06
417.828	1079.06
418.051	1113.06
418.274	1077.06
418.497	1055.06
418.72	1139.06
418.943	1131.06
419.166	1169.06
419.389	1258.06
419.611	1261.06
419.834	1169.06
420.057	1141.06
420.28	1133.06
420.503	1087.06
420.726	1060.06
420.948	1061.06
421.171	1055.06
421.394	1090.06
421.617	1065.06
421.839	1093.06
422.062	1087.06
422.285	1088.06
422.507	1121.06
422.73	1110.06
422.953	1120.06
423.175	1152.06
423.398	1186.06
423.621	1173.06
423.843	1173.06
424.066	1191.06
424.288	1166.06
424.511	1147.06
424.733	1157.06
424.956	1107.06
425.178	1124.06
425.401	1078.06
425.623	1102.06
425.846	1043.06
426.068	1070.06
426.291	1020.06
426.513	1032.06
426.735	1006.06
426.958	1045.06
427.18	965.06
427.402	1006.06
427.625	983.06
427.847	969.06
428.069	959.06
428.292	980.06
428.514	986.06
428.736	961.06
428.958	964.06
429.181	945.06
429.403	927.06
429.625	943.06
429.847	938.06
430.069	930.06
430.292	943.06
430.514	942.06
430.736	951.06
430.958	931.06
431.18	943.06
431.402	940.06
431.624	927.06
431.846	949.06
432.068	966.06
432.29	1006.06
432.512	937.06
432.734	933.06
432.956	970.06
433.178	973.06
433.4	966.06
433.622	962.06
433.844	969.06
434.066	966.06
434.287	962.06
434.509	1015.06
434.731	1051.06
434.953	1054.06
435.175	1122.06
435.397	1079.06
435.618	1027.06
435.84	1010.06
436.062	958.06
436.284	984.06
436.505	967.06
436.727	985.06
436.949	961.06
437.17	989.06
437.392	953.06
437.614	950.06
437.835	925.06
438.057	925.06
438.278	914.06
438.5	926.06
438.721	919.06
438.943	936.06
439.165	936.06
439.386	951.06
439.608	962.06
439.829	960.06
440.05	945.06
440.272	963.06
440.493	948.06
440.715	995.06
440.936	984.06
441.158	1039.06
441.379	1031.06
441.6	1109.06
441.822	1155.06
442.043	1084.06
442.264	1095.06
442.486	1079.06
442.707	1076.06
442.928	1090.06
443.149	1094.06
443.371	1069.06
443.592	1098.06
443.813	1093.06
444.034	1098.06
444.255	1175.06
444.476	1166.06
444.698	1259.06
444.919	1355.06
445.14	1424.06
445.361	1239.06
445.582	1148.06
445.803	1075.06
446.024	1023.06
446.245	1009.06
446.466	1013.06
446.687	984.06
446.908	973.06
447.129	961.06
447.35	952.06
447.571	941.06
447.792	916.06
448.013	918.06
448.234	934.06
448.455	893.06
448.675	894.06
448.896	872.06
449.117	871.06
449.338	881.06
449.559	875.06
449.779	865.06
450	862.06
450.221	896.06
450.442	901.06
450.662	906.06
450.883	901.06
451.104	943.06
451.324	930.06
451.545	923.06
451.766	925.06
451.986	885.06
452.207	899.06
452.428	899.06
452.648	923.06
452.869	898.06
453.089	897.06
453.31	879.06
453.53	898.06
453.751	878.06
453.971	891.06
454.192	871.06
454.412	869.06
454.633	830.06
454.853	858.06
455.073	845.06
455.294	852.06
455.514	870.06
455.734	857.06
455.955	831.06
456.175	850.06
456.395	826.06
456.616	811.06
456.836	803.06
457.056	823.06
457.276	847.06
457.497	819.06
457.717	847.06
457.937	828.06
458.157	838.06
458.377	852.06
458.598	905.06
458.818	891.06
459.038	931.06
459.258	957.06
459.478	961.06
459.698	1012.06
459.918	1039.06
460.138	1090.06
460.358	1145.06
460.578	1159.06
460.798	1190.06
461.018	1168.06
461.238	1175.06
461.458	1138.06
461.678	1124.06
461.898	1134.06
462.118	1166.06
462.338	1209.06
462.558	1247.06
462.777	1285.06
462.997	1409.06
463.217	1610.06
463.437	1653.06
463.657	1485.06
463.876	1371.06
464.096	1363.06
464.316	1390.06
464.536	1427.06
464.755	1327.06
464.975	1233.06
465.195	1193.06
465.414	1158.06
465.634	1047.06
465.854	1047.06
466.073	1010.06
466.293	994.06
466.512	968.06
466.732	941.06
466.951	944.06
467.171	934.06
467.391	952.06
467.61	946.06
467.829	949.06
468.049	931.06
468.268	919.06
468.488	925.06
468.707	909.06
468.927	862.06
469.146	860.06
469.365	885.06
469.585	912.06
469.804	934.06
470.023	955.06
470.243	947.06
470.462	968.06
470.681	968.06
470.901	954.06
471.12	978.06
471.339	962.06
471.558	919.06
471.777	896.06
471.997	920.06
472.216	892.06
472.435	867.06
472.654	872.06
472.873	899.06
473.092	862.06
473.311	851.06
473.53	852.06
473.749	871.06
473.968	886.06
474.187	856.06
474.406	861.06
474.625	875.06
474.844	866.06
475.063	861.06
475.282	880.06
475.501	918.06
475.72	905.06
475.939	899.06
476.158	907.06
476.377	909.06
476.596	908.06
476.814	914.06
477.033	925.06
477.252	933.06
477.471	965.06
477.69	986.06
477.908	1020.06
478.127	1037.06
478.346	1063.06
478.564	1042.06
478.783	1066.06
479.002	1095.06
479.22	1111.06
479.439	1087.06
479.658	1087.06
479.876	1094.06
480.095	1097.06
480.313	1150.06
480.532	1189.06
480.751	1208.06
480.969	1133.06
481.188	1103.06
481.406	1068.06
481.624	1014.06
481.843	1019.06
482.061	997.06
482.28	966.06
482.498	988.06
482.717	974.06
482.935	991.06
483.153	980.06
483.372	993.06
483.59	999.06
483.808	979.06
484.027	979.06
484.245	994.06
484.463	985.06
484.681	1004.06
484.9	1029.06
485.118	1036.06
485.336	1020.06
485.554	1040.06
485.772	1038.06
485.99	1067.06
486.209	1047.06
486.427	1078.06
486.645	1069.06
486.863	1081.06
487.081	1046.06
487.299	1057.06
487.517	1056.06
487.735	1040.06
487.953	1062.06
488.171	1033.06
488.389	1059.06
488.607	1039.06
488.825	1016.06
489.043	1017.06
489.261	1052.06
489.479	1037.06
489.696	1029.06
489.914	1046.06
490.132	1031.06
490.35	1039.06
490.568	1056.06
490.786	1051.06
491.003	1062.06
491.221	1010.06
491.439	1067.06
491.657	1051.06
491.874	1064.06
492.092	1059.06
492.31	1031.06
492.527	1060.06
492.745	1051.06
492.963	1057.06
493.18	1061.06
493.398	1084.06
493.615	1111.06
493.833	1059.06
494.05	1100.06
494.268	1118.06
494.485	1121.06
494.703	1106.06
494.92	1104.06
495.138	1099.06
495.355	1106.06
495.573	1143.06
495.79	1087.06
496.008	1113.06
496.225	1102.06
496.442	1112.06
496.66	1137.06
496.877	1135.06
497.094	1157.06
497.312	1176.06
497.529	1207.06
497.746	1229.06
497.963	1248.06
498.181	1331.06
498.398	1405.06
498.615	1441.06
498.832	1557.06
499.049	1703.06
499.267	1845.06
499.484	2006.06
499.701	2236.06
499.918	2515.06
500.135	2911.06
500.352	3366.06
500.569	3612.06
500.786	3548.06
501.003	3345.06
501.22	2944.06
501.437	2535.06
501.654	2225.06
501.871	1973.06
502.088	1797.06
502.305	1700.06
502.522	1572.06
502.739	1548.06
502.956	1463.06
503.172	1373.06
503.389	1315.06
503.606	1281.06
503.823	1282.06
504.04	1248.06
504.256	1282.06
504.473	1311.06
504.69	1375.06
504.907	1333.06
505.123	1224.06
505.34	1150.06
505.557	1126.06
505.773	1065.06
505.99	1053.06
506.207	1024.06
506.423	1029.06
506.64	1026.06
506.856	1010.06
507.073	1002.06
507.289	973.06
507.506	983.06
507.722	980.06
507.939	965.06
508.155	966.06
508.372	938.06
508.588	965.06
508.805	928.06
509.021	923.06
509.238	929.06
509.454	905.06
509.67	903.06
509.887	930.06
510.103	898.06
510.319	933.06
510.536	887.06
510.752	872.06
510.968	885.06
511.184	875.06
511.401	861.06
511.617	897.06
511.833	899.06
512.049	880.06
512.265	889.06
512.481	900.06
512.698	912.06
512.914	875.06
513.13	919.06
513.346	904.06
513.562	903.06
513.778	902.06
513.994	901.06
514.21	900.06
514.426	886.06
514.642	873.06
514.858	895.06
515.074	910.06
515.29	937.06
515.506	929.06
515.721	930.06
515.937	970.06
516.153	965.06
516.369	998.06
516.585	1028.06
516.801	1058.06
517.016	1104.06
517.232	1179.06
517.448	1240.06
517.664	1296.06
517.879	1291.06
518.095	1315.06
518.311	1249.06
518.527	1232.06
518.742	1135.06
518.958	1108.06
519.173	1031.06
519.389	1033.06
519.605	983.06
519.82	959.06
520.036	955.06
520.251	946.06
520.467	917.06
520.682	893.06
520.898	909.06
521.113	883.06
521.329	892.06
521.544	893.06
521.76	874.06
521.975	873.06
522.19	858.06
522.406	849.06
522.621	881.06
522.836	865.06
523.052	840.06
523.267	860.06
523.482	831.06
523.698	828.06
523.913	813.06
524.128	842.06
524.343	845.06
524.559	817.06
524.774	850.06
524.989	818.06
525.204	843.06
525.419	788.06
525.634	801.06
525.849	794.06
526.064	802.06
526.28	837.06
526.495	804.06
526.71	818.06
526.925	840.06
527.14	789.06
527.355	809.06
527.57	806.06
527.785	817.06
527.999	828.06
528.214	833.06
528.429	819.06
528.644	833.06
528.859	812.06
529.074	821.06
529.289	813.06
529.503	804.06
529.718	838.06
529.933	807.06
530.148	803.06
530.363	810.06
530.577	813.06
530.792	834.06
531.007	804.06
531.221	813.06
531.436	818.06
531.651	826.06
531.865	806.06
532.08	814.06
532.295	826.06
532.509	809.06
532.724	834.06
532.938	827.06
533.153	807.06
533.367	822.06
533.582	818.06
533.796	825.06
534.011	829.06
534.225	812.06
534.44	762.06
534.654	797.06
534.868	824.06
535.083	786.06
535.297	851.06
535.511	805.06
535.726	807.06
535.94	791.06
536.154	771.06
536.369	748.06
536.583	764.06
536.797	768.06
537.011	765.06
537.225	804.06
537.44	787.06
537.654	759.06
537.868	743.06
538.082	755.06
538.296	761.06
538.51	756.06
538.724	737.06
538.938	750.06
539.153	713.06
539.367	744.06
539.581	724.06
539.795	715.06
540.009	736.06
540.222	727.06
540.436	741.06
540.65	729.06
540.864	723.06
541.078	723.06
541.292	729.06
541.506	730.06
541.72	723.06
541.934	714.06
542.147	726.06
542.361	717.06
542.575	728.06
542.789	727.06
543.002	708.06
543.216	732.06
543.43	696.06
543.644	713.06
543.857	725.06
544.071	721.06
544.285	716.06
544.498	707.06
544.712	692.06
544.925	731.06
545.139	731.06
545.352	745.06
545.566	739.06
545.779	727.06
545.993	761.06
546.206	740.06
546.42	696.06
546.633	725.06
546.847	736.06
547.06	727.06
547.274	726.06
547.487	698.06
547.7	742.06
547.914	723.06
548.127	729.06
548.34	751.06
548.554	773.06
548.767	759.06
548.98	747.06
549.193	754.06
549.407	747.06
549.62	779.06
549.833	787.06
550.046	754.06
550.259	763.06
550.473	744.06
550.686	715.06
550.899	754.06
551.112	729.06
551.325	740.06
551.538	734.06
551.751	747.06
551.964	738.06
552.177	730.06
552.39	759.06
552.603	786.06
552.816	782.06
553.029	808.06
553.242	812.06
553.455	836.06
553.667	840.06
553.88	828.06
554.093	770.06
554.306	773.06
554.519	744.06
554.732	743.06
554.944	724.06
555.157	710.06
555.37	701.06
555.583	689.06
555.795	703.06
556.008	692.06
556.221	682.06
556.433	642.06
556.646	664.06
556.859	649.06
557.071	636.06
557.284	627.06
557.496	643.06
557.709	640.06
557.921	631.06
558.134	628.06
558.346	619.06
558.559	609.06
558.771	631.06
558.984	603.06
559.196	627.06
559.409	610.06
559.621	617.06
559.833	610.06
560.046	628.06
560.258	641.06
560.47	617.06
560.683	605.06
560.895	616.06
561.107	611.06
561.32	625.06
561.532	598.06
561.744	619.06
561.956	611.06
562.168	622.06
562.381	615.06
562.593	604.06
562.805	611.06
563.017	633.06
563.229	607.06
563.441	629.06
563.653	627.06
563.865	640.06
564.077	653.06
564.289	637.06
564.501	638.06
564.713	640.06
564.925	674.06
565.137	666.06
565.349	690.06
565.561	709.06
565.773	735.06
565.985	758.06
566.197	803.06
566.408	857.06
566.62	929.06
566.832	1031.06
567.044	1054.06
567.255	1035.06
567.467	1063.06
567.679	1131.06
567.891	1234.06
568.102	1305.06
568.314	1260.06
568.526	1071.06
568.737	955.06
568.949	885.06
569.161	797.06
569.372	749.06
569.584	719.06
569.795	685.06
570.007	649.06
570.218	655.06
570.43	636.06
570.641	629.06
570.853	657.06
571.064	677.06
571.276	647.06
571.487	633.06
571.698	651.06
571.91	590.06
572.121	571.06
572.333	564.06
572.544	536.06
572.755	565.06
572.966	543.06
573.178	541.06
573.389	534.06
573.6	521.06
573.811	506.06
574.023	519.06
574.234	531.06
574.445	499.06
574.656	503.06
574.867	515.06
575.078	498.06
575.289	508.06
575.501	502.06
575.712	494.06
575.923	498.06
576.134	502.06
576.345	489.06
576.556	497.06
576.767	494.06
576.978	477.06
577.188	503.06
577.399	485.06
577.61	476.06
577.821	464.06
578.032	462.06
578.243	479.06
578.454	466.06
578.665	449.06
578.875	446.06
579.086	447.06
579.297	467.06
579.508	475.06
579.718	456.06
579.929	446.06
580.14	461.06
580.35	439.06
580.561	458.06
580.772	450.06
580.982	425.06
581.193	445.06
581.403	443.06
581.614	422.06
581.825	451.06
582.035	444.06
582.246	447.06
582.456	445.06
582.667	428.06
582.877	446.06
583.087	442.06
583.298	423.06
583.508	433.06
583.719	430.06
583.929	426.06
584.139	423.06
584.35	445.06
584.56	443.06
584.77	427.06
584.981	437.06
585.191	414.06
585.401	429.06
585.611	414.06
585.821	441.06
586.032	424.06
586.242	421.06
586.452	411.06
586.662	399.06
586.872	440.06
587.082	425.06
587.292	422.06
587.502	403.06
587.713	434.06
587.923	419.06
588.133	410.06
588.343	403.06
588.553	420.06
588.762	422.06
588.972	414.06
589.182	431.06
589.392	420.06
589.602	393.06
589.812	415.06
590.022	430.06
590.232	411.06
590.441	410.06
590.651	412.06
590.861	400.06
591.071	415.06
591.281	415.06
591.49	426.06
591.7	412.06
591.91	427.06
592.119	454.06
592.329	474.06
592.539	461.06
592.748	500.06
592.958	497.06
593.167	543.06
593.377	547.06
593.587	561.06
593.796	527.06
594.006	543.06
594.215	558.06
594.424	539.06
594.634	528.06
594.843	499.06
595.053	479.06
595.262	480.06
595.472	471.06
595.681	439.06
595.89	434.06
596.1	439.06
596.309	401.06
596.518	398.06
596.727	407.06
596.937	393.06
597.146	373.06
597.355	380.06
597.564	385.06
597.774	381.06
597.983	361.06
598.192	379.06
598.401	373.06
598.61	379.06
598.819	368.06
599.028	375.06
599.237	362.06
599.446	346.06
599.655	349.06
599.864	372.06
600.073	378.06
600.282	358.06
600.491	353.06
600.7	362.06
600.909	354.06
601.118	337.06
601.327	334.06
601.536	346.06
601.745	350.06
601.953	338.06
602.162	343.06
602.371	344.06
602.58	333.06
602.789	342.06
602.997	341.06
603.206	333.06
603.415	349.06
603.623	336.06
603.832	318.06
604.041	345.06
604.249	333.06
604.458	341.06
604.666	328.06
604.875	326.06
605.084	351.06
605.292	342.06
605.501	324.06
605.709	329.06
605.918	325.06
606.126	309.06
606.334	326.06
606.543	316.06
606.751	319.06
606.96	332.06
607.168	331.06
607.376	332.06
607.585	312.06
607.793	321.06
608.001	330.06
608.21	318.06
608.418	307.06
608.626	313.06
608.834	323.06
609.043	323.06
609.251	323.06
609.459	315.06
609.667	299.06
609.875	307.06
610.083	312.06
610.291	334.06
610.499	300.06
610.707	302.06
610.916	305.06
611.124	295.06
611.332	296.06
611.54	329.06
611.748	303.06
611.955	312.06
612.163	315.06
612.371	309.06
612.579	298.06
612.787	290.06
612.995	316.06
613.203	297.06
613.411	314.06
613.618	298.06
613.826	301.06
614.034	293.06
614.242	301.06
614.449	305.06
614.657	309.06
614.865	294.06
615.072	315.06
615.28	306.06
615.488	310.06
615.695	311.06
615.903	295.06
616.111	301.06
616.318	299.06
616.526	326.06
616.733	315.06
616.941	312.06
617.148	325.06
617.356	315.06
617.563	311.06
617.771	318.06
617.978	308.06
618.185	305.06
618.393	299.06
618.6	289.06
618.807	308.06
619.015	302.06
619.222	296.06
619.429	287.06
619.637	292.06
619.844	291.06
620.051	293.06
620.258	296.06
620.466	292.06
620.673	285.06
620.88	287.06
621.087	292.06
621.294	280.06
621.501	294.06
621.708	272.06
621.915	279.06
622.122	276.06
622.329	292.06
622.536	287.06
622.743	283.06
622.95	281.06
623.157	265.06
623.364	277.06
623.571	277.06
623.778	262.06
623.985	275.06
624.192	260.06
624.399	241.06
624.606	272.06
624.812	264.06
625.019	242.06
625.226	266.06
625.433	265.06
625.639	244.06
625.846	253.06
626.053	263.06
626.259	271.06
626.466	268.06
626.673	247.06
626.879	236.06
627.086	258.06
627.293	265.06
627.499	252.06
627.706	264.06
627.912	234.06
628.119	239.06
628.325	243.06
628.532	226.06
628.738	253.06
628.945	241.06
629.151	259.06
629.357	257.06
629.564	243.06
629.77	245.06
629.976	229.06
630.183	231.06
630.389	229.06
630.595	239.06
630.802	241.06
631.008	239.06
631.214	228.06
631.42	246.06
631.627	246.06
631.833	250.06
632.039	220.06
632.245	213.06
632.451	218.06
632.657	229.06
632.863	225.06
633.069	238.06
633.275	222.06
633.481	207.06
633.688	252.06
633.893	219.06
634.099	227.06
634.305	240.06
634.511	236.06
634.717	238.06
634.923	224.06
635.129	213.06
635.335	210.06
635.541	209.06
635.747	220.06
635.952	222.06
636.158	223.06
636.364	220.06
636.57	211.06
636.775	218.06
636.981	226.06
637.187	222.06
637.392	199.06
637.598	206.06
637.804	219.06
638.009	206.06
638.215	221.06
638.421	219.06
638.626	212.06
638.832	192.06
639.037	216.06
639.243	207.06
639.448	207.06
639.654	207.06
639.859	207.06
640.065	197.06
640.27	215.06
640.475	213.06
640.681	207.06
640.886	191.06
641.091	181.06
641.297	204.06
641.502	210.06
641.707	199.06
641.913	193.06
642.118	202.06
642.323	204.06
642.528	196.06
642.733	202.06
642.939	190.06
643.144	207.06
643.349	207.06
643.554	214.06
643.759	203.06
643.964	204.06
644.169	197.06
644.374	174.06
644.579	217.06
644.784	198.06
644.989	218.06
645.194	185.06
645.399	181.06
645.604	184.06
645.809	200.06
646.014	217.06
646.219	202.06
646.423	197.06
646.628	206.06
646.833	211.06
647.038	202.06
647.243	206.06
647.447	209.06
647.652	201.06
647.857	197.06
648.062	191.06
648.266	205.06
648.471	209.06
648.676	229.06
648.88	212.06
649.085	208.06
649.289	185.06
649.494	194.06
649.698	199.06
649.903	192.06
650.107	181.06
650.312	200.06
650.516	177.06
650.721	205.06
650.925	183.06
651.13	174.06
651.334	188.06
651.539	175.06
651.743	169.06
651.947	178.06
652.152	167.06
652.356	164.06
652.56	157.06
652.764	156.06
652.969	155.06
653.173	163.06
653.377	161.06
653.581	151.06
653.785	149.06
653.99	140.06
654.194	148.06
654.398	143.06
654.602	152.06
654.806	140.06
655.01	142.06
655.214	149.06
655.418	133.06
655.622	130.06
655.826	125.06
656.03	122.06
656.234	130.06
656.438	134.06
656.642	121.06
656.846	128.06
657.049	134.06
657.253	130.06
657.457	137.06
657.661	128.06
657.865	122.06
658.068	106.06
658.272	101.06
658.476	102.06
658.68	121.06
658.883	104.06
659.087	92.06
659.291	113.06
659.494	107.06
659.698	101.06
659.901	107.06
660.105	93.06
660.309	105.06
660.512	92.06
660.716	95.06
660.919	111.06
661.123	93.06
661.326	111.06
661.53	93.06
661.733	74.06
661.936	105.06
662.14	90.06
662.343	79.06
662.546	75.06
662.75	101.06
662.953	86.06
663.156	88.06
663.36	78.06
663.563	95.06
663.766	91.06
663.969	94.06
664.173	74.06
664.376	75.06
664.579	86.06
664.782	89.06
664.985	78.06
665.188	84.06
665.391	65.06
665.594	80.06
665.797	79.06
666	92.06
666.203	82.06
666.406	84.06
666.609	80.06
666.812	79.06
667.015	92.06
667.218	89.06
667.421	84.06
667.624	86.06
667.827	81.06
668.03	91.06
668.232	78.06
668.435	76.06
668.638	85.06
668.841	90.06
669.043	69.06
669.246	87.06
669.449	81.06
669.651	73.06
669.854	85.06
670.057	82.06
670.259	81.06
670.462	83.06
670.665	72.06
670.867	72.06
671.07	70.06
671.272	84.06
671.475	98.06
671.677	77.06
671.88	82.06
672.082	81.06
672.284	87.06
672.487	86.06
672.689	86.06
672.892	78.06
