Data from Ni(NO3)2@0.25M.TitratingCurve.Agarose3%dH2O.NegLispCup.LampEnergy10.LIBS07252019_HRD10591_18-03-13-565.txt Node
Date: Thu Jul 25 18:03:13 EDT 2019
User: cochatt
Spectrometer: HR+D1059
Trigger mode: 1
Integration Time (sec): 1.000000E-1
Scans to average: 1
Electric dark correction enabled: true
Nonlinearity correction enabled: false
Boxcar width: 0
XAxis mode: Wavelengths
Number of Pixels in Spectrum: 2048
>>>>>Begin Spectral Data<<<<<
223.165	-19.88
223.4	-19.88
223.635	-19.88
223.869	-18.88
224.104	-11.88
224.338	-20.88
224.573	-12.88
224.808	-24.88
225.042	-4.88
225.277	3.12
225.511	-3.88
225.746	0.12
225.98	2.12
226.215	8.12
226.449	17.12
226.683	21.12
226.918	22.12
227.152	44.12
227.387	33.12
227.621	26.12
227.856	26.12
228.09	44.12
228.324	51.12
228.559	53.12
228.793	47.12
229.027	70.12
229.262	75.12
229.496	82.12
229.73	90.12
229.964	79.12
230.199	78.12
230.433	92.12
230.667	92.12
230.901	93.12
231.136	81.12
231.37	87.12
231.604	86.12
231.838	105.12
232.072	101.12
232.306	104.12
232.541	83.12
232.775	105.12
233.009	104.12
233.243	96.12
233.477	92.12
233.711	86.12
233.945	95.12
234.179	92.12
234.413	106.12
234.647	94.12
234.881	90.12
235.115	96.12
235.349	95.12
235.583	101.12
235.817	95.12
236.051	101.12
236.285	99.12
236.519	87.12
236.753	102.12
236.987	124.12
237.221	90.12
237.455	87.12
237.689	97.12
237.922	112.12
238.156	90.12
238.39	99.12
238.624	104.12
238.858	100.12
239.091	97.12
239.325	87.12
239.559	103.12
239.793	108.12
240.027	100.12
240.26	111.12
240.494	100.12
240.728	87.12
240.961	92.12
241.195	98.12
241.429	100.12
241.662	92.12
241.896	107.12
242.13	101.12
242.363	95.12
242.597	111.12
242.83	98.12
243.064	100.12
243.298	103.12
243.531	109.12
243.765	96.12
243.998	115.12
244.232	98.12
244.465	113.12
244.699	107.12
244.932	97.12
245.166	115.12
245.399	111.12
245.633	115.12
245.866	116.12
246.099	106.12
246.333	117.12
246.566	107.12
246.8	117.12
247.033	117.12
247.266	119.12
247.5	120.12
247.733	118.12
247.966	107.12
248.2	127.12
248.433	136.12
248.666	131.12
248.899	123.12
249.133	129.12
249.366	124.12
249.599	139.12
249.832	144.12
250.066	154.12
250.299	138.12
250.532	161.12
250.765	147.12
250.998	151.12
251.231	155.12
251.465	183.12
251.698	156.12
251.931	149.12
252.164	156.12
252.397	166.12
252.63	158.12
252.863	167.12
253.096	177.12
253.329	175.12
253.562	163.12
253.795	168.12
254.028	198.12
254.261	190.12
254.494	185.12
254.727	183.12
254.96	200.12
255.193	179.12
255.426	186.12
255.659	186.12
255.892	201.12
256.124	190.12
256.357	195.12
256.59	205.12
256.823	198.12
257.056	196.12
257.289	216.12
257.521	231.12
257.754	204.12
257.987	229.12
258.22	233.12
258.452	236.12
258.685	240.12
258.918	220.12
259.151	224.12
259.383	222.12
259.616	240.12
259.849	224.12
260.081	230.12
260.314	239.12
260.547	238.12
260.779	244.12
261.012	251.12
261.244	247.12
261.477	225.12
261.71	243.12
261.942	242.12
262.175	248.12
262.407	257.12
262.64	261.12
262.872	263.12
263.105	257.12
263.337	256.12
263.57	273.12
263.802	256.12
264.035	255.12
264.267	247.12
264.499	259.12
264.732	266.12
264.964	259.12
265.197	270.12
265.429	257.12
265.661	259.12
265.894	270.12
266.126	261.12
266.358	271.12
266.591	264.12
266.823	245.12
267.055	276.12
267.287	255.12
267.52	251.12
267.752	254.12
267.984	260.12
268.216	264.12
268.448	274.12
268.681	277.12
268.913	268.12
269.145	290.12
269.377	283.12
269.609	288.12
269.841	273.12
270.073	264.12
270.306	253.12
270.538	279.12
270.77	288.12
271.002	275.12
271.234	260.12
271.466	285.12
271.698	269.12
271.93	266.12
272.162	269.12
272.394	283.12
272.626	267.12
272.858	279.12
273.09	275.12
273.322	295.12
273.553	290.12
273.785	287.12
274.017	298.12
274.249	289.12
274.481	275.12
274.713	294.12
274.945	285.12
275.176	288.12
275.408	280.12
275.64	291.12
275.872	294.12
276.104	276.12
276.335	271.12
276.567	275.12
276.799	284.12
277.031	292.12
277.262	279.12
277.494	295.12
277.726	290.12
277.957	286.12
278.189	283.12
278.421	275.12
278.652	274.12
278.884	296.12
279.115	293.12
279.347	284.12
279.579	280.12
279.81	273.12
280.042	281.12
280.273	287.12
280.505	293.12
280.736	271.12
280.968	295.12
281.199	290.12
281.431	299.12
281.662	291.12
281.894	305.12
282.125	306.12
282.356	275.12
282.588	290.12
282.819	280.12
283.051	290.12
283.282	272.12
283.513	276.12
283.745	279.12
283.976	274.12
284.207	279.12
284.439	291.12
284.67	297.12
284.901	266.12
285.132	267.12
285.364	292.12
285.595	282.12
285.826	277.12
286.057	275.12
286.288	273.12
286.52	298.12
286.751	297.12
286.982	298.12
287.213	284.12
287.444	299.12
287.675	294.12
287.906	288.12
288.138	286.12
288.369	295.12
288.6	274.12
288.831	274.12
289.062	312.12
289.293	309.12
289.524	297.12
289.755	292.12
289.986	289.12
290.217	290.12
290.448	287.12
290.679	277.12
290.91	273.12
291.141	262.12
291.371	293.12
291.602	287.12
291.833	278.12
292.064	297.12
292.295	296.12
292.526	284.12
292.757	274.12
292.987	288.12
293.218	288.12
293.449	288.12
293.68	288.12
293.91	275.12
294.141	263.12
294.372	288.12
294.603	287.12
294.833	277.12
295.064	283.12
295.295	284.12
295.525	292.12
295.756	278.12
295.987	291.12
296.217	283.12
296.448	279.12
296.679	282.12
296.909	309.12
297.14	304.12
297.37	289.12
297.601	268.12
297.831	287.12
298.062	287.12
298.292	285.12
298.523	297.12
298.753	309.12
298.984	296.12
299.214	287.12
299.445	294.12
299.675	298.12
299.905	315.12
300.136	304.12
300.366	290.12
300.597	309.12
300.827	289.12
301.057	307.12
301.288	304.12
301.518	304.12
301.748	319.12
301.979	305.12
302.209	318.12
302.439	309.12
302.669	312.12
302.9	317.12
303.13	299.12
303.36	312.12
303.59	315.12
303.82	308.12
304.051	324.12
304.281	328.12
304.511	318.12
304.741	311.12
304.971	311.12
305.201	340.12
305.431	317.12
305.661	324.12
305.891	314.12
306.121	330.12
306.352	327.12
306.582	317.12
306.812	325.12
307.042	294.12
307.272	319.12
307.502	318.12
307.731	341.12
307.961	335.12
308.191	321.12
308.421	326.12
308.651	333.12
308.881	341.12
309.111	360.12
309.341	330.12
309.571	337.12
309.8	340.12
310.03	345.12
310.26	328.12
310.49	362.12
310.72	319.12
310.949	369.12
311.179	331.12
311.409	360.12
311.639	363.12
311.868	387.12
312.098	354.12
312.328	377.12
312.557	367.12
312.787	353.12
313.017	371.12
313.246	371.12
313.476	383.12
313.706	392.12
313.935	387.12
314.165	385.12
314.394	409.12
314.624	383.12
314.853	385.12
315.083	394.12
315.312	427.12
315.542	419.12
315.771	412.12
316.001	407.12
316.23	432.12
316.46	404.12
316.689	428.12
316.919	435.12
317.148	426.12
317.377	460.12
317.607	451.12
317.836	425.12
318.065	428.12
318.295	454.12
318.524	448.12
318.753	443.12
318.983	449.12
319.212	449.12
319.441	448.12
319.67	467.12
319.9	479.12
320.129	477.12
320.358	484.12
320.587	495.12
320.816	489.12
321.046	462.12
321.275	501.12
321.504	499.12
321.733	504.12
321.962	498.12
322.191	523.12
322.42	511.12
322.649	513.12
322.878	503.12
323.108	529.12
323.337	535.12
323.566	529.12
323.795	538.12
324.024	550.12
324.253	551.12
324.482	563.12
324.71	544.12
324.939	553.12
325.168	588.12
325.397	556.12
325.626	568.12
325.855	591.12
326.084	568.12
326.313	577.12
326.542	585.12
326.77	614.12
326.999	608.12
327.228	616.12
327.457	612.12
327.686	580.12
327.914	613.12
328.143	607.12
328.372	608.12
328.6	596.12
328.829	618.12
329.058	621.12
329.287	626.12
329.515	626.12
329.744	638.12
329.972	632.12
330.201	641.12
330.43	647.12
330.658	671.12
330.887	662.12
331.115	685.12
331.344	681.12
331.572	677.12
331.801	666.12
332.03	709.12
332.258	720.12
332.486	718.12
332.715	731.12
332.943	705.12
333.172	730.12
333.4	725.12
333.629	751.12
333.857	744.12
334.085	752.12
334.314	737.12
334.542	733.12
334.771	743.12
334.999	757.12
335.227	751.12
335.455	752.12
335.684	741.12
335.912	757.12
336.14	753.12
336.369	749.12
336.597	796.12
336.825	780.12
337.053	757.12
337.281	792.12
337.51	770.12
337.738	782.12
337.966	762.12
338.194	755.12
338.422	765.12
338.65	735.12
338.878	748.12
339.106	737.12
339.334	760.12
339.562	755.12
339.79	765.12
340.018	745.12
340.246	734.12
340.474	748.12
340.702	738.12
340.93	746.12
341.158	755.12
341.386	739.12
341.614	746.12
341.842	739.12
342.07	751.12
342.298	720.12
342.526	763.12
342.754	716.12
342.981	765.12
343.209	746.12
343.437	774.12
343.665	737.12
343.893	796.12
344.12	797.12
344.348	780.12
344.576	777.12
344.804	778.12
345.031	756.12
345.259	724.12
345.487	770.12
345.714	773.12
345.942	749.12
346.17	762.12
346.397	747.12
346.625	718.12
346.853	723.12
347.08	738.12
347.308	722.12
347.535	731.12
347.763	738.12
347.99	724.12
348.218	722.12
348.445	718.12
348.673	726.12
348.9	717.12
349.128	716.12
349.355	712.12
349.583	751.12
349.81	732.12
350.037	695.12
350.265	717.12
350.492	709.12
350.72	723.12
350.947	705.12
351.174	718.12
351.402	731.12
351.629	717.12
351.856	720.12
352.083	721.12
352.311	721.12
352.538	699.12
352.765	709.12
352.992	718.12
353.22	691.12
353.447	685.12
353.674	701.12
353.901	700.12
354.128	691.12
354.355	739.12
354.583	721.12
354.81	699.12
355.037	706.12
355.264	712.12
355.491	697.12
355.718	684.12
355.945	693.12
356.172	686.12
356.399	705.12
356.626	697.12
356.853	707.12
357.08	704.12
357.307	695.12
357.534	684.12
357.761	682.12
357.988	710.12
358.215	700.12
358.441	709.12
358.668	696.12
358.895	690.12
359.122	664.12
359.349	679.12
359.576	682.12
359.802	710.12
360.029	673.12
360.256	675.12
360.483	693.12
360.709	683.12
360.936	718.12
361.163	667.12
361.39	688.12
361.616	686.12
361.843	692.12
362.07	698.12
362.296	716.12
362.523	683.12
362.749	713.12
362.976	654.12
363.203	703.12
363.429	688.12
363.656	673.12
363.882	668.12
364.109	676.12
364.335	673.12
364.562	682.12
364.788	688.12
365.015	689.12
365.241	648.12
365.468	693.12
365.694	676.12
365.92	687.12
366.147	705.12
366.373	705.12
366.599	691.12
366.826	684.12
367.052	686.12
367.278	691.12
367.505	684.12
367.731	681.12
367.957	687.12
368.184	691.12
368.41	698.12
368.636	703.12
368.862	672.12
369.089	701.12
369.315	681.12
369.541	680.12
369.767	703.12
369.993	685.12
370.219	676.12
370.445	699.12
370.672	676.12
370.898	658.12
371.124	679.12
371.35	725.12
371.576	692.12
371.802	676.12
372.028	689.12
372.254	684.12
372.48	690.12
372.706	689.12
372.932	681.12
373.158	697.12
373.384	704.12
373.61	686.12
373.835	693.12
374.061	680.12
374.287	698.12
374.513	709.12
374.739	685.12
374.965	663.12
375.191	705.12
375.416	696.12
375.642	672.12
375.868	685.12
376.094	655.12
376.319	697.12
376.545	675.12
376.771	647.12
376.997	667.12
377.222	658.12
377.448	643.12
377.674	661.12
377.899	642.12
378.125	656.12
378.35	679.12
378.576	661.12
378.802	630.12
379.027	630.12
379.253	642.12
379.478	623.12
379.704	653.12
379.929	634.12
380.155	633.12
380.38	641.12
380.606	634.12
380.831	644.12
381.057	664.12
381.282	657.12
381.507	635.12
381.733	653.12
381.958	661.12
382.184	632.12
382.409	648.12
382.634	612.12
382.86	663.12
383.085	643.12
383.31	660.12
383.535	655.12
383.761	636.12
383.986	661.12
384.211	671.12
384.436	685.12
384.662	669.12
384.887	675.12
385.112	672.12
385.337	672.12
385.562	680.12
385.787	679.12
386.013	699.12
386.238	684.12
386.463	700.12
386.688	700.12
386.913	673.12
387.138	676.12
387.363	691.12
387.588	698.12
387.813	693.12
388.038	709.12
388.263	701.12
388.488	700.12
388.713	691.12
388.938	676.12
389.163	673.12
389.387	697.12
389.612	677.12
389.837	681.12
390.062	681.12
390.287	678.12
390.512	689.12
390.736	696.12
390.961	697.12
391.186	723.12
391.411	691.12
391.636	716.12
391.86	711.12
392.085	727.12
392.31	708.12
392.534	717.12
392.759	737.12
392.984	723.12
393.208	733.12
393.433	712.12
393.658	705.12
393.882	716.12
394.107	717.12
394.331	721.12
394.556	728.12
394.78	714.12
395.005	704.12
395.229	709.12
395.454	746.12
395.678	734.12
395.903	709.12
396.127	734.12
396.352	746.12
396.576	725.12
396.801	729.12
397.025	744.12
397.249	765.12
397.474	770.12
397.698	748.12
397.922	754.12
398.147	759.12
398.371	794.12
398.595	777.12
398.82	786.12
399.044	819.12
399.268	833.12
399.492	895.12
399.717	909.12
399.941	919.12
400.165	897.12
400.389	846.12
400.613	869.12
400.837	887.12
401.062	864.12
401.286	819.12
401.51	823.12
401.734	815.12
401.958	839.12
402.182	832.12
402.406	850.12
402.63	833.12
402.854	856.12
403.078	831.12
403.302	808.12
403.526	835.12
403.75	850.12
403.974	844.12
404.198	824.12
404.422	855.12
404.645	869.12
404.869	834.12
405.093	863.12
405.317	850.12
405.541	866.12
405.765	853.12
405.988	859.12
406.212	866.12
406.436	881.12
406.66	863.12
406.883	904.12
407.107	923.12
407.331	906.12
407.555	959.12
407.778	945.12
408.002	928.12
408.226	935.12
408.449	955.12
408.673	916.12
408.896	932.12
409.12	921.12
409.344	927.12
409.567	907.12
409.791	924.12
410.014	920.12
410.238	915.12
410.461	927.12
410.685	904.12
410.908	908.12
411.132	902.12
411.355	883.12
411.578	876.12
411.802	907.12
412.025	905.12
412.249	912.12
412.472	899.12
412.695	893.12
412.919	883.12
413.142	879.12
413.365	900.12
413.589	881.12
413.812	869.12
414.035	885.12
414.258	874.12
414.482	884.12
414.705	873.12
414.928	885.12
415.151	895.12
415.374	882.12
415.597	888.12
415.821	865.12
416.044	860.12
416.267	833.12
416.49	865.12
416.713	851.12
416.936	892.12
417.159	888.12
417.382	880.12
417.605	873.12
417.828	876.12
418.051	881.12
418.274	875.12
418.497	863.12
418.72	881.12
418.943	853.12
419.166	918.12
419.389	994.12
419.611	950.12
419.834	951.12
420.057	916.12
420.28	890.12
420.503	895.12
420.726	887.12
420.948	875.12
421.171	882.12
421.394	897.12
421.617	881.12
421.839	908.12
422.062	891.12
422.285	900.12
422.507	885.12
422.73	908.12
422.953	879.12
423.175	914.12
423.398	909.12
423.621	899.12
423.843	922.12
424.066	933.12
424.288	935.12
424.511	922.12
424.733	936.12
424.956	893.12
425.178	907.12
425.401	915.12
425.623	949.12
425.846	928.12
426.068	904.12
426.291	909.12
426.513	913.12
426.735	908.12
426.958	929.12
427.18	894.12
427.402	899.12
427.625	915.12
427.847	913.12
428.069	907.12
428.292	932.12
428.514	899.12
428.736	888.12
428.958	904.12
429.181	909.12
429.403	910.12
429.625	891.12
429.847	915.12
430.069	907.12
430.292	915.12
430.514	922.12
430.736	907.12
430.958	934.12
431.18	908.12
431.402	918.12
431.624	919.12
431.846	908.12
432.068	916.12
432.29	920.12
432.512	886.12
432.734	930.12
432.956	933.12
433.178	951.12
433.4	951.12
433.622	939.12
433.844	931.12
434.066	951.12
434.287	905.12
434.509	929.12
434.731	927.12
434.953	951.12
435.175	966.12
435.397	986.12
435.618	950.12
435.84	935.12
436.062	962.12
436.284	911.12
436.505	943.12
436.727	962.12
436.949	918.12
437.17	913.12
437.392	908.12
437.614	901.12
437.835	891.12
438.057	920.12
438.278	892.12
438.5	892.12
438.721	907.12
438.943	947.12
439.165	933.12
439.386	933.12
439.608	961.12
439.829	917.12
440.05	948.12
440.272	959.12
440.493	948.12
440.715	960.12
440.936	955.12
441.158	959.12
441.379	956.12
441.6	972.12
441.822	988.12
442.043	972.12
442.264	970.12
442.486	939.12
442.707	970.12
442.928	964.12
443.149	978.12
443.371	949.12
443.592	976.12
443.813	996.12
444.034	987.12
444.255	995.12
444.476	1011.12
444.698	1013.12
444.919	1010.12
445.14	1099.12
445.361	994.12
445.582	977.12
445.803	1000.12
446.024	961.12
446.245	952.12
446.466	980.12
446.687	933.12
446.908	922.12
447.129	958.12
447.35	933.12
447.571	936.12
447.792	888.12
448.013	887.12
448.234	899.12
448.455	900.12
448.675	914.12
448.896	904.12
449.117	855.12
449.338	891.12
449.559	881.12
449.779	896.12
450	889.12
450.221	872.12
450.442	898.12
450.662	865.12
450.883	875.12
451.104	892.12
451.324	885.12
451.545	880.12
451.766	890.12
451.986	866.12
452.207	882.12
452.428	855.12
452.648	871.12
452.869	869.12
453.089	857.12
453.31	877.12
453.53	856.12
453.751	835.12
453.971	853.12
454.192	843.12
454.412	835.12
454.633	849.12
454.853	859.12
455.073	868.12
455.294	864.12
455.514	840.12
455.734	831.12
455.955	832.12
456.175	818.12
456.395	844.12
456.616	817.12
456.836	829.12
457.056	853.12
457.276	832.12
457.497	827.12
457.717	839.12
457.937	840.12
458.157	853.12
458.377	845.12
458.598	882.12
458.818	883.12
459.038	890.12
459.258	893.12
459.478	946.12
459.698	941.12
459.918	939.12
460.138	946.12
460.358	956.12
460.578	955.12
460.798	975.12
461.018	998.12
461.238	973.12
461.458	987.12
461.678	981.12
461.898	977.12
462.118	1012.12
462.338	1011.12
462.558	1053.12
462.777	1054.12
462.997	1079.12
463.217	1118.12
463.437	1104.12
463.657	1065.12
463.876	1072.12
464.096	1058.12
464.316	1046.12
464.536	1087.12
464.755	1047.12
464.975	1016.12
465.195	1008.12
465.414	996.12
465.634	954.12
465.854	960.12
466.073	932.12
466.293	933.12
466.512	920.12
466.732	931.12
466.951	939.12
467.171	900.12
467.391	909.12
467.61	909.12
467.829	929.12
468.049	950.12
468.268	897.12
468.488	906.12
468.707	919.12
468.927	940.12
469.146	938.12
469.365	910.12
469.585	923.12
469.804	941.12
470.023	931.12
470.243	916.12
470.462	916.12
470.681	945.12
470.901	931.12
471.12	947.12
471.339	926.12
471.558	951.12
471.777	938.12
471.997	929.12
472.216	915.12
472.435	924.12
472.654	900.12
472.873	881.12
473.092	903.12
473.311	947.12
473.53	917.12
473.749	928.12
473.968	895.12
474.187	909.12
474.406	945.12
474.625	947.12
474.844	936.12
475.063	932.12
475.282	959.12
475.501	947.12
475.72	948.12
475.939	965.12
476.158	970.12
476.377	1012.12
476.596	989.12
476.814	969.12
477.033	949.12
477.252	991.12
477.471	993.12
477.69	1030.12
477.908	1039.12
478.127	1029.12
478.346	1055.12
478.564	1043.12
478.783	1095.12
479.002	1116.12
479.22	1069.12
479.439	1076.12
479.658	1088.12
479.876	1099.12
480.095	1052.12
480.313	1120.12
480.532	1096.12
480.751	1108.12
480.969	1103.12
481.188	1063.12
481.406	1061.12
481.624	1077.12
481.843	1053.12
482.061	1080.12
482.28	1066.12
482.498	1096.12
482.717	1060.12
482.935	1069.12
483.153	1099.12
483.372	1121.12
483.59	1121.12
483.808	1116.12
484.027	1079.12
484.245	1092.12
484.463	1113.12
484.681	1130.12
484.9	1125.12
485.118	1119.12
485.336	1098.12
485.554	1113.12
485.772	1087.12
485.99	1113.12
486.209	1099.12
486.427	1102.12
486.645	1095.12
486.863	1121.12
487.081	1106.12
487.299	1148.12
487.517	1130.12
487.735	1143.12
487.953	1143.12
488.171	1152.12
488.389	1163.12
488.607	1145.12
488.825	1141.12
489.043	1111.12
489.261	1128.12
489.479	1113.12
489.696	1139.12
489.914	1132.12
490.132	1143.12
490.35	1149.12
490.568	1153.12
490.786	1166.12
491.003	1151.12
491.221	1160.12
491.439	1192.12
491.657	1206.12
491.874	1219.12
492.092	1219.12
492.31	1184.12
492.527	1249.12
492.745	1207.12
492.963	1210.12
493.18	1207.12
493.398	1180.12
493.615	1219.12
493.833	1213.12
494.05	1251.12
494.268	1209.12
494.485	1210.12
494.703	1226.12
494.92	1244.12
495.138	1221.12
495.355	1250.12
495.573	1227.12
495.79	1203.12
496.008	1285.12
496.225	1250.12
496.442	1267.12
496.66	1293.12
496.877	1290.12
497.094	1331.12
497.312	1305.12
497.529	1338.12
497.746	1335.12
497.963	1337.12
498.181	1378.12
498.398	1435.12
498.615	1433.12
498.832	1474.12
499.049	1509.12
499.267	1559.12
499.484	1609.12
499.701	1657.12
499.918	1706.12
500.135	1823.12
500.352	1900.12
500.569	1926.12
500.786	1903.12
501.003	1847.12
501.22	1759.12
501.437	1704.12
501.654	1613.12
501.871	1598.12
502.088	1556.12
502.305	1557.12
502.522	1500.12
502.739	1456.12
502.956	1415.12
503.172	1391.12
503.389	1357.12
503.606	1375.12
503.823	1323.12
504.04	1290.12
504.256	1311.12
504.473	1335.12
504.69	1272.12
504.907	1273.12
505.123	1227.12
505.34	1228.12
505.557	1229.12
505.773	1168.12
505.99	1185.12
506.207	1164.12
506.423	1155.12
506.64	1142.12
506.856	1117.12
507.073	1145.12
507.289	1121.12
507.506	1101.12
507.722	1111.12
507.939	1105.12
508.155	1082.12
508.372	1106.12
508.588	1085.12
508.805	1068.12
509.021	1059.12
509.238	1074.12
509.454	1055.12
509.67	1035.12
509.887	1044.12
510.103	1036.12
510.319	1027.12
510.536	1017.12
510.752	1038.12
510.968	1026.12
511.184	1016.12
511.401	1025.12
511.617	1017.12
511.833	1056.12
512.049	1003.12
512.265	1019.12
512.481	1027.12
512.698	1011.12
512.914	1023.12
513.13	1010.12
513.346	996.12
513.562	1023.12
513.778	1025.12
513.994	1015.12
514.21	1009.12
514.426	1005.12
514.642	989.12
514.858	1004.12
515.074	1003.12
515.29	1017.12
515.506	1034.12
515.721	1059.12
515.937	1023.12
516.153	1038.12
516.369	1041.12
516.585	1041.12
516.801	1078.12
517.016	1074.12
517.232	1098.12
517.448	1099.12
517.664	1151.12
517.879	1108.12
518.095	1093.12
518.311	1099.12
518.527	1082.12
518.742	1052.12
518.958	1051.12
519.173	1073.12
519.389	1047.12
519.605	1029.12
519.82	1028.12
520.036	1030.12
520.251	992.12
520.467	992.12
520.682	980.12
520.898	968.12
521.113	953.12
521.329	973.12
521.544	1027.12
521.76	951.12
521.975	963.12
522.19	963.12
522.406	938.12
522.621	925.12
522.836	961.12
523.052	961.12
523.267	977.12
523.482	961.12
523.698	923.12
523.913	951.12
524.128	925.12
524.343	970.12
524.559	963.12
524.774	918.12
524.989	961.12
525.204	949.12
525.419	936.12
525.634	899.12
525.849	926.12
526.064	918.12
526.28	921.12
526.495	884.12
526.71	908.12
526.925	900.12
527.14	916.12
527.355	896.12
527.57	895.12
527.785	888.12
527.999	926.12
528.214	899.12
528.429	923.12
528.644	920.12
528.859	924.12
529.074	930.12
529.289	889.12
529.503	916.12
529.718	917.12
529.933	913.12
530.148	897.12
530.363	876.12
530.577	909.12
530.792	880.12
531.007	902.12
531.221	861.12
531.436	884.12
531.651	873.12
531.865	869.12
532.08	899.12
532.295	899.12
532.509	875.12
532.724	855.12
532.938	851.12
533.153	886.12
533.367	874.12
533.582	887.12
533.796	885.12
534.011	896.12
534.225	871.12
534.44	851.12
534.654	872.12
534.868	831.12
535.083	871.12
535.297	869.12
535.511	859.12
535.726	844.12
535.94	849.12
536.154	821.12
536.369	850.12
536.583	827.12
536.797	846.12
537.011	825.12
537.225	827.12
537.44	823.12
537.654	829.12
537.868	843.12
538.082	819.12
538.296	831.12
538.51	807.12
538.724	831.12
538.938	841.12
539.153	840.12
539.367	806.12
539.581	796.12
539.795	825.12
540.009	817.12
540.222	835.12
540.436	823.12
540.65	805.12
540.864	835.12
541.078	821.12
541.292	819.12
541.506	844.12
541.72	808.12
541.934	837.12
542.147	859.12
542.361	833.12
542.575	824.12
542.789	831.12
543.002	816.12
543.216	832.12
543.43	800.12
543.644	815.12
543.857	845.12
544.071	819.12
544.285	801.12
544.498	781.12
544.712	829.12
544.925	827.12
545.139	821.12
545.352	799.12
545.566	804.12
545.779	808.12
545.993	846.12
546.206	822.12
546.42	811.12
546.633	802.12
546.847	808.12
547.06	821.12
547.274	811.12
547.487	824.12
547.7	805.12
547.914	822.12
548.127	811.12
548.34	798.12
548.554	801.12
548.767	810.12
548.98	819.12
549.193	788.12
549.407	816.12
549.62	809.12
549.833	813.12
550.046	817.12
550.259	787.12
550.473	803.12
550.686	784.12
550.899	783.12
551.112	806.12
551.325	782.12
551.538	788.12
551.751	759.12
551.964	741.12
552.177	781.12
552.39	765.12
552.603	811.12
552.816	824.12
553.029	797.12
553.242	830.12
553.455	805.12
553.667	827.12
553.88	785.12
554.093	786.12
554.306	785.12
554.519	767.12
554.732	759.12
554.944	756.12
555.157	739.12
555.37	752.12
555.583	716.12
555.795	737.12
556.008	729.12
556.221	718.12
556.433	727.12
556.646	722.12
556.859	730.12
557.071	722.12
557.284	732.12
557.496	736.12
557.709	709.12
557.921	707.12
558.134	712.12
558.346	702.12
558.559	713.12
558.771	672.12
558.984	716.12
559.196	685.12
559.409	687.12
559.621	689.12
559.833	701.12
560.046	696.12
560.258	696.12
560.47	673.12
560.683	671.12
560.895	684.12
561.107	701.12
561.32	655.12
561.532	690.12
561.744	691.12
561.956	663.12
562.168	685.12
562.381	683.12
562.593	693.12
562.805	662.12
563.017	680.12
563.229	681.12
563.441	681.12
563.653	682.12
563.865	691.12
564.077	689.12
564.289	691.12
564.501	705.12
564.713	714.12
564.925	695.12
565.137	701.12
565.349	699.12
565.561	712.12
565.773	724.12
565.985	702.12
566.197	725.12
566.408	733.12
566.62	773.12
566.832	789.12
567.044	790.12
567.255	792.12
567.467	785.12
567.679	772.12
567.891	798.12
568.102	769.12
568.314	793.12
568.526	755.12
568.737	747.12
568.949	712.12
569.161	716.12
569.372	661.12
569.584	657.12
569.795	658.12
570.007	629.12
570.218	609.12
570.43	618.12
570.641	625.12
570.853	626.12
571.064	619.12
571.276	633.12
571.487	618.12
571.698	606.12
571.91	596.12
572.121	577.12
572.333	589.12
572.544	572.12
572.755	577.12
572.966	574.12
573.178	553.12
573.389	562.12
573.6	561.12
573.811	563.12
574.023	528.12
574.234	559.12
574.445	546.12
574.656	553.12
574.867	543.12
575.078	544.12
575.289	523.12
575.501	541.12
575.712	519.12
575.923	510.12
576.134	518.12
576.345	535.12
576.556	528.12
576.767	516.12
576.978	522.12
577.188	479.12
577.399	523.12
577.61	503.12
577.821	519.12
578.032	499.12
578.243	508.12
578.454	501.12
578.665	504.12
578.875	471.12
579.086	480.12
579.297	485.12
579.508	491.12
579.718	486.12
579.929	473.12
580.14	492.12
580.35	473.12
580.561	463.12
580.772	475.12
580.982	467.12
581.193	461.12
581.403	486.12
581.614	467.12
581.825	471.12
582.035	452.12
582.246	472.12
582.456	470.12
582.667	466.12
582.877	459.12
583.087	456.12
583.298	461.12
583.508	446.12
583.719	471.12
583.929	441.12
584.139	453.12
584.35	420.12
584.56	437.12
584.77	455.12
584.981	431.12
585.191	450.12
585.401	443.12
585.611	440.12
585.821	415.12
586.032	428.12
586.242	438.12
586.452	435.12
586.662	462.12
586.872	445.12
587.082	428.12
587.292	454.12
587.502	423.12
587.713	431.12
587.923	423.12
588.133	422.12
588.343	422.12
588.553	436.12
588.762	429.12
588.972	425.12
589.182	444.12
589.392	433.12
589.602	425.12
589.812	417.12
590.022	436.12
590.232	422.12
590.441	421.12
590.651	431.12
590.861	421.12
591.071	439.12
591.281	426.12
591.49	452.12
591.7	419.12
591.91	428.12
592.119	417.12
592.329	428.12
592.539	433.12
592.748	449.12
592.958	437.12
593.167	417.12
593.377	455.12
593.587	459.12
593.796	435.12
594.006	437.12
594.215	432.12
594.424	436.12
594.634	429.12
594.843	417.12
595.053	426.12
595.262	413.12
595.472	403.12
595.681	419.12
595.89	411.12
596.1	397.12
596.309	401.12
596.518	385.12
596.727	394.12
596.937	399.12
597.146	411.12
597.355	394.12
597.564	378.12
597.774	378.12
597.983	368.12
598.192	371.12
598.401	378.12
598.61	381.12
598.819	387.12
599.028	372.12
599.237	371.12
599.446	365.12
599.655	363.12
599.864	359.12
600.073	347.12
600.282	354.12
600.491	357.12
600.7	347.12
600.909	353.12
601.118	360.12
601.327	356.12
601.536	352.12
601.745	358.12
601.953	344.12
602.162	354.12
602.371	340.12
602.58	360.12
602.789	358.12
602.997	338.12
603.206	355.12
603.415	341.12
603.623	333.12
603.832	343.12
604.041	324.12
604.249	349.12
604.458	346.12
604.666	336.12
604.875	319.12
605.084	336.12
605.292	343.12
605.501	345.12
605.709	335.12
605.918	330.12
606.126	347.12
606.334	337.12
606.543	333.12
606.751	334.12
606.96	339.12
607.168	331.12
607.376	330.12
607.585	335.12
607.793	339.12
608.001	345.12
608.21	331.12
608.418	328.12
608.626	310.12
608.834	327.12
609.043	308.12
609.251	321.12
609.459	307.12
609.667	299.12
609.875	324.12
610.083	323.12
610.291	336.12
610.499	325.12
610.707	320.12
610.916	316.12
611.124	323.12
611.332	322.12
611.54	318.12
611.748	330.12
611.955	334.12
612.163	325.12
612.371	287.12
612.579	302.12
612.787	307.12
612.995	332.12
613.203	321.12
613.411	301.12
613.618	316.12
613.826	304.12
614.034	317.12
614.242	316.12
614.449	299.12
614.657	299.12
614.865	318.12
615.072	316.12
615.28	304.12
615.488	314.12
615.695	295.12
615.903	307.12
616.111	311.12
616.318	300.12
616.526	277.12
616.733	298.12
616.941	283.12
617.148	310.12
617.356	281.12
617.563	300.12
617.771	298.12
617.978	290.12
618.185	306.12
618.393	309.12
618.6	311.12
618.807	294.12
619.015	295.12
619.222	291.12
619.429	295.12
619.637	303.12
619.844	301.12
620.051	287.12
620.258	281.12
620.466	282.12
620.673	270.12
620.88	264.12
621.087	283.12
621.294	292.12
621.501	289.12
621.708	304.12
621.915	275.12
622.122	282.12
622.329	278.12
622.536	279.12
622.743	278.12
622.95	292.12
623.157	279.12
623.364	272.12
623.571	272.12
623.778	283.12
623.985	283.12
624.192	281.12
624.399	267.12
624.606	264.12
624.812	275.12
625.019	269.12
625.226	272.12
625.433	259.12
625.639	269.12
625.846	255.12
626.053	264.12
626.259	258.12
626.466	265.12
626.673	243.12
626.879	253.12
627.086	255.12
627.293	256.12
627.499	265.12
627.706	272.12
627.912	261.12
628.119	255.12
628.325	268.12
628.532	243.12
628.738	248.12
628.945	260.12
629.151	240.12
629.357	232.12
629.564	271.12
629.77	267.12
629.976	237.12
630.183	235.12
630.389	246.12
630.595	223.12
630.802	236.12
631.008	241.12
631.214	256.12
631.42	233.12
631.627	227.12
631.833	228.12
632.039	249.12
632.245	235.12
632.451	239.12
632.657	227.12
632.863	241.12
633.069	225.12
633.275	225.12
633.481	236.12
633.688	234.12
633.893	241.12
634.099	228.12
634.305	228.12
634.511	229.12
634.717	233.12
634.923	236.12
635.129	232.12
635.335	222.12
635.541	228.12
635.747	221.12
635.952	220.12
636.158	225.12
636.364	237.12
636.57	223.12
636.775	220.12
636.981	221.12
637.187	211.12
637.392	224.12
637.598	212.12
637.804	206.12
638.009	209.12
638.215	213.12
638.421	224.12
638.626	212.12
638.832	225.12
639.037	208.12
639.243	225.12
639.448	221.12
639.654	225.12
639.859	205.12
640.065	209.12
640.27	218.12
640.475	215.12
640.681	212.12
640.886	222.12
641.091	223.12
641.297	228.12
641.502	191.12
641.707	197.12
641.913	219.12
642.118	212.12
642.323	207.12
642.528	212.12
642.733	226.12
642.939	203.12
643.144	205.12
643.349	199.12
643.554	211.12
643.759	227.12
643.964	203.12
644.169	221.12
644.374	201.12
644.579	215.12
644.784	195.12
644.989	217.12
645.194	217.12
645.399	203.12
645.604	205.12
645.809	209.12
646.014	221.12
646.219	206.12
646.423	202.12
646.628	209.12
646.833	212.12
647.038	215.12
647.243	203.12
647.447	213.12
647.652	192.12
647.857	205.12
648.062	204.12
648.266	200.12
648.471	205.12
648.676	199.12
648.88	209.12
649.085	214.12
649.289	216.12
649.494	184.12
649.698	197.12
649.903	190.12
650.107	189.12
650.312	205.12
650.516	205.12
650.721	210.12
650.925	183.12
651.13	186.12
651.334	185.12
651.539	189.12
651.743	177.12
651.947	175.12
652.152	190.12
652.356	182.12
652.56	181.12
652.764	175.12
652.969	167.12
653.173	163.12
653.377	185.12
653.581	175.12
653.785	175.12
653.99	168.12
654.194	173.12
654.398	158.12
654.602	182.12
654.806	170.12
655.01	169.12
655.214	171.12
655.418	149.12
655.622	168.12
655.826	137.12
656.03	165.12
656.234	160.12
656.438	137.12
656.642	136.12
656.846	129.12
657.049	129.12
657.253	128.12
657.457	145.12
657.661	127.12
657.865	145.12
658.068	137.12
658.272	123.12
658.476	134.12
658.68	129.12
658.883	120.12
659.087	117.12
659.291	128.12
659.494	108.12
659.698	101.12
659.901	112.12
660.105	104.12
660.309	117.12
660.512	104.12
660.716	114.12
660.919	107.12
661.123	104.12
661.326	95.12
661.53	92.12
661.733	86.12
661.936	93.12
662.14	94.12
662.343	96.12
662.546	80.12
662.75	95.12
662.953	98.12
663.156	96.12
663.36	89.12
663.563	88.12
663.766	79.12
663.969	91.12
664.173	81.12
664.376	104.12
664.579	89.12
664.782	86.12
664.985	69.12
665.188	74.12
665.391	88.12
665.594	87.12
665.797	80.12
666	78.12
666.203	80.12
666.406	73.12
666.609	69.12
666.812	95.12
667.015	83.12
667.218	82.12
667.421	83.12
667.624	76.12
667.827	80.12
668.03	89.12
668.232	87.12
668.435	86.12
668.638	80.12
668.841	75.12
669.043	77.12
669.246	82.12
669.449	85.12
669.651	75.12
669.854	74.12
670.057	72.12
670.259	73.12
670.462	101.12
670.665	95.12
670.867	71.12
671.07	84.12
671.272	79.12
671.475	72.12
671.677	71.12
671.88	69.12
672.082	94.12
672.284	75.12
672.487	70.12
672.689	75.12
672.892	91.12
