Data from Ni(NO3)2@0.5M.TitratingCurve.Agarose3%dH2O.NegLispCup.LampEnergy10.LIBS07252019_HRD10591_17-57-46-564.txt Node
Date: Thu Jul 25 17:57:46 EDT 2019
User: cochatt
Spectrometer: HR+D1059
Trigger mode: 1
Integration Time (sec): 1.000000E-1
Scans to average: 1
Electric dark correction enabled: true
Nonlinearity correction enabled: false
Boxcar width: 0
XAxis mode: Wavelengths
Number of Pixels in Spectrum: 2048
>>>>>Begin Spectral Data<<<<<
223.165	-13.56
223.4	-13.56
223.635	-13.56
223.869	-25.56
224.104	-8.56
224.338	1.44
224.573	-20.56
224.808	-16.56
225.042	-2.56
225.277	-1.56
225.511	-2.56
225.746	-2.56
225.98	5.44
226.215	8.44
226.449	18.44
226.683	18.44
226.918	10.44
227.152	31.44
227.387	35.44
227.621	40.44
227.856	43.44
228.09	45.44
228.324	45.44
228.559	67.44
228.793	85.44
229.027	141.44
229.262	175.44
229.496	161.44
229.73	177.44
229.964	219.44
230.199	266.44
230.433	269.44
230.667	237.44
230.901	235.44
231.136	205.44
231.37	201.44
231.604	238.44
231.838	262.44
232.072	272.44
232.306	251.44
232.541	231.44
232.775	196.44
233.009	219.44
233.243	204.44
233.477	197.44
233.711	215.44
233.945	201.44
234.179	200.44
234.413	214.44
234.647	215.44
234.881	238.44
235.115	209.44
235.349	214.44
235.583	205.44
235.817	201.44
236.051	203.44
236.285	194.44
236.519	194.44
236.753	210.44
236.987	206.44
237.221	207.44
237.455	213.44
237.689	213.44
237.922	226.44
238.156	215.44
238.39	207.44
238.624	223.44
238.858	223.44
239.091	232.44
239.325	235.44
239.559	280.44
239.793	306.44
240.027	286.44
240.26	264.44
240.494	251.44
240.728	236.44
240.961	253.44
241.195	249.44
241.429	263.44
241.662	282.44
241.896	301.44
242.13	310.44
242.363	270.44
242.597	260.44
242.83	263.44
243.064	260.44
243.298	280.44
243.531	270.44
243.765	283.44
243.998	293.44
244.232	302.44
244.465	291.44
244.699	285.44
244.932	286.44
245.166	282.44
245.399	288.44
245.633	307.44
245.866	299.44
246.099	282.44
246.333	296.44
246.566	290.44
246.8	319.44
247.033	307.44
247.266	315.44
247.5	319.44
247.733	321.44
247.966	324.44
248.2	327.44
248.433	327.44
248.666	334.44
248.899	347.44
249.133	345.44
249.366	370.44
249.599	357.44
249.832	369.44
250.066	346.44
250.299	333.44
250.532	353.44
250.765	368.44
250.998	391.44
251.231	414.44
251.465	443.44
251.698	431.44
251.931	398.44
252.164	390.44
252.397	395.44
252.63	398.44
252.863	408.44
253.096	394.44
253.329	394.44
253.562	392.44
253.795	413.44
254.028	389.44
254.261	417.44
254.494	420.44
254.727	424.44
254.96	449.44
255.193	441.44
255.426	455.44
255.659	441.44
255.892	434.44
256.124	455.44
256.357	473.44
256.59	461.44
256.823	449.44
257.056	479.44
257.289	478.44
257.521	473.44
257.754	468.44
257.987	465.44
258.22	474.44
258.452	485.44
258.685	504.44
258.918	482.44
259.151	485.44
259.383	495.44
259.616	495.44
259.849	497.44
260.081	526.44
260.314	536.44
260.547	497.44
260.779	526.44
261.012	548.44
261.244	559.44
261.477	553.44
261.71	529.44
261.942	535.44
262.175	541.44
262.407	543.44
262.64	551.44
262.872	563.44
263.105	563.44
263.337	544.44
263.57	575.44
263.802	562.44
264.035	566.44
264.267	581.44
264.499	551.44
264.732	579.44
264.964	601.44
265.197	590.44
265.429	567.44
265.661	575.44
265.894	585.44
266.126	586.44
266.358	577.44
266.591	591.44
266.823	601.44
267.055	601.44
267.287	620.44
267.52	600.44
267.752	603.44
267.984	614.44
268.216	626.44
268.448	626.44
268.681	625.44
268.913	612.44
269.145	612.44
269.377	600.44
269.609	636.44
269.841	635.44
270.073	623.44
270.306	623.44
270.538	648.44
270.77	625.44
271.002	645.44
271.234	662.44
271.466	635.44
271.698	635.44
271.93	634.44
272.162	659.44
272.394	675.44
272.626	651.44
272.858	660.44
273.09	655.44
273.322	658.44
273.553	648.44
273.785	669.44
274.017	648.44
274.249	672.44
274.481	685.44
274.713	674.44
274.945	696.44
275.176	675.44
275.408	687.44
275.64	661.44
275.872	683.44
276.104	683.44
276.335	722.44
276.567	694.44
276.799	710.44
277.031	698.44
277.262	710.44
277.494	725.44
277.726	718.44
277.957	719.44
278.189	699.44
278.421	721.44
278.652	721.44
278.884	711.44
279.115	742.44
279.347	733.44
279.579	701.44
279.81	728.44
280.042	727.44
280.273	733.44
280.505	731.44
280.736	726.44
280.968	750.44
281.199	744.44
281.431	738.44
281.662	724.44
281.894	728.44
282.125	757.44
282.356	755.44
282.588	759.44
282.819	745.44
283.051	753.44
283.282	747.44
283.513	757.44
283.745	780.44
283.976	773.44
284.207	777.44
284.439	770.44
284.67	793.44
284.901	797.44
285.132	778.44
285.364	753.44
285.595	763.44
285.826	813.44
286.057	768.44
286.288	801.44
286.52	775.44
286.751	819.44
286.982	781.44
287.213	784.44
287.444	821.44
287.675	798.44
287.906	799.44
288.138	793.44
288.369	787.44
288.6	775.44
288.831	795.44
289.062	783.44
289.293	805.44
289.524	789.44
289.755	817.44
289.986	782.44
290.217	797.44
290.448	813.44
290.679	819.44
290.91	813.44
291.141	823.44
291.371	813.44
291.602	811.44
291.833	838.44
292.064	810.44
292.295	815.44
292.526	811.44
292.757	832.44
292.987	799.44
293.218	817.44
293.449	832.44
293.68	810.44
293.91	825.44
294.141	842.44
294.372	804.44
294.603	845.44
294.833	848.44
295.064	813.44
295.295	823.44
295.525	801.44
295.756	843.44
295.987	825.44
296.217	815.44
296.448	835.44
296.679	829.44
296.909	831.44
297.14	852.44
297.37	849.44
297.601	840.44
297.831	835.44
298.062	840.44
298.292	857.44
298.523	870.44
298.753	858.44
298.984	857.44
299.214	870.44
299.445	905.44
299.675	886.44
299.905	877.44
300.136	881.44
300.366	923.44
300.597	920.44
300.827	905.44
301.057	886.44
301.288	912.44
301.518	913.44
301.748	907.44
301.979	911.44
302.209	893.44
302.439	918.44
302.669	903.44
302.9	904.44
303.13	905.44
303.36	949.44
303.59	901.44
303.82	908.44
304.051	941.44
304.281	952.44
304.511	943.44
304.741	993.44
304.971	971.44
305.201	992.44
305.431	976.44
305.661	966.44
305.891	966.44
306.121	947.44
306.352	940.44
306.582	898.44
306.812	942.44
307.042	957.44
307.272	954.44
307.502	935.44
307.731	938.44
307.961	974.44
308.191	985.44
308.421	980.44
308.651	952.44
308.881	969.44
309.111	972.44
309.341	944.44
309.571	995.44
309.8	1019.44
310.03	1027.44
310.26	1055.44
310.49	1041.44
310.72	1041.44
310.949	991.44
311.179	1007.44
311.409	1004.44
311.639	997.44
311.868	999.44
312.098	997.44
312.328	1002.44
312.557	1027.44
312.787	1026.44
313.017	1061.44
313.246	1042.44
313.476	1045.44
313.706	1064.44
313.935	1087.44
314.165	1081.44
314.394	1056.44
314.624	1046.44
314.853	1056.44
315.083	1070.44
315.312	1101.44
315.542	1083.44
315.771	1070.44
316.001	1078.44
316.23	1081.44
316.46	1109.44
316.689	1098.44
316.919	1120.44
317.148	1099.44
317.377	1115.44
317.607	1087.44
317.836	1088.44
318.065	1107.44
318.295	1093.44
318.524	1138.44
318.753	1125.44
318.983	1113.44
319.212	1144.44
319.441	1142.44
319.67	1164.44
319.9	1150.44
320.129	1140.44
320.358	1177.44
320.587	1155.44
320.816	1219.44
321.046	1163.44
321.275	1151.44
321.504	1189.44
321.733	1216.44
321.962	1206.44
322.191	1231.44
322.42	1238.44
322.649	1235.44
322.878	1227.44
323.108	1205.44
323.337	1227.44
323.566	1218.44
323.795	1227.44
324.024	1240.44
324.253	1224.44
324.482	1233.44
324.71	1246.44
324.939	1287.44
325.168	1273.44
325.397	1214.44
325.626	1251.44
325.855	1256.44
326.084	1282.44
326.313	1243.44
326.542	1252.44
326.77	1319.44
326.999	1271.44
327.228	1287.44
327.457	1272.44
327.686	1320.44
327.914	1287.44
328.143	1337.44
328.372	1328.44
328.6	1299.44
328.829	1312.44
329.058	1305.44
329.287	1299.44
329.515	1306.44
329.744	1329.44
329.972	1341.44
330.201	1342.44
330.43	1347.44
330.658	1309.44
330.887	1342.44
331.115	1344.44
331.344	1355.44
331.572	1343.44
331.801	1375.44
332.03	1398.44
332.258	1365.44
332.486	1378.44
332.715	1380.44
332.943	1369.44
333.172	1361.44
333.4	1365.44
333.629	1399.44
333.857	1421.44
334.085	1391.44
334.314	1377.44
334.542	1425.44
334.771	1405.44
334.999	1413.44
335.227	1408.44
335.455	1409.44
335.684	1428.44
335.912	1415.44
336.14	1425.44
336.369	1459.44
336.597	1473.44
336.825	1483.44
337.053	1497.44
337.281	1538.44
337.51	1482.44
337.738	1459.44
337.966	1499.44
338.194	1476.44
338.422	1463.44
338.65	1414.44
338.878	1427.44
339.106	1447.44
339.334	1505.44
339.562	1449.44
339.79	1372.44
340.018	1425.44
340.246	1427.44
340.474	1449.44
340.702	1437.44
340.93	1432.44
341.158	1462.44
341.386	1471.44
341.614	1538.44
341.842	1494.44
342.07	1409.44
342.298	1456.44
342.526	1435.44
342.754	1417.44
342.981	1415.44
343.209	1417.44
343.437	1425.44
343.665	1447.44
343.893	1459.44
344.12	1439.44
344.348	1432.44
344.576	1443.44
344.804	1464.44
345.031	1481.44
345.259	1471.44
345.487	1439.44
345.714	1469.44
345.942	1506.44
346.17	1532.44
346.397	1499.44
346.625	1433.44
346.853	1419.44
347.08	1401.44
347.308	1424.44
347.535	1399.44
347.763	1397.44
347.99	1378.44
348.218	1395.44
348.445	1393.44
348.673	1437.44
348.9	1386.44
349.128	1403.44
349.355	1427.44
349.583	1438.44
349.81	1367.44
350.037	1391.44
350.265	1383.44
350.492	1400.44
350.72	1391.44
350.947	1385.44
351.174	1441.44
351.402	1475.44
351.629	1453.44
351.856	1433.44
352.083	1394.44
352.311	1402.44
352.538	1485.44
352.765	1488.44
352.992	1370.44
353.22	1346.44
353.447	1341.44
353.674	1347.44
353.901	1353.44
354.128	1311.44
354.355	1338.44
354.583	1329.44
354.81	1350.44
355.037	1353.44
355.264	1347.44
355.491	1341.44
355.718	1362.44
355.945	1341.44
356.172	1341.44
356.399	1366.44
356.626	1400.44
356.853	1419.44
357.08	1344.44
357.307	1370.44
357.534	1386.44
357.761	1348.44
357.988	1350.44
358.215	1333.44
358.441	1338.44
358.668	1329.44
358.895	1363.44
359.122	1338.44
359.349	1381.44
359.576	1343.44
359.802	1353.44
360.029	1362.44
360.256	1370.44
360.483	1363.44
360.709	1328.44
360.936	1374.44
361.163	1396.44
361.39	1409.44
361.616	1409.44
361.843	1396.44
362.07	1478.44
362.296	1441.44
362.523	1346.44
362.749	1371.44
362.976	1349.44
363.203	1365.44
363.429	1354.44
363.656	1357.44
363.882	1372.44
364.109	1385.44
364.335	1343.44
364.562	1342.44
364.788	1368.44
365.015	1384.44
365.241	1362.44
365.468	1371.44
365.694	1346.44
365.92	1373.44
366.147	1383.44
366.373	1396.44
366.599	1331.44
366.826	1375.44
367.052	1366.44
367.278	1374.44
367.505	1379.44
367.731	1387.44
367.957	1341.44
368.184	1411.44
368.41	1357.44
368.636	1339.44
368.862	1407.44
369.089	1391.44
369.315	1407.44
369.541	1370.44
369.767	1409.44
369.993	1409.44
370.219	1377.44
370.445	1381.44
370.672	1418.44
370.898	1413.44
371.124	1408.44
371.35	1379.44
371.576	1406.44
371.802	1395.44
372.028	1380.44
372.254	1397.44
372.48	1407.44
372.706	1389.44
372.932	1390.44
373.158	1377.44
373.384	1381.44
373.61	1399.44
373.835	1409.44
374.061	1363.44
374.287	1420.44
374.513	1413.44
374.739	1428.44
374.965	1401.44
375.191	1357.44
375.416	1388.44
375.642	1377.44
375.868	1374.44
376.094	1386.44
376.319	1368.44
376.545	1405.44
376.771	1384.44
376.997	1371.44
377.222	1323.44
377.448	1366.44
377.674	1335.44
377.899	1338.44
378.125	1352.44
378.35	1355.44
378.576	1368.44
378.802	1357.44
379.027	1345.44
379.253	1382.44
379.478	1320.44
379.704	1340.44
379.929	1332.44
380.155	1333.44
380.38	1365.44
380.606	1362.44
380.831	1347.44
381.057	1377.44
381.282	1346.44
381.507	1351.44
381.733	1371.44
381.958	1374.44
382.184	1334.44
382.409	1392.44
382.634	1376.44
382.86	1367.44
383.085	1328.44
383.31	1386.44
383.535	1357.44
383.761	1355.44
383.986	1353.44
384.211	1394.44
384.436	1381.44
384.662	1395.44
384.887	1395.44
385.112	1409.44
385.337	1398.44
385.562	1393.44
385.787	1401.44
386.013	1449.44
386.238	1423.44
386.463	1437.44
386.688	1410.44
386.913	1420.44
387.138	1412.44
387.363	1450.44
387.588	1406.44
387.813	1413.44
388.038	1403.44
388.263	1405.44
388.488	1411.44
388.713	1416.44
388.938	1439.44
389.163	1440.44
389.387	1461.44
389.612	1415.44
389.837	1412.44
390.062	1418.44
390.287	1442.44
390.512	1422.44
390.736	1432.44
390.961	1435.44
391.186	1400.44
391.411	1425.44
391.636	1433.44
391.86	1439.44
392.085	1439.44
392.31	1437.44
392.534	1455.44
392.759	1449.44
392.984	1421.44
393.208	1446.44
393.433	1469.44
393.658	1439.44
393.882	1445.44
394.107	1417.44
394.331	1463.44
394.556	1445.44
394.78	1394.44
395.005	1430.44
395.229	1432.44
395.454	1444.44
395.678	1419.44
395.903	1422.44
396.127	1441.44
396.352	1444.44
396.576	1449.44
396.801	1482.44
397.025	1448.44
397.249	1474.44
397.474	1493.44
397.698	1485.44
397.922	1495.44
398.147	1474.44
398.371	1506.44
398.595	1515.44
398.82	1525.44
399.044	1519.44
399.268	1494.44
399.492	1535.44
399.717	1557.44
399.941	1575.44
400.165	1573.44
400.389	1575.44
400.613	1562.44
400.837	1588.44
401.062	1541.44
401.286	1517.44
401.51	1512.44
401.734	1502.44
401.958	1519.44
402.182	1497.44
402.406	1512.44
402.63	1505.44
402.854	1525.44
403.078	1487.44
403.302	1501.44
403.526	1511.44
403.75	1494.44
403.974	1513.44
404.198	1546.44
404.422	1507.44
404.645	1511.44
404.869	1511.44
405.093	1517.44
405.317	1512.44
405.541	1541.44
405.765	1557.44
405.988	1553.44
406.212	1574.44
406.436	1570.44
406.66	1602.44
406.883	1547.44
407.107	1599.44
407.331	1621.44
407.555	1599.44
407.778	1592.44
408.002	1618.44
408.226	1667.44
408.449	1665.44
408.673	1605.44
408.896	1618.44
409.12	1615.44
409.344	1597.44
409.567	1592.44
409.791	1573.44
410.014	1596.44
410.238	1582.44
410.461	1571.44
410.685	1518.44
410.908	1571.44
411.132	1599.44
411.355	1534.44
411.578	1560.44
411.802	1584.44
412.025	1553.44
412.249	1560.44
412.472	1568.44
412.695	1543.44
412.919	1537.44
413.142	1554.44
413.365	1541.44
413.589	1560.44
413.812	1531.44
414.035	1498.44
414.258	1544.44
414.482	1530.44
414.705	1515.44
414.928	1503.44
415.151	1489.44
415.374	1521.44
415.597	1521.44
415.821	1483.44
416.044	1507.44
416.267	1515.44
416.49	1480.44
416.713	1488.44
416.936	1506.44
417.159	1529.44
417.382	1475.44
417.605	1465.44
417.828	1483.44
418.051	1493.44
418.274	1446.44
418.497	1463.44
418.72	1466.44
418.943	1441.44
419.166	1541.44
419.389	1610.44
419.611	1575.44
419.834	1547.44
420.057	1520.44
420.28	1468.44
420.503	1424.44
420.726	1477.44
420.948	1481.44
421.171	1458.44
421.394	1481.44
421.617	1452.44
421.839	1461.44
422.062	1471.44
422.285	1444.44
422.507	1460.44
422.73	1486.44
422.953	1467.44
423.175	1463.44
423.398	1448.44
423.621	1463.44
423.843	1469.44
424.066	1492.44
424.288	1502.44
424.511	1471.44
424.733	1458.44
424.956	1471.44
425.178	1460.44
425.401	1481.44
425.623	1496.44
425.846	1449.44
426.068	1487.44
426.291	1475.44
426.513	1464.44
426.735	1474.44
426.958	1434.44
427.18	1445.44
427.402	1478.44
427.625	1464.44
427.847	1442.44
428.069	1451.44
428.292	1480.44
428.514	1461.44
428.736	1498.44
428.958	1511.44
429.181	1481.44
429.403	1484.44
429.625	1478.44
429.847	1461.44
430.069	1468.44
430.292	1481.44
430.514	1445.44
430.736	1475.44
430.958	1469.44
431.18	1493.44
431.402	1457.44
431.624	1466.44
431.846	1419.44
432.068	1497.44
432.29	1478.44
432.512	1449.44
432.734	1491.44
432.956	1520.44
433.178	1519.44
433.4	1568.44
433.622	1554.44
433.844	1555.44
434.066	1542.44
434.287	1515.44
434.509	1453.44
434.731	1497.44
434.953	1528.44
435.175	1566.44
435.397	1584.44
435.618	1529.44
435.84	1502.44
436.062	1497.44
436.284	1536.44
436.505	1505.44
436.727	1493.44
436.949	1453.44
437.17	1542.44
437.392	1513.44
437.614	1496.44
437.835	1413.44
438.057	1448.44
438.278	1466.44
438.5	1455.44
438.721	1461.44
438.943	1478.44
439.165	1462.44
439.386	1450.44
439.608	1505.44
439.829	1446.44
440.05	1481.44
440.272	1466.44
440.493	1505.44
440.715	1539.44
440.936	1511.44
441.158	1509.44
441.379	1494.44
441.6	1565.44
441.822	1513.44
442.043	1533.44
442.264	1492.44
442.486	1510.44
442.707	1508.44
442.928	1498.44
443.149	1544.44
443.371	1553.44
443.592	1616.44
443.813	1575.44
444.034	1544.44
444.255	1495.44
444.476	1519.44
444.698	1525.44
444.919	1530.44
445.14	1695.44
445.361	1623.44
445.582	1564.44
445.803	1514.44
446.024	1496.44
446.245	1477.44
446.466	1477.44
446.687	1427.44
446.908	1434.44
447.129	1432.44
447.35	1386.44
447.571	1384.44
447.792	1392.44
448.013	1401.44
448.234	1381.44
448.455	1407.44
448.675	1381.44
448.896	1393.44
449.117	1377.44
449.338	1377.44
449.559	1365.44
449.779	1380.44
450	1356.44
450.221	1356.44
450.442	1364.44
450.662	1382.44
450.883	1378.44
451.104	1430.44
451.324	1407.44
451.545	1377.44
451.766	1355.44
451.986	1374.44
452.207	1391.44
452.428	1363.44
452.648	1337.44
452.869	1354.44
453.089	1366.44
453.31	1398.44
453.53	1336.44
453.751	1327.44
453.971	1354.44
454.192	1400.44
454.412	1370.44
454.633	1359.44
454.853	1365.44
455.073	1371.44
455.294	1356.44
455.514	1383.44
455.734	1394.44
455.955	1426.44
456.175	1400.44
456.395	1358.44
456.616	1326.44
456.836	1335.44
457.056	1351.44
457.276	1323.44
457.497	1355.44
457.717	1370.44
457.937	1359.44
458.157	1374.44
458.377	1380.44
458.598	1359.44
458.818	1372.44
459.038	1375.44
459.258	1429.44
459.478	1522.44
459.698	1627.44
459.918	1595.44
460.138	1541.44
460.358	1514.44
460.578	1474.44
460.798	1594.44
461.018	1591.44
461.238	1492.44
461.458	1434.44
461.678	1469.44
461.898	1464.44
462.118	1434.44
462.338	1502.44
462.558	1533.44
462.777	1559.44
462.997	1589.44
463.217	1638.44
463.437	1701.44
463.657	1625.44
463.876	1535.44
464.096	1562.44
464.316	1565.44
464.536	1499.44
464.755	1509.44
464.975	1481.44
465.195	1475.44
465.414	1489.44
465.634	1469.44
465.854	1459.44
466.073	1417.44
466.293	1425.44
466.512	1398.44
466.732	1449.44
466.951	1427.44
467.171	1465.44
467.391	1447.44
467.61	1441.44
467.829	1400.44
468.049	1430.44
468.268	1418.44
468.488	1453.44
468.707	1403.44
468.927	1436.44
469.146	1409.44
469.365	1418.44
469.585	1435.44
469.804	1429.44
470.023	1436.44
470.243	1418.44
470.462	1413.44
470.681	1423.44
470.901	1385.44
471.12	1414.44
471.339	1457.44
471.558	1477.44
471.777	1487.44
471.997	1481.44
472.216	1430.44
472.435	1434.44
472.654	1432.44
472.873	1412.44
473.092	1463.44
473.311	1449.44
473.53	1445.44
473.749	1489.44
473.968	1441.44
474.187	1461.44
474.406	1473.44
474.625	1521.44
474.844	1476.44
475.063	1508.44
475.282	1522.44
475.501	1553.44
475.72	1521.44
475.939	1537.44
476.158	1569.44
476.377	1541.44
476.596	1521.44
476.814	1566.44
477.033	1526.44
477.252	1553.44
477.471	1601.44
477.69	1621.44
477.908	1604.44
478.127	1631.44
478.346	1644.44
478.564	1671.44
478.783	1689.44
479.002	1724.44
479.22	1822.44
479.439	1722.44
479.658	1705.44
479.876	1722.44
480.095	1665.44
480.313	1699.44
480.532	1706.44
480.751	1686.44
480.969	1661.44
481.188	1699.44
481.406	1684.44
481.624	1688.44
481.843	1706.44
482.061	1726.44
482.28	1738.44
482.498	1745.44
482.717	1734.44
482.935	1760.44
483.153	1807.44
483.372	1864.44
483.59	1881.44
483.808	1829.44
484.027	1800.44
484.245	1818.44
484.463	1809.44
484.681	1809.44
484.9	1769.44
485.118	1783.44
485.336	1799.44
485.554	1797.44
485.772	1824.44
485.99	1779.44
486.209	1794.44
486.427	1791.44
486.645	1797.44
486.863	1830.44
487.081	1842.44
487.299	1843.44
487.517	1819.44
487.735	1874.44
487.953	1880.44
488.171	1826.44
488.389	1853.44
488.607	1832.44
488.825	1846.44
489.043	1795.44
489.261	1796.44
489.479	1790.44
489.696	1804.44
489.914	1834.44
490.132	1821.44
490.35	1819.44
490.568	1814.44
490.786	1850.44
491.003	1851.44
491.221	1860.44
491.439	1864.44
491.657	1860.44
491.874	1842.44
492.092	1875.44
492.31	1856.44
492.527	1875.44
492.745	1879.44
492.963	1853.44
493.18	1843.44
493.398	1858.44
493.615	1850.44
493.833	1858.44
494.05	1888.44
494.268	1851.44
494.485	1855.44
494.703	1854.44
494.92	1901.44
495.138	1871.44
495.355	1903.44
495.573	1918.44
495.79	1892.44
496.008	1874.44
496.225	1929.44
496.442	1930.44
496.66	1902.44
496.877	1943.44
497.094	1928.44
497.312	1942.44
497.529	1959.44
497.746	1957.44
497.963	1968.44
498.181	1986.44
498.398	2024.44
498.615	2021.44
498.832	1989.44
499.049	2068.44
499.267	2064.44
499.484	2063.44
499.701	2113.44
499.918	2134.44
500.135	2153.44
500.352	2151.44
500.569	2163.44
500.786	2111.44
501.003	2183.44
501.22	2153.44
501.437	2108.44
501.654	2109.44
501.871	2091.44
502.088	2063.44
502.305	2071.44
502.522	2089.44
502.739	1998.44
502.956	1957.44
503.172	1938.44
503.389	1928.44
503.606	1917.44
503.823	1921.44
504.04	1850.44
504.256	1903.44
504.473	1826.44
504.69	1829.44
504.907	1812.44
505.123	1793.44
505.34	1776.44
505.557	1725.44
505.773	1785.44
505.99	1765.44
506.207	1709.44
506.423	1717.44
506.64	1703.44
506.856	1657.44
507.073	1703.44
507.289	1704.44
507.506	1675.44
507.722	1680.44
507.939	1683.44
508.155	1694.44
508.372	1673.44
508.588	1641.44
508.805	1639.44
509.021	1601.44
509.238	1584.44
509.454	1605.44
509.67	1604.44
509.887	1573.44
510.103	1589.44
510.319	1582.44
510.536	1587.44
510.752	1575.44
510.968	1562.44
511.184	1538.44
511.401	1536.44
511.617	1554.44
511.833	1542.44
512.049	1533.44
512.265	1536.44
512.481	1520.44
512.698	1527.44
512.914	1560.44
513.13	1558.44
513.346	1527.44
513.562	1552.44
513.778	1529.44
513.994	1522.44
514.21	1544.44
514.426	1518.44
514.642	1510.44
514.858	1541.44
515.074	1542.44
515.29	1494.44
515.506	1531.44
515.721	1530.44
515.937	1511.44
516.153	1501.44
516.369	1524.44
516.585	1546.44
516.801	1526.44
517.016	1529.44
517.232	1533.44
517.448	1504.44
517.664	1522.44
517.879	1521.44
518.095	1549.44
518.311	1534.44
518.527	1492.44
518.742	1503.44
518.958	1478.44
519.173	1510.44
519.389	1474.44
519.605	1489.44
519.82	1513.44
520.036	1511.44
520.251	1474.44
520.467	1481.44
520.682	1493.44
520.898	1458.44
521.113	1434.44
521.329	1474.44
521.544	1425.44
521.76	1439.44
521.975	1449.44
522.19	1448.44
522.406	1442.44
522.621	1448.44
522.836	1394.44
523.052	1414.44
523.267	1373.44
523.482	1409.44
523.698	1389.44
523.913	1377.44
524.128	1415.44
524.343	1389.44
524.559	1395.44
524.774	1372.44
524.989	1409.44
525.204	1402.44
525.419	1361.44
525.634	1379.44
525.849	1379.44
526.064	1354.44
526.28	1386.44
526.495	1354.44
526.71	1363.44
526.925	1345.44
527.14	1313.44
527.355	1340.44
527.57	1353.44
527.785	1334.44
527.999	1319.44
528.214	1342.44
528.429	1361.44
528.644	1344.44
528.859	1339.44
529.074	1364.44
529.289	1349.44
529.503	1353.44
529.718	1353.44
529.933	1359.44
530.148	1309.44
530.363	1320.44
530.577	1332.44
530.792	1295.44
531.007	1284.44
531.221	1289.44
531.436	1288.44
531.651	1293.44
531.865	1271.44
532.08	1273.44
532.295	1301.44
532.509	1289.44
532.724	1302.44
532.938	1304.44
533.153	1309.44
533.367	1318.44
533.582	1313.44
533.796	1292.44
534.011	1290.44
534.225	1261.44
534.44	1258.44
534.654	1252.44
534.868	1255.44
535.083	1299.44
535.297	1255.44
535.511	1235.44
535.726	1265.44
535.94	1234.44
536.154	1228.44
536.369	1238.44
536.583	1199.44
536.797	1205.44
537.011	1208.44
537.225	1211.44
537.44	1183.44
537.654	1211.44
537.868	1207.44
538.082	1184.44
538.296	1184.44
538.51	1202.44
538.724	1246.44
538.938	1229.44
539.153	1205.44
539.367	1199.44
539.581	1210.44
539.795	1203.44
540.009	1195.44
540.222	1189.44
540.436	1192.44
540.65	1187.44
540.864	1189.44
541.078	1185.44
541.292	1202.44
541.506	1207.44
541.72	1191.44
541.934	1177.44
542.147	1205.44
542.361	1169.44
542.575	1169.44
542.789	1161.44
543.002	1151.44
543.216	1155.44
543.43	1168.44
543.644	1165.44
543.857	1166.44
544.071	1135.44
544.285	1173.44
544.498	1129.44
544.712	1170.44
544.925	1146.44
545.139	1146.44
545.352	1145.44
545.566	1154.44
545.779	1159.44
545.993	1139.44
546.206	1151.44
546.42	1155.44
546.633	1156.44
546.847	1140.44
547.06	1126.44
547.274	1171.44
547.487	1146.44
547.7	1146.44
547.914	1187.44
548.127	1143.44
548.34	1130.44
548.554	1117.44
548.767	1109.44
548.98	1132.44
549.193	1112.44
549.407	1126.44
549.62	1105.44
549.833	1140.44
550.046	1119.44
550.259	1110.44
550.473	1104.44
550.686	1114.44
550.899	1110.44
551.112	1080.44
551.325	1078.44
551.538	1080.44
551.751	1091.44
551.964	1044.44
552.177	1085.44
552.39	1081.44
552.603	1084.44
552.816	1069.44
553.029	1094.44
553.242	1076.44
553.455	1081.44
553.667	1074.44
553.88	1066.44
554.093	1035.44
554.306	1045.44
554.519	1038.44
554.732	1079.44
554.944	1015.44
555.157	1026.44
555.37	1030.44
555.583	1034.44
555.795	1026.44
556.008	1031.44
556.221	996.44
556.433	997.44
556.646	997.44
556.859	1030.44
557.071	994.44
557.284	1000.44
557.496	977.44
557.709	958.44
557.921	954.44
558.134	961.44
558.346	985.44
558.559	973.44
558.771	957.44
558.984	951.44
559.196	982.44
559.409	977.44
559.621	976.44
559.833	965.44
560.046	964.44
560.258	941.44
560.47	961.44
560.683	927.44
560.895	964.44
561.107	975.44
561.32	949.44
561.532	989.44
561.744	934.44
561.956	914.44
562.168	956.44
562.381	929.44
562.593	955.44
562.805	936.44
563.017	949.44
563.229	954.44
563.441	939.44
563.653	946.44
563.865	934.44
564.077	936.44
564.289	903.44
564.501	941.44
564.713	928.44
564.925	927.44
565.137	927.44
565.349	920.44
565.561	934.44
565.773	946.44
565.985	982.44
566.197	962.44
566.408	941.44
566.62	950.44
566.832	945.44
567.044	958.44
567.255	919.44
567.467	941.44
567.679	907.44
567.891	944.44
568.102	915.44
568.314	895.44
568.526	893.44
568.737	900.44
568.949	864.44
569.161	883.44
569.372	865.44
569.584	856.44
569.795	833.44
570.007	877.44
570.218	851.44
570.43	858.44
570.641	829.44
570.853	830.44
571.064	826.44
571.276	817.44
571.487	800.44
571.698	824.44
571.91	767.44
572.121	791.44
572.333	791.44
572.544	786.44
572.755	769.44
572.966	753.44
573.178	787.44
573.389	764.44
573.6	758.44
573.811	755.44
574.023	746.44
574.234	736.44
574.445	731.44
574.656	750.44
574.867	731.44
575.078	719.44
575.289	725.44
575.501	729.44
575.712	728.44
575.923	710.44
576.134	700.44
576.345	722.44
576.556	704.44
576.767	704.44
576.978	721.44
577.188	718.44
577.399	707.44
577.61	718.44
577.821	695.44
578.032	685.44
578.243	674.44
578.454	696.44
578.665	684.44
578.875	661.44
579.086	678.44
579.297	673.44
579.508	683.44
579.718	678.44
579.929	667.44
580.14	659.44
580.35	650.44
580.561	659.44
580.772	653.44
580.982	654.44
581.193	643.44
581.403	647.44
581.614	632.44
581.825	650.44
582.035	628.44
582.246	633.44
582.456	626.44
582.667	642.44
582.877	640.44
583.087	643.44
583.298	595.44
583.508	632.44
583.719	601.44
583.929	621.44
584.139	611.44
584.35	617.44
584.56	629.44
584.77	621.44
584.981	611.44
585.191	608.44
585.401	619.44
585.611	595.44
585.821	609.44
586.032	597.44
586.242	600.44
586.452	593.44
586.662	590.44
586.872	606.44
587.082	590.44
587.292	602.44
587.502	591.44
587.713	595.44
587.923	599.44
588.133	587.44
588.343	611.44
588.553	579.44
588.762	610.44
588.972	587.44
589.182	644.44
589.392	641.44
589.602	580.44
589.812	627.44
590.022	594.44
590.232	567.44
590.441	559.44
590.651	570.44
590.861	579.44
591.071	548.44
591.281	564.44
591.49	586.44
591.7	578.44
591.91	579.44
592.119	549.44
592.329	577.44
592.539	550.44
592.748	569.44
592.958	559.44
593.167	566.44
593.377	557.44
593.587	579.44
593.796	549.44
594.006	578.44
594.215	541.44
594.424	554.44
594.634	547.44
594.843	547.44
595.053	542.44
595.262	546.44
595.472	518.44
595.681	535.44
595.89	540.44
596.1	509.44
596.309	512.44
596.518	506.44
596.727	537.44
596.937	505.44
597.146	503.44
597.355	508.44
597.564	523.44
597.774	522.44
597.983	510.44
598.192	503.44
598.401	502.44
598.61	514.44
598.819	506.44
599.028	493.44
599.237	483.44
599.446	493.44
599.655	482.44
599.864	475.44
600.073	464.44
600.282	484.44
600.491	474.44
600.7	475.44
600.909	486.44
601.118	479.44
601.327	486.44
601.536	485.44
601.745	460.44
601.953	489.44
602.162	470.44
602.371	467.44
602.58	487.44
602.789	454.44
602.997	471.44
603.206	466.44
603.415	471.44
603.623	445.44
603.832	474.44
604.041	460.44
604.249	477.44
604.458	463.44
604.666	469.44
604.875	441.44
605.084	448.44
605.292	440.44
605.501	466.44
605.709	448.44
605.918	458.44
606.126	447.44
606.334	470.44
606.543	451.44
606.751	449.44
606.96	438.44
607.168	433.44
607.376	427.44
607.585	437.44
607.793	424.44
608.001	431.44
608.21	445.44
608.418	434.44
608.626	439.44
608.834	429.44
609.043	441.44
609.251	441.44
609.459	447.44
609.667	439.44
609.875	425.44
610.083	426.44
610.291	418.44
610.499	443.44
610.707	438.44
610.916	397.44
611.124	435.44
611.332	432.44
611.54	430.44
611.748	414.44
611.955	422.44
612.163	415.44
612.371	401.44
612.579	410.44
612.787	408.44
612.995	436.44
613.203	429.44
613.411	403.44
613.618	396.44
613.826	387.44
614.034	412.44
614.242	399.44
614.449	418.44
614.657	420.44
614.865	424.44
615.072	394.44
615.28	412.44
615.488	403.44
615.695	413.44
615.903	387.44
616.111	388.44
616.318	417.44
616.526	405.44
616.733	386.44
616.941	394.44
617.148	404.44
617.356	384.44
617.563	405.44
617.771	399.44
617.978	391.44
618.185	380.44
618.393	399.44
618.6	378.44
618.807	408.44
619.015	401.44
619.222	394.44
619.429	391.44
619.637	385.44
619.844	393.44
620.051	367.44
620.258	368.44
620.466	376.44
620.673	360.44
620.88	358.44
621.087	362.44
621.294	364.44
621.501	357.44
621.708	363.44
621.915	359.44
622.122	378.44
622.329	371.44
622.536	374.44
622.743	372.44
622.95	377.44
623.157	375.44
623.364	368.44
623.571	365.44
623.778	353.44
623.985	367.44
624.192	360.44
624.399	365.44
624.606	356.44
624.812	362.44
625.019	348.44
625.226	362.44
625.433	347.44
625.639	345.44
625.846	360.44
626.053	331.44
626.259	343.44
626.466	351.44
626.673	354.44
626.879	339.44
627.086	342.44
627.293	323.44
627.499	334.44
627.706	338.44
627.912	344.44
628.119	338.44
628.325	342.44
628.532	349.44
628.738	334.44
628.945	338.44
629.151	326.44
629.357	312.44
629.564	338.44
629.77	330.44
629.976	335.44
630.183	315.44
630.389	310.44
630.595	314.44
630.802	317.44
631.008	333.44
631.214	334.44
631.42	342.44
631.627	337.44
631.833	329.44
632.039	328.44
632.245	324.44
632.451	315.44
632.657	314.44
632.863	320.44
633.069	311.44
633.275	323.44
633.481	297.44
633.688	308.44
633.893	309.44
634.099	314.44
634.305	299.44
634.511	298.44
634.717	303.44
634.923	305.44
635.129	298.44
635.335	311.44
635.541	288.44
635.747	301.44
635.952	285.44
636.158	301.44
636.364	301.44
636.57	293.44
636.775	282.44
636.981	284.44
637.187	296.44
637.392	317.44
637.598	305.44
637.804	289.44
638.009	281.44
638.215	288.44
638.421	282.44
638.626	295.44
638.832	274.44
639.037	289.44
639.243	294.44
639.448	276.44
639.654	307.44
639.859	286.44
640.065	289.44
640.27	294.44
640.475	278.44
640.681	288.44
640.886	285.44
641.091	272.44
641.297	292.44
641.502	283.44
641.707	282.44
641.913	298.44
642.118	303.44
642.323	279.44
642.528	298.44
642.733	293.44
642.939	288.44
643.144	271.44
643.349	268.44
643.554	266.44
643.759	290.44
643.964	297.44
644.169	285.44
644.374	292.44
644.579	275.44
644.784	281.44
644.989	291.44
645.194	266.44
645.399	282.44
645.604	288.44
645.809	293.44
646.014	272.44
646.219	286.44
646.423	304.44
646.628	286.44
646.833	275.44
647.038	295.44
647.243	289.44
647.447	293.44
647.652	279.44
647.857	294.44
648.062	281.44
648.266	282.44
648.471	289.44
648.676	278.44
648.88	297.44
649.085	305.44
649.289	288.44
649.494	266.44
649.698	277.44
649.903	275.44
650.107	293.44
650.312	292.44
650.516	290.44
650.721	286.44
650.925	272.44
651.13	273.44
651.334	280.44
651.539	282.44
651.743	275.44
651.947	272.44
652.152	291.44
652.356	251.44
652.56	260.44
652.764	271.44
652.969	254.44
653.173	263.44
653.377	271.44
653.581	259.44
653.785	265.44
653.99	275.44
654.194	267.44
654.398	245.44
654.602	259.44
654.806	260.44
655.01	251.44
655.214	257.44
655.418	245.44
655.622	268.44
655.826	259.44
656.03	275.44
656.234	269.44
656.438	275.44
656.642	285.44
656.846	266.44
657.049	267.44
657.253	234.44
657.457	224.44
657.661	220.44
657.865	218.44
658.068	200.44
658.272	181.44
658.476	197.44
658.68	193.44
658.883	160.44
659.087	141.44
659.291	167.44
659.494	143.44
659.698	140.44
659.901	138.44
660.105	136.44
660.309	123.44
660.512	134.44
660.716	132.44
660.919	110.44
661.123	122.44
661.326	113.44
661.53	109.44
661.733	101.44
661.936	99.44
662.14	98.44
662.343	81.44
662.546	93.44
662.75	97.44
662.953	93.44
663.156	96.44
663.36	84.44
663.563	88.44
663.766	79.44
663.969	83.44
664.173	95.44
664.376	77.44
664.579	83.44
664.782	81.44
664.985	76.44
665.188	88.44
665.391	74.44
665.594	91.44
665.797	63.44
666	88.44
666.203	80.44
666.406	74.44
666.609	75.44
666.812	86.44
667.015	75.44
667.218	83.44
667.421	67.44
667.624	73.44
667.827	71.44
668.03	57.44
668.232	80.44
668.435	88.44
668.638	67.44
668.841	77.44
669.043	70.44
669.246	79.44
669.449	85.44
669.651	81.44
669.854	90.44
670.057	86.44
670.259	77.44
670.462	85.44
670.665	73.44
670.867	85.44
671.07	77.44
671.272	71.44
671.475	92.44
671.677	88.44
671.88	75.44
672.082	79.44
672.284	71.44
672.487	70.44
672.689	81.44
672.892	78.44
