Data from Ni(NO3)2@0.125M.TitratingCurve.Agarose3%dH2O.NegLispCup.LampEnergy10.LIBS07252019_HRD10591_18-10-18-568.txt Node
Date: Thu Jul 25 18:10:18 EDT 2019
User: cochatt
Spectrometer: HR+D1059
Trigger mode: 1
Integration Time (sec): 1.000000E-1
Scans to average: 1
Electric dark correction enabled: true
Nonlinearity correction enabled: false
Boxcar width: 0
XAxis mode: Wavelengths
Number of Pixels in Spectrum: 2048
>>>>>Begin Spectral Data<<<<<
223.165	-21.38
223.4	-21.38
223.635	-21.38
223.869	-9.38
224.104	-4.38
224.338	-14.38
224.573	-15.38
224.808	-22.38
225.042	-14.38
225.277	-3.38
225.511	-6.38
225.746	-0.38
225.98	12.62
226.215	8.62
226.449	15.62
226.683	25.62
226.918	13.62
227.152	35.62
227.387	20.62
227.621	27.62
227.856	36.62
228.09	39.62
228.324	46.62
228.559	48.62
228.793	66.62
229.027	96.62
229.262	97.62
229.496	116.62
229.73	130.62
229.964	118.62
230.199	132.62
230.433	113.62
230.667	129.62
230.901	119.62
231.136	128.62
231.37	127.62
231.604	146.62
231.838	137.62
232.072	122.62
232.306	142.62
232.541	138.62
232.775	127.62
233.009	138.62
233.243	147.62
233.477	140.62
233.711	145.62
233.945	162.62
234.179	171.62
234.413	150.62
234.647	128.62
234.881	138.62
235.115	142.62
235.349	139.62
235.583	132.62
235.817	151.62
236.051	152.62
236.285	156.62
236.519	162.62
236.753	160.62
236.987	158.62
237.221	139.62
237.455	162.62
237.689	179.62
237.922	154.62
238.156	142.62
238.39	165.62
238.624	162.62
238.858	167.62
239.091	150.62
239.325	184.62
239.559	171.62
239.793	165.62
240.027	173.62
240.26	178.62
240.494	194.62
240.728	180.62
240.961	179.62
241.195	160.62
241.429	181.62
241.662	176.62
241.896	208.62
242.13	180.62
242.363	195.62
242.597	185.62
242.83	201.62
243.064	173.62
243.298	187.62
243.531	202.62
243.765	200.62
243.998	198.62
244.232	210.62
244.465	197.62
244.699	213.62
244.932	212.62
245.166	213.62
245.399	199.62
245.633	213.62
245.866	209.62
246.099	235.62
246.333	232.62
246.566	215.62
246.8	202.62
247.033	217.62
247.266	225.62
247.5	233.62
247.733	218.62
247.966	226.62
248.2	227.62
248.433	231.62
248.666	228.62
248.899	249.62
249.133	229.62
249.366	248.62
249.599	240.62
249.832	250.62
250.066	236.62
250.299	262.62
250.532	262.62
250.765	267.62
250.998	236.62
251.231	235.62
251.465	242.62
251.698	266.62
251.931	248.62
252.164	268.62
252.397	261.62
252.63	267.62
252.863	281.62
253.096	266.62
253.329	264.62
253.562	272.62
253.795	265.62
254.028	277.62
254.261	265.62
254.494	280.62
254.727	286.62
254.96	271.62
255.193	287.62
255.426	280.62
255.659	267.62
255.892	295.62
256.124	289.62
256.357	288.62
256.59	288.62
256.823	282.62
257.056	286.62
257.289	295.62
257.521	293.62
257.754	307.62
257.987	287.62
258.22	278.62
258.452	287.62
258.685	327.62
258.918	291.62
259.151	312.62
259.383	324.62
259.616	315.62
259.849	322.62
260.081	319.62
260.314	307.62
260.547	316.62
260.779	313.62
261.012	335.62
261.244	315.62
261.477	337.62
261.71	324.62
261.942	322.62
262.175	319.62
262.407	314.62
262.64	315.62
262.872	307.62
263.105	318.62
263.337	330.62
263.57	322.62
263.802	352.62
264.035	322.62
264.267	326.62
264.499	339.62
264.732	326.62
264.964	347.62
265.197	340.62
265.429	366.62
265.661	368.62
265.894	347.62
266.126	362.62
266.358	353.62
266.591	362.62
266.823	363.62
267.055	357.62
267.287	366.62
267.52	366.62
267.752	350.62
267.984	336.62
268.216	352.62
268.448	384.62
268.681	354.62
268.913	362.62
269.145	355.62
269.377	356.62
269.609	362.62
269.841	363.62
270.073	374.62
270.306	378.62
270.538	378.62
270.77	364.62
271.002	378.62
271.234	379.62
271.466	416.62
271.698	391.62
271.93	390.62
272.162	397.62
272.394	382.62
272.626	359.62
272.858	375.62
273.09	392.62
273.322	388.62
273.553	383.62
273.785	382.62
274.017	380.62
274.249	386.62
274.481	380.62
274.713	389.62
274.945	382.62
275.176	414.62
275.408	400.62
275.64	405.62
275.872	390.62
276.104	380.62
276.335	396.62
276.567	416.62
276.799	424.62
277.031	398.62
277.262	410.62
277.494	419.62
277.726	404.62
277.957	415.62
278.189	425.62
278.421	424.62
278.652	438.62
278.884	432.62
279.115	410.62
279.347	443.62
279.579	423.62
279.81	418.62
280.042	441.62
280.273	437.62
280.505	446.62
280.736	452.62
280.968	433.62
281.199	443.62
281.431	434.62
281.662	432.62
281.894	448.62
282.125	456.62
282.356	454.62
282.588	460.62
282.819	452.62
283.051	433.62
283.282	473.62
283.513	454.62
283.745	475.62
283.976	494.62
284.207	462.62
284.439	455.62
284.67	458.62
284.901	474.62
285.132	476.62
285.364	488.62
285.595	480.62
285.826	474.62
286.057	473.62
286.288	473.62
286.52	482.62
286.751	520.62
286.982	489.62
287.213	523.62
287.444	491.62
287.675	491.62
287.906	486.62
288.138	499.62
288.369	494.62
288.6	507.62
288.831	504.62
289.062	510.62
289.293	519.62
289.524	491.62
289.755	510.62
289.986	520.62
290.217	524.62
290.448	502.62
290.679	513.62
290.91	525.62
291.141	525.62
291.371	534.62
291.602	522.62
291.833	516.62
292.064	516.62
292.295	515.62
292.526	525.62
292.757	522.62
292.987	508.62
293.218	514.62
293.449	546.62
293.68	538.62
293.91	516.62
294.141	520.62
294.372	522.62
294.603	535.62
294.833	540.62
295.064	524.62
295.295	519.62
295.525	527.62
295.756	527.62
295.987	524.62
296.217	543.62
296.448	538.62
296.679	540.62
296.909	552.62
297.14	554.62
297.37	560.62
297.601	578.62
297.831	552.62
298.062	567.62
298.292	568.62
298.523	562.62
298.753	580.62
298.984	547.62
299.214	552.62
299.445	542.62
299.675	551.62
299.905	574.62
300.136	567.62
300.366	560.62
300.597	555.62
300.827	572.62
301.057	592.62
301.288	583.62
301.518	566.62
301.748	593.62
301.979	592.62
302.209	579.62
302.439	599.62
302.669	600.62
302.9	585.62
303.13	558.62
303.36	587.62
303.59	557.62
303.82	585.62
304.051	578.62
304.281	584.62
304.511	579.62
304.741	588.62
304.971	611.62
305.201	616.62
305.431	587.62
305.661	571.62
305.891	555.62
306.121	570.62
306.352	583.62
306.582	594.62
306.812	562.62
307.042	583.62
307.272	566.62
307.502	560.62
307.731	567.62
307.961	578.62
308.191	550.62
308.421	565.62
308.651	585.62
308.881	555.62
309.111	561.62
309.341	562.62
309.571	593.62
309.8	588.62
310.03	577.62
310.26	588.62
310.49	578.62
310.72	572.62
310.949	574.62
311.179	571.62
311.409	586.62
311.639	577.62
311.868	606.62
312.098	588.62
312.328	568.62
312.557	589.62
312.787	602.62
313.017	582.62
313.246	607.62
313.476	632.62
313.706	602.62
313.935	593.62
314.165	630.62
314.394	616.62
314.624	611.62
314.853	605.62
315.083	610.62
315.312	622.62
315.542	615.62
315.771	608.62
316.001	591.62
316.23	607.62
316.46	625.62
316.689	598.62
316.919	600.62
317.148	594.62
317.377	590.62
317.607	606.62
317.836	603.62
318.065	593.62
318.295	611.62
318.524	613.62
318.753	588.62
318.983	580.62
319.212	577.62
319.441	592.62
319.67	604.62
319.9	609.62
320.129	604.62
320.358	586.62
320.587	596.62
320.816	595.62
321.046	605.62
321.275	627.62
321.504	612.62
321.733	610.62
321.962	608.62
322.191	592.62
322.42	628.62
322.649	617.62
322.878	620.62
323.108	607.62
323.337	624.62
323.566	624.62
323.795	637.62
324.024	638.62
324.253	622.62
324.482	618.62
324.71	626.62
324.939	624.62
325.168	633.62
325.397	634.62
325.626	628.62
325.855	643.62
326.084	652.62
326.313	687.62
326.542	659.62
326.77	690.62
326.999	655.62
327.228	675.62
327.457	636.62
327.686	674.62
327.914	670.62
328.143	675.62
328.372	662.62
328.6	662.62
328.829	653.62
329.058	673.62
329.287	681.62
329.515	658.62
329.744	666.62
329.972	669.62
330.201	677.62
330.43	671.62
330.658	672.62
330.887	676.62
331.115	705.62
331.344	697.62
331.572	707.62
331.801	726.62
332.03	754.62
332.258	758.62
332.486	769.62
332.715	810.62
332.943	831.62
333.172	893.62
333.4	909.62
333.629	940.62
333.857	926.62
334.085	933.62
334.314	892.62
334.542	875.62
334.771	863.62
334.999	827.62
335.227	843.62
335.455	823.62
335.684	828.62
335.912	822.62
336.14	802.62
336.369	799.62
336.597	811.62
336.825	810.62
337.053	820.62
337.281	768.62
337.51	759.62
337.738	784.62
337.966	756.62
338.194	717.62
338.422	752.62
338.65	751.62
338.878	728.62
339.106	722.62
339.334	752.62
339.562	728.62
339.79	710.62
340.018	699.62
340.246	710.62
340.474	690.62
340.702	699.62
340.93	703.62
341.158	722.62
341.386	706.62
341.614	702.62
341.842	692.62
342.07	689.62
342.298	702.62
342.526	691.62
342.754	724.62
342.981	695.62
343.209	734.62
343.437	747.62
343.665	788.62
343.893	820.62
344.12	882.62
344.348	843.62
344.576	802.62
344.804	778.62
345.031	704.62
345.259	723.62
345.487	703.62
345.714	697.62
345.942	680.62
346.17	700.62
346.397	694.62
346.625	695.62
346.853	690.62
347.08	690.62
347.308	690.62
347.535	708.62
347.763	691.62
347.99	699.62
348.218	736.62
348.445	689.62
348.673	681.62
348.9	699.62
349.128	688.62
349.355	673.62
349.583	681.62
349.81	670.62
350.037	657.62
350.265	683.62
350.492	661.62
350.72	658.62
350.947	662.62
351.174	642.62
351.402	658.62
351.629	634.62
351.856	656.62
352.083	636.62
352.311	628.62
352.538	646.62
352.765	662.62
352.992	651.62
353.22	642.62
353.447	638.62
353.674	658.62
353.901	640.62
354.128	645.62
354.355	660.62
354.583	636.62
354.81	631.62
355.037	643.62
355.264	660.62
355.491	659.62
355.718	668.62
355.945	672.62
356.172	663.62
356.399	656.62
356.626	672.62
356.853	677.62
357.08	644.62
357.307	644.62
357.534	648.62
357.761	656.62
357.988	673.62
358.215	648.62
358.441	665.62
358.668	664.62
358.895	649.62
359.122	648.62
359.349	635.62
359.576	655.62
359.802	654.62
360.029	654.62
360.256	655.62
360.483	647.62
360.709	649.62
360.936	643.62
361.163	649.62
361.39	629.62
361.616	651.62
361.843	656.62
362.07	638.62
362.296	656.62
362.523	633.62
362.749	645.62
362.976	641.62
363.203	662.62
363.429	655.62
363.656	650.62
363.882	646.62
364.109	648.62
364.335	661.62
364.562	644.62
364.788	652.62
365.015	656.62
365.241	655.62
365.468	632.62
365.694	676.62
365.92	636.62
366.147	636.62
366.373	645.62
366.599	649.62
366.826	652.62
367.052	652.62
367.278	655.62
367.505	677.62
367.731	664.62
367.957	666.62
368.184	668.62
368.41	665.62
368.636	662.62
368.862	668.62
369.089	661.62
369.315	686.62
369.541	682.62
369.767	686.62
369.993	696.62
370.219	683.62
370.445	696.62
370.672	698.62
370.898	679.62
371.124	706.62
371.35	709.62
371.576	704.62
371.802	713.62
372.028	711.62
372.254	683.62
372.48	696.62
372.706	743.62
372.932	742.62
373.158	764.62
373.384	712.62
373.61	713.62
373.835	699.62
374.061	730.62
374.287	730.62
374.513	725.62
374.739	721.62
374.965	743.62
375.191	796.62
375.416	812.62
375.642	770.62
375.868	777.62
376.094	727.62
376.319	724.62
376.545	720.62
376.771	709.62
376.997	688.62
377.222	714.62
377.448	708.62
377.674	729.62
377.899	735.62
378.125	711.62
378.35	702.62
378.576	727.62
378.802	699.62
379.027	719.62
379.253	699.62
379.478	703.62
379.704	707.62
379.929	706.62
380.155	681.62
380.38	672.62
380.606	678.62
380.831	700.62
381.057	703.62
381.282	712.62
381.507	709.62
381.733	710.62
381.958	711.62
382.184	740.62
382.409	736.62
382.634	741.62
382.86	772.62
383.085	776.62
383.31	767.62
383.535	800.62
383.761	802.62
383.986	823.62
384.211	814.62
384.436	849.62
384.662	857.62
384.887	863.62
385.112	854.62
385.337	882.62
385.562	878.62
385.787	874.62
386.013	845.62
386.238	838.62
386.463	887.62
386.688	874.62
386.913	854.62
387.138	829.62
387.363	812.62
387.588	824.62
387.813	823.62
388.038	854.62
388.263	856.62
388.488	874.62
388.713	832.62
388.938	840.62
389.163	841.62
389.387	869.62
389.612	819.62
389.837	842.62
390.062	829.62
390.287	828.62
390.512	828.62
390.736	852.62
390.961	840.62
391.186	846.62
391.411	885.62
391.636	920.62
391.86	957.62
392.085	950.62
392.31	951.62
392.534	942.62
392.759	894.62
392.984	891.62
393.208	884.62
393.433	917.62
393.658	920.62
393.882	905.62
394.107	927.62
394.331	931.62
394.556	930.62
394.78	914.62
395.005	921.62
395.229	939.62
395.454	925.62
395.678	927.62
395.903	927.62
396.127	939.62
396.352	913.62
396.576	883.62
396.801	890.62
397.025	911.62
397.249	929.62
397.474	928.62
397.698	942.62
397.922	974.62
398.147	939.62
398.371	950.62
398.595	996.62
398.82	1054.62
399.044	1098.62
399.268	1208.62
399.492	1456.62
399.717	1715.62
399.941	1704.62
400.165	1458.62
400.389	1303.62
400.613	1167.62
400.837	1130.62
401.062	1086.62
401.286	1064.62
401.51	1052.62
401.734	1036.62
401.958	1094.62
402.182	1072.62
402.406	1102.62
402.63	1118.62
402.854	1162.62
403.078	1173.62
403.302	1235.62
403.526	1198.62
403.75	1283.62
403.974	1291.62
404.198	1246.62
404.422	1276.62
404.645	1246.62
404.869	1250.62
405.093	1215.62
405.317	1184.62
405.541	1191.62
405.765	1177.62
405.988	1167.62
406.212	1177.62
406.436	1158.62
406.66	1206.62
406.883	1204.62
407.107	1295.62
407.331	1365.62
407.555	1404.62
407.778	1381.62
408.002	1368.62
408.226	1332.62
408.449	1264.62
408.673	1218.62
408.896	1259.62
409.12	1216.62
409.344	1259.62
409.567	1236.62
409.791	1226.62
410.014	1250.62
410.238	1229.62
410.461	1227.62
410.685	1202.62
410.908	1168.62
411.132	1136.62
411.355	1103.62
411.578	1113.62
411.802	1099.62
412.025	1125.62
412.249	1135.62
412.472	1126.62
412.695	1055.62
412.919	1078.62
413.142	1050.62
413.365	1083.62
413.589	1103.62
413.812	1079.62
414.035	1042.62
414.258	1042.62
414.482	1064.62
414.705	1118.62
414.928	1094.62
415.151	1104.62
415.374	1089.62
415.597	1081.62
415.821	1043.62
416.044	1036.62
416.267	1044.62
416.49	1054.62
416.713	1037.62
416.936	1055.62
417.159	1050.62
417.382	1067.62
417.605	1066.62
417.828	1047.62
418.051	1075.62
418.274	1101.62
418.497	1055.62
418.72	1101.62
418.943	1107.62
419.166	1135.62
419.389	1259.62
419.611	1214.62
419.834	1128.62
420.057	1126.62
420.28	1094.62
420.503	1078.62
420.726	1053.62
420.948	1046.62
421.171	1087.62
421.394	1056.62
421.617	1042.62
421.839	1083.62
422.062	1075.62
422.285	1043.62
422.507	1075.62
422.73	1106.62
422.953	1112.62
423.175	1110.62
423.398	1160.62
423.621	1137.62
423.843	1160.62
424.066	1164.62
424.288	1166.62
424.511	1130.62
424.733	1129.62
424.956	1090.62
425.178	1069.62
425.401	1056.62
425.623	1072.62
425.846	1025.62
426.068	1041.62
426.291	1031.62
426.513	999.62
426.735	989.62
426.958	954.62
427.18	967.62
427.402	971.62
427.625	958.62
427.847	971.62
428.069	958.62
428.292	939.62
428.514	932.62
428.736	960.62
428.958	963.62
429.181	934.62
429.403	928.62
429.625	934.62
429.847	915.62
430.069	918.62
430.292	926.62
430.514	894.62
430.736	940.62
430.958	944.62
431.18	939.62
431.402	935.62
431.624	915.62
431.846	964.62
432.068	964.62
432.29	956.62
432.512	935.62
432.734	972.62
432.956	944.62
433.178	933.62
433.4	955.62
433.622	953.62
433.844	958.62
434.066	973.62
434.287	955.62
434.509	1011.62
434.731	1048.62
434.953	1086.62
435.175	1088.62
435.397	1077.62
435.618	1022.62
435.84	984.62
436.062	982.62
436.284	958.62
436.505	942.62
436.727	968.62
436.949	978.62
437.17	950.62
437.392	930.62
437.614	942.62
437.835	902.62
438.057	899.62
438.278	895.62
438.5	936.62
438.721	928.62
438.943	919.62
439.165	915.62
439.386	950.62
439.608	948.62
439.829	969.62
440.05	963.62
440.272	970.62
440.493	967.62
440.715	958.62
440.936	960.62
441.158	1019.62
441.379	1055.62
441.6	1079.62
441.822	1111.62
442.043	1074.62
442.264	1063.62
442.486	1046.62
442.707	1046.62
442.928	1057.62
443.149	1072.62
443.371	1063.62
443.592	1079.62
443.813	1096.62
444.034	1103.62
444.255	1157.62
444.476	1176.62
444.698	1258.62
444.919	1332.62
445.14	1383.62
445.361	1194.62
445.582	1104.62
445.803	1048.62
446.024	1010.62
446.245	995.62
446.466	1000.62
446.687	941.62
446.908	958.62
447.129	933.62
447.35	925.62
447.571	930.62
447.792	889.62
448.013	921.62
448.234	886.62
448.455	883.62
448.675	879.62
448.896	888.62
449.117	850.62
449.338	873.62
449.559	852.62
449.779	844.62
450	872.62
450.221	880.62
450.442	890.62
450.662	896.62
450.883	906.62
451.104	921.62
451.324	910.62
451.545	900.62
451.766	885.62
451.986	891.62
452.207	882.62
452.428	876.62
452.648	914.62
452.869	870.62
453.089	850.62
453.31	860.62
453.53	854.62
453.751	854.62
453.971	852.62
454.192	861.62
454.412	824.62
454.633	828.62
454.853	817.62
455.073	826.62
455.294	810.62
455.514	849.62
455.734	809.62
455.955	819.62
456.175	833.62
456.395	795.62
456.616	802.62
456.836	814.62
457.056	836.62
457.276	799.62
457.497	790.62
457.717	820.62
457.937	818.62
458.157	863.62
458.377	828.62
458.598	859.62
458.818	875.62
459.038	882.62
459.258	920.62
459.478	952.62
459.698	977.62
459.918	1026.62
460.138	1058.62
460.358	1080.62
460.578	1126.62
460.798	1145.62
461.018	1166.62
461.238	1097.62
461.458	1121.62
461.678	1128.62
461.898	1138.62
462.118	1159.62
462.338	1198.62
462.558	1253.62
462.777	1297.62
462.997	1401.62
463.217	1522.62
463.437	1592.62
463.657	1416.62
463.876	1321.62
464.096	1336.62
464.316	1367.62
464.536	1361.62
464.755	1288.62
464.975	1236.62
465.195	1184.62
465.414	1106.62
465.634	1035.62
465.854	1006.62
466.073	977.62
466.293	949.62
466.512	939.62
466.732	918.62
466.951	903.62
467.171	924.62
467.391	940.62
467.61	915.62
467.829	914.62
468.049	867.62
468.268	857.62
468.488	879.62
468.707	874.62
468.927	890.62
469.146	882.62
469.365	890.62
469.585	902.62
469.804	921.62
470.023	929.62
470.243	946.62
470.462	946.62
470.681	955.62
470.901	934.62
471.12	944.62
471.339	938.62
471.558	890.62
471.777	884.62
471.997	903.62
472.216	882.62
472.435	869.62
472.654	847.62
472.873	814.62
473.092	859.62
473.311	846.62
473.53	830.62
473.749	843.62
473.968	830.62
474.187	853.62
474.406	838.62
474.625	834.62
474.844	838.62
475.063	839.62
475.282	823.62
475.501	867.62
475.72	859.62
475.939	871.62
476.158	874.62
476.377	892.62
476.596	914.62
476.814	931.62
477.033	893.62
477.252	935.62
477.471	941.62
477.69	946.62
477.908	953.62
478.127	1025.62
478.346	1014.62
478.564	1040.62
478.783	1022.62
479.002	1082.62
479.22	1064.62
479.439	1067.62
479.658	1059.62
479.876	1066.62
480.095	1109.62
480.313	1155.62
480.532	1165.62
480.751	1141.62
480.969	1103.62
481.188	1040.62
481.406	1023.62
481.624	974.62
481.843	998.62
482.061	971.62
482.28	972.62
482.498	958.62
482.717	973.62
482.935	975.62
483.153	986.62
483.372	930.62
483.59	973.62
483.808	960.62
484.027	960.62
484.245	955.62
484.463	997.62
484.681	995.62
484.9	996.62
485.118	1003.62
485.336	1006.62
485.554	1046.62
485.772	1022.62
485.99	1062.62
486.209	1049.62
486.427	1055.62
486.645	1070.62
486.863	1028.62
487.081	1033.62
487.299	1063.62
487.517	1058.62
487.735	1024.62
487.953	1047.62
488.171	1034.62
488.389	1013.62
488.607	996.62
488.825	994.62
489.043	982.62
489.261	1010.62
489.479	1042.62
489.696	1003.62
489.914	1014.62
490.132	1002.62
490.35	1014.62
490.568	1043.62
490.786	1034.62
491.003	1023.62
491.221	1030.62
491.439	1071.62
491.657	1022.62
491.874	1065.62
492.092	1007.62
492.31	1040.62
492.527	1048.62
492.745	1030.62
492.963	1063.62
493.18	1040.62
493.398	1065.62
493.615	1086.62
493.833	1095.62
494.05	1091.62
494.268	1066.62
494.485	1092.62
494.703	1093.62
494.92	1084.62
495.138	1083.62
495.355	1081.62
495.573	1063.62
495.79	1084.62
496.008	1097.62
496.225	1095.62
496.442	1081.62
496.66	1129.62
496.877	1107.62
497.094	1147.62
497.312	1167.62
497.529	1226.62
497.746	1213.62
497.963	1237.62
498.181	1293.62
498.398	1366.62
498.615	1426.62
498.832	1540.62
499.049	1648.62
499.267	1795.62
499.484	2009.62
499.701	2184.62
499.918	2450.62
500.135	2841.62
500.352	3273.62
500.569	3510.62
500.786	3525.62
501.003	3172.62
501.22	2808.62
501.437	2462.62
501.654	2091.62
501.871	1930.62
502.088	1740.62
502.305	1651.62
502.522	1515.62
502.739	1483.62
502.956	1359.62
503.172	1354.62
503.389	1294.62
503.606	1248.62
503.823	1211.62
504.04	1193.62
504.256	1234.62
504.473	1272.62
504.69	1346.62
504.907	1293.62
505.123	1199.62
505.34	1120.62
505.557	1078.62
505.773	1022.62
505.99	1037.62
506.207	990.62
506.423	990.62
506.64	989.62
506.856	969.62
507.073	961.62
507.289	963.62
507.506	979.62
507.722	932.62
507.939	921.62
508.155	919.62
508.372	924.62
508.588	890.62
508.805	921.62
509.021	908.62
509.238	892.62
509.454	869.62
509.67	872.62
509.887	884.62
510.103	860.62
510.319	875.62
510.536	876.62
510.752	890.62
510.968	865.62
511.184	877.62
511.401	866.62
511.617	865.62
511.833	863.62
512.049	866.62
512.265	862.62
512.481	879.62
512.698	882.62
512.914	868.62
513.13	861.62
513.346	840.62
513.562	849.62
513.778	842.62
513.994	848.62
514.21	843.62
514.426	865.62
514.642	892.62
514.858	897.62
515.074	900.62
515.29	923.62
515.506	871.62
515.721	916.62
515.937	936.62
516.153	940.62
516.369	991.62
516.585	1002.62
516.801	1025.62
517.016	1056.62
517.232	1119.62
517.448	1183.62
517.664	1279.62
517.879	1250.62
518.095	1276.62
518.311	1275.62
518.527	1155.62
518.742	1110.62
518.958	1048.62
519.173	1020.62
519.389	1022.62
519.605	966.62
519.82	932.62
520.036	931.62
520.251	923.62
520.467	875.62
520.682	853.62
520.898	867.62
521.113	858.62
521.329	852.62
521.544	853.62
521.76	832.62
521.975	837.62
522.19	851.62
522.406	822.62
522.621	842.62
522.836	822.62
523.052	803.62
523.267	824.62
523.482	841.62
523.698	828.62
523.913	817.62
524.128	782.62
524.343	816.62
524.559	794.62
524.774	824.62
524.989	788.62
525.204	792.62
525.419	798.62
525.634	785.62
525.849	821.62
526.064	788.62
526.28	777.62
526.495	789.62
526.71	783.62
526.925	798.62
527.14	774.62
527.355	779.62
527.57	756.62
527.785	786.62
527.999	793.62
528.214	791.62
528.429	791.62
528.644	790.62
528.859	790.62
529.074	807.62
529.289	811.62
529.503	778.62
529.718	782.62
529.933	778.62
530.148	803.62
530.363	794.62
530.577	786.62
530.792	801.62
531.007	790.62
531.221	807.62
531.436	796.62
531.651	798.62
531.865	803.62
532.08	803.62
532.295	810.62
532.509	774.62
532.724	768.62
532.938	781.62
533.153	786.62
533.367	804.62
533.582	779.62
533.796	780.62
534.011	772.62
534.225	785.62
534.44	754.62
534.654	788.62
534.868	771.62
535.083	794.62
535.297	788.62
535.511	777.62
535.726	770.62
535.94	770.62
536.154	758.62
536.369	757.62
536.583	724.62
536.797	748.62
537.011	734.62
537.225	725.62
537.44	744.62
537.654	747.62
537.868	732.62
538.082	701.62
538.296	732.62
538.51	720.62
538.724	718.62
538.938	719.62
539.153	720.62
539.367	706.62
539.581	736.62
539.795	723.62
540.009	698.62
540.222	706.62
540.436	705.62
540.65	720.62
540.864	689.62
541.078	708.62
541.292	719.62
541.506	720.62
541.72	711.62
541.934	678.62
542.147	727.62
542.361	715.62
542.575	711.62
542.789	714.62
543.002	674.62
543.216	681.62
543.43	699.62
543.644	699.62
543.857	676.62
544.071	694.62
544.285	696.62
544.498	702.62
544.712	719.62
544.925	739.62
545.139	723.62
545.352	702.62
545.566	732.62
545.779	728.62
545.993	739.62
546.206	749.62
546.42	732.62
546.633	736.62
546.847	712.62
547.06	715.62
547.274	715.62
547.487	707.62
547.7	742.62
547.914	735.62
548.127	745.62
548.34	723.62
548.554	731.62
548.767	732.62
548.98	747.62
549.193	753.62
549.407	743.62
549.62	734.62
549.833	754.62
550.046	766.62
550.259	722.62
550.473	737.62
550.686	712.62
550.899	704.62
551.112	698.62
551.325	702.62
551.538	727.62
551.751	690.62
551.964	710.62
552.177	710.62
552.39	741.62
552.603	780.62
552.816	776.62
553.029	790.62
553.242	770.62
553.455	784.62
553.667	810.62
553.88	814.62
554.093	764.62
554.306	753.62
554.519	735.62
554.732	706.62
554.944	714.62
555.157	712.62
555.37	696.62
555.583	678.62
555.795	664.62
556.008	660.62
556.221	648.62
556.433	648.62
556.646	651.62
556.859	631.62
557.071	593.62
557.284	605.62
557.496	614.62
557.709	607.62
557.921	619.62
558.134	605.62
558.346	618.62
558.559	633.62
558.771	588.62
558.984	619.62
559.196	602.62
559.409	598.62
559.621	604.62
559.833	583.62
560.046	581.62
560.258	601.62
560.47	573.62
560.683	587.62
560.895	595.62
561.107	593.62
561.32	574.62
561.532	592.62
561.744	608.62
561.956	606.62
562.168	600.62
562.381	602.62
562.593	569.62
562.805	587.62
563.017	607.62
563.229	607.62
563.441	610.62
563.653	610.62
563.865	628.62
564.077	612.62
564.289	613.62
564.501	619.62
564.713	625.62
564.925	649.62
565.137	646.62
565.349	655.62
565.561	701.62
565.773	705.62
565.985	745.62
566.197	778.62
566.408	822.62
566.62	905.62
566.832	988.62
567.044	1006.62
567.255	1002.62
567.467	1032.62
567.679	1096.62
567.891	1173.62
568.102	1241.62
568.314	1169.62
568.526	1036.62
568.737	907.62
568.949	850.62
569.161	776.62
569.372	704.62
569.584	667.62
569.795	671.62
570.007	639.62
570.218	593.62
570.43	633.62
570.641	606.62
570.853	602.62
571.064	638.62
571.276	639.62
571.487	599.62
571.698	599.62
571.91	564.62
572.121	550.62
572.333	534.62
572.544	510.62
572.755	520.62
572.966	530.62
573.178	539.62
573.389	494.62
573.6	513.62
573.811	503.62
574.023	475.62
574.234	496.62
574.445	497.62
574.656	471.62
574.867	517.62
575.078	522.62
575.289	483.62
575.501	498.62
575.712	460.62
575.923	476.62
576.134	450.62
576.345	476.62
576.556	467.62
576.767	474.62
576.978	470.62
577.188	456.62
577.399	469.62
577.61	448.62
577.821	480.62
578.032	434.62
578.243	442.62
578.454	432.62
578.665	435.62
578.875	437.62
579.086	427.62
579.297	434.62
579.508	446.62
579.718	427.62
579.929	436.62
580.14	414.62
580.35	422.62
580.561	421.62
580.772	440.62
580.982	419.62
581.193	427.62
581.403	418.62
581.614	421.62
581.825	430.62
582.035	411.62
582.246	418.62
582.456	412.62
582.667	402.62
582.877	431.62
583.087	406.62
583.298	423.62
583.508	411.62
583.719	408.62
583.929	419.62
584.139	410.62
584.35	395.62
584.56	404.62
584.77	410.62
584.981	421.62
585.191	400.62
585.401	403.62
585.611	396.62
585.821	415.62
586.032	394.62
586.242	406.62
586.452	412.62
586.662	392.62
586.872	385.62
587.082	380.62
587.292	387.62
587.502	388.62
587.713	386.62
587.923	378.62
588.133	409.62
588.343	369.62
588.553	398.62
588.762	403.62
588.972	384.62
589.182	395.62
589.392	406.62
589.602	402.62
589.812	392.62
590.022	403.62
590.232	388.62
590.441	392.62
590.651	418.62
590.861	397.62
591.071	421.62
591.281	438.62
591.49	408.62
591.7	430.62
591.91	425.62
592.119	422.62
592.329	440.62
592.539	430.62
592.748	459.62
592.958	475.62
593.167	470.62
593.377	495.62
593.587	499.62
593.796	510.62
594.006	524.62
594.215	538.62
594.424	514.62
594.634	519.62
594.843	485.62
595.053	455.62
595.262	482.62
595.472	457.62
595.681	418.62
595.89	406.62
596.1	400.62
596.309	389.62
596.518	370.62
596.727	358.62
596.937	358.62
597.146	369.62
597.355	347.62
597.564	352.62
597.774	376.62
597.983	344.62
598.192	371.62
598.401	351.62
598.61	336.62
598.819	352.62
599.028	347.62
599.237	355.62
599.446	339.62
599.655	329.62
599.864	350.62
600.073	337.62
600.282	331.62
600.491	322.62
600.7	322.62
600.909	310.62
601.118	325.62
601.327	350.62
601.536	334.62
601.745	314.62
601.953	313.62
602.162	327.62
602.371	318.62
602.58	319.62
602.789	315.62
602.997	324.62
603.206	330.62
603.415	308.62
603.623	322.62
603.832	312.62
604.041	322.62
604.249	307.62
604.458	329.62
604.666	319.62
604.875	310.62
605.084	316.62
605.292	312.62
605.501	302.62
605.709	319.62
605.918	293.62
606.126	306.62
606.334	310.62
606.543	318.62
606.751	309.62
606.96	299.62
607.168	293.62
607.376	305.62
607.585	289.62
607.793	285.62
608.001	308.62
608.21	305.62
608.418	290.62
608.626	303.62
608.834	301.62
609.043	307.62
609.251	299.62
609.459	287.62
609.667	296.62
609.875	300.62
610.083	304.62
610.291	309.62
610.499	289.62
610.707	310.62
610.916	286.62
611.124	304.62
611.332	297.62
611.54	301.62
611.748	298.62
611.955	282.62
612.163	292.62
612.371	298.62
612.579	286.62
612.787	290.62
612.995	290.62
613.203	280.62
613.411	287.62
613.618	274.62
613.826	268.62
614.034	287.62
614.242	277.62
614.449	288.62
614.657	295.62
614.865	299.62
615.072	290.62
615.28	277.62
615.488	284.62
615.695	287.62
615.903	281.62
616.111	290.62
616.318	308.62
616.526	282.62
616.733	298.62
616.941	292.62
617.148	313.62
617.356	293.62
617.563	315.62
617.771	298.62
617.978	289.62
618.185	289.62
618.393	299.62
618.6	293.62
618.807	287.62
619.015	302.62
619.222	269.62
619.429	282.62
619.637	286.62
619.844	293.62
620.051	279.62
620.258	259.62
620.466	264.62
620.673	273.62
620.88	256.62
621.087	264.62
621.294	255.62
621.501	258.62
621.708	278.62
621.915	233.62
622.122	270.62
622.329	258.62
622.536	274.62
622.743	260.62
622.95	259.62
623.157	242.62
623.364	255.62
623.571	260.62
623.778	261.62
623.985	264.62
624.192	248.62
624.399	252.62
624.606	263.62
624.812	257.62
625.019	247.62
625.226	246.62
625.433	245.62
625.639	249.62
625.846	242.62
626.053	242.62
626.259	253.62
626.466	246.62
626.673	238.62
626.879	241.62
627.086	253.62
627.293	239.62
627.499	234.62
627.706	241.62
627.912	237.62
628.119	225.62
628.325	247.62
628.532	248.62
628.738	253.62
628.945	226.62
629.151	217.62
629.357	224.62
629.564	216.62
629.77	241.62
629.976	236.62
630.183	232.62
630.389	236.62
630.595	215.62
630.802	223.62
631.008	226.62
631.214	240.62
631.42	223.62
631.627	218.62
631.833	216.62
632.039	218.62
632.245	211.62
632.451	221.62
632.657	230.62
632.863	210.62
633.069	216.62
633.275	215.62
633.481	195.62
633.688	223.62
633.893	210.62
634.099	216.62
634.305	205.62
634.511	215.62
634.717	208.62
634.923	187.62
635.129	214.62
635.335	214.62
635.541	204.62
635.747	216.62
635.952	213.62
636.158	210.62
636.364	216.62
636.57	208.62
636.775	206.62
636.981	213.62
637.187	201.62
637.392	195.62
637.598	195.62
637.804	222.62
638.009	197.62
638.215	208.62
638.421	201.62
638.626	202.62
638.832	188.62
639.037	201.62
639.243	189.62
639.448	198.62
639.654	198.62
639.859	191.62
640.065	198.62
640.27	202.62
640.475	183.62
640.681	168.62
640.886	182.62
641.091	207.62
641.297	203.62
641.502	197.62
641.707	199.62
641.913	185.62
642.118	199.62
642.323	192.62
642.528	189.62
642.733	190.62
642.939	178.62
643.144	176.62
643.349	172.62
643.554	196.62
643.759	195.62
643.964	193.62
644.169	182.62
644.374	170.62
644.579	188.62
644.784	182.62
644.989	191.62
645.194	194.62
645.399	190.62
645.604	175.62
645.809	189.62
646.014	188.62
646.219	187.62
646.423	195.62
646.628	196.62
646.833	199.62
647.038	201.62
647.243	203.62
647.447	214.62
647.652	205.62
647.857	193.62
648.062	186.62
648.266	204.62
648.471	205.62
648.676	190.62
648.88	206.62
649.085	190.62
649.289	185.62
649.494	190.62
649.698	178.62
649.903	181.62
650.107	199.62
650.312	177.62
650.516	190.62
650.721	192.62
650.925	170.62
651.13	169.62
651.334	164.62
651.539	168.62
651.743	171.62
651.947	166.62
652.152	169.62
652.356	146.62
652.56	175.62
652.764	167.62
652.969	140.62
653.173	155.62
653.377	153.62
653.581	152.62
653.785	154.62
653.99	145.62
654.194	144.62
654.398	146.62
654.602	138.62
654.806	144.62
655.01	144.62
655.214	141.62
655.418	130.62
655.622	148.62
655.826	126.62
656.03	126.62
656.234	125.62
656.438	135.62
656.642	137.62
656.846	135.62
657.049	130.62
657.253	124.62
657.457	128.62
657.661	118.62
657.865	117.62
658.068	122.62
658.272	104.62
658.476	105.62
658.68	95.62
658.883	117.62
659.087	107.62
659.291	99.62
659.494	94.62
659.698	100.62
659.901	102.62
660.105	114.62
660.309	99.62
660.512	103.62
660.716	94.62
660.919	99.62
661.123	90.62
661.326	99.62
661.53	95.62
661.733	105.62
661.936	83.62
662.14	84.62
662.343	69.62
662.546	79.62
662.75	77.62
662.953	102.62
663.156	82.62
663.36	63.62
663.563	82.62
663.766	94.62
663.969	75.62
664.173	81.62
664.376	84.62
664.579	83.62
664.782	78.62
664.985	81.62
665.188	70.62
665.391	80.62
665.594	84.62
665.797	78.62
666	66.62
666.203	74.62
666.406	73.62
666.609	69.62
666.812	83.62
667.015	80.62
667.218	70.62
667.421	77.62
667.624	76.62
667.827	75.62
668.03	78.62
668.232	83.62
668.435	82.62
668.638	88.62
668.841	65.62
669.043	81.62
669.246	70.62
669.449	83.62
669.651	83.62
669.854	90.62
670.057	71.62
670.259	81.62
670.462	84.62
670.665	79.62
670.867	74.62
671.07	79.62
671.272	80.62
671.475	70.62
671.677	68.62
671.88	82.62
672.082	83.62
672.284	74.62
672.487	83.62
672.689	64.62
672.892	95.62
