Data from Ni(NO3)2Standard.Agarose3%.GreenCap.LampEnergy5.5.E.O_HRD10591_14-42-47-188.txt Node
Date: Mon Jul 22 14:42:47 EDT 2019
User: cochatt
Spectrometer: HR+D1059
Trigger mode: 1
Integration Time (sec): 1.000000E-1
Scans to average: 1
Electric dark correction enabled: true
Nonlinearity correction enabled: false
Boxcar width: 0
XAxis mode: Wavelengths
Number of Pixels in Spectrum: 2048
>>>>>Begin Spectral Data<<<<<
223.165	-7.94
223.4	-7.94
223.635	-7.94
223.869	-26.94
224.104	-18.94
224.338	-9.94
224.573	-13.94
224.808	-3.94
225.042	-14.94
225.277	-9.94
225.511	-1.94
225.746	-4.94
225.98	2.06
226.215	10.06
226.449	17.06
226.683	36.06
226.918	26.06
227.152	22.06
227.387	34.06
227.621	46.06
227.856	41.06
228.09	45.06
228.324	62.06
228.559	54.06
228.793	67.06
229.027	55.06
229.262	63.06
229.496	58.06
229.73	63.06
229.964	74.06
230.199	60.06
230.433	84.06
230.667	81.06
230.901	79.06
231.136	81.06
231.37	92.06
231.604	83.06
231.838	92.06
232.072	91.06
232.306	75.06
232.541	80.06
232.775	83.06
233.009	96.06
233.243	80.06
233.477	79.06
233.711	86.06
233.945	77.06
234.179	95.06
234.413	83.06
234.647	84.06
234.881	86.06
235.115	82.06
235.349	80.06
235.583	75.06
235.817	86.06
236.051	78.06
236.285	73.06
236.519	91.06
236.753	93.06
236.987	85.06
237.221	70.06
237.455	68.06
237.689	66.06
237.922	75.06
238.156	72.06
238.39	94.06
238.624	91.06
238.858	80.06
239.091	75.06
239.325	80.06
239.559	85.06
239.793	80.06
240.027	77.06
240.26	81.06
240.494	72.06
240.728	64.06
240.961	75.06
241.195	78.06
241.429	61.06
241.662	77.06
241.896	70.06
242.13	80.06
242.363	80.06
242.597	93.06
242.83	92.06
243.064	80.06
243.298	79.06
243.531	80.06
243.765	71.06
243.998	78.06
244.232	79.06
244.465	85.06
244.699	69.06
244.932	83.06
245.166	81.06
245.399	78.06
245.633	82.06
245.866	95.06
246.099	76.06
246.333	79.06
246.566	87.06
246.8	85.06
247.033	92.06
247.266	69.06
247.5	86.06
247.733	84.06
247.966	75.06
248.2	71.06
248.433	100.06
248.666	73.06
248.899	85.06
249.133	93.06
249.366	69.06
249.599	69.06
249.832	93.06
250.066	67.06
250.299	81.06
250.532	92.06
250.765	72.06
250.998	89.06
251.231	86.06
251.465	87.06
251.698	80.06
251.931	77.06
252.164	80.06
252.397	81.06
252.63	93.06
252.863	73.06
253.096	83.06
253.329	70.06
253.562	78.06
253.795	74.06
254.028	87.06
254.261	67.06
254.494	79.06
254.727	72.06
254.96	77.06
255.193	86.06
255.426	81.06
255.659	87.06
255.892	90.06
256.124	83.06
256.357	74.06
256.59	70.06
256.823	91.06
257.056	69.06
257.289	79.06
257.521	87.06
257.754	88.06
257.987	87.06
258.22	84.06
258.452	77.06
258.685	79.06
258.918	87.06
259.151	79.06
259.383	82.06
259.616	89.06
259.849	79.06
260.081	88.06
260.314	84.06
260.547	92.06
260.779	79.06
261.012	77.06
261.244	78.06
261.477	81.06
261.71	86.06
261.942	87.06
262.175	84.06
262.407	92.06
262.64	72.06
262.872	75.06
263.105	88.06
263.337	88.06
263.57	77.06
263.802	78.06
264.035	77.06
264.267	88.06
264.499	70.06
264.732	88.06
264.964	90.06
265.197	87.06
265.429	84.06
265.661	90.06
265.894	86.06
266.126	80.06
266.358	92.06
266.591	86.06
266.823	79.06
267.055	83.06
267.287	86.06
267.52	84.06
267.752	92.06
267.984	90.06
268.216	79.06
268.448	82.06
268.681	83.06
268.913	81.06
269.145	79.06
269.377	79.06
269.609	81.06
269.841	83.06
270.073	78.06
270.306	91.06
270.538	88.06
270.77	86.06
271.002	92.06
271.234	80.06
271.466	88.06
271.698	73.06
271.93	97.06
272.162	86.06
272.394	76.06
272.626	79.06
272.858	94.06
273.09	94.06
273.322	75.06
273.553	84.06
273.785	87.06
274.017	87.06
274.249	79.06
274.481	91.06
274.713	86.06
274.945	79.06
275.176	106.06
275.408	74.06
275.64	75.06
275.872	80.06
276.104	84.06
276.335	87.06
276.567	81.06
276.799	77.06
277.031	70.06
277.262	88.06
277.494	81.06
277.726	93.06
277.957	89.06
278.189	86.06
278.421	97.06
278.652	89.06
278.884	80.06
279.115	82.06
279.347	88.06
279.579	89.06
279.81	83.06
280.042	83.06
280.273	82.06
280.505	79.06
280.736	83.06
280.968	84.06
281.199	86.06
281.431	85.06
281.662	74.06
281.894	91.06
282.125	90.06
282.356	92.06
282.588	99.06
282.819	104.06
283.051	89.06
283.282	71.06
283.513	83.06
283.745	78.06
283.976	85.06
284.207	80.06
284.439	91.06
284.67	90.06
284.901	81.06
285.132	85.06
285.364	86.06
285.595	82.06
285.826	72.06
286.057	85.06
286.288	88.06
286.52	110.06
286.751	84.06
286.982	94.06
287.213	88.06
287.444	77.06
287.675	89.06
287.906	84.06
288.138	73.06
288.369	81.06
288.6	88.06
288.831	86.06
289.062	80.06
289.293	81.06
289.524	87.06
289.755	84.06
289.986	88.06
290.217	87.06
290.448	72.06
290.679	88.06
290.91	89.06
291.141	82.06
291.371	92.06
291.602	90.06
291.833	85.06
292.064	80.06
292.295	85.06
292.526	90.06
292.757	92.06
292.987	81.06
293.218	74.06
293.449	91.06
293.68	84.06
293.91	89.06
294.141	91.06
294.372	88.06
294.603	85.06
294.833	90.06
295.064	88.06
295.295	98.06
295.525	94.06
295.756	88.06
295.987	90.06
296.217	87.06
296.448	91.06
296.679	83.06
296.909	88.06
297.14	84.06
297.37	79.06
297.601	82.06
297.831	78.06
298.062	85.06
298.292	86.06
298.523	90.06
298.753	96.06
298.984	83.06
299.214	76.06
299.445	85.06
299.675	89.06
299.905	94.06
300.136	100.06
300.366	91.06
300.597	105.06
300.827	99.06
301.057	104.06
301.288	92.06
301.518	92.06
301.748	84.06
301.979	86.06
302.209	70.06
302.439	86.06
302.669	87.06
302.9	90.06
303.13	93.06
303.36	88.06
303.59	88.06
303.82	83.06
304.051	92.06
304.281	80.06
304.511	86.06
304.741	88.06
304.971	97.06
305.201	102.06
305.431	98.06
305.661	88.06
305.891	100.06
306.121	84.06
306.352	100.06
306.582	94.06
306.812	80.06
307.042	87.06
307.272	87.06
307.502	84.06
307.731	87.06
307.961	92.06
308.191	82.06
308.421	81.06
308.651	79.06
308.881	90.06
309.111	86.06
309.341	105.06
309.571	107.06
309.8	89.06
310.03	94.06
310.26	81.06
310.49	98.06
310.72	92.06
310.949	85.06
311.179	91.06
311.409	85.06
311.639	89.06
311.868	79.06
312.098	93.06
312.328	87.06
312.557	91.06
312.787	81.06
313.017	96.06
313.246	91.06
313.476	89.06
313.706	79.06
313.935	88.06
314.165	75.06
314.394	88.06
314.624	95.06
314.853	99.06
315.083	100.06
315.312	89.06
315.542	90.06
315.771	101.06
316.001	81.06
316.23	85.06
316.46	80.06
316.689	100.06
316.919	86.06
317.148	105.06
317.377	88.06
317.607	85.06
317.836	76.06
318.065	74.06
318.295	92.06
318.524	86.06
318.753	88.06
318.983	79.06
319.212	96.06
319.441	93.06
319.67	101.06
319.9	89.06
320.129	79.06
320.358	86.06
320.587	91.06
320.816	98.06
321.046	92.06
321.275	89.06
321.504	89.06
321.733	91.06
321.962	84.06
322.191	96.06
322.42	98.06
322.649	90.06
322.878	91.06
323.108	91.06
323.337	93.06
323.566	96.06
323.795	93.06
324.024	102.06
324.253	87.06
324.482	92.06
324.71	87.06
324.939	81.06
325.168	85.06
325.397	95.06
325.626	90.06
325.855	86.06
326.084	84.06
326.313	101.06
326.542	81.06
326.77	83.06
326.999	99.06
327.228	94.06
327.457	88.06
327.686	96.06
327.914	98.06
328.143	93.06
328.372	91.06
328.6	86.06
328.829	97.06
329.058	91.06
329.287	83.06
329.515	87.06
329.744	100.06
329.972	98.06
330.201	92.06
330.43	92.06
330.658	100.06
330.887	93.06
331.115	88.06
331.344	84.06
331.572	98.06
331.801	87.06
332.03	93.06
332.258	87.06
332.486	93.06
332.715	95.06
332.943	83.06
333.172	95.06
333.4	81.06
333.629	86.06
333.857	100.06
334.085	83.06
334.314	103.06
334.542	96.06
334.771	103.06
334.999	92.06
335.227	93.06
335.455	95.06
335.684	94.06
335.912	86.06
336.14	92.06
336.369	97.06
336.597	85.06
336.825	98.06
337.053	86.06
337.281	84.06
337.51	104.06
337.738	94.06
337.966	79.06
338.194	99.06
338.422	86.06
338.65	80.06
338.878	95.06
339.106	87.06
339.334	84.06
339.562	95.06
339.79	101.06
340.018	94.06
340.246	85.06
340.474	100.06
340.702	80.06
340.93	104.06
341.158	84.06
341.386	74.06
341.614	86.06
341.842	91.06
342.07	91.06
342.298	88.06
342.526	104.06
342.754	91.06
342.981	88.06
343.209	88.06
343.437	104.06
343.665	98.06
343.893	97.06
344.12	88.06
344.348	96.06
344.576	82.06
344.804	87.06
345.031	93.06
345.259	88.06
345.487	89.06
345.714	88.06
345.942	79.06
346.17	101.06
346.397	92.06
346.625	93.06
346.853	102.06
347.08	87.06
347.308	101.06
347.535	87.06
347.763	78.06
347.99	95.06
348.218	93.06
348.445	83.06
348.673	92.06
348.9	91.06
349.128	83.06
349.355	92.06
349.583	94.06
349.81	86.06
350.037	91.06
350.265	84.06
350.492	77.06
350.72	83.06
350.947	98.06
351.174	88.06
351.402	91.06
351.629	88.06
351.856	91.06
352.083	98.06
352.311	84.06
352.538	76.06
352.765	92.06
352.992	82.06
353.22	92.06
353.447	82.06
353.674	88.06
353.901	82.06
354.128	71.06
354.355	91.06
354.583	77.06
354.81	82.06
355.037	93.06
355.264	88.06
355.491	102.06
355.718	103.06
355.945	91.06
356.172	77.06
356.399	73.06
356.626	73.06
356.853	96.06
357.08	89.06
357.307	96.06
357.534	89.06
357.761	86.06
357.988	77.06
358.215	79.06
358.441	92.06
358.668	100.06
358.895	88.06
359.122	95.06
359.349	86.06
359.576	84.06
359.802	69.06
360.029	83.06
360.256	88.06
360.483	91.06
360.709	78.06
360.936	80.06
361.163	85.06
361.39	94.06
361.616	92.06
361.843	93.06
362.07	80.06
362.296	80.06
362.523	87.06
362.749	98.06
362.976	100.06
363.203	93.06
363.429	87.06
363.656	83.06
363.882	103.06
364.109	83.06
364.335	87.06
364.562	95.06
364.788	76.06
365.015	90.06
365.241	88.06
365.468	92.06
365.694	89.06
365.92	92.06
366.147	80.06
366.373	75.06
366.599	85.06
366.826	86.06
367.052	79.06
367.278	77.06
367.505	95.06
367.731	98.06
367.957	94.06
368.184	97.06
368.41	73.06
368.636	84.06
368.862	82.06
369.089	86.06
369.315	79.06
369.541	90.06
369.767	86.06
369.993	90.06
370.219	79.06
370.445	80.06
370.672	90.06
370.898	78.06
371.124	84.06
371.35	85.06
371.576	78.06
371.802	101.06
372.028	91.06
372.254	88.06
372.48	94.06
372.706	79.06
372.932	88.06
373.158	91.06
373.384	91.06
373.61	87.06
373.835	93.06
374.061	89.06
374.287	76.06
374.513	94.06
374.739	93.06
374.965	76.06
375.191	74.06
375.416	75.06
375.642	94.06
375.868	80.06
376.094	94.06
376.319	81.06
376.545	83.06
376.771	95.06
376.997	84.06
377.222	80.06
377.448	93.06
377.674	100.06
377.899	79.06
378.125	86.06
378.35	94.06
378.576	72.06
378.802	80.06
379.027	79.06
379.253	98.06
379.478	93.06
379.704	82.06
379.929	78.06
380.155	86.06
380.38	83.06
380.606	88.06
380.831	98.06
381.057	89.06
381.282	85.06
381.507	99.06
381.733	92.06
381.958	78.06
382.184	88.06
382.409	90.06
382.634	83.06
382.86	82.06
383.085	81.06
383.31	86.06
383.535	92.06
383.761	101.06
383.986	86.06
384.211	77.06
384.436	89.06
384.662	82.06
384.887	85.06
385.112	79.06
385.337	86.06
385.562	77.06
385.787	87.06
386.013	91.06
386.238	91.06
386.463	87.06
386.688	84.06
386.913	86.06
387.138	91.06
387.363	98.06
387.588	91.06
387.813	94.06
388.038	84.06
388.263	81.06
388.488	84.06
388.713	92.06
388.938	86.06
389.163	87.06
389.387	87.06
389.612	83.06
389.837	73.06
390.062	80.06
390.287	77.06
390.512	85.06
390.736	74.06
390.961	101.06
391.186	97.06
391.411	93.06
391.636	73.06
391.86	91.06
392.085	102.06
392.31	88.06
392.534	76.06
392.759	97.06
392.984	94.06
393.208	83.06
393.433	87.06
393.658	90.06
393.882	97.06
394.107	89.06
394.331	87.06
394.556	87.06
394.78	87.06
395.005	82.06
395.229	71.06
395.454	86.06
395.678	90.06
395.903	100.06
396.127	80.06
396.352	85.06
396.576	76.06
396.801	86.06
397.025	94.06
397.249	76.06
397.474	98.06
397.698	83.06
397.922	89.06
398.147	86.06
398.371	74.06
398.595	83.06
398.82	88.06
399.044	80.06
399.268	93.06
399.492	96.06
399.717	94.06
399.941	85.06
400.165	86.06
400.389	78.06
400.613	82.06
400.837	91.06
401.062	88.06
401.286	81.06
401.51	77.06
401.734	89.06
401.958	80.06
402.182	77.06
402.406	84.06
402.63	75.06
402.854	80.06
403.078	64.06
403.302	95.06
403.526	93.06
403.75	86.06
403.974	87.06
404.198	84.06
404.422	93.06
404.645	77.06
404.869	106.06
405.093	90.06
405.317	91.06
405.541	80.06
405.765	76.06
405.988	94.06
406.212	99.06
406.436	90.06
406.66	82.06
406.883	98.06
407.107	90.06
407.331	92.06
407.555	95.06
407.778	79.06
408.002	81.06
408.226	102.06
408.449	95.06
408.673	93.06
408.896	89.06
409.12	90.06
409.344	99.06
409.567	79.06
409.791	82.06
410.014	90.06
410.238	86.06
410.461	84.06
410.685	85.06
410.908	94.06
411.132	82.06
411.355	82.06
411.578	79.06
411.802	88.06
412.025	100.06
412.249	78.06
412.472	79.06
412.695	78.06
412.919	95.06
413.142	89.06
413.365	82.06
413.589	89.06
413.812	89.06
414.035	82.06
414.258	81.06
414.482	88.06
414.705	83.06
414.928	92.06
415.151	93.06
415.374	84.06
415.597	84.06
415.821	86.06
416.044	90.06
416.267	79.06
416.49	92.06
416.713	85.06
416.936	77.06
417.159	74.06
417.382	100.06
417.605	102.06
417.828	78.06
418.051	92.06
418.274	88.06
418.497	73.06
418.72	82.06
418.943	85.06
419.166	78.06
419.389	70.06
419.611	83.06
419.834	77.06
420.057	75.06
420.28	90.06
420.503	90.06
420.726	88.06
420.948	79.06
421.171	75.06
421.394	92.06
421.617	96.06
421.839	93.06
422.062	79.06
422.285	83.06
422.507	96.06
422.73	83.06
422.953	88.06
423.175	86.06
423.398	79.06
423.621	84.06
423.843	78.06
424.066	91.06
424.288	88.06
424.511	86.06
424.733	73.06
424.956	91.06
425.178	79.06
425.401	92.06
425.623	84.06
425.846	97.06
426.068	73.06
426.291	94.06
426.513	84.06
426.735	90.06
426.958	87.06
427.18	81.06
427.402	74.06
427.625	90.06
427.847	89.06
428.069	72.06
428.292	80.06
428.514	90.06
428.736	74.06
428.958	81.06
429.181	90.06
429.403	94.06
429.625	89.06
429.847	82.06
430.069	87.06
430.292	86.06
430.514	96.06
430.736	81.06
430.958	87.06
431.18	88.06
431.402	82.06
431.624	75.06
431.846	85.06
432.068	79.06
432.29	100.06
432.512	97.06
432.734	92.06
432.956	83.06
433.178	91.06
433.4	89.06
433.622	93.06
433.844	96.06
434.066	83.06
434.287	82.06
434.509	88.06
434.731	93.06
434.953	83.06
435.175	92.06
435.397	67.06
435.618	80.06
435.84	88.06
436.062	77.06
436.284	83.06
436.505	85.06
436.727	83.06
436.949	92.06
437.17	84.06
437.392	73.06
437.614	76.06
437.835	72.06
438.057	90.06
438.278	86.06
438.5	83.06
438.721	73.06
438.943	80.06
439.165	95.06
439.386	88.06
439.608	87.06
439.829	86.06
440.05	83.06
440.272	77.06
440.493	70.06
440.715	86.06
440.936	88.06
441.158	91.06
441.379	85.06
441.6	104.06
441.822	98.06
442.043	87.06
442.264	90.06
442.486	84.06
442.707	75.06
442.928	98.06
443.149	81.06
443.371	103.06
443.592	95.06
443.813	102.06
444.034	80.06
444.255	71.06
444.476	83.06
444.698	91.06
444.919	96.06
445.14	210.06
445.361	136.06
445.582	89.06
445.803	80.06
446.024	85.06
446.245	94.06
446.466	91.06
446.687	96.06
446.908	80.06
447.129	91.06
447.35	86.06
447.571	78.06
447.792	74.06
448.013	76.06
448.234	93.06
448.455	88.06
448.675	90.06
448.896	90.06
449.117	75.06
449.338	87.06
449.559	84.06
449.779	91.06
450	88.06
450.221	86.06
450.442	71.06
450.662	84.06
450.883	83.06
451.104	92.06
451.324	96.06
451.545	79.06
451.766	76.06
451.986	85.06
452.207	89.06
452.428	93.06
452.648	71.06
452.869	82.06
453.089	93.06
453.31	86.06
453.53	80.06
453.751	85.06
453.971	86.06
454.192	90.06
454.412	91.06
454.633	104.06
454.853	94.06
455.073	101.06
455.294	91.06
455.514	99.06
455.734	64.06
455.955	93.06
456.175	80.06
456.395	95.06
456.616	77.06
456.836	76.06
457.056	80.06
457.276	86.06
457.497	85.06
457.717	74.06
457.937	79.06
458.157	83.06
458.377	74.06
458.598	86.06
458.818	91.06
459.038	104.06
459.258	77.06
459.478	84.06
459.698	88.06
459.918	86.06
460.138	88.06
460.358	93.06
460.578	81.06
460.798	84.06
461.018	101.06
461.238	94.06
461.458	104.06
461.678	94.06
461.898	100.06
462.118	86.06
462.338	93.06
462.558	69.06
462.777	85.06
462.997	92.06
463.217	70.06
463.437	94.06
463.657	93.06
463.876	89.06
464.096	87.06
464.316	102.06
464.536	98.06
464.755	83.06
464.975	95.06
465.195	88.06
465.414	91.06
465.634	90.06
465.854	86.06
466.073	84.06
466.293	77.06
466.512	91.06
466.732	95.06
466.951	94.06
467.171	80.06
467.391	91.06
467.61	100.06
467.829	88.06
468.049	85.06
468.268	72.06
468.488	85.06
468.707	81.06
468.927	83.06
469.146	92.06
469.365	88.06
469.585	91.06
469.804	99.06
470.023	85.06
470.243	106.06
470.462	85.06
470.681	93.06
470.901	91.06
471.12	86.06
471.339	80.06
471.558	94.06
471.777	91.06
471.997	91.06
472.216	83.06
472.435	88.06
472.654	83.06
472.873	90.06
473.092	100.06
473.311	77.06
473.53	86.06
473.749	81.06
473.968	98.06
474.187	98.06
474.406	98.06
474.625	95.06
474.844	106.06
475.063	78.06
475.282	75.06
475.501	82.06
475.72	91.06
475.939	88.06
476.158	92.06
476.377	88.06
476.596	90.06
476.814	99.06
477.033	101.06
477.252	86.06
477.471	98.06
477.69	74.06
477.908	78.06
478.127	89.06
478.346	105.06
478.564	96.06
478.783	104.06
479.002	95.06
479.22	75.06
479.439	98.06
479.658	92.06
479.876	90.06
480.095	84.06
480.313	77.06
480.532	86.06
480.751	88.06
480.969	91.06
481.188	99.06
481.406	88.06
481.624	92.06
481.843	90.06
482.061	83.06
482.28	94.06
482.498	93.06
482.717	81.06
482.935	72.06
483.153	75.06
483.372	89.06
483.59	83.06
483.808	100.06
484.027	92.06
484.245	97.06
484.463	84.06
484.681	105.06
484.9	92.06
485.118	94.06
485.336	84.06
485.554	94.06
485.772	91.06
485.99	91.06
486.209	93.06
486.427	97.06
486.645	87.06
486.863	96.06
487.081	101.06
487.299	100.06
487.517	111.06
487.735	94.06
487.953	97.06
488.171	93.06
488.389	84.06
488.607	83.06
488.825	83.06
489.043	82.06
489.261	84.06
489.479	101.06
489.696	93.06
489.914	87.06
490.132	102.06
490.35	91.06
490.568	87.06
490.786	86.06
491.003	113.06
491.221	86.06
491.439	76.06
491.657	102.06
491.874	108.06
492.092	97.06
492.31	83.06
492.527	114.06
492.745	87.06
492.963	102.06
493.18	103.06
493.398	97.06
493.615	84.06
493.833	96.06
494.05	100.06
494.268	98.06
494.485	90.06
494.703	86.06
494.92	101.06
495.138	92.06
495.355	86.06
495.573	102.06
495.79	104.06
496.008	115.06
496.225	111.06
496.442	91.06
496.66	88.06
496.877	86.06
497.094	99.06
497.312	98.06
497.529	91.06
497.746	101.06
497.963	101.06
498.181	95.06
498.398	92.06
498.615	91.06
498.832	91.06
499.049	102.06
499.267	110.06
499.484	96.06
499.701	111.06
499.918	127.06
500.135	106.06
500.352	107.06
500.569	124.06
500.786	107.06
501.003	114.06
501.22	111.06
501.437	108.06
501.654	103.06
501.871	107.06
502.088	98.06
502.305	102.06
502.522	102.06
502.739	107.06
502.956	91.06
503.172	106.06
503.389	91.06
503.606	87.06
503.823	99.06
504.04	91.06
504.256	111.06
504.473	98.06
504.69	104.06
504.907	103.06
505.123	105.06
505.34	84.06
505.557	85.06
505.773	95.06
505.99	93.06
506.207	81.06
506.423	85.06
506.64	84.06
506.856	92.06
507.073	103.06
507.289	94.06
507.506	102.06
507.722	80.06
507.939	96.06
508.155	96.06
508.372	84.06
508.588	98.06
508.805	92.06
509.021	85.06
509.238	96.06
509.454	84.06
509.67	95.06
509.887	98.06
510.103	89.06
510.319	78.06
510.536	80.06
510.752	96.06
510.968	82.06
511.184	99.06
511.401	100.06
511.617	96.06
511.833	80.06
512.049	93.06
512.265	91.06
512.481	94.06
512.698	95.06
512.914	100.06
513.13	86.06
513.346	100.06
513.562	101.06
513.778	85.06
513.994	87.06
514.21	92.06
514.426	99.06
514.642	102.06
514.858	102.06
515.074	88.06
515.29	101.06
515.506	80.06
515.721	84.06
515.937	91.06
516.153	94.06
516.369	85.06
516.585	90.06
516.801	99.06
517.016	100.06
517.232	86.06
517.448	90.06
517.664	79.06
517.879	92.06
518.095	109.06
518.311	93.06
518.527	97.06
518.742	86.06
518.958	109.06
519.173	102.06
519.389	98.06
519.605	79.06
519.82	97.06
520.036	90.06
520.251	107.06
520.467	84.06
520.682	83.06
520.898	92.06
521.113	99.06
521.329	88.06
521.544	91.06
521.76	94.06
521.975	93.06
522.19	102.06
522.406	87.06
522.621	95.06
522.836	73.06
523.052	88.06
523.267	101.06
523.482	98.06
523.698	97.06
523.913	93.06
524.128	88.06
524.343	95.06
524.559	98.06
524.774	98.06
524.989	103.06
525.204	99.06
525.419	95.06
525.634	103.06
525.849	88.06
526.064	87.06
526.28	92.06
526.495	92.06
526.71	101.06
526.925	100.06
527.14	87.06
527.355	103.06
527.57	87.06
527.785	104.06
527.999	90.06
528.214	88.06
528.429	85.06
528.644	92.06
528.859	105.06
529.074	103.06
529.289	99.06
529.503	84.06
529.718	99.06
529.933	87.06
530.148	90.06
530.363	90.06
530.577	94.06
530.792	79.06
531.007	81.06
531.221	94.06
531.436	75.06
531.651	91.06
531.865	103.06
532.08	94.06
532.295	92.06
532.509	90.06
532.724	98.06
532.938	85.06
533.153	89.06
533.367	105.06
533.582	87.06
533.796	90.06
534.011	104.06
534.225	101.06
534.44	88.06
534.654	92.06
534.868	95.06
535.083	100.06
535.297	85.06
535.511	92.06
535.726	107.06
535.94	98.06
536.154	99.06
536.369	87.06
536.583	103.06
536.797	89.06
537.011	101.06
537.225	84.06
537.44	84.06
537.654	94.06
537.868	91.06
538.082	90.06
538.296	78.06
538.51	100.06
538.724	94.06
538.938	98.06
539.153	83.06
539.367	89.06
539.581	84.06
539.795	88.06
540.009	89.06
540.222	81.06
540.436	94.06
540.65	88.06
540.864	77.06
541.078	93.06
541.292	94.06
541.506	95.06
541.72	101.06
541.934	96.06
542.147	85.06
542.361	91.06
542.575	82.06
542.789	94.06
543.002	90.06
543.216	102.06
543.43	77.06
543.644	96.06
543.857	107.06
544.071	93.06
544.285	82.06
544.498	97.06
544.712	94.06
544.925	86.06
545.139	103.06
545.352	91.06
545.566	107.06
545.779	103.06
545.993	76.06
546.206	94.06
546.42	90.06
546.633	109.06
546.847	94.06
547.06	81.06
547.274	87.06
547.487	94.06
547.7	96.06
547.914	83.06
548.127	76.06
548.34	80.06
548.554	81.06
548.767	80.06
548.98	96.06
549.193	83.06
549.407	101.06
549.62	104.06
549.833	78.06
550.046	76.06
550.259	80.06
550.473	94.06
550.686	105.06
550.899	88.06
551.112	90.06
551.325	89.06
551.538	103.06
551.751	96.06
551.964	82.06
552.177	109.06
552.39	90.06
552.603	88.06
552.816	85.06
553.029	94.06
553.242	93.06
553.455	79.06
553.667	82.06
553.88	84.06
554.093	104.06
554.306	92.06
554.519	90.06
554.732	90.06
554.944	83.06
555.157	104.06
555.37	85.06
555.583	89.06
555.795	93.06
556.008	104.06
556.221	102.06
556.433	98.06
556.646	91.06
556.859	95.06
557.071	91.06
557.284	95.06
557.496	96.06
557.709	95.06
557.921	78.06
558.134	93.06
558.346	86.06
558.559	87.06
558.771	77.06
558.984	77.06
559.196	101.06
559.409	91.06
559.621	87.06
559.833	100.06
560.046	82.06
560.258	84.06
560.47	90.06
560.683	94.06
560.895	75.06
561.107	95.06
561.32	100.06
561.532	90.06
561.744	90.06
561.956	85.06
562.168	93.06
562.381	95.06
562.593	84.06
562.805	91.06
563.017	94.06
563.229	91.06
563.441	98.06
563.653	81.06
563.865	88.06
564.077	94.06
564.289	97.06
564.501	92.06
564.713	89.06
564.925	100.06
565.137	84.06
565.349	101.06
565.561	96.06
565.773	99.06
565.985	87.06
566.197	93.06
566.408	101.06
566.62	96.06
566.832	98.06
567.044	80.06
567.255	93.06
567.467	90.06
567.679	93.06
567.891	93.06
568.102	88.06
568.314	96.06
568.526	87.06
568.737	103.06
568.949	86.06
569.161	93.06
569.372	89.06
569.584	86.06
569.795	99.06
570.007	83.06
570.218	75.06
570.43	78.06
570.641	99.06
570.853	75.06
571.064	101.06
571.276	92.06
571.487	101.06
571.698	103.06
571.91	84.06
572.121	96.06
572.333	90.06
572.544	86.06
572.755	83.06
572.966	104.06
573.178	87.06
573.389	101.06
573.6	100.06
573.811	87.06
574.023	83.06
574.234	81.06
574.445	104.06
574.656	97.06
574.867	90.06
575.078	93.06
575.289	95.06
575.501	75.06
575.712	82.06
575.923	95.06
576.134	98.06
576.345	77.06
576.556	111.06
576.767	104.06
576.978	74.06
577.188	85.06
577.399	92.06
577.61	86.06
577.821	97.06
578.032	86.06
578.243	89.06
578.454	88.06
578.665	107.06
578.875	92.06
579.086	96.06
579.297	89.06
579.508	83.06
579.718	107.06
579.929	95.06
580.14	93.06
580.35	87.06
580.561	82.06
580.772	84.06
580.982	82.06
581.193	93.06
581.403	75.06
581.614	97.06
581.825	86.06
582.035	83.06
582.246	91.06
582.456	93.06
582.667	95.06
582.877	94.06
583.087	97.06
583.298	93.06
583.508	107.06
583.719	102.06
583.929	97.06
584.139	95.06
584.35	83.06
584.56	76.06
584.77	77.06
584.981	83.06
585.191	79.06
585.401	75.06
585.611	93.06
585.821	94.06
586.032	97.06
586.242	91.06
586.452	95.06
586.662	84.06
586.872	88.06
587.082	94.06
587.292	91.06
587.502	91.06
587.713	84.06
587.923	82.06
588.133	88.06
588.343	83.06
588.553	80.06
588.762	101.06
588.972	95.06
589.182	93.06
589.392	83.06
589.602	84.06
589.812	91.06
590.022	99.06
590.232	97.06
590.441	90.06
590.651	88.06
590.861	86.06
591.071	89.06
591.281	85.06
591.49	92.06
591.7	98.06
591.91	98.06
592.119	87.06
592.329	92.06
592.539	79.06
592.748	98.06
592.958	98.06
593.167	92.06
593.377	86.06
593.587	94.06
593.796	93.06
594.006	101.06
594.215	90.06
594.424	80.06
594.634	93.06
594.843	87.06
595.053	89.06
595.262	100.06
595.472	92.06
595.681	93.06
595.89	90.06
596.1	80.06
596.309	83.06
596.518	86.06
596.727	109.06
596.937	88.06
597.146	90.06
597.355	92.06
597.564	92.06
597.774	82.06
597.983	92.06
598.192	102.06
598.401	76.06
598.61	80.06
598.819	89.06
599.028	92.06
599.237	96.06
599.446	90.06
599.655	106.06
599.864	86.06
600.073	91.06
600.282	90.06
600.491	81.06
600.7	62.06
600.909	96.06
601.118	106.06
601.327	91.06
601.536	79.06
601.745	93.06
601.953	79.06
602.162	102.06
602.371	98.06
602.58	79.06
602.789	87.06
602.997	79.06
603.206	89.06
603.415	76.06
603.623	83.06
603.832	85.06
604.041	77.06
604.249	107.06
604.458	87.06
604.666	86.06
604.875	85.06
605.084	77.06
605.292	84.06
605.501	77.06
605.709	92.06
605.918	86.06
606.126	90.06
606.334	82.06
606.543	95.06
606.751	98.06
606.96	88.06
607.168	90.06
607.376	83.06
607.585	83.06
607.793	89.06
608.001	78.06
608.21	90.06
608.418	88.06
608.626	87.06
608.834	95.06
609.043	83.06
609.251	96.06
609.459	74.06
609.667	116.06
609.875	82.06
610.083	88.06
610.291	82.06
610.499	99.06
610.707	92.06
610.916	91.06
611.124	95.06
611.332	91.06
611.54	90.06
611.748	89.06
611.955	86.06
612.163	90.06
612.371	102.06
612.579	93.06
612.787	87.06
612.995	95.06
613.203	95.06
613.411	72.06
613.618	85.06
613.826	79.06
614.034	83.06
614.242	92.06
614.449	95.06
614.657	90.06
614.865	80.06
615.072	89.06
615.28	77.06
615.488	95.06
615.695	87.06
615.903	86.06
616.111	86.06
616.318	90.06
616.526	89.06
616.733	82.06
616.941	96.06
617.148	75.06
617.356	90.06
617.563	76.06
617.771	75.06
617.978	76.06
618.185	82.06
618.393	94.06
618.6	96.06
618.807	89.06
619.015	92.06
619.222	88.06
619.429	91.06
619.637	80.06
619.844	86.06
620.051	94.06
620.258	94.06
620.466	86.06
620.673	94.06
620.88	92.06
621.087	89.06
621.294	79.06
621.501	87.06
621.708	89.06
621.915	93.06
622.122	79.06
622.329	93.06
622.536	89.06
622.743	82.06
622.95	90.06
623.157	89.06
623.364	95.06
623.571	86.06
623.778	91.06
623.985	90.06
624.192	86.06
624.399	84.06
624.606	72.06
624.812	80.06
625.019	86.06
625.226	97.06
625.433	80.06
625.639	71.06
625.846	92.06
626.053	87.06
626.259	97.06
626.466	93.06
626.673	86.06
626.879	89.06
627.086	91.06
627.293	95.06
627.499	85.06
627.706	90.06
627.912	86.06
628.119	98.06
628.325	76.06
628.532	74.06
628.738	74.06
628.945	82.06
629.151	93.06
629.357	85.06
629.564	83.06
629.77	91.06
629.976	85.06
630.183	90.06
630.389	87.06
630.595	87.06
630.802	78.06
631.008	87.06
631.214	97.06
631.42	91.06
631.627	86.06
631.833	84.06
632.039	80.06
632.245	86.06
632.451	86.06
632.657	93.06
632.863	89.06
633.069	84.06
633.275	84.06
633.481	85.06
633.688	90.06
633.893	84.06
634.099	96.06
634.305	88.06
634.511	90.06
634.717	87.06
634.923	85.06
635.129	71.06
635.335	87.06
635.541	101.06
635.747	82.06
635.952	79.06
636.158	83.06
636.364	94.06
636.57	95.06
636.775	87.06
636.981	83.06
637.187	98.06
637.392	76.06
637.598	88.06
637.804	99.06
638.009	89.06
638.215	95.06
638.421	92.06
638.626	103.06
638.832	82.06
639.037	93.06
639.243	85.06
639.448	95.06
639.654	76.06
639.859	91.06
640.065	90.06
640.27	98.06
640.475	87.06
640.681	82.06
640.886	84.06
641.091	74.06
641.297	83.06
641.502	87.06
641.707	87.06
641.913	93.06
642.118	104.06
642.323	84.06
642.528	76.06
642.733	88.06
642.939	88.06
643.144	93.06
643.349	76.06
643.554	79.06
643.759	78.06
643.964	78.06
644.169	77.06
644.374	82.06
644.579	79.06
644.784	78.06
644.989	92.06
645.194	85.06
645.399	91.06
645.604	96.06
645.809	83.06
646.014	70.06
646.219	77.06
646.423	89.06
646.628	82.06
646.833	80.06
647.038	91.06
647.243	82.06
647.447	92.06
647.652	83.06
647.857	86.06
648.062	95.06
648.266	96.06
648.471	94.06
648.676	89.06
648.88	88.06
649.085	75.06
649.289	74.06
649.494	84.06
649.698	88.06
649.903	91.06
650.107	80.06
650.312	93.06
650.516	79.06
650.721	75.06
650.925	85.06
651.13	81.06
651.334	93.06
651.539	85.06
651.743	84.06
651.947	93.06
652.152	98.06
652.356	85.06
652.56	92.06
652.764	89.06
652.969	95.06
653.173	75.06
653.377	87.06
653.581	86.06
653.785	78.06
653.99	88.06
654.194	81.06
654.398	84.06
654.602	94.06
654.806	83.06
655.01	99.06
655.214	74.06
655.418	78.06
655.622	85.06
655.826	90.06
656.03	78.06
656.234	75.06
656.438	82.06
656.642	82.06
656.846	87.06
657.049	95.06
657.253	83.06
657.457	85.06
657.661	80.06
657.865	85.06
658.068	93.06
658.272	88.06
658.476	79.06
658.68	75.06
658.883	70.06
659.087	81.06
659.291	93.06
659.494	84.06
659.698	81.06
659.901	79.06
660.105	82.06
660.309	83.06
660.512	85.06
660.716	77.06
660.919	80.06
661.123	80.06
661.326	95.06
661.53	86.06
661.733	93.06
661.936	81.06
662.14	84.06
662.343	78.06
662.546	73.06
662.75	91.06
662.953	89.06
663.156	91.06
663.36	92.06
663.563	80.06
663.766	85.06
663.969	96.06
664.173	94.06
664.376	99.06
664.579	83.06
664.782	90.06
664.985	88.06
665.188	91.06
665.391	83.06
665.594	75.06
665.797	83.06
666	79.06
666.203	90.06
666.406	89.06
666.609	87.06
666.812	93.06
667.015	77.06
667.218	75.06
667.421	91.06
667.624	91.06
667.827	79.06
668.03	85.06
668.232	80.06
668.435	84.06
668.638	88.06
668.841	97.06
669.043	93.06
669.246	86.06
669.449	80.06
669.651	81.06
669.854	85.06
670.057	87.06
670.259	81.06
670.462	88.06
670.665	80.06
670.867	80.06
671.07	85.06
671.272	78.06
671.475	80.06
671.677	88.06
671.88	76.06
672.082	82.06
672.284	83.06
672.487	84.06
672.689	81.06
672.892	98.06
