Data from Ni(NO3)2@0.5M.TitratingCurve.Agarose3%dH2O.NegLispCup.LampEnergy10.LIBS07252019_HRD10591_17-58-16-564.txt Node
Date: Thu Jul 25 17:58:16 EDT 2019
User: cochatt
Spectrometer: HR+D1059
Trigger mode: 1
Integration Time (sec): 1.000000E-1
Scans to average: 1
Electric dark correction enabled: true
Nonlinearity correction enabled: false
Boxcar width: 0
XAxis mode: Wavelengths
Number of Pixels in Spectrum: 2048
>>>>>Begin Spectral Data<<<<<
223.165	-12.5
223.4	-12.5
223.635	-12.5
223.869	-3.5
224.104	-24.5
224.338	-25.5
224.573	-11.5
224.808	-12.5
225.042	-12.5
225.277	-1.5
225.511	3.5
225.746	-9.5
225.98	5.5
226.215	14.5
226.449	16.5
226.683	20.5
226.918	28.5
227.152	24.5
227.387	42.5
227.621	31.5
227.856	44.5
228.09	51.5
228.324	45.5
228.559	47.5
228.793	90.5
229.027	134.5
229.262	156.5
229.496	153.5
229.73	164.5
229.964	193.5
230.199	202.5
230.433	211.5
230.667	203.5
230.901	201.5
231.136	179.5
231.37	186.5
231.604	207.5
231.838	225.5
232.072	234.5
232.306	219.5
232.541	201.5
232.775	201.5
233.009	195.5
233.243	194.5
233.477	162.5
233.711	200.5
233.945	190.5
234.179	187.5
234.413	205.5
234.647	206.5
234.881	195.5
235.115	192.5
235.349	182.5
235.583	173.5
235.817	191.5
236.051	195.5
236.285	203.5
236.519	177.5
236.753	189.5
236.987	200.5
237.221	206.5
237.455	204.5
237.689	209.5
237.922	211.5
238.156	197.5
238.39	210.5
238.624	205.5
238.858	194.5
239.091	220.5
239.325	211.5
239.559	227.5
239.793	248.5
240.027	241.5
240.26	231.5
240.494	225.5
240.728	222.5
240.961	209.5
241.195	231.5
241.429	236.5
241.662	261.5
241.896	268.5
242.13	266.5
242.363	245.5
242.597	254.5
242.83	261.5
243.064	239.5
243.298	244.5
243.531	253.5
243.765	249.5
243.998	266.5
244.232	285.5
244.465	275.5
244.699	271.5
244.932	272.5
245.166	279.5
245.399	285.5
245.633	269.5
245.866	275.5
246.099	290.5
246.333	294.5
246.566	282.5
246.8	284.5
247.033	281.5
247.266	284.5
247.5	292.5
247.733	297.5
247.966	298.5
248.2	305.5
248.433	306.5
248.666	326.5
248.899	301.5
249.133	333.5
249.366	311.5
249.599	329.5
249.832	319.5
250.066	336.5
250.299	347.5
250.532	352.5
250.765	326.5
250.998	356.5
251.231	355.5
251.465	381.5
251.698	360.5
251.931	357.5
252.164	358.5
252.397	374.5
252.63	375.5
252.863	371.5
253.096	351.5
253.329	355.5
253.562	374.5
253.795	397.5
254.028	362.5
254.261	369.5
254.494	401.5
254.727	394.5
254.96	399.5
255.193	411.5
255.426	398.5
255.659	419.5
255.892	407.5
256.124	418.5
256.357	407.5
256.59	395.5
256.823	432.5
257.056	426.5
257.289	439.5
257.521	425.5
257.754	417.5
257.987	451.5
258.22	449.5
258.452	457.5
258.685	452.5
258.918	454.5
259.151	441.5
259.383	474.5
259.616	439.5
259.849	451.5
260.081	478.5
260.314	461.5
260.547	465.5
260.779	476.5
261.012	469.5
261.244	485.5
261.477	497.5
261.71	464.5
261.942	486.5
262.175	478.5
262.407	513.5
262.64	489.5
262.872	502.5
263.105	492.5
263.337	499.5
263.57	507.5
263.802	507.5
264.035	516.5
264.267	509.5
264.499	513.5
264.732	533.5
264.964	511.5
265.197	530.5
265.429	525.5
265.661	515.5
265.894	516.5
266.126	539.5
266.358	542.5
266.591	541.5
266.823	546.5
267.055	572.5
267.287	546.5
267.52	565.5
267.752	542.5
267.984	567.5
268.216	578.5
268.448	536.5
268.681	551.5
268.913	590.5
269.145	578.5
269.377	588.5
269.609	575.5
269.841	558.5
270.073	585.5
270.306	571.5
270.538	575.5
270.77	595.5
271.002	595.5
271.234	577.5
271.466	573.5
271.698	585.5
271.93	578.5
272.162	600.5
272.394	599.5
272.626	592.5
272.858	581.5
273.09	611.5
273.322	601.5
273.553	605.5
273.785	605.5
274.017	605.5
274.249	598.5
274.481	639.5
274.713	613.5
274.945	629.5
275.176	624.5
275.408	622.5
275.64	621.5
275.872	622.5
276.104	620.5
276.335	619.5
276.567	599.5
276.799	655.5
277.031	652.5
277.262	651.5
277.494	636.5
277.726	648.5
277.957	647.5
278.189	652.5
278.421	643.5
278.652	671.5
278.884	663.5
279.115	676.5
279.347	677.5
279.579	652.5
279.81	653.5
280.042	659.5
280.273	679.5
280.505	680.5
280.736	679.5
280.968	698.5
281.199	674.5
281.431	682.5
281.662	663.5
281.894	673.5
282.125	659.5
282.356	663.5
282.588	674.5
282.819	678.5
283.051	686.5
283.282	682.5
283.513	696.5
283.745	728.5
283.976	697.5
284.207	701.5
284.439	705.5
284.67	708.5
284.901	726.5
285.132	733.5
285.364	742.5
285.595	732.5
285.826	716.5
286.057	696.5
286.288	710.5
286.52	722.5
286.751	723.5
286.982	732.5
287.213	721.5
287.444	723.5
287.675	720.5
287.906	750.5
288.138	729.5
288.369	732.5
288.6	737.5
288.831	723.5
289.062	744.5
289.293	762.5
289.524	733.5
289.755	747.5
289.986	732.5
290.217	762.5
290.448	769.5
290.679	763.5
290.91	762.5
291.141	774.5
291.371	754.5
291.602	750.5
291.833	722.5
292.064	761.5
292.295	769.5
292.526	766.5
292.757	761.5
292.987	724.5
293.218	700.5
293.449	748.5
293.68	754.5
293.91	761.5
294.141	759.5
294.372	773.5
294.603	753.5
294.833	760.5
295.064	773.5
295.295	786.5
295.525	766.5
295.756	779.5
295.987	765.5
296.217	789.5
296.448	771.5
296.679	771.5
296.909	787.5
297.14	780.5
297.37	817.5
297.601	783.5
297.831	789.5
298.062	807.5
298.292	813.5
298.523	822.5
298.753	821.5
298.984	810.5
299.214	818.5
299.445	795.5
299.675	845.5
299.905	843.5
300.136	846.5
300.366	866.5
300.597	848.5
300.827	870.5
301.057	839.5
301.288	854.5
301.518	828.5
301.748	865.5
301.979	850.5
302.209	846.5
302.439	861.5
302.669	870.5
302.9	847.5
303.13	859.5
303.36	871.5
303.59	858.5
303.82	851.5
304.051	910.5
304.281	875.5
304.511	897.5
304.741	881.5
304.971	865.5
305.201	870.5
305.431	906.5
305.661	907.5
305.891	887.5
306.121	892.5
306.352	887.5
306.582	915.5
306.812	869.5
307.042	867.5
307.272	883.5
307.502	887.5
307.731	902.5
307.961	885.5
308.191	918.5
308.421	900.5
308.651	857.5
308.881	898.5
309.111	881.5
309.341	884.5
309.571	901.5
309.8	901.5
310.03	927.5
310.26	947.5
310.49	978.5
310.72	937.5
310.949	931.5
311.179	902.5
311.409	931.5
311.639	947.5
311.868	923.5
312.098	920.5
312.328	949.5
312.557	930.5
312.787	959.5
313.017	953.5
313.246	955.5
313.476	978.5
313.706	985.5
313.935	965.5
314.165	974.5
314.394	974.5
314.624	992.5
314.853	973.5
315.083	978.5
315.312	981.5
315.542	998.5
315.771	985.5
316.001	1009.5
316.23	979.5
316.46	1002.5
316.689	982.5
316.919	1003.5
317.148	998.5
317.377	986.5
317.607	1037.5
317.836	1011.5
318.065	1021.5
318.295	1033.5
318.524	1027.5
318.753	1018.5
318.983	1058.5
319.212	1014.5
319.441	1044.5
319.67	1064.5
319.9	1031.5
320.129	1034.5
320.358	1045.5
320.587	1053.5
320.816	1062.5
321.046	1066.5
321.275	1091.5
321.504	1045.5
321.733	1081.5
321.962	1110.5
322.191	1107.5
322.42	1090.5
322.649	1136.5
322.878	1105.5
323.108	1111.5
323.337	1124.5
323.566	1114.5
323.795	1124.5
324.024	1167.5
324.253	1117.5
324.482	1111.5
324.71	1148.5
324.939	1115.5
325.168	1131.5
325.397	1134.5
325.626	1151.5
325.855	1171.5
326.084	1125.5
326.313	1171.5
326.542	1148.5
326.77	1160.5
326.999	1163.5
327.228	1150.5
327.457	1192.5
327.686	1202.5
327.914	1199.5
328.143	1164.5
328.372	1207.5
328.6	1173.5
328.829	1192.5
329.058	1177.5
329.287	1207.5
329.515	1187.5
329.744	1222.5
329.972	1210.5
330.201	1223.5
330.43	1243.5
330.658	1180.5
330.887	1236.5
331.115	1228.5
331.344	1246.5
331.572	1213.5
331.801	1225.5
332.03	1275.5
332.258	1256.5
332.486	1288.5
332.715	1267.5
332.943	1235.5
333.172	1291.5
333.4	1249.5
333.629	1296.5
333.857	1290.5
334.085	1302.5
334.314	1308.5
334.542	1313.5
334.771	1310.5
334.999	1309.5
335.227	1322.5
335.455	1313.5
335.684	1320.5
335.912	1356.5
336.14	1337.5
336.369	1358.5
336.597	1374.5
336.825	1375.5
337.053	1373.5
337.281	1370.5
337.51	1350.5
337.738	1361.5
337.966	1362.5
338.194	1380.5
338.422	1349.5
338.65	1296.5
338.878	1340.5
339.106	1351.5
339.334	1328.5
339.562	1332.5
339.79	1313.5
340.018	1313.5
340.246	1310.5
340.474	1309.5
340.702	1330.5
340.93	1302.5
341.158	1322.5
341.386	1332.5
341.614	1391.5
341.842	1342.5
342.07	1315.5
342.298	1308.5
342.526	1330.5
342.754	1314.5
342.981	1306.5
343.209	1299.5
343.437	1341.5
343.665	1331.5
343.893	1396.5
344.12	1339.5
344.348	1371.5
344.576	1387.5
344.804	1390.5
345.031	1352.5
345.259	1337.5
345.487	1316.5
345.714	1338.5
345.942	1351.5
346.17	1377.5
346.397	1330.5
346.625	1268.5
346.853	1269.5
347.08	1319.5
347.308	1281.5
347.535	1297.5
347.763	1282.5
347.99	1255.5
348.218	1273.5
348.445	1278.5
348.673	1288.5
348.9	1266.5
349.128	1266.5
349.355	1281.5
349.583	1337.5
349.81	1276.5
350.037	1271.5
350.265	1237.5
350.492	1260.5
350.72	1274.5
350.947	1301.5
351.174	1295.5
351.402	1302.5
351.629	1281.5
351.856	1309.5
352.083	1281.5
352.311	1317.5
352.538	1333.5
352.765	1324.5
352.992	1246.5
353.22	1246.5
353.447	1230.5
353.674	1244.5
353.901	1209.5
354.128	1235.5
354.355	1249.5
354.583	1241.5
354.81	1226.5
355.037	1239.5
355.264	1244.5
355.491	1249.5
355.718	1254.5
355.945	1241.5
356.172	1225.5
356.399	1236.5
356.626	1268.5
356.853	1267.5
357.08	1257.5
357.307	1266.5
357.534	1239.5
357.761	1267.5
357.988	1232.5
358.215	1256.5
358.441	1230.5
358.668	1237.5
358.895	1231.5
359.122	1233.5
359.349	1230.5
359.576	1250.5
359.802	1258.5
360.029	1246.5
360.256	1244.5
360.483	1236.5
360.709	1234.5
360.936	1228.5
361.163	1271.5
361.39	1266.5
361.616	1277.5
361.843	1291.5
362.07	1326.5
362.296	1308.5
362.523	1269.5
362.749	1252.5
362.976	1249.5
363.203	1280.5
363.429	1249.5
363.656	1233.5
363.882	1269.5
364.109	1252.5
364.335	1221.5
364.562	1276.5
364.788	1263.5
365.015	1282.5
365.241	1288.5
365.468	1253.5
365.694	1241.5
365.92	1239.5
366.147	1277.5
366.373	1271.5
366.599	1259.5
366.826	1245.5
367.052	1249.5
367.278	1291.5
367.505	1296.5
367.731	1252.5
367.957	1280.5
368.184	1294.5
368.41	1276.5
368.636	1273.5
368.862	1306.5
369.089	1258.5
369.315	1318.5
369.541	1268.5
369.767	1289.5
369.993	1290.5
370.219	1287.5
370.445	1309.5
370.672	1302.5
370.898	1324.5
371.124	1286.5
371.35	1309.5
371.576	1294.5
371.802	1301.5
372.028	1321.5
372.254	1353.5
372.48	1339.5
372.706	1337.5
372.932	1322.5
373.158	1323.5
373.384	1318.5
373.61	1272.5
373.835	1327.5
374.061	1326.5
374.287	1340.5
374.513	1302.5
374.739	1349.5
374.965	1308.5
375.191	1341.5
375.416	1298.5
375.642	1300.5
375.868	1340.5
376.094	1312.5
376.319	1270.5
376.545	1302.5
376.771	1275.5
376.997	1309.5
377.222	1319.5
377.448	1282.5
377.674	1301.5
377.899	1289.5
378.125	1307.5
378.35	1309.5
378.576	1294.5
378.802	1275.5
379.027	1262.5
379.253	1297.5
379.478	1262.5
379.704	1285.5
379.929	1268.5
380.155	1279.5
380.38	1266.5
380.606	1299.5
380.831	1287.5
381.057	1287.5
381.282	1310.5
381.507	1295.5
381.733	1314.5
381.958	1282.5
382.184	1280.5
382.409	1308.5
382.634	1296.5
382.86	1322.5
383.085	1317.5
383.31	1307.5
383.535	1317.5
383.761	1335.5
383.986	1309.5
384.211	1344.5
384.436	1341.5
384.662	1363.5
384.887	1331.5
385.112	1339.5
385.337	1357.5
385.562	1384.5
385.787	1381.5
386.013	1396.5
386.238	1378.5
386.463	1389.5
386.688	1409.5
386.913	1377.5
387.138	1386.5
387.363	1397.5
387.588	1447.5
387.813	1411.5
388.038	1384.5
388.263	1395.5
388.488	1386.5
388.713	1421.5
388.938	1431.5
389.163	1425.5
389.387	1414.5
389.612	1395.5
389.837	1391.5
390.062	1373.5
390.287	1421.5
390.512	1402.5
390.736	1420.5
390.961	1427.5
391.186	1399.5
391.411	1408.5
391.636	1445.5
391.86	1454.5
392.085	1439.5
392.31	1430.5
392.534	1416.5
392.759	1457.5
392.984	1473.5
393.208	1432.5
393.433	1441.5
393.658	1437.5
393.882	1413.5
394.107	1437.5
394.331	1451.5
394.556	1425.5
394.78	1446.5
395.005	1460.5
395.229	1438.5
395.454	1440.5
395.678	1487.5
395.903	1477.5
396.127	1456.5
396.352	1453.5
396.576	1455.5
396.801	1463.5
397.025	1490.5
397.249	1507.5
397.474	1478.5
397.698	1498.5
397.922	1513.5
398.147	1492.5
398.371	1518.5
398.595	1505.5
398.82	1540.5
399.044	1549.5
399.268	1598.5
399.492	1602.5
399.717	1669.5
399.941	1682.5
400.165	1676.5
400.389	1630.5
400.613	1609.5
400.837	1584.5
401.062	1625.5
401.286	1589.5
401.51	1522.5
401.734	1563.5
401.958	1606.5
402.182	1581.5
402.406	1570.5
402.63	1571.5
402.854	1557.5
403.078	1578.5
403.302	1543.5
403.526	1611.5
403.75	1526.5
403.974	1561.5
404.198	1573.5
404.422	1556.5
404.645	1548.5
404.869	1548.5
405.093	1590.5
405.317	1590.5
405.541	1605.5
405.765	1602.5
405.988	1614.5
406.212	1627.5
406.436	1597.5
406.66	1680.5
406.883	1634.5
407.107	1650.5
407.331	1676.5
407.555	1735.5
407.778	1672.5
408.002	1703.5
408.226	1678.5
408.449	1695.5
408.673	1662.5
408.896	1711.5
409.12	1698.5
409.344	1678.5
409.567	1669.5
409.791	1645.5
410.014	1647.5
410.238	1635.5
410.461	1644.5
410.685	1637.5
410.908	1631.5
411.132	1604.5
411.355	1573.5
411.578	1609.5
411.802	1623.5
412.025	1628.5
412.249	1611.5
412.472	1569.5
412.695	1621.5
412.919	1579.5
413.142	1611.5
413.365	1574.5
413.589	1592.5
413.812	1545.5
414.035	1540.5
414.258	1527.5
414.482	1559.5
414.705	1557.5
414.928	1589.5
415.151	1597.5
415.374	1537.5
415.597	1526.5
415.821	1537.5
416.044	1506.5
416.267	1501.5
416.49	1515.5
416.713	1522.5
416.936	1522.5
417.159	1524.5
417.382	1526.5
417.605	1477.5
417.828	1518.5
418.051	1500.5
418.274	1504.5
418.497	1463.5
418.72	1507.5
418.943	1502.5
419.166	1591.5
419.389	1653.5
419.611	1634.5
419.834	1577.5
420.057	1590.5
420.28	1528.5
420.503	1455.5
420.726	1514.5
420.948	1503.5
421.171	1514.5
421.394	1486.5
421.617	1500.5
421.839	1540.5
422.062	1539.5
422.285	1491.5
422.507	1495.5
422.73	1492.5
422.953	1497.5
423.175	1525.5
423.398	1509.5
423.621	1475.5
423.843	1506.5
424.066	1537.5
424.288	1490.5
424.511	1507.5
424.733	1505.5
424.956	1469.5
425.178	1499.5
425.401	1477.5
425.623	1526.5
425.846	1500.5
426.068	1527.5
426.291	1462.5
426.513	1491.5
426.735	1491.5
426.958	1543.5
427.18	1481.5
427.402	1504.5
427.625	1517.5
427.847	1493.5
428.069	1494.5
428.292	1537.5
428.514	1466.5
428.736	1485.5
428.958	1518.5
429.181	1474.5
429.403	1468.5
429.625	1506.5
429.847	1498.5
430.069	1495.5
430.292	1490.5
430.514	1487.5
430.736	1491.5
430.958	1495.5
431.18	1483.5
431.402	1461.5
431.624	1465.5
431.846	1497.5
432.068	1473.5
432.29	1524.5
432.512	1496.5
432.734	1523.5
432.956	1485.5
433.178	1537.5
433.4	1560.5
433.622	1551.5
433.844	1558.5
434.066	1535.5
434.287	1536.5
434.509	1514.5
434.731	1514.5
434.953	1491.5
435.175	1551.5
435.397	1580.5
435.618	1503.5
435.84	1510.5
436.062	1505.5
436.284	1497.5
436.505	1495.5
436.727	1476.5
436.949	1487.5
437.17	1492.5
437.392	1491.5
437.614	1469.5
437.835	1447.5
438.057	1458.5
438.278	1420.5
438.5	1482.5
438.721	1452.5
438.943	1458.5
439.165	1467.5
439.386	1449.5
439.608	1461.5
439.829	1455.5
440.05	1457.5
440.272	1469.5
440.493	1490.5
440.715	1500.5
440.936	1491.5
441.158	1486.5
441.379	1469.5
441.6	1550.5
441.822	1506.5
442.043	1515.5
442.264	1542.5
442.486	1506.5
442.707	1495.5
442.928	1550.5
443.149	1543.5
443.371	1565.5
443.592	1622.5
443.813	1544.5
444.034	1503.5
444.255	1561.5
444.476	1554.5
444.698	1568.5
444.919	1594.5
445.14	1659.5
445.361	1614.5
445.582	1591.5
445.803	1516.5
446.024	1523.5
446.245	1518.5
446.466	1510.5
446.687	1448.5
446.908	1470.5
447.129	1455.5
447.35	1437.5
447.571	1424.5
447.792	1443.5
448.013	1414.5
448.234	1408.5
448.455	1393.5
448.675	1410.5
448.896	1386.5
449.117	1393.5
449.338	1381.5
449.559	1414.5
449.779	1415.5
450	1366.5
450.221	1417.5
450.442	1397.5
450.662	1385.5
450.883	1411.5
451.104	1411.5
451.324	1365.5
451.545	1407.5
451.766	1377.5
451.986	1373.5
452.207	1365.5
452.428	1365.5
452.648	1362.5
452.869	1403.5
453.089	1330.5
453.31	1364.5
453.53	1316.5
453.751	1353.5
453.971	1349.5
454.192	1357.5
454.412	1397.5
454.633	1356.5
454.853	1373.5
455.073	1358.5
455.294	1357.5
455.514	1344.5
455.734	1397.5
455.955	1395.5
456.175	1358.5
456.395	1345.5
456.616	1317.5
456.836	1319.5
457.056	1344.5
457.276	1320.5
457.497	1362.5
457.717	1384.5
457.937	1386.5
458.157	1393.5
458.377	1351.5
458.598	1376.5
458.818	1385.5
459.038	1369.5
459.258	1405.5
459.478	1454.5
459.698	1569.5
459.918	1582.5
460.138	1524.5
460.358	1537.5
460.578	1535.5
460.798	1590.5
461.018	1562.5
461.238	1553.5
461.458	1549.5
461.678	1542.5
461.898	1561.5
462.118	1537.5
462.338	1563.5
462.558	1604.5
462.777	1637.5
462.997	1642.5
463.217	1650.5
463.437	1719.5
463.657	1656.5
463.876	1625.5
464.096	1610.5
464.316	1597.5
464.536	1595.5
464.755	1557.5
464.975	1550.5
465.195	1547.5
465.414	1517.5
465.634	1553.5
465.854	1478.5
466.073	1474.5
466.293	1462.5
466.512	1448.5
466.732	1460.5
466.951	1472.5
467.171	1445.5
467.391	1469.5
467.61	1442.5
467.829	1441.5
468.049	1457.5
468.268	1408.5
468.488	1420.5
468.707	1391.5
468.927	1427.5
469.146	1435.5
469.365	1462.5
469.585	1448.5
469.804	1423.5
470.023	1450.5
470.243	1443.5
470.462	1429.5
470.681	1430.5
470.901	1421.5
471.12	1435.5
471.339	1448.5
471.558	1437.5
471.777	1458.5
471.997	1467.5
472.216	1468.5
472.435	1453.5
472.654	1439.5
472.873	1458.5
473.092	1412.5
473.311	1437.5
473.53	1481.5
473.749	1453.5
473.968	1494.5
474.187	1459.5
474.406	1444.5
474.625	1441.5
474.844	1527.5
475.063	1483.5
475.282	1509.5
475.501	1511.5
475.72	1560.5
475.939	1529.5
476.158	1498.5
476.377	1546.5
476.596	1513.5
476.814	1553.5
477.033	1556.5
477.252	1568.5
477.471	1598.5
477.69	1592.5
477.908	1602.5
478.127	1602.5
478.346	1609.5
478.564	1649.5
478.783	1658.5
479.002	1711.5
479.22	1723.5
479.439	1757.5
479.658	1697.5
479.876	1703.5
480.095	1668.5
480.313	1706.5
480.532	1714.5
480.751	1728.5
480.969	1703.5
481.188	1721.5
481.406	1719.5
481.624	1751.5
481.843	1693.5
482.061	1690.5
482.28	1705.5
482.498	1699.5
482.717	1720.5
482.935	1729.5
483.153	1761.5
483.372	1805.5
483.59	1851.5
483.808	1761.5
484.027	1764.5
484.245	1793.5
484.463	1733.5
484.681	1770.5
484.9	1774.5
485.118	1763.5
485.336	1764.5
485.554	1807.5
485.772	1774.5
485.99	1770.5
486.209	1765.5
486.427	1779.5
486.645	1822.5
486.863	1798.5
487.081	1792.5
487.299	1782.5
487.517	1784.5
487.735	1822.5
487.953	1835.5
488.171	1848.5
488.389	1814.5
488.607	1806.5
488.825	1804.5
489.043	1776.5
489.261	1790.5
489.479	1760.5
489.696	1811.5
489.914	1815.5
490.132	1804.5
490.35	1799.5
490.568	1801.5
490.786	1802.5
491.003	1817.5
491.221	1832.5
491.439	1853.5
491.657	1856.5
491.874	1833.5
492.092	1894.5
492.31	1886.5
492.527	1870.5
492.745	1837.5
492.963	1839.5
493.18	1847.5
493.398	1889.5
493.615	1902.5
493.833	1843.5
494.05	1892.5
494.268	1902.5
494.485	1855.5
494.703	1889.5
494.92	1889.5
495.138	1887.5
495.355	1870.5
495.573	1885.5
495.79	1886.5
496.008	1913.5
496.225	1915.5
496.442	1957.5
496.66	1964.5
496.877	1957.5
497.094	1966.5
497.312	1963.5
497.529	1993.5
497.746	2038.5
497.963	2018.5
498.181	2058.5
498.398	2078.5
498.615	2139.5
498.832	2134.5
499.049	2175.5
499.267	2177.5
499.484	2251.5
499.701	2305.5
499.918	2338.5
500.135	2375.5
500.352	2507.5
500.569	2406.5
500.786	2428.5
501.003	2450.5
501.22	2382.5
501.437	2380.5
501.654	2319.5
501.871	2284.5
502.088	2255.5
502.305	2207.5
502.522	2190.5
502.739	2118.5
502.956	2073.5
503.172	2081.5
503.389	1997.5
503.606	1999.5
503.823	1978.5
504.04	1946.5
504.256	1930.5
504.473	1898.5
504.69	1896.5
504.907	1895.5
505.123	1882.5
505.34	1828.5
505.557	1813.5
505.773	1796.5
505.99	1786.5
506.207	1781.5
506.423	1734.5
506.64	1747.5
506.856	1715.5
507.073	1708.5
507.289	1769.5
507.506	1690.5
507.722	1675.5
507.939	1666.5
508.155	1663.5
508.372	1687.5
508.588	1711.5
508.805	1661.5
509.021	1628.5
509.238	1638.5
509.454	1612.5
509.67	1596.5
509.887	1561.5
510.103	1609.5
510.319	1577.5
510.536	1609.5
510.752	1563.5
510.968	1596.5
511.184	1588.5
511.401	1569.5
511.617	1570.5
511.833	1552.5
512.049	1542.5
512.265	1569.5
512.481	1530.5
512.698	1505.5
512.914	1537.5
513.13	1576.5
513.346	1558.5
513.562	1498.5
513.778	1550.5
513.994	1525.5
514.21	1522.5
514.426	1532.5
514.642	1518.5
514.858	1541.5
515.074	1557.5
515.29	1531.5
515.506	1524.5
515.721	1572.5
515.937	1555.5
516.153	1561.5
516.369	1557.5
516.585	1600.5
516.801	1563.5
517.016	1566.5
517.232	1600.5
517.448	1589.5
517.664	1626.5
517.879	1594.5
518.095	1596.5
518.311	1594.5
518.527	1542.5
518.742	1538.5
518.958	1572.5
519.173	1522.5
519.389	1514.5
519.605	1517.5
519.82	1518.5
520.036	1487.5
520.251	1478.5
520.467	1489.5
520.682	1468.5
520.898	1467.5
521.113	1450.5
521.329	1459.5
521.544	1467.5
521.76	1436.5
521.975	1454.5
522.19	1453.5
522.406	1416.5
522.621	1451.5
522.836	1405.5
523.052	1405.5
523.267	1446.5
523.482	1441.5
523.698	1431.5
523.913	1425.5
524.128	1420.5
524.343	1397.5
524.559	1386.5
524.774	1423.5
524.989	1421.5
525.204	1433.5
525.419	1402.5
525.634	1400.5
525.849	1379.5
526.064	1376.5
526.28	1408.5
526.495	1392.5
526.71	1384.5
526.925	1378.5
527.14	1381.5
527.355	1347.5
527.57	1346.5
527.785	1321.5
527.999	1350.5
528.214	1361.5
528.429	1371.5
528.644	1369.5
528.859	1372.5
529.074	1359.5
529.289	1373.5
529.503	1342.5
529.718	1345.5
529.933	1341.5
530.148	1321.5
530.363	1318.5
530.577	1349.5
530.792	1332.5
531.007	1344.5
531.221	1306.5
531.436	1342.5
531.651	1338.5
531.865	1308.5
532.08	1305.5
532.295	1313.5
532.509	1330.5
532.724	1291.5
532.938	1262.5
533.153	1286.5
533.367	1286.5
533.582	1327.5
533.796	1294.5
534.011	1302.5
534.225	1262.5
534.44	1269.5
534.654	1267.5
534.868	1292.5
535.083	1288.5
535.297	1295.5
535.511	1267.5
535.726	1288.5
535.94	1287.5
536.154	1238.5
536.369	1234.5
536.583	1228.5
536.797	1231.5
537.011	1277.5
537.225	1278.5
537.44	1219.5
537.654	1216.5
537.868	1231.5
538.082	1210.5
538.296	1232.5
538.51	1238.5
538.724	1198.5
538.938	1199.5
539.153	1182.5
539.367	1212.5
539.581	1213.5
539.795	1171.5
540.009	1197.5
540.222	1156.5
540.436	1178.5
540.65	1210.5
540.864	1197.5
541.078	1228.5
541.292	1177.5
541.506	1217.5
541.72	1228.5
541.934	1180.5
542.147	1219.5
542.361	1149.5
542.575	1175.5
542.789	1190.5
543.002	1166.5
543.216	1153.5
543.43	1185.5
543.644	1143.5
543.857	1171.5
544.071	1177.5
544.285	1177.5
544.498	1165.5
544.712	1189.5
544.925	1177.5
545.139	1179.5
545.352	1164.5
545.566	1178.5
545.779	1173.5
545.993	1182.5
546.206	1168.5
546.42	1167.5
546.633	1157.5
546.847	1166.5
547.06	1162.5
547.274	1208.5
547.487	1191.5
547.7	1167.5
547.914	1163.5
548.127	1194.5
548.34	1182.5
548.554	1147.5
548.767	1143.5
548.98	1141.5
549.193	1140.5
549.407	1115.5
549.62	1101.5
549.833	1143.5
550.046	1124.5
550.259	1137.5
550.473	1109.5
550.686	1125.5
550.899	1118.5
551.112	1142.5
551.325	1105.5
551.538	1105.5
551.751	1119.5
551.964	1108.5
552.177	1162.5
552.39	1120.5
552.603	1125.5
552.816	1128.5
553.029	1126.5
553.242	1103.5
553.455	1102.5
553.667	1147.5
553.88	1142.5
554.093	1090.5
554.306	1059.5
554.519	1066.5
554.732	1101.5
554.944	1080.5
555.157	1058.5
555.37	1057.5
555.583	1024.5
555.795	1029.5
556.008	1018.5
556.221	1050.5
556.433	1009.5
556.646	1037.5
556.859	1011.5
557.071	1035.5
557.284	1017.5
557.496	1010.5
557.709	1026.5
557.921	1019.5
558.134	1025.5
558.346	1010.5
558.559	1000.5
558.771	989.5
558.984	1010.5
559.196	977.5
559.409	985.5
559.621	972.5
559.833	1018.5
560.046	983.5
560.258	975.5
560.47	955.5
560.683	969.5
560.895	985.5
561.107	969.5
561.32	957.5
561.532	941.5
561.744	957.5
561.956	955.5
562.168	947.5
562.381	977.5
562.593	951.5
562.805	962.5
563.017	953.5
563.229	939.5
563.441	954.5
563.653	970.5
563.865	985.5
564.077	988.5
564.289	977.5
564.501	984.5
564.713	981.5
564.925	988.5
565.137	988.5
565.349	995.5
565.561	986.5
565.773	982.5
565.985	1014.5
566.197	1010.5
566.408	1058.5
566.62	1014.5
566.832	1031.5
567.044	1023.5
567.255	1057.5
567.467	1057.5
567.679	1062.5
567.891	1031.5
568.102	1010.5
568.314	1028.5
568.526	1002.5
568.737	972.5
568.949	952.5
569.161	962.5
569.372	935.5
569.584	924.5
569.795	902.5
570.007	919.5
570.218	921.5
570.43	870.5
570.641	875.5
570.853	878.5
571.064	870.5
571.276	842.5
571.487	831.5
571.698	856.5
571.91	845.5
572.121	838.5
572.333	819.5
572.544	822.5
572.755	818.5
572.966	836.5
573.178	798.5
573.389	803.5
573.6	800.5
573.811	773.5
574.023	773.5
574.234	786.5
574.445	751.5
574.656	753.5
574.867	771.5
575.078	746.5
575.289	746.5
575.501	750.5
575.712	743.5
575.923	741.5
576.134	719.5
576.345	729.5
576.556	729.5
576.767	714.5
576.978	702.5
577.188	747.5
577.399	712.5
577.61	729.5
577.821	694.5
578.032	714.5
578.243	684.5
578.454	696.5
578.665	703.5
578.875	718.5
579.086	714.5
579.297	683.5
579.508	694.5
579.718	708.5
579.929	690.5
580.14	678.5
580.35	668.5
580.561	675.5
580.772	680.5
580.982	663.5
581.193	651.5
581.403	674.5
581.614	683.5
581.825	662.5
582.035	661.5
582.246	641.5
582.456	689.5
582.667	659.5
582.877	675.5
583.087	653.5
583.298	640.5
583.508	621.5
583.719	643.5
583.929	635.5
584.139	621.5
584.35	637.5
584.56	603.5
584.77	630.5
584.981	634.5
585.191	616.5
585.401	589.5
585.611	626.5
585.821	607.5
586.032	613.5
586.242	621.5
586.452	618.5
586.662	607.5
586.872	632.5
587.082	597.5
587.292	605.5
587.502	615.5
587.713	621.5
587.923	617.5
588.133	602.5
588.343	603.5
588.553	601.5
588.762	621.5
588.972	603.5
589.182	666.5
589.392	650.5
589.602	614.5
589.812	662.5
590.022	641.5
590.232	618.5
590.441	609.5
590.651	611.5
590.861	590.5
591.071	579.5
591.281	600.5
591.49	594.5
591.7	611.5
591.91	597.5
592.119	613.5
592.329	606.5
592.539	618.5
592.748	613.5
592.958	591.5
593.167	589.5
593.377	610.5
593.587	597.5
593.796	610.5
594.006	592.5
594.215	589.5
594.424	599.5
594.634	595.5
594.843	557.5
595.053	579.5
595.262	579.5
595.472	553.5
595.681	591.5
595.89	552.5
596.1	534.5
596.309	555.5
596.518	550.5
596.727	557.5
596.937	557.5
597.146	565.5
597.355	549.5
597.564	530.5
597.774	537.5
597.983	530.5
598.192	518.5
598.401	526.5
598.61	525.5
598.819	531.5
599.028	522.5
599.237	527.5
599.446	522.5
599.655	504.5
599.864	508.5
600.073	530.5
600.282	511.5
600.491	508.5
600.7	505.5
600.909	493.5
601.118	488.5
601.327	502.5
601.536	519.5
601.745	507.5
601.953	502.5
602.162	494.5
602.371	503.5
602.58	498.5
602.789	485.5
602.997	485.5
603.206	491.5
603.415	464.5
603.623	463.5
603.832	450.5
604.041	467.5
604.249	458.5
604.458	457.5
604.666	446.5
604.875	451.5
605.084	460.5
605.292	471.5
605.501	481.5
605.709	481.5
605.918	486.5
606.126	451.5
606.334	458.5
606.543	444.5
606.751	467.5
606.96	453.5
607.168	442.5
607.376	468.5
607.585	471.5
607.793	451.5
608.001	473.5
608.21	428.5
608.418	449.5
608.626	455.5
608.834	449.5
609.043	460.5
609.251	452.5
609.459	467.5
609.667	442.5
609.875	443.5
610.083	450.5
610.291	459.5
610.499	438.5
610.707	435.5
610.916	442.5
611.124	441.5
611.332	425.5
611.54	425.5
611.748	452.5
611.955	448.5
612.163	427.5
612.371	442.5
612.579	427.5
612.787	448.5
612.995	430.5
613.203	428.5
613.411	420.5
613.618	429.5
613.826	416.5
614.034	413.5
614.242	405.5
614.449	420.5
614.657	428.5
614.865	437.5
615.072	426.5
615.28	416.5
615.488	429.5
615.695	402.5
615.903	412.5
616.111	416.5
616.318	425.5
616.526	417.5
616.733	409.5
616.941	399.5
617.148	407.5
617.356	411.5
617.563	412.5
617.771	417.5
617.978	400.5
618.185	411.5
618.393	386.5
618.6	422.5
618.807	416.5
619.015	406.5
619.222	412.5
619.429	405.5
619.637	403.5
619.844	397.5
620.051	393.5
620.258	380.5
620.466	401.5
620.673	379.5
620.88	371.5
621.087	398.5
621.294	382.5
621.501	375.5
621.708	374.5
621.915	377.5
622.122	405.5
622.329	397.5
622.536	385.5
622.743	377.5
622.95	389.5
623.157	384.5
623.364	382.5
623.571	380.5
623.778	378.5
623.985	364.5
624.192	375.5
624.399	377.5
624.606	381.5
624.812	359.5
625.019	360.5
625.226	369.5
625.433	376.5
625.639	347.5
625.846	366.5
626.053	366.5
626.259	363.5
626.466	375.5
626.673	382.5
626.879	357.5
627.086	355.5
627.293	344.5
627.499	331.5
627.706	353.5
627.912	350.5
628.119	360.5
628.325	356.5
628.532	342.5
628.738	324.5
628.945	340.5
629.151	338.5
629.357	331.5
629.564	343.5
629.77	334.5
629.976	350.5
630.183	332.5
630.389	336.5
630.595	335.5
630.802	329.5
631.008	315.5
631.214	313.5
631.42	312.5
631.627	310.5
631.833	353.5
632.039	323.5
632.245	332.5
632.451	319.5
632.657	305.5
632.863	307.5
633.069	321.5
633.275	308.5
633.481	310.5
633.688	329.5
633.893	316.5
634.099	326.5
634.305	324.5
634.511	321.5
634.717	313.5
634.923	322.5
635.129	307.5
635.335	329.5
635.541	314.5
635.747	306.5
635.952	318.5
636.158	311.5
636.364	298.5
636.57	312.5
636.775	318.5
636.981	307.5
637.187	297.5
637.392	314.5
637.598	291.5
637.804	292.5
638.009	302.5
638.215	301.5
638.421	301.5
638.626	297.5
638.832	297.5
639.037	310.5
639.243	299.5
639.448	315.5
639.654	300.5
639.859	289.5
640.065	287.5
640.27	298.5
640.475	303.5
640.681	300.5
640.886	314.5
641.091	294.5
641.297	303.5
641.502	275.5
641.707	278.5
641.913	294.5
642.118	285.5
642.323	295.5
642.528	295.5
642.733	295.5
642.939	300.5
643.144	269.5
643.349	284.5
643.554	291.5
643.759	284.5
643.964	285.5
644.169	286.5
644.374	275.5
644.579	282.5
644.784	286.5
644.989	290.5
645.194	301.5
645.399	292.5
645.604	264.5
645.809	285.5
646.014	303.5
646.219	295.5
646.423	290.5
646.628	286.5
646.833	294.5
647.038	296.5
647.243	305.5
647.447	289.5
647.652	295.5
647.857	294.5
648.062	268.5
648.266	281.5
648.471	294.5
648.676	293.5
648.88	283.5
649.085	296.5
649.289	292.5
649.494	278.5
649.698	286.5
649.903	296.5
650.107	265.5
650.312	278.5
650.516	295.5
650.721	279.5
650.925	262.5
651.13	265.5
651.334	268.5
651.539	295.5
651.743	265.5
651.947	277.5
652.152	263.5
652.356	263.5
652.56	248.5
652.764	262.5
652.969	255.5
653.173	238.5
653.377	258.5
653.581	234.5
653.785	244.5
653.99	235.5
654.194	249.5
654.398	259.5
654.602	245.5
654.806	244.5
655.01	236.5
655.214	250.5
655.418	239.5
655.622	226.5
655.826	247.5
656.03	246.5
656.234	242.5
656.438	260.5
656.642	242.5
656.846	228.5
657.049	232.5
657.253	211.5
657.457	204.5
657.661	189.5
657.865	180.5
658.068	206.5
658.272	179.5
658.476	165.5
658.68	157.5
658.883	151.5
659.087	139.5
659.291	157.5
659.494	148.5
659.698	149.5
659.901	128.5
660.105	128.5
660.309	133.5
660.512	121.5
660.716	116.5
660.919	106.5
661.123	109.5
661.326	126.5
661.53	108.5
661.733	115.5
661.936	92.5
662.14	105.5
662.343	90.5
662.546	91.5
662.75	97.5
662.953	81.5
663.156	80.5
663.36	96.5
663.563	94.5
663.766	71.5
663.969	67.5
664.173	86.5
664.376	81.5
664.579	86.5
664.782	87.5
664.985	92.5
665.188	82.5
665.391	97.5
665.594	84.5
665.797	83.5
666	90.5
666.203	87.5
666.406	78.5
666.609	83.5
666.812	79.5
667.015	89.5
667.218	78.5
667.421	82.5
667.624	90.5
667.827	77.5
668.03	85.5
668.232	78.5
668.435	80.5
668.638	79.5
668.841	95.5
669.043	99.5
669.246	70.5
669.449	82.5
669.651	74.5
669.854	68.5
670.057	89.5
670.259	78.5
670.462	87.5
670.665	84.5
670.867	84.5
671.07	83.5
671.272	79.5
671.475	85.5
671.677	78.5
671.88	86.5
672.082	70.5
672.284	84.5
672.487	86.5
672.689	84.5
672.892	75.5
