Data from Ni(NO3)2@0.5M.TitratingCurve.Agarose3%dH2O.NegLispCup.LampEnergy10.LIBS07252019_HRD10591_17-58-48-565.txt Node
Date: Thu Jul 25 17:58:48 EDT 2019
User: cochatt
Spectrometer: HR+D1059
Trigger mode: 1
Integration Time (sec): 1.000000E-1
Scans to average: 1
Electric dark correction enabled: true
Nonlinearity correction enabled: false
Boxcar width: 0
XAxis mode: Wavelengths
Number of Pixels in Spectrum: 2048
>>>>>Begin Spectral Data<<<<<
223.165	-6.12
223.4	-6.12
223.635	-6.12
223.869	-26.12
224.104	-19.12
224.338	-15.12
224.573	-26.12
224.808	-8.12
225.042	-9.12
225.277	-2.12
225.511	-10.12
225.746	-4.12
225.98	17.88
226.215	10.88
226.449	28.88
226.683	23.88
226.918	21.88
227.152	22.88
227.387	48.88
227.621	38.88
227.856	50.88
228.09	62.88
228.324	51.88
228.559	52.88
228.793	72.88
229.027	140.88
229.262	158.88
229.496	151.88
229.73	156.88
229.964	193.88
230.199	221.88
230.433	237.88
230.667	231.88
230.901	208.88
231.136	181.88
231.37	178.88
231.604	202.88
231.838	216.88
232.072	230.88
232.306	219.88
232.541	211.88
232.775	174.88
233.009	168.88
233.243	171.88
233.477	162.88
233.711	179.88
233.945	186.88
234.179	175.88
234.413	173.88
234.647	188.88
234.881	200.88
235.115	180.88
235.349	154.88
235.583	187.88
235.817	179.88
236.051	165.88
236.285	178.88
236.519	166.88
236.753	176.88
236.987	172.88
237.221	181.88
237.455	181.88
237.689	180.88
237.922	196.88
238.156	183.88
238.39	174.88
238.624	182.88
238.858	178.88
239.091	199.88
239.325	198.88
239.559	217.88
239.793	243.88
240.027	250.88
240.26	206.88
240.494	188.88
240.728	182.88
240.961	206.88
241.195	199.88
241.429	223.88
241.662	235.88
241.896	256.88
242.13	276.88
242.363	219.88
242.597	202.88
242.83	235.88
243.064	205.88
243.298	228.88
243.531	231.88
243.765	220.88
243.998	234.88
244.232	244.88
244.465	258.88
244.699	221.88
244.932	227.88
245.166	218.88
245.399	249.88
245.633	232.88
245.866	237.88
246.099	239.88
246.333	235.88
246.566	243.88
246.8	246.88
247.033	235.88
247.266	226.88
247.5	235.88
247.733	274.88
247.966	258.88
248.2	246.88
248.433	254.88
248.666	257.88
248.899	269.88
249.133	278.88
249.366	263.88
249.599	265.88
249.832	268.88
250.066	280.88
250.299	278.88
250.532	268.88
250.765	276.88
250.998	293.88
251.231	333.88
251.465	337.88
251.698	313.88
251.931	290.88
252.164	270.88
252.397	307.88
252.63	293.88
252.863	303.88
253.096	302.88
253.329	314.88
253.562	304.88
253.795	316.88
254.028	312.88
254.261	317.88
254.494	314.88
254.727	302.88
254.96	328.88
255.193	323.88
255.426	316.88
255.659	320.88
255.892	321.88
256.124	339.88
256.357	341.88
256.59	332.88
256.823	310.88
257.056	332.88
257.289	339.88
257.521	338.88
257.754	341.88
257.987	329.88
258.22	344.88
258.452	346.88
258.685	335.88
258.918	356.88
259.151	348.88
259.383	348.88
259.616	358.88
259.849	349.88
260.081	346.88
260.314	352.88
260.547	375.88
260.779	371.88
261.012	362.88
261.244	376.88
261.477	368.88
261.71	383.88
261.942	398.88
262.175	396.88
262.407	384.88
262.64	392.88
262.872	381.88
263.105	377.88
263.337	404.88
263.57	383.88
263.802	378.88
264.035	403.88
264.267	408.88
264.499	392.88
264.732	404.88
264.964	400.88
265.197	396.88
265.429	402.88
265.661	412.88
265.894	411.88
266.126	396.88
266.358	407.88
266.591	440.88
266.823	419.88
267.055	386.88
267.287	389.88
267.52	401.88
267.752	422.88
267.984	425.88
268.216	418.88
268.448	423.88
268.681	441.88
268.913	431.88
269.145	425.88
269.377	427.88
269.609	445.88
269.841	424.88
270.073	438.88
270.306	432.88
270.538	438.88
270.77	452.88
271.002	442.88
271.234	447.88
271.466	435.88
271.698	444.88
271.93	445.88
272.162	466.88
272.394	471.88
272.626	447.88
272.858	440.88
273.09	464.88
273.322	452.88
273.553	453.88
273.785	471.88
274.017	454.88
274.249	479.88
274.481	474.88
274.713	460.88
274.945	472.88
275.176	472.88
275.408	481.88
275.64	484.88
275.872	504.88
276.104	477.88
276.335	505.88
276.567	495.88
276.799	503.88
277.031	488.88
277.262	495.88
277.494	467.88
277.726	498.88
277.957	495.88
278.189	527.88
278.421	502.88
278.652	516.88
278.884	509.88
279.115	522.88
279.347	527.88
279.579	514.88
279.81	506.88
280.042	499.88
280.273	528.88
280.505	515.88
280.736	529.88
280.968	536.88
281.199	531.88
281.431	539.88
281.662	518.88
281.894	520.88
282.125	523.88
282.356	546.88
282.588	541.88
282.819	526.88
283.051	542.88
283.282	542.88
283.513	550.88
283.745	551.88
283.976	534.88
284.207	563.88
284.439	558.88
284.67	552.88
284.901	569.88
285.132	542.88
285.364	545.88
285.595	547.88
285.826	532.88
286.057	572.88
286.288	556.88
286.52	569.88
286.751	573.88
286.982	571.88
287.213	543.88
287.444	570.88
287.675	584.88
287.906	574.88
288.138	574.88
288.369	572.88
288.6	579.88
288.831	598.88
289.062	585.88
289.293	586.88
289.524	579.88
289.755	565.88
289.986	598.88
290.217	590.88
290.448	589.88
290.679	581.88
290.91	600.88
291.141	588.88
291.371	584.88
291.602	614.88
291.833	619.88
292.064	588.88
292.295	592.88
292.526	576.88
292.757	588.88
292.987	585.88
293.218	591.88
293.449	605.88
293.68	598.88
293.91	579.88
294.141	578.88
294.372	598.88
294.603	580.88
294.833	628.88
295.064	589.88
295.295	606.88
295.525	607.88
295.756	613.88
295.987	620.88
296.217	603.88
296.448	634.88
296.679	623.88
296.909	608.88
297.14	610.88
297.37	646.88
297.601	629.88
297.831	628.88
298.062	646.88
298.292	646.88
298.523	638.88
298.753	640.88
298.984	647.88
299.214	638.88
299.445	644.88
299.675	652.88
299.905	657.88
300.136	669.88
300.366	694.88
300.597	700.88
300.827	703.88
301.057	661.88
301.288	678.88
301.518	668.88
301.748	671.88
301.979	697.88
302.209	671.88
302.439	685.88
302.669	664.88
302.9	678.88
303.13	652.88
303.36	680.88
303.59	683.88
303.82	688.88
304.051	707.88
304.281	699.88
304.511	662.88
304.741	697.88
304.971	711.88
305.201	732.88
305.431	740.88
305.661	742.88
305.891	734.88
306.121	692.88
306.352	696.88
306.582	686.88
306.812	674.88
307.042	702.88
307.272	682.88
307.502	677.88
307.731	666.88
307.961	691.88
308.191	674.88
308.421	694.88
308.651	716.88
308.881	679.88
309.111	688.88
309.341	708.88
309.571	694.88
309.8	706.88
310.03	764.88
310.26	770.88
310.49	779.88
310.72	734.88
310.949	698.88
311.179	722.88
311.409	709.88
311.639	716.88
311.868	724.88
312.098	718.88
312.328	719.88
312.557	728.88
312.787	738.88
313.017	728.88
313.246	732.88
313.476	778.88
313.706	766.88
313.935	749.88
314.165	742.88
314.394	740.88
314.624	748.88
314.853	732.88
315.083	763.88
315.312	772.88
315.542	759.88
315.771	775.88
316.001	754.88
316.23	756.88
316.46	762.88
316.689	772.88
316.919	743.88
317.148	741.88
317.377	758.88
317.607	786.88
317.836	752.88
318.065	764.88
318.295	748.88
318.524	765.88
318.753	776.88
318.983	780.88
319.212	759.88
319.441	775.88
319.67	782.88
319.9	791.88
320.129	784.88
320.358	802.88
320.587	794.88
320.816	814.88
321.046	801.88
321.275	792.88
321.504	799.88
321.733	823.88
321.962	840.88
322.191	835.88
322.42	834.88
322.649	794.88
322.878	790.88
323.108	795.88
323.337	853.88
323.566	850.88
323.795	830.88
324.024	801.88
324.253	818.88
324.482	846.88
324.71	834.88
324.939	830.88
325.168	853.88
325.397	850.88
325.626	841.88
325.855	838.88
326.084	840.88
326.313	844.88
326.542	837.88
326.77	885.88
326.999	856.88
327.228	869.88
327.457	875.88
327.686	843.88
327.914	859.88
328.143	881.88
328.372	845.88
328.6	854.88
328.829	873.88
329.058	849.88
329.287	864.88
329.515	872.88
329.744	854.88
329.972	900.88
330.201	890.88
330.43	891.88
330.658	903.88
330.887	897.88
331.115	897.88
331.344	909.88
331.572	922.88
331.801	938.88
332.03	924.88
332.258	922.88
332.486	907.88
332.715	924.88
332.943	938.88
333.172	943.88
333.4	967.88
333.629	988.88
333.857	997.88
334.085	1020.88
334.314	984.88
334.542	976.88
334.771	1014.88
334.999	1014.88
335.227	1008.88
335.455	1013.88
335.684	977.88
335.912	1004.88
336.14	1006.88
336.369	1003.88
336.597	1021.88
336.825	1018.88
337.053	1037.88
337.281	1019.88
337.51	1039.88
337.738	1005.88
337.966	1036.88
338.194	1010.88
338.422	1005.88
338.65	970.88
338.878	997.88
339.106	982.88
339.334	1052.88
339.562	1002.88
339.79	957.88
340.018	958.88
340.246	946.88
340.474	939.88
340.702	955.88
340.93	943.88
341.158	958.88
341.386	1036.88
341.614	1068.88
341.842	1010.88
342.07	973.88
342.298	932.88
342.526	983.88
342.754	937.88
342.981	940.88
343.209	954.88
343.437	1016.88
343.665	1017.88
343.893	988.88
344.12	987.88
344.348	1013.88
344.576	1027.88
344.804	1036.88
345.031	973.88
345.259	980.88
345.487	1006.88
345.714	1009.88
345.942	1005.88
346.17	1055.88
346.397	1017.88
346.625	987.88
346.853	925.88
347.08	933.88
347.308	922.88
347.535	922.88
347.763	925.88
347.99	899.88
348.218	912.88
348.445	907.88
348.673	932.88
348.9	942.88
349.128	933.88
349.355	982.88
349.583	957.88
349.81	918.88
350.037	913.88
350.265	880.88
350.492	902.88
350.72	905.88
350.947	916.88
351.174	916.88
351.402	985.88
351.629	996.88
351.856	973.88
352.083	943.88
352.311	962.88
352.538	1024.88
352.765	999.88
352.992	871.88
353.22	855.88
353.447	877.88
353.674	892.88
353.901	868.88
354.128	876.88
354.355	881.88
354.583	895.88
354.81	874.88
355.037	898.88
355.264	888.88
355.491	882.88
355.718	884.88
355.945	874.88
356.172	873.88
356.399	938.88
356.626	956.88
356.853	933.88
357.08	912.88
357.307	920.88
357.534	905.88
357.761	903.88
357.988	889.88
358.215	912.88
358.441	882.88
358.668	876.88
358.895	895.88
359.122	898.88
359.349	889.88
359.576	911.88
359.802	919.88
360.029	894.88
360.256	914.88
360.483	886.88
360.709	900.88
360.936	928.88
361.163	919.88
361.39	903.88
361.616	925.88
361.843	957.88
362.07	978.88
362.296	962.88
362.523	905.88
362.749	908.88
362.976	900.88
363.203	913.88
363.429	888.88
363.656	913.88
363.882	900.88
364.109	901.88
364.335	900.88
364.562	908.88
364.788	903.88
365.015	896.88
365.241	882.88
365.468	935.88
365.694	902.88
365.92	888.88
366.147	920.88
366.373	920.88
366.599	914.88
366.826	935.88
367.052	892.88
367.278	901.88
367.505	926.88
367.731	884.88
367.957	892.88
368.184	914.88
368.41	925.88
368.636	926.88
368.862	926.88
369.089	907.88
369.315	931.88
369.541	919.88
369.767	937.88
369.993	920.88
370.219	942.88
370.445	916.88
370.672	977.88
370.898	940.88
371.124	948.88
371.35	932.88
371.576	922.88
371.802	970.88
372.028	965.88
372.254	971.88
372.48	962.88
372.706	955.88
372.932	971.88
373.158	992.88
373.384	974.88
373.61	968.88
373.835	995.88
374.061	976.88
374.287	971.88
374.513	951.88
374.739	1001.88
374.965	996.88
375.191	984.88
375.416	1006.88
375.642	1003.88
375.868	1016.88
376.094	952.88
376.319	967.88
376.545	934.88
376.771	974.88
376.997	967.88
377.222	954.88
377.448	966.88
377.674	956.88
377.899	957.88
378.125	943.88
378.35	947.88
378.576	959.88
378.802	937.88
379.027	944.88
379.253	970.88
379.478	931.88
379.704	928.88
379.929	936.88
380.155	937.88
380.38	950.88
380.606	966.88
380.831	943.88
381.057	946.88
381.282	976.88
381.507	971.88
381.733	943.88
381.958	969.88
382.184	952.88
382.409	960.88
382.634	972.88
382.86	978.88
383.085	952.88
383.31	1000.88
383.535	997.88
383.761	1012.88
383.986	1035.88
384.211	993.88
384.436	1014.88
384.662	1026.88
384.887	1023.88
385.112	1059.88
385.337	1046.88
385.562	1063.88
385.787	1058.88
386.013	1074.88
386.238	1066.88
386.463	1060.88
386.688	1076.88
386.913	1071.88
387.138	1090.88
387.363	1057.88
387.588	1041.88
387.813	1068.88
388.038	1063.88
388.263	1044.88
388.488	1089.88
388.713	1087.88
388.938	1068.88
389.163	1078.88
389.387	1058.88
389.612	1076.88
389.837	1076.88
390.062	1061.88
390.287	1062.88
390.512	1104.88
390.736	1063.88
390.961	1069.88
391.186	1087.88
391.411	1078.88
391.636	1108.88
391.86	1120.88
392.085	1107.88
392.31	1109.88
392.534	1123.88
392.759	1110.88
392.984	1112.88
393.208	1130.88
393.433	1139.88
393.658	1114.88
393.882	1125.88
394.107	1142.88
394.331	1111.88
394.556	1123.88
394.78	1122.88
395.005	1129.88
395.229	1116.88
395.454	1162.88
395.678	1155.88
395.903	1147.88
396.127	1144.88
396.352	1161.88
396.576	1163.88
396.801	1148.88
397.025	1175.88
397.249	1168.88
397.474	1190.88
397.698	1184.88
397.922	1199.88
398.147	1162.88
398.371	1206.88
398.595	1252.88
398.82	1238.88
399.044	1268.88
399.268	1335.88
399.492	1351.88
399.717	1425.88
399.941	1452.88
400.165	1422.88
400.389	1373.88
400.613	1364.88
400.837	1299.88
401.062	1271.88
401.286	1300.88
401.51	1267.88
401.734	1305.88
401.958	1301.88
402.182	1236.88
402.406	1300.88
402.63	1259.88
402.854	1261.88
403.078	1272.88
403.302	1232.88
403.526	1259.88
403.75	1237.88
403.974	1302.88
404.198	1276.88
404.422	1293.88
404.645	1290.88
404.869	1268.88
405.093	1284.88
405.317	1287.88
405.541	1305.88
405.765	1294.88
405.988	1322.88
406.212	1277.88
406.436	1363.88
406.66	1380.88
406.883	1341.88
407.107	1374.88
407.331	1401.88
407.555	1436.88
407.778	1450.88
408.002	1442.88
408.226	1432.88
408.449	1423.88
408.673	1386.88
408.896	1360.88
409.12	1340.88
409.344	1381.88
409.567	1308.88
409.791	1351.88
410.014	1338.88
410.238	1353.88
410.461	1338.88
410.685	1314.88
410.908	1306.88
411.132	1327.88
411.355	1287.88
411.578	1332.88
411.802	1300.88
412.025	1325.88
412.249	1295.88
412.472	1308.88
412.695	1275.88
412.919	1270.88
413.142	1268.88
413.365	1273.88
413.589	1274.88
413.812	1256.88
414.035	1271.88
414.258	1258.88
414.482	1276.88
414.705	1249.88
414.928	1243.88
415.151	1256.88
415.374	1259.88
415.597	1245.88
415.821	1244.88
416.044	1239.88
416.267	1223.88
416.49	1219.88
416.713	1178.88
416.936	1234.88
417.159	1205.88
417.382	1227.88
417.605	1204.88
417.828	1208.88
418.051	1224.88
418.274	1224.88
418.497	1209.88
418.72	1250.88
418.943	1207.88
419.166	1260.88
419.389	1328.88
419.611	1307.88
419.834	1257.88
420.057	1260.88
420.28	1237.88
420.503	1221.88
420.726	1150.88
420.948	1187.88
421.171	1190.88
421.394	1208.88
421.617	1199.88
421.839	1211.88
422.062	1210.88
422.285	1187.88
422.507	1239.88
422.73	1200.88
422.953	1210.88
423.175	1205.88
423.398	1216.88
423.621	1189.88
423.843	1184.88
424.066	1204.88
424.288	1229.88
424.511	1214.88
424.733	1197.88
424.956	1189.88
425.178	1199.88
425.401	1232.88
425.623	1226.88
425.846	1227.88
426.068	1193.88
426.291	1203.88
426.513	1186.88
426.735	1202.88
426.958	1181.88
427.18	1126.88
427.402	1196.88
427.625	1200.88
427.847	1150.88
428.069	1152.88
428.292	1144.88
428.514	1168.88
428.736	1188.88
428.958	1158.88
429.181	1158.88
429.403	1144.88
429.625	1169.88
429.847	1152.88
430.069	1144.88
430.292	1160.88
430.514	1154.88
430.736	1169.88
430.958	1176.88
431.18	1169.88
431.402	1159.88
431.624	1184.88
431.846	1154.88
432.068	1173.88
432.29	1191.88
432.512	1149.88
432.734	1210.88
432.956	1184.88
433.178	1180.88
433.4	1233.88
433.622	1250.88
433.844	1204.88
434.066	1239.88
434.287	1196.88
434.509	1231.88
434.731	1207.88
434.953	1251.88
435.175	1284.88
435.397	1285.88
435.618	1240.88
435.84	1208.88
436.062	1207.88
436.284	1178.88
436.505	1172.88
436.727	1192.88
436.949	1203.88
437.17	1186.88
437.392	1172.88
437.614	1171.88
437.835	1144.88
438.057	1151.88
438.278	1115.88
438.5	1154.88
438.721	1096.88
438.943	1135.88
439.165	1111.88
439.386	1131.88
439.608	1148.88
439.829	1151.88
440.05	1157.88
440.272	1172.88
440.493	1188.88
440.715	1186.88
440.936	1207.88
441.158	1184.88
441.379	1215.88
441.6	1243.88
441.822	1267.88
442.043	1241.88
442.264	1194.88
442.486	1223.88
442.707	1212.88
442.928	1222.88
443.149	1226.88
443.371	1264.88
443.592	1342.88
443.813	1296.88
444.034	1263.88
444.255	1255.88
444.476	1279.88
444.698	1323.88
444.919	1325.88
445.14	1423.88
445.361	1338.88
445.582	1276.88
445.803	1217.88
446.024	1178.88
446.245	1196.88
446.466	1187.88
446.687	1134.88
446.908	1166.88
447.129	1135.88
447.35	1131.88
447.571	1137.88
447.792	1082.88
448.013	1108.88
448.234	1074.88
448.455	1064.88
448.675	1088.88
448.896	1071.88
449.117	1086.88
449.338	1090.88
449.559	1055.88
449.779	1045.88
450	1086.88
450.221	1034.88
450.442	1074.88
450.662	1079.88
450.883	1095.88
451.104	1099.88
451.324	1086.88
451.545	1069.88
451.766	1052.88
451.986	1052.88
452.207	1037.88
452.428	1026.88
452.648	1025.88
452.869	1048.88
453.089	1032.88
453.31	1084.88
453.53	1020.88
453.751	1031.88
453.971	1032.88
454.192	1097.88
454.412	1102.88
454.633	1015.88
454.853	1046.88
455.073	1016.88
455.294	1006.88
455.514	1064.88
455.734	1069.88
455.955	1088.88
456.175	1061.88
456.395	1043.88
456.616	1039.88
456.836	1026.88
457.056	1034.88
457.276	1032.88
457.497	1054.88
457.717	1096.88
457.937	1088.88
458.157	1057.88
458.377	1060.88
458.598	1047.88
458.818	1076.88
459.038	1118.88
459.258	1151.88
459.478	1246.88
459.698	1346.88
459.918	1307.88
460.138	1259.88
460.358	1293.88
460.578	1290.88
460.798	1317.88
461.018	1350.88
461.238	1278.88
461.458	1238.88
461.678	1219.88
461.898	1256.88
462.118	1262.88
462.338	1299.88
462.558	1349.88
462.777	1378.88
462.997	1431.88
463.217	1438.88
463.437	1506.88
463.657	1504.88
463.876	1391.88
464.096	1411.88
464.316	1358.88
464.536	1374.88
464.755	1312.88
464.975	1287.88
465.195	1288.88
465.414	1260.88
465.634	1200.88
465.854	1192.88
466.073	1196.88
466.293	1157.88
466.512	1157.88
466.732	1144.88
466.951	1151.88
467.171	1135.88
467.391	1156.88
467.61	1112.88
467.829	1120.88
468.049	1101.88
468.268	1084.88
468.488	1111.88
468.707	1127.88
468.927	1138.88
469.146	1160.88
469.365	1166.88
469.585	1129.88
469.804	1126.88
470.023	1108.88
470.243	1111.88
470.462	1114.88
470.681	1140.88
470.901	1154.88
471.12	1132.88
471.339	1110.88
471.558	1148.88
471.777	1172.88
471.997	1119.88
472.216	1092.88
472.435	1142.88
472.654	1103.88
472.873	1079.88
473.092	1139.88
473.311	1144.88
473.53	1103.88
473.749	1109.88
473.968	1092.88
474.187	1102.88
474.406	1100.88
474.625	1098.88
474.844	1123.88
475.063	1125.88
475.282	1146.88
475.501	1154.88
475.72	1146.88
475.939	1155.88
476.158	1163.88
476.377	1184.88
476.596	1152.88
476.814	1204.88
477.033	1206.88
477.252	1192.88
477.471	1218.88
477.69	1238.88
477.908	1239.88
478.127	1256.88
478.346	1230.88
478.564	1301.88
478.783	1298.88
479.002	1383.88
479.22	1407.88
479.439	1351.88
479.658	1321.88
479.876	1323.88
480.095	1358.88
480.313	1373.88
480.532	1333.88
480.751	1340.88
480.969	1359.88
481.188	1324.88
481.406	1301.88
481.624	1266.88
481.843	1331.88
482.061	1309.88
482.28	1321.88
482.498	1322.88
482.717	1350.88
482.935	1318.88
483.153	1356.88
483.372	1398.88
483.59	1451.88
483.808	1365.88
484.027	1374.88
484.245	1332.88
484.463	1370.88
484.681	1390.88
484.9	1336.88
485.118	1368.88
485.336	1341.88
485.554	1369.88
485.772	1330.88
485.99	1359.88
486.209	1384.88
486.427	1340.88
486.645	1356.88
486.863	1379.88
487.081	1406.88
487.299	1372.88
487.517	1402.88
487.735	1382.88
487.953	1416.88
488.171	1389.88
488.389	1398.88
488.607	1372.88
488.825	1380.88
489.043	1356.88
489.261	1360.88
489.479	1349.88
489.696	1358.88
489.914	1371.88
490.132	1365.88
490.35	1379.88
490.568	1369.88
490.786	1379.88
491.003	1367.88
491.221	1396.88
491.439	1433.88
491.657	1367.88
491.874	1438.88
492.092	1422.88
492.31	1438.88
492.527	1419.88
492.745	1424.88
492.963	1418.88
493.18	1383.88
493.398	1429.88
493.615	1364.88
493.833	1408.88
494.05	1388.88
494.268	1431.88
494.485	1404.88
494.703	1408.88
494.92	1419.88
495.138	1456.88
495.355	1424.88
495.573	1428.88
495.79	1482.88
496.008	1461.88
496.225	1484.88
496.442	1478.88
496.66	1492.88
496.877	1493.88
497.094	1519.88
497.312	1563.88
497.529	1567.88
497.746	1582.88
497.963	1604.88
498.181	1631.88
498.398	1682.88
498.615	1749.88
498.832	1782.88
499.049	1854.88
499.267	1863.88
499.484	1958.88
499.701	2038.88
499.918	2111.88
500.135	2220.88
500.352	2320.88
500.569	2325.88
500.786	2324.88
501.003	2255.88
501.22	2209.88
501.437	2103.88
501.654	1997.88
501.871	1930.88
502.088	1914.88
502.305	1845.88
502.522	1806.88
502.739	1730.88
502.956	1635.88
503.172	1637.88
503.389	1607.88
503.606	1588.88
503.823	1536.88
504.04	1544.88
504.256	1498.88
504.473	1492.88
504.69	1488.88
504.907	1440.88
505.123	1444.88
505.34	1397.88
505.557	1348.88
505.773	1377.88
505.99	1349.88
506.207	1342.88
506.423	1315.88
506.64	1298.88
506.856	1299.88
507.073	1241.88
507.289	1242.88
507.506	1254.88
507.722	1227.88
507.939	1226.88
508.155	1264.88
508.372	1253.88
508.588	1237.88
508.805	1181.88
509.021	1178.88
509.238	1192.88
509.454	1188.88
509.67	1188.88
509.887	1161.88
510.103	1156.88
510.319	1134.88
510.536	1160.88
510.752	1154.88
510.968	1166.88
511.184	1130.88
511.401	1158.88
511.617	1147.88
511.833	1125.88
512.049	1111.88
512.265	1129.88
512.481	1138.88
512.698	1131.88
512.914	1149.88
513.13	1115.88
513.346	1127.88
513.562	1148.88
513.778	1123.88
513.994	1148.88
514.21	1148.88
514.426	1145.88
514.642	1123.88
514.858	1147.88
515.074	1180.88
515.29	1138.88
515.506	1145.88
515.721	1190.88
515.937	1172.88
516.153	1187.88
516.369	1191.88
516.585	1186.88
516.801	1206.88
517.016	1194.88
517.232	1250.88
517.448	1240.88
517.664	1251.88
517.879	1258.88
518.095	1260.88
518.311	1247.88
518.527	1188.88
518.742	1214.88
518.958	1196.88
519.173	1169.88
519.389	1183.88
519.605	1157.88
519.82	1171.88
520.036	1112.88
520.251	1122.88
520.467	1108.88
520.682	1105.88
520.898	1093.88
521.113	1080.88
521.329	1091.88
521.544	1075.88
521.76	1071.88
521.975	1066.88
522.19	1060.88
522.406	1060.88
522.621	1046.88
522.836	1043.88
523.052	1043.88
523.267	1029.88
523.482	1023.88
523.698	1034.88
523.913	1007.88
524.128	1046.88
524.343	1050.88
524.559	993.88
524.774	1025.88
524.989	1036.88
525.204	995.88
525.419	964.88
525.634	994.88
525.849	1027.88
526.064	1006.88
526.28	1014.88
526.495	999.88
526.71	987.88
526.925	983.88
527.14	972.88
527.355	990.88
527.57	977.88
527.785	972.88
527.999	965.88
528.214	973.88
528.429	997.88
528.644	993.88
528.859	998.88
529.074	989.88
529.289	982.88
529.503	967.88
529.718	954.88
529.933	949.88
530.148	974.88
530.363	962.88
530.577	972.88
530.792	943.88
531.007	922.88
531.221	943.88
531.436	942.88
531.651	974.88
531.865	950.88
532.08	918.88
532.295	954.88
532.509	957.88
532.724	957.88
532.938	916.88
533.153	966.88
533.367	936.88
533.582	923.88
533.796	949.88
534.011	950.88
534.225	936.88
534.44	944.88
534.654	935.88
534.868	940.88
535.083	944.88
535.297	922.88
535.511	924.88
535.726	916.88
535.94	902.88
536.154	935.88
536.369	909.88
536.583	919.88
536.797	909.88
537.011	899.88
537.225	902.88
537.44	901.88
537.654	882.88
537.868	891.88
538.082	894.88
538.296	889.88
538.51	887.88
538.724	879.88
538.938	870.88
539.153	887.88
539.367	893.88
539.581	884.88
539.795	896.88
540.009	872.88
540.222	884.88
540.436	856.88
540.65	868.88
540.864	879.88
541.078	858.88
541.292	856.88
541.506	884.88
541.72	913.88
541.934	883.88
542.147	910.88
542.361	887.88
542.575	883.88
542.789	875.88
543.002	851.88
543.216	862.88
543.43	853.88
543.644	866.88
543.857	854.88
544.071	856.88
544.285	894.88
544.498	864.88
544.712	839.88
544.925	871.88
545.139	866.88
545.352	873.88
545.566	855.88
545.779	882.88
545.993	884.88
546.206	851.88
546.42	870.88
546.633	866.88
546.847	872.88
547.06	858.88
547.274	883.88
547.487	879.88
547.7	859.88
547.914	865.88
548.127	869.88
548.34	880.88
548.554	856.88
548.767	862.88
548.98	857.88
549.193	857.88
549.407	846.88
549.62	869.88
549.833	864.88
550.046	879.88
550.259	838.88
550.473	844.88
550.686	882.88
550.899	863.88
551.112	833.88
551.325	852.88
551.538	840.88
551.751	836.88
551.964	843.88
552.177	858.88
552.39	844.88
552.603	858.88
552.816	874.88
553.029	882.88
553.242	861.88
553.455	857.88
553.667	875.88
553.88	874.88
554.093	834.88
554.306	848.88
554.519	824.88
554.732	838.88
554.944	822.88
555.157	829.88
555.37	816.88
555.583	801.88
555.795	802.88
556.008	794.88
556.221	797.88
556.433	770.88
556.646	763.88
556.859	767.88
557.071	774.88
557.284	738.88
557.496	740.88
557.709	747.88
557.921	743.88
558.134	729.88
558.346	732.88
558.559	762.88
558.771	724.88
558.984	754.88
559.196	751.88
559.409	718.88
559.621	728.88
559.833	729.88
560.046	722.88
560.258	723.88
560.47	716.88
560.683	723.88
560.895	701.88
561.107	707.88
561.32	704.88
561.532	711.88
561.744	743.88
561.956	723.88
562.168	734.88
562.381	763.88
562.593	740.88
562.805	722.88
563.017	732.88
563.229	739.88
563.441	740.88
563.653	750.88
563.865	703.88
564.077	740.88
564.289	756.88
564.501	774.88
564.713	747.88
564.925	770.88
565.137	752.88
565.349	771.88
565.561	795.88
565.773	795.88
565.985	803.88
566.197	830.88
566.408	843.88
566.62	869.88
566.832	882.88
567.044	880.88
567.255	886.88
567.467	922.88
567.679	901.88
567.891	906.88
568.102	864.88
568.314	874.88
568.526	864.88
568.737	828.88
568.949	793.88
569.161	785.88
569.372	759.88
569.584	730.88
569.795	738.88
570.007	728.88
570.218	708.88
570.43	671.88
570.641	676.88
570.853	688.88
571.064	697.88
571.276	662.88
571.487	646.88
571.698	638.88
571.91	632.88
572.121	634.88
572.333	628.88
572.544	622.88
572.755	628.88
572.966	644.88
573.178	605.88
573.389	612.88
573.6	568.88
573.811	569.88
574.023	586.88
574.234	602.88
574.445	586.88
574.656	573.88
574.867	534.88
575.078	557.88
575.289	563.88
575.501	553.88
575.712	568.88
575.923	554.88
576.134	550.88
576.345	562.88
576.556	582.88
576.767	533.88
576.978	572.88
577.188	570.88
577.399	546.88
577.61	532.88
577.821	544.88
578.032	542.88
578.243	541.88
578.454	541.88
578.665	544.88
578.875	520.88
579.086	530.88
579.297	527.88
579.508	525.88
579.718	528.88
579.929	509.88
580.14	490.88
580.35	506.88
580.561	502.88
580.772	480.88
580.982	499.88
581.193	506.88
581.403	497.88
581.614	516.88
581.825	495.88
582.035	504.88
582.246	517.88
582.456	508.88
582.667	490.88
582.877	488.88
583.087	494.88
583.298	488.88
583.508	482.88
583.719	495.88
583.929	484.88
584.139	469.88
584.35	482.88
584.56	492.88
584.77	468.88
584.981	470.88
585.191	483.88
585.401	486.88
585.611	470.88
585.821	471.88
586.032	483.88
586.242	451.88
586.452	474.88
586.662	461.88
586.872	484.88
587.082	499.88
587.292	476.88
587.502	453.88
587.713	498.88
587.923	469.88
588.133	466.88
588.343	479.88
588.553	455.88
588.762	470.88
588.972	479.88
589.182	516.88
589.392	504.88
589.602	499.88
589.812	494.88
590.022	468.88
590.232	460.88
590.441	486.88
590.651	481.88
590.861	473.88
591.071	476.88
591.281	458.88
591.49	462.88
591.7	479.88
591.91	466.88
592.119	477.88
592.329	467.88
592.539	462.88
592.748	499.88
592.958	478.88
593.167	482.88
593.377	500.88
593.587	498.88
593.796	487.88
594.006	474.88
594.215	488.88
594.424	489.88
594.634	489.88
594.843	468.88
595.053	468.88
595.262	468.88
595.472	464.88
595.681	455.88
595.89	464.88
596.1	466.88
596.309	437.88
596.518	455.88
596.727	437.88
596.937	433.88
597.146	420.88
597.355	432.88
597.564	407.88
597.774	414.88
597.983	427.88
598.192	403.88
598.401	412.88
598.61	429.88
598.819	372.88
599.028	417.88
599.237	421.88
599.446	394.88
599.655	396.88
599.864	384.88
600.073	399.88
600.282	413.88
600.491	396.88
600.7	406.88
600.909	380.88
601.118	382.88
601.327	385.88
601.536	401.88
601.745	376.88
601.953	375.88
602.162	371.88
602.371	367.88
602.58	376.88
602.789	382.88
602.997	368.88
603.206	378.88
603.415	374.88
603.623	396.88
603.832	370.88
604.041	363.88
604.249	386.88
604.458	355.88
604.666	370.88
604.875	365.88
605.084	358.88
605.292	361.88
605.501	375.88
605.709	367.88
605.918	362.88
606.126	357.88
606.334	360.88
606.543	355.88
606.751	360.88
606.96	362.88
607.168	360.88
607.376	361.88
607.585	370.88
607.793	362.88
608.001	356.88
608.21	367.88
608.418	350.88
608.626	364.88
608.834	350.88
609.043	342.88
609.251	362.88
609.459	365.88
609.667	358.88
609.875	364.88
610.083	360.88
610.291	349.88
610.499	365.88
610.707	342.88
610.916	349.88
611.124	347.88
611.332	337.88
611.54	363.88
611.748	336.88
611.955	334.88
612.163	341.88
612.371	353.88
612.579	336.88
612.787	333.88
612.995	339.88
613.203	355.88
613.411	348.88
613.618	348.88
613.826	344.88
614.034	343.88
614.242	332.88
614.449	344.88
614.657	328.88
614.865	344.88
615.072	326.88
615.28	339.88
615.488	317.88
615.695	319.88
615.903	335.88
616.111	334.88
616.318	340.88
616.526	330.88
616.733	355.88
616.941	345.88
617.148	333.88
617.356	326.88
617.563	344.88
617.771	334.88
617.978	322.88
618.185	331.88
618.393	340.88
618.6	330.88
618.807	320.88
619.015	316.88
619.222	339.88
619.429	340.88
619.637	323.88
619.844	323.88
620.051	327.88
620.258	315.88
620.466	323.88
620.673	316.88
620.88	303.88
621.087	303.88
621.294	316.88
621.501	284.88
621.708	296.88
621.915	308.88
622.122	304.88
622.329	306.88
622.536	313.88
622.743	320.88
622.95	293.88
623.157	297.88
623.364	288.88
623.571	304.88
623.778	313.88
623.985	310.88
624.192	312.88
624.399	301.88
624.606	298.88
624.812	290.88
625.019	294.88
625.226	286.88
625.433	294.88
625.639	283.88
625.846	296.88
626.053	273.88
626.259	292.88
626.466	294.88
626.673	298.88
626.879	262.88
627.086	285.88
627.293	303.88
627.499	309.88
627.706	292.88
627.912	291.88
628.119	295.88
628.325	293.88
628.532	265.88
628.738	280.88
628.945	273.88
629.151	275.88
629.357	270.88
629.564	280.88
629.77	281.88
629.976	269.88
630.183	272.88
630.389	286.88
630.595	287.88
630.802	271.88
631.008	274.88
631.214	264.88
631.42	284.88
631.627	253.88
631.833	252.88
632.039	252.88
632.245	271.88
632.451	273.88
632.657	268.88
632.863	263.88
633.069	280.88
633.275	285.88
633.481	272.88
633.688	252.88
633.893	269.88
634.099	266.88
634.305	263.88
634.511	266.88
634.717	282.88
634.923	264.88
635.129	258.88
635.335	259.88
635.541	261.88
635.747	268.88
635.952	257.88
636.158	269.88
636.364	265.88
636.57	247.88
636.775	257.88
636.981	274.88
637.187	262.88
637.392	253.88
637.598	261.88
637.804	247.88
638.009	270.88
638.215	264.88
638.421	245.88
638.626	245.88
638.832	238.88
639.037	266.88
639.243	275.88
639.448	254.88
639.654	242.88
639.859	255.88
640.065	238.88
640.27	256.88
640.475	266.88
640.681	249.88
640.886	258.88
641.091	223.88
641.297	243.88
641.502	242.88
641.707	244.88
641.913	246.88
642.118	253.88
642.323	255.88
642.528	232.88
642.733	254.88
642.939	247.88
643.144	235.88
643.349	254.88
643.554	239.88
643.759	256.88
643.964	240.88
644.169	260.88
644.374	235.88
644.579	231.88
644.784	240.88
644.989	251.88
645.194	240.88
645.399	242.88
645.604	237.88
645.809	244.88
646.014	248.88
646.219	264.88
646.423	242.88
646.628	250.88
646.833	260.88
647.038	248.88
647.243	261.88
647.447	251.88
647.652	249.88
647.857	249.88
648.062	243.88
648.266	269.88
648.471	258.88
648.676	268.88
648.88	235.88
649.085	263.88
649.289	250.88
649.494	249.88
649.698	247.88
649.903	247.88
650.107	250.88
650.312	253.88
650.516	270.88
650.721	237.88
650.925	258.88
651.13	261.88
651.334	247.88
651.539	243.88
651.743	267.88
651.947	268.88
652.152	233.88
652.356	230.88
652.56	249.88
652.764	247.88
652.969	238.88
653.173	238.88
653.377	233.88
653.581	239.88
653.785	250.88
653.99	216.88
654.194	229.88
654.398	245.88
654.602	232.88
654.806	247.88
655.01	258.88
655.214	265.88
655.418	253.88
655.622	250.88
655.826	265.88
656.03	276.88
656.234	275.88
656.438	264.88
656.642	272.88
656.846	252.88
657.049	246.88
657.253	235.88
657.457	222.88
657.661	207.88
657.865	209.88
658.068	192.88
658.272	185.88
658.476	183.88
658.68	156.88
658.883	155.88
659.087	155.88
659.291	141.88
659.494	149.88
659.698	124.88
659.901	137.88
660.105	131.88
660.309	136.88
660.512	124.88
660.716	122.88
660.919	126.88
661.123	119.88
661.326	111.88
661.53	105.88
661.733	107.88
661.936	112.88
662.14	118.88
662.343	106.88
662.546	86.88
662.75	104.88
662.953	96.88
663.156	74.88
663.36	90.88
663.563	92.88
663.766	92.88
663.969	80.88
664.173	78.88
664.376	78.88
664.579	91.88
664.782	80.88
664.985	87.88
665.188	87.88
665.391	78.88
665.594	69.88
665.797	97.88
666	82.88
666.203	87.88
666.406	83.88
666.609	89.88
666.812	81.88
667.015	79.88
667.218	92.88
667.421	86.88
667.624	89.88
667.827	90.88
668.03	72.88
668.232	70.88
668.435	74.88
668.638	63.88
668.841	89.88
669.043	92.88
669.246	88.88
669.449	80.88
669.651	83.88
669.854	91.88
670.057	94.88
670.259	84.88
670.462	90.88
670.665	81.88
670.867	86.88
671.07	87.88
671.272	80.88
671.475	88.88
671.677	82.88
671.88	72.88
672.082	78.88
672.284	88.88
672.487	75.88
672.689	75.88
672.892	87.88
