Data from Ni(NO3)2@0.0625M.TitratingCurve.Agarose3%dH2O.NegLispCup.LampEnergy10.LIBS07252019_HRD10591_18-13-07-569.txt Node
Date: Thu Jul 25 18:13:07 EDT 2019
User: cochatt
Spectrometer: HR+D1059
Trigger mode: 1
Integration Time (sec): 1.000000E-1
Scans to average: 1
Electric dark correction enabled: true
Nonlinearity correction enabled: false
Boxcar width: 0
XAxis mode: Wavelengths
Number of Pixels in Spectrum: 2048
>>>>>Begin Spectral Data<<<<<
223.165	-21.5
223.4	-21.5
223.635	-21.5
223.869	-3.5
224.104	-20.5
224.338	-16.5
224.573	-20.5
224.808	-21.5
225.042	-0.5
225.277	-1.5
225.511	-12.5
225.746	1.5
225.98	10.5
226.215	2.5
226.449	21.5
226.683	24.5
226.918	23.5
227.152	34.5
227.387	22.5
227.621	52.5
227.856	43.5
228.09	39.5
228.324	58.5
228.559	58.5
228.793	76.5
229.027	103.5
229.262	128.5
229.496	130.5
229.73	134.5
229.964	151.5
230.199	151.5
230.433	159.5
230.667	157.5
230.901	148.5
231.136	148.5
231.37	153.5
231.604	158.5
231.838	147.5
232.072	159.5
232.306	169.5
232.541	151.5
232.775	158.5
233.009	166.5
233.243	172.5
233.477	177.5
233.711	176.5
233.945	162.5
234.179	156.5
234.413	160.5
234.647	171.5
234.881	175.5
235.115	169.5
235.349	195.5
235.583	163.5
235.817	165.5
236.051	162.5
236.285	166.5
236.519	166.5
236.753	170.5
236.987	190.5
237.221	180.5
237.455	180.5
237.689	192.5
237.922	186.5
238.156	192.5
238.39	186.5
238.624	185.5
238.858	202.5
239.091	196.5
239.325	188.5
239.559	199.5
239.793	213.5
240.027	195.5
240.26	188.5
240.494	208.5
240.728	212.5
240.961	213.5
241.195	208.5
241.429	223.5
241.662	221.5
241.896	214.5
242.13	236.5
242.363	239.5
242.597	235.5
242.83	222.5
243.064	204.5
243.298	234.5
243.531	224.5
243.765	235.5
243.998	249.5
244.232	258.5
244.465	245.5
244.699	251.5
244.932	239.5
245.166	248.5
245.399	255.5
245.633	243.5
245.866	258.5
246.099	268.5
246.333	256.5
246.566	247.5
246.8	241.5
247.033	262.5
247.266	256.5
247.5	274.5
247.733	248.5
247.966	271.5
248.2	270.5
248.433	281.5
248.666	275.5
248.899	268.5
249.133	274.5
249.366	304.5
249.599	294.5
249.832	292.5
250.066	289.5
250.299	287.5
250.532	303.5
250.765	290.5
250.998	305.5
251.231	314.5
251.465	315.5
251.698	331.5
251.931	323.5
252.164	298.5
252.397	327.5
252.63	324.5
252.863	328.5
253.096	336.5
253.329	345.5
253.562	308.5
253.795	301.5
254.028	328.5
254.261	318.5
254.494	350.5
254.727	328.5
254.96	325.5
255.193	344.5
255.426	335.5
255.659	341.5
255.892	351.5
256.124	346.5
256.357	350.5
256.59	354.5
256.823	342.5
257.056	332.5
257.289	358.5
257.521	358.5
257.754	351.5
257.987	353.5
258.22	354.5
258.452	377.5
258.685	361.5
258.918	379.5
259.151	373.5
259.383	368.5
259.616	392.5
259.849	372.5
260.081	380.5
260.314	382.5
260.547	385.5
260.779	369.5
261.012	389.5
261.244	379.5
261.477	398.5
261.71	393.5
261.942	378.5
262.175	400.5
262.407	381.5
262.64	396.5
262.872	421.5
263.105	399.5
263.337	425.5
263.57	408.5
263.802	406.5
264.035	405.5
264.267	395.5
264.499	403.5
264.732	421.5
264.964	421.5
265.197	417.5
265.429	430.5
265.661	419.5
265.894	411.5
266.126	423.5
266.358	435.5
266.591	433.5
266.823	446.5
267.055	454.5
267.287	440.5
267.52	422.5
267.752	430.5
267.984	457.5
268.216	457.5
268.448	450.5
268.681	455.5
268.913	444.5
269.145	431.5
269.377	453.5
269.609	437.5
269.841	445.5
270.073	442.5
270.306	458.5
270.538	443.5
270.77	477.5
271.002	432.5
271.234	458.5
271.466	454.5
271.698	455.5
271.93	464.5
272.162	488.5
272.394	485.5
272.626	470.5
272.858	455.5
273.09	477.5
273.322	494.5
273.553	477.5
273.785	476.5
274.017	465.5
274.249	494.5
274.481	500.5
274.713	505.5
274.945	515.5
275.176	503.5
275.408	515.5
275.64	543.5
275.872	534.5
276.104	513.5
276.335	514.5
276.567	497.5
276.799	515.5
277.031	519.5
277.262	537.5
277.494	536.5
277.726	517.5
277.957	518.5
278.189	540.5
278.421	531.5
278.652	534.5
278.884	526.5
279.115	498.5
279.347	523.5
279.579	547.5
279.81	533.5
280.042	554.5
280.273	547.5
280.505	560.5
280.736	567.5
280.968	548.5
281.199	555.5
281.431	560.5
281.662	571.5
281.894	575.5
282.125	560.5
282.356	576.5
282.588	586.5
282.819	572.5
283.051	559.5
283.282	579.5
283.513	577.5
283.745	575.5
283.976	563.5
284.207	579.5
284.439	594.5
284.67	605.5
284.901	600.5
285.132	587.5
285.364	591.5
285.595	610.5
285.826	593.5
286.057	611.5
286.288	594.5
286.52	611.5
286.751	626.5
286.982	613.5
287.213	616.5
287.444	603.5
287.675	608.5
287.906	625.5
288.138	614.5
288.369	629.5
288.6	641.5
288.831	614.5
289.062	631.5
289.293	616.5
289.524	633.5
289.755	619.5
289.986	619.5
290.217	631.5
290.448	620.5
290.679	633.5
290.91	630.5
291.141	641.5
291.371	636.5
291.602	665.5
291.833	658.5
292.064	652.5
292.295	622.5
292.526	660.5
292.757	634.5
292.987	656.5
293.218	662.5
293.449	670.5
293.68	646.5
293.91	654.5
294.141	633.5
294.372	646.5
294.603	641.5
294.833	681.5
295.064	635.5
295.295	635.5
295.525	651.5
295.756	676.5
295.987	674.5
296.217	682.5
296.448	687.5
296.679	666.5
296.909	665.5
297.14	669.5
297.37	658.5
297.601	700.5
297.831	695.5
298.062	691.5
298.292	680.5
298.523	706.5
298.753	722.5
298.984	690.5
299.214	704.5
299.445	722.5
299.675	701.5
299.905	692.5
300.136	715.5
300.366	751.5
300.597	729.5
300.827	750.5
301.057	741.5
301.288	763.5
301.518	740.5
301.748	737.5
301.979	759.5
302.209	745.5
302.439	744.5
302.669	742.5
302.9	726.5
303.13	730.5
303.36	727.5
303.59	728.5
303.82	735.5
304.051	729.5
304.281	744.5
304.511	733.5
304.741	732.5
304.971	733.5
305.201	725.5
305.431	768.5
305.661	706.5
305.891	735.5
306.121	742.5
306.352	726.5
306.582	676.5
306.812	687.5
307.042	739.5
307.272	718.5
307.502	711.5
307.731	751.5
307.961	732.5
308.191	704.5
308.421	707.5
308.651	718.5
308.881	714.5
309.111	702.5
309.341	731.5
309.571	728.5
309.8	730.5
310.03	714.5
310.26	730.5
310.49	743.5
310.72	736.5
310.949	728.5
311.179	728.5
311.409	744.5
311.639	770.5
311.868	758.5
312.098	735.5
312.328	753.5
312.557	761.5
312.787	743.5
313.017	777.5
313.246	780.5
313.476	789.5
313.706	778.5
313.935	775.5
314.165	794.5
314.394	785.5
314.624	792.5
314.853	776.5
315.083	775.5
315.312	759.5
315.542	767.5
315.771	749.5
316.001	771.5
316.23	774.5
316.46	789.5
316.689	754.5
316.919	757.5
317.148	745.5
317.377	764.5
317.607	767.5
317.836	753.5
318.065	747.5
318.295	785.5
318.524	768.5
318.753	741.5
318.983	741.5
319.212	767.5
319.441	754.5
319.67	755.5
319.9	759.5
320.129	764.5
320.358	758.5
320.587	767.5
320.816	759.5
321.046	771.5
321.275	774.5
321.504	779.5
321.733	755.5
321.962	755.5
322.191	777.5
322.42	778.5
322.649	776.5
322.878	767.5
323.108	785.5
323.337	802.5
323.566	780.5
323.795	799.5
324.024	803.5
324.253	792.5
324.482	799.5
324.71	773.5
324.939	795.5
325.168	784.5
325.397	794.5
325.626	814.5
325.855	847.5
326.084	808.5
326.313	869.5
326.542	858.5
326.77	843.5
326.999	850.5
327.228	834.5
327.457	807.5
327.686	838.5
327.914	851.5
328.143	862.5
328.372	860.5
328.6	870.5
328.829	827.5
329.058	857.5
329.287	894.5
329.515	848.5
329.744	833.5
329.972	861.5
330.201	852.5
330.43	898.5
330.658	865.5
330.887	844.5
331.115	882.5
331.344	867.5
331.572	878.5
331.801	914.5
332.03	937.5
332.258	971.5
332.486	974.5
332.715	1035.5
332.943	1054.5
333.172	1092.5
333.4	1137.5
333.629	1170.5
333.857	1189.5
334.085	1183.5
334.314	1126.5
334.542	1112.5
334.771	1112.5
334.999	1065.5
335.227	1080.5
335.455	1079.5
335.684	1038.5
335.912	1055.5
336.14	1061.5
336.369	1041.5
336.597	1017.5
336.825	1041.5
337.053	1043.5
337.281	1001.5
337.51	972.5
337.738	985.5
337.966	972.5
338.194	976.5
338.422	937.5
338.65	915.5
338.878	953.5
339.106	932.5
339.334	946.5
339.562	924.5
339.79	930.5
340.018	904.5
340.246	853.5
340.474	894.5
340.702	888.5
340.93	899.5
341.158	922.5
341.386	911.5
341.614	924.5
341.842	898.5
342.07	880.5
342.298	888.5
342.526	892.5
342.754	898.5
342.981	871.5
343.209	930.5
343.437	938.5
343.665	993.5
343.893	1096.5
344.12	1109.5
344.348	1066.5
344.576	996.5
344.804	980.5
345.031	926.5
345.259	903.5
345.487	880.5
345.714	906.5
345.942	907.5
346.17	887.5
346.397	884.5
346.625	865.5
346.853	854.5
347.08	840.5
347.308	863.5
347.535	905.5
347.763	857.5
347.99	875.5
348.218	858.5
348.445	842.5
348.673	879.5
348.9	854.5
349.128	876.5
349.355	878.5
349.583	854.5
349.81	851.5
350.037	849.5
350.265	865.5
350.492	856.5
350.72	812.5
350.947	818.5
351.174	845.5
351.402	845.5
351.629	844.5
351.856	827.5
352.083	852.5
352.311	815.5
352.538	820.5
352.765	841.5
352.992	839.5
353.22	817.5
353.447	819.5
353.674	845.5
353.901	806.5
354.128	816.5
354.355	825.5
354.583	817.5
354.81	821.5
355.037	828.5
355.264	842.5
355.491	828.5
355.718	825.5
355.945	816.5
356.172	834.5
356.399	828.5
356.626	857.5
356.853	872.5
357.08	847.5
357.307	866.5
357.534	818.5
357.761	845.5
357.988	802.5
358.215	830.5
358.441	832.5
358.668	838.5
358.895	830.5
359.122	832.5
359.349	818.5
359.576	830.5
359.802	823.5
360.029	818.5
360.256	823.5
360.483	862.5
360.709	822.5
360.936	821.5
361.163	846.5
361.39	823.5
361.616	803.5
361.843	839.5
362.07	852.5
362.296	834.5
362.523	839.5
362.749	836.5
362.976	837.5
363.203	808.5
363.429	836.5
363.656	811.5
363.882	822.5
364.109	851.5
364.335	835.5
364.562	841.5
364.788	821.5
365.015	806.5
365.241	824.5
365.468	807.5
365.694	818.5
365.92	837.5
366.147	820.5
366.373	834.5
366.599	815.5
366.826	830.5
367.052	830.5
367.278	815.5
367.505	795.5
367.731	846.5
367.957	838.5
368.184	866.5
368.41	855.5
368.636	830.5
368.862	854.5
369.089	888.5
369.315	857.5
369.541	847.5
369.767	864.5
369.993	873.5
370.219	858.5
370.445	887.5
370.672	863.5
370.898	898.5
371.124	881.5
371.35	894.5
371.576	882.5
371.802	887.5
372.028	892.5
372.254	879.5
372.48	903.5
372.706	934.5
372.932	953.5
373.158	914.5
373.384	919.5
373.61	878.5
373.835	889.5
374.061	905.5
374.287	924.5
374.513	950.5
374.739	949.5
374.965	995.5
375.191	1001.5
375.416	1003.5
375.642	961.5
375.868	970.5
376.094	923.5
376.319	926.5
376.545	921.5
376.771	921.5
376.997	893.5
377.222	882.5
377.448	873.5
377.674	899.5
377.899	916.5
378.125	898.5
378.35	913.5
378.576	879.5
378.802	892.5
379.027	882.5
379.253	884.5
379.478	869.5
379.704	878.5
379.929	894.5
380.155	862.5
380.38	885.5
380.606	894.5
380.831	904.5
381.057	908.5
381.282	923.5
381.507	900.5
381.733	913.5
381.958	931.5
382.184	946.5
382.409	958.5
382.634	938.5
382.86	966.5
383.085	978.5
383.31	973.5
383.535	977.5
383.761	991.5
383.986	1014.5
384.211	1030.5
384.436	1073.5
384.662	1085.5
384.887	1104.5
385.112	1096.5
385.337	1097.5
385.562	1096.5
385.787	1097.5
386.013	1124.5
386.238	1129.5
386.463	1101.5
386.688	1097.5
386.913	1105.5
387.138	1090.5
387.363	1082.5
387.588	1057.5
387.813	1090.5
388.038	1062.5
388.263	1096.5
388.488	1073.5
388.713	1078.5
388.938	1066.5
389.163	1067.5
389.387	1086.5
389.612	1046.5
389.837	1029.5
390.062	1071.5
390.287	1075.5
390.512	1057.5
390.736	1073.5
390.961	1096.5
391.186	1104.5
391.411	1162.5
391.636	1179.5
391.86	1266.5
392.085	1241.5
392.31	1252.5
392.534	1212.5
392.759	1171.5
392.984	1164.5
393.208	1150.5
393.433	1170.5
393.658	1177.5
393.882	1170.5
394.107	1164.5
394.331	1165.5
394.556	1154.5
394.78	1165.5
395.005	1192.5
395.229	1219.5
395.454	1191.5
395.678	1216.5
395.903	1232.5
396.127	1167.5
396.352	1188.5
396.576	1137.5
396.801	1165.5
397.025	1143.5
397.249	1172.5
397.474	1206.5
397.698	1278.5
397.922	1258.5
398.147	1256.5
398.371	1268.5
398.595	1296.5
398.82	1336.5
399.044	1431.5
399.268	1579.5
399.492	1831.5
399.717	2116.5
399.941	2118.5
400.165	1858.5
400.389	1624.5
400.613	1538.5
400.837	1435.5
401.062	1419.5
401.286	1366.5
401.51	1349.5
401.734	1356.5
401.958	1369.5
402.182	1391.5
402.406	1423.5
402.63	1451.5
402.854	1446.5
403.078	1465.5
403.302	1543.5
403.526	1566.5
403.75	1566.5
403.974	1603.5
404.198	1611.5
404.422	1641.5
404.645	1617.5
404.869	1570.5
405.093	1518.5
405.317	1523.5
405.541	1531.5
405.765	1472.5
405.988	1494.5
406.212	1486.5
406.436	1493.5
406.66	1520.5
406.883	1579.5
407.107	1641.5
407.331	1761.5
407.555	1801.5
407.778	1800.5
408.002	1726.5
408.226	1620.5
408.449	1615.5
408.673	1627.5
408.896	1602.5
409.12	1534.5
409.344	1560.5
409.567	1567.5
409.791	1601.5
410.014	1577.5
410.238	1551.5
410.461	1528.5
410.685	1525.5
410.908	1483.5
411.132	1463.5
411.355	1395.5
411.578	1427.5
411.802	1411.5
412.025	1425.5
412.249	1465.5
412.472	1421.5
412.695	1392.5
412.919	1347.5
413.142	1394.5
413.365	1357.5
413.589	1368.5
413.812	1342.5
414.035	1381.5
414.258	1310.5
414.482	1374.5
414.705	1387.5
414.928	1402.5
415.151	1348.5
415.374	1359.5
415.597	1378.5
415.821	1334.5
416.044	1329.5
416.267	1335.5
416.49	1318.5
416.713	1323.5
416.936	1363.5
417.159	1339.5
417.382	1335.5
417.605	1328.5
417.828	1323.5
418.051	1346.5
418.274	1352.5
418.497	1339.5
418.72	1398.5
418.943	1394.5
419.166	1468.5
419.389	1567.5
419.611	1538.5
419.834	1444.5
420.057	1435.5
420.28	1370.5
420.503	1328.5
420.726	1354.5
420.948	1332.5
421.171	1352.5
421.394	1348.5
421.617	1336.5
421.839	1335.5
422.062	1369.5
422.285	1333.5
422.507	1380.5
422.73	1378.5
422.953	1389.5
423.175	1392.5
423.398	1405.5
423.621	1384.5
423.843	1461.5
424.066	1458.5
424.288	1428.5
424.511	1399.5
424.733	1384.5
424.956	1360.5
425.178	1373.5
425.401	1343.5
425.623	1354.5
425.846	1273.5
426.068	1322.5
426.291	1297.5
426.513	1297.5
426.735	1266.5
426.958	1266.5
427.18	1203.5
427.402	1208.5
427.625	1223.5
427.847	1216.5
428.069	1211.5
428.292	1212.5
428.514	1168.5
428.736	1203.5
428.958	1209.5
429.181	1153.5
429.403	1159.5
429.625	1146.5
429.847	1158.5
430.069	1171.5
430.292	1142.5
430.514	1152.5
430.736	1124.5
430.958	1170.5
431.18	1176.5
431.402	1171.5
431.624	1166.5
431.846	1170.5
432.068	1216.5
432.29	1206.5
432.512	1162.5
432.734	1217.5
432.956	1183.5
433.178	1222.5
433.4	1221.5
433.622	1227.5
433.844	1204.5
434.066	1216.5
434.287	1219.5
434.509	1312.5
434.731	1296.5
434.953	1348.5
435.175	1360.5
435.397	1342.5
435.618	1247.5
435.84	1200.5
436.062	1226.5
436.284	1180.5
436.505	1163.5
436.727	1185.5
436.949	1191.5
437.17	1194.5
437.392	1160.5
437.614	1177.5
437.835	1134.5
438.057	1146.5
438.278	1151.5
438.5	1152.5
438.721	1151.5
438.943	1154.5
439.165	1156.5
439.386	1114.5
439.608	1158.5
439.829	1198.5
440.05	1170.5
440.272	1187.5
440.493	1192.5
440.715	1218.5
440.936	1232.5
441.158	1252.5
441.379	1265.5
441.6	1346.5
441.822	1383.5
442.043	1362.5
442.264	1304.5
442.486	1279.5
442.707	1328.5
442.928	1293.5
443.149	1317.5
443.371	1288.5
443.592	1316.5
443.813	1360.5
444.034	1385.5
444.255	1403.5
444.476	1481.5
444.698	1549.5
444.919	1606.5
445.14	1633.5
445.361	1478.5
445.582	1408.5
445.803	1312.5
446.024	1260.5
446.245	1238.5
446.466	1222.5
446.687	1186.5
446.908	1206.5
447.129	1176.5
447.35	1178.5
447.571	1143.5
447.792	1107.5
448.013	1104.5
448.234	1098.5
448.455	1111.5
448.675	1070.5
448.896	1081.5
449.117	1065.5
449.338	1076.5
449.559	1046.5
449.779	1079.5
450	1044.5
450.221	1078.5
450.442	1107.5
450.662	1120.5
450.883	1111.5
451.104	1127.5
451.324	1108.5
451.545	1120.5
451.766	1125.5
451.986	1098.5
452.207	1093.5
452.428	1096.5
452.648	1080.5
452.869	1057.5
453.089	1061.5
453.31	1081.5
453.53	1054.5
453.751	1078.5
453.971	1057.5
454.192	1055.5
454.412	1003.5
454.633	998.5
454.853	1042.5
455.073	1022.5
455.294	1057.5
455.514	997.5
455.734	1014.5
455.955	1013.5
456.175	1001.5
456.395	998.5
456.616	997.5
456.836	981.5
457.056	990.5
457.276	984.5
457.497	1027.5
457.717	996.5
457.937	986.5
458.157	1039.5
458.377	1048.5
458.598	1042.5
458.818	1083.5
459.038	1143.5
459.258	1163.5
459.478	1166.5
459.698	1232.5
459.918	1259.5
460.138	1310.5
460.358	1367.5
460.578	1406.5
460.798	1399.5
461.018	1427.5
461.238	1392.5
461.458	1372.5
461.678	1403.5
461.898	1410.5
462.118	1398.5
462.338	1488.5
462.558	1552.5
462.777	1608.5
462.997	1776.5
463.217	1881.5
463.437	1918.5
463.657	1794.5
463.876	1669.5
464.096	1668.5
464.316	1650.5
464.536	1639.5
464.755	1562.5
464.975	1498.5
465.195	1441.5
465.414	1380.5
465.634	1282.5
465.854	1263.5
466.073	1236.5
466.293	1188.5
466.512	1132.5
466.732	1160.5
466.951	1164.5
467.171	1130.5
467.391	1157.5
467.61	1126.5
467.829	1118.5
468.049	1128.5
468.268	1082.5
468.488	1070.5
468.707	1074.5
468.927	1116.5
469.146	1096.5
469.365	1111.5
469.585	1075.5
469.804	1154.5
470.023	1182.5
470.243	1202.5
470.462	1187.5
470.681	1176.5
470.901	1180.5
471.12	1148.5
471.339	1131.5
471.558	1086.5
471.777	1120.5
471.997	1121.5
472.216	1087.5
472.435	1054.5
472.654	1072.5
472.873	1060.5
473.092	1055.5
473.311	1047.5
473.53	1052.5
473.749	1047.5
473.968	1058.5
474.187	1054.5
474.406	1027.5
474.625	1064.5
474.844	1061.5
475.063	1082.5
475.282	1057.5
475.501	1095.5
475.72	1088.5
475.939	1091.5
476.158	1103.5
476.377	1094.5
476.596	1119.5
476.814	1124.5
477.033	1112.5
477.252	1137.5
477.471	1143.5
477.69	1198.5
477.908	1204.5
478.127	1266.5
478.346	1249.5
478.564	1328.5
478.783	1296.5
479.002	1368.5
479.22	1360.5
479.439	1296.5
479.658	1343.5
479.876	1353.5
480.095	1372.5
480.313	1410.5
480.532	1440.5
480.751	1442.5
480.969	1380.5
481.188	1305.5
481.406	1302.5
481.624	1250.5
481.843	1239.5
482.061	1219.5
482.28	1215.5
482.498	1205.5
482.717	1199.5
482.935	1227.5
483.153	1232.5
483.372	1216.5
483.59	1238.5
483.808	1232.5
484.027	1224.5
484.245	1253.5
484.463	1268.5
484.681	1266.5
484.9	1298.5
485.118	1284.5
485.336	1277.5
485.554	1292.5
485.772	1318.5
485.99	1335.5
486.209	1321.5
486.427	1345.5
486.645	1335.5
486.863	1337.5
487.081	1320.5
487.299	1320.5
487.517	1295.5
487.735	1309.5
487.953	1299.5
488.171	1305.5
488.389	1315.5
488.607	1267.5
488.825	1295.5
489.043	1283.5
489.261	1292.5
489.479	1277.5
489.696	1283.5
489.914	1260.5
490.132	1292.5
490.35	1287.5
490.568	1280.5
490.786	1263.5
491.003	1274.5
491.221	1273.5
491.439	1275.5
491.657	1290.5
491.874	1269.5
492.092	1282.5
492.31	1290.5
492.527	1301.5
492.745	1330.5
492.963	1290.5
493.18	1305.5
493.398	1311.5
493.615	1335.5
493.833	1285.5
494.05	1330.5
494.268	1347.5
494.485	1363.5
494.703	1340.5
494.92	1359.5
495.138	1297.5
495.355	1345.5
495.573	1336.5
495.79	1325.5
496.008	1345.5
496.225	1349.5
496.442	1363.5
496.66	1394.5
496.877	1390.5
497.094	1457.5
497.312	1446.5
497.529	1467.5
497.746	1500.5
497.963	1569.5
498.181	1670.5
498.398	1700.5
498.615	1834.5
498.832	1941.5
499.049	2084.5
499.267	2269.5
499.484	2488.5
499.701	2772.5
499.918	3073.5
500.135	3500.5
500.352	3996.5
500.569	4185.5
500.786	4161.5
501.003	3833.5
501.22	3418.5
501.437	2970.5
501.654	2616.5
501.871	2409.5
502.088	2162.5
502.305	2044.5
502.522	1925.5
502.739	1843.5
502.956	1777.5
503.172	1702.5
503.389	1599.5
503.606	1548.5
503.823	1518.5
504.04	1522.5
504.256	1570.5
504.473	1593.5
504.69	1663.5
504.907	1625.5
505.123	1478.5
505.34	1403.5
505.557	1344.5
505.773	1309.5
505.99	1285.5
506.207	1262.5
506.423	1231.5
506.64	1218.5
506.856	1185.5
507.073	1205.5
507.289	1158.5
507.506	1185.5
507.722	1190.5
507.939	1183.5
508.155	1170.5
508.372	1164.5
508.588	1150.5
508.805	1093.5
509.021	1124.5
509.238	1099.5
509.454	1106.5
509.67	1107.5
509.887	1087.5
510.103	1123.5
510.319	1089.5
510.536	1086.5
510.752	1081.5
510.968	1037.5
511.184	1066.5
511.401	1125.5
511.617	1092.5
511.833	1091.5
512.049	1054.5
512.265	1055.5
512.481	1066.5
512.698	1046.5
512.914	1036.5
513.13	1072.5
513.346	1089.5
513.562	1077.5
513.778	1055.5
513.994	1050.5
514.21	1046.5
514.426	1082.5
514.642	1117.5
514.858	1104.5
515.074	1128.5
515.29	1125.5
515.506	1125.5
515.721	1156.5
515.937	1172.5
516.153	1140.5
516.369	1227.5
516.585	1196.5
516.801	1279.5
517.016	1340.5
517.232	1376.5
517.448	1487.5
517.664	1516.5
517.879	1534.5
518.095	1504.5
518.311	1488.5
518.527	1448.5
518.742	1370.5
518.958	1316.5
519.173	1270.5
519.389	1236.5
519.605	1186.5
519.82	1159.5
520.036	1157.5
520.251	1130.5
520.467	1108.5
520.682	1078.5
520.898	1065.5
521.113	1048.5
521.329	1051.5
521.544	1041.5
521.76	1039.5
521.975	1044.5
522.19	1010.5
522.406	1032.5
522.621	1019.5
522.836	1000.5
523.052	1006.5
523.267	1013.5
523.482	987.5
523.698	978.5
523.913	964.5
524.128	1004.5
524.343	1001.5
524.559	983.5
524.774	976.5
524.989	1007.5
525.204	940.5
525.419	953.5
525.634	950.5
525.849	987.5
526.064	960.5
526.28	991.5
526.495	964.5
526.71	961.5
526.925	943.5
527.14	946.5
527.355	943.5
527.57	949.5
527.785	972.5
527.999	951.5
528.214	961.5
528.429	958.5
528.644	964.5
528.859	975.5
529.074	940.5
529.289	956.5
529.503	977.5
529.718	944.5
529.933	983.5
530.148	956.5
530.363	959.5
530.577	943.5
530.792	958.5
531.007	959.5
531.221	955.5
531.436	979.5
531.651	958.5
531.865	971.5
532.08	968.5
532.295	977.5
532.509	952.5
532.724	916.5
532.938	961.5
533.153	962.5
533.367	965.5
533.582	958.5
533.796	971.5
534.011	993.5
534.225	958.5
534.44	943.5
534.654	978.5
534.868	945.5
535.083	932.5
535.297	931.5
535.511	933.5
535.726	894.5
535.94	927.5
536.154	939.5
536.369	893.5
536.583	886.5
536.797	913.5
537.011	888.5
537.225	927.5
537.44	906.5
537.654	899.5
537.868	863.5
538.082	853.5
538.296	870.5
538.51	874.5
538.724	871.5
538.938	866.5
539.153	887.5
539.367	886.5
539.581	892.5
539.795	849.5
540.009	850.5
540.222	872.5
540.436	879.5
540.65	858.5
540.864	846.5
541.078	863.5
541.292	869.5
541.506	874.5
541.72	878.5
541.934	843.5
542.147	858.5
542.361	843.5
542.575	827.5
542.789	848.5
543.002	827.5
543.216	832.5
543.43	840.5
543.644	844.5
543.857	833.5
544.071	848.5
544.285	839.5
544.498	854.5
544.712	827.5
544.925	856.5
545.139	859.5
545.352	868.5
545.566	876.5
545.779	893.5
545.993	879.5
546.206	872.5
546.42	873.5
546.633	859.5
546.847	859.5
547.06	823.5
547.274	878.5
547.487	843.5
547.7	875.5
547.914	893.5
548.127	876.5
548.34	912.5
548.554	887.5
548.767	872.5
548.98	886.5
549.193	892.5
549.407	891.5
549.62	905.5
549.833	927.5
550.046	896.5
550.259	898.5
550.473	851.5
550.686	878.5
550.899	862.5
551.112	868.5
551.325	857.5
551.538	876.5
551.751	864.5
551.964	864.5
552.177	849.5
552.39	891.5
552.603	888.5
552.816	892.5
553.029	942.5
553.242	937.5
553.455	952.5
553.667	982.5
553.88	976.5
554.093	931.5
554.306	896.5
554.519	886.5
554.732	884.5
554.944	848.5
555.157	820.5
555.37	816.5
555.583	817.5
555.795	800.5
556.008	814.5
556.221	758.5
556.433	778.5
556.646	780.5
556.859	751.5
557.071	752.5
557.284	753.5
557.496	743.5
557.709	714.5
557.921	751.5
558.134	745.5
558.346	724.5
558.559	732.5
558.771	741.5
558.984	710.5
559.196	707.5
559.409	732.5
559.621	741.5
559.833	720.5
560.046	730.5
560.258	718.5
560.47	708.5
560.683	713.5
560.895	708.5
561.107	714.5
561.32	713.5
561.532	699.5
561.744	727.5
561.956	702.5
562.168	711.5
562.381	717.5
562.593	707.5
562.805	712.5
563.017	714.5
563.229	724.5
563.441	723.5
563.653	733.5
563.865	722.5
564.077	725.5
564.289	734.5
564.501	748.5
564.713	781.5
564.925	770.5
565.137	792.5
565.349	806.5
565.561	796.5
565.773	853.5
565.985	915.5
566.197	952.5
566.408	973.5
566.62	1114.5
566.832	1215.5
567.044	1241.5
567.255	1229.5
567.467	1206.5
567.679	1277.5
567.891	1428.5
568.102	1469.5
568.314	1367.5
568.526	1226.5
568.737	1119.5
568.949	1032.5
569.161	912.5
569.372	890.5
569.584	827.5
569.795	780.5
570.007	742.5
570.218	759.5
570.43	734.5
570.641	738.5
570.853	729.5
571.064	727.5
571.276	752.5
571.487	743.5
571.698	700.5
571.91	669.5
572.121	656.5
572.333	643.5
572.544	626.5
572.755	622.5
572.966	635.5
573.178	634.5
573.389	616.5
573.6	596.5
573.811	592.5
574.023	593.5
574.234	571.5
574.445	580.5
574.656	581.5
574.867	581.5
575.078	577.5
575.289	603.5
575.501	565.5
575.712	560.5
575.923	566.5
576.134	544.5
576.345	547.5
576.556	561.5
576.767	546.5
576.978	546.5
577.188	550.5
577.399	531.5
577.61	544.5
577.821	537.5
578.032	524.5
578.243	514.5
578.454	517.5
578.665	534.5
578.875	516.5
579.086	534.5
579.297	512.5
579.508	510.5
579.718	511.5
579.929	521.5
580.14	477.5
580.35	498.5
580.561	518.5
580.772	505.5
580.982	514.5
581.193	491.5
581.403	494.5
581.614	516.5
581.825	497.5
582.035	489.5
582.246	496.5
582.456	479.5
582.667	496.5
582.877	494.5
583.087	479.5
583.298	464.5
583.508	483.5
583.719	478.5
583.929	503.5
584.139	484.5
584.35	496.5
584.56	490.5
584.77	492.5
584.981	463.5
585.191	474.5
585.401	462.5
585.611	453.5
585.821	460.5
586.032	456.5
586.242	456.5
586.452	486.5
586.662	474.5
586.872	458.5
587.082	474.5
587.292	461.5
587.502	464.5
587.713	446.5
587.923	464.5
588.133	479.5
588.343	494.5
588.553	455.5
588.762	446.5
588.972	467.5
589.182	451.5
589.392	444.5
589.602	453.5
589.812	460.5
590.022	469.5
590.232	488.5
590.441	469.5
590.651	476.5
590.861	461.5
591.071	480.5
591.281	490.5
591.49	479.5
591.7	486.5
591.91	496.5
592.119	494.5
592.329	513.5
592.539	550.5
592.748	550.5
592.958	567.5
593.167	604.5
593.377	619.5
593.587	606.5
593.796	592.5
594.006	601.5
594.215	632.5
594.424	633.5
594.634	617.5
594.843	538.5
595.053	539.5
595.262	537.5
595.472	531.5
595.681	502.5
595.89	502.5
596.1	464.5
596.309	464.5
596.518	455.5
596.727	464.5
596.937	459.5
597.146	425.5
597.355	430.5
597.564	422.5
597.774	409.5
597.983	426.5
598.192	407.5
598.401	398.5
598.61	407.5
598.819	420.5
599.028	396.5
599.237	411.5
599.446	387.5
599.655	401.5
599.864	408.5
600.073	397.5
600.282	387.5
600.491	392.5
600.7	403.5
600.909	388.5
601.118	379.5
601.327	377.5
601.536	386.5
601.745	401.5
601.953	393.5
602.162	374.5
602.371	369.5
602.58	388.5
602.789	362.5
602.997	388.5
603.206	370.5
603.415	391.5
603.623	362.5
603.832	356.5
604.041	367.5
604.249	356.5
604.458	345.5
604.666	359.5
604.875	386.5
605.084	354.5
605.292	359.5
605.501	359.5
605.709	342.5
605.918	357.5
606.126	348.5
606.334	372.5
606.543	341.5
606.751	342.5
606.96	359.5
607.168	355.5
607.376	361.5
607.585	344.5
607.793	363.5
608.001	363.5
608.21	359.5
608.418	348.5
608.626	350.5
608.834	353.5
609.043	344.5
609.251	355.5
609.459	332.5
609.667	344.5
609.875	329.5
610.083	354.5
610.291	336.5
610.499	341.5
610.707	328.5
610.916	350.5
611.124	336.5
611.332	328.5
611.54	348.5
611.748	345.5
611.955	348.5
612.163	337.5
612.371	351.5
612.579	341.5
612.787	358.5
612.995	335.5
613.203	341.5
613.411	332.5
613.618	314.5
613.826	336.5
614.034	338.5
614.242	329.5
614.449	321.5
614.657	333.5
614.865	331.5
615.072	339.5
615.28	336.5
615.488	320.5
615.695	333.5
615.903	364.5
616.111	342.5
616.318	329.5
616.526	342.5
616.733	334.5
616.941	329.5
617.148	344.5
617.356	324.5
617.563	331.5
617.771	332.5
617.978	336.5
618.185	356.5
618.393	334.5
618.6	350.5
618.807	349.5
619.015	342.5
619.222	326.5
619.429	335.5
619.637	326.5
619.844	341.5
620.051	313.5
620.258	336.5
620.466	314.5
620.673	308.5
620.88	304.5
621.087	314.5
621.294	306.5
621.501	314.5
621.708	321.5
621.915	324.5
622.122	287.5
622.329	290.5
622.536	306.5
622.743	286.5
622.95	296.5
623.157	302.5
623.364	293.5
623.571	299.5
623.778	294.5
623.985	299.5
624.192	288.5
624.399	290.5
624.606	284.5
624.812	275.5
625.019	281.5
625.226	292.5
625.433	288.5
625.639	284.5
625.846	285.5
626.053	306.5
626.259	278.5
626.466	268.5
626.673	274.5
626.879	286.5
627.086	286.5
627.293	259.5
627.499	270.5
627.706	276.5
627.912	278.5
628.119	274.5
628.325	271.5
628.532	279.5
628.738	275.5
628.945	304.5
629.151	274.5
629.357	266.5
629.564	267.5
629.77	267.5
629.976	275.5
630.183	258.5
630.389	256.5
630.595	255.5
630.802	259.5
631.008	246.5
631.214	262.5
631.42	246.5
631.627	254.5
631.833	255.5
632.039	247.5
632.245	254.5
632.451	256.5
632.657	266.5
632.863	222.5
633.069	241.5
633.275	233.5
633.481	258.5
633.688	250.5
633.893	235.5
634.099	231.5
634.305	231.5
634.511	229.5
634.717	244.5
634.923	232.5
635.129	240.5
635.335	236.5
635.541	245.5
635.747	231.5
635.952	240.5
636.158	226.5
636.364	239.5
636.57	238.5
636.775	240.5
636.981	243.5
637.187	244.5
637.392	211.5
637.598	230.5
637.804	251.5
638.009	235.5
638.215	234.5
638.421	214.5
638.626	201.5
638.832	220.5
639.037	215.5
639.243	220.5
639.448	223.5
639.654	231.5
639.859	232.5
640.065	227.5
640.27	234.5
640.475	223.5
640.681	218.5
640.886	235.5
641.091	228.5
641.297	216.5
641.502	212.5
641.707	208.5
641.913	217.5
642.118	219.5
642.323	213.5
642.528	221.5
642.733	226.5
642.939	201.5
643.144	213.5
643.349	196.5
643.554	228.5
643.759	214.5
643.964	194.5
644.169	215.5
644.374	208.5
644.579	220.5
644.784	217.5
644.989	204.5
645.194	203.5
645.399	208.5
645.604	216.5
645.809	228.5
646.014	198.5
646.219	195.5
646.423	224.5
646.628	212.5
646.833	211.5
647.038	201.5
647.243	208.5
647.447	218.5
647.652	217.5
647.857	228.5
648.062	225.5
648.266	231.5
648.471	239.5
648.676	241.5
648.88	231.5
649.085	234.5
649.289	227.5
649.494	210.5
649.698	210.5
649.903	206.5
650.107	202.5
650.312	207.5
650.516	209.5
650.721	218.5
650.925	217.5
651.13	197.5
651.334	197.5
651.539	193.5
651.743	192.5
651.947	183.5
652.152	206.5
652.356	186.5
652.56	177.5
652.764	182.5
652.969	181.5
653.173	175.5
653.377	155.5
653.581	169.5
653.785	159.5
653.99	158.5
654.194	188.5
654.398	175.5
654.602	167.5
654.806	170.5
655.01	177.5
655.214	178.5
655.418	168.5
655.622	192.5
655.826	182.5
656.03	183.5
656.234	201.5
656.438	204.5
656.642	209.5
656.846	213.5
657.049	176.5
657.253	147.5
657.457	165.5
657.661	144.5
657.865	134.5
658.068	136.5
658.272	130.5
658.476	134.5
658.68	124.5
658.883	117.5
659.087	114.5
659.291	101.5
659.494	123.5
659.698	106.5
659.901	110.5
660.105	95.5
660.309	99.5
660.512	115.5
660.716	104.5
660.919	95.5
661.123	93.5
661.326	99.5
661.53	90.5
661.733	84.5
661.936	90.5
662.14	88.5
662.343	94.5
662.546	93.5
662.75	93.5
662.953	89.5
663.156	82.5
663.36	95.5
663.563	87.5
663.766	93.5
663.969	89.5
664.173	80.5
664.376	83.5
664.579	80.5
664.782	73.5
664.985	88.5
665.188	82.5
665.391	89.5
665.594	73.5
665.797	94.5
666	74.5
666.203	81.5
666.406	71.5
666.609	83.5
666.812	89.5
667.015	96.5
667.218	87.5
667.421	69.5
667.624	79.5
667.827	100.5
668.03	83.5
668.232	77.5
668.435	73.5
668.638	83.5
668.841	86.5
669.043	82.5
669.246	87.5
669.449	84.5
669.651	74.5
669.854	94.5
670.057	80.5
670.259	82.5
670.462	85.5
670.665	82.5
670.867	90.5
671.07	74.5
671.272	78.5
671.475	82.5
671.677	76.5
671.88	81.5
672.082	88.5
672.284	74.5
672.487	97.5
672.689	71.5
672.892	89.5
