Data from Ni(NO3)2@0.125M.TitratingCurve.Agarose3%dH2O.NegLispCup.LampEnergy10.LIBS07252019_HRD10591_18-09-53-568.txt Node
Date: Thu Jul 25 18:09:53 EDT 2019
User: cochatt
Spectrometer: HR+D1059
Trigger mode: 1
Integration Time (sec): 1.000000E-1
Scans to average: 1
Electric dark correction enabled: true
Nonlinearity correction enabled: false
Boxcar width: 0
XAxis mode: Wavelengths
Number of Pixels in Spectrum: 2048
>>>>>Begin Spectral Data<<<<<
223.165	-26.44
223.4	-26.44
223.635	-26.44
223.869	-0.44
224.104	-16.44
224.338	-17.44
224.573	-8.44
224.808	-18.44
225.042	-25.44
225.277	-2.44
225.511	3.56
225.746	11.56
225.98	22.56
226.215	12.56
226.449	8.56
226.683	17.56
226.918	19.56
227.152	19.56
227.387	30.56
227.621	35.56
227.856	36.56
228.09	64.56
228.324	56.56
228.559	59.56
228.793	67.56
229.027	87.56
229.262	100.56
229.496	112.56
229.73	111.56
229.964	119.56
230.199	121.56
230.433	113.56
230.667	121.56
230.901	117.56
231.136	103.56
231.37	115.56
231.604	121.56
231.838	119.56
232.072	131.56
232.306	102.56
232.541	129.56
232.775	135.56
233.009	143.56
233.243	125.56
233.477	130.56
233.711	125.56
233.945	128.56
234.179	126.56
234.413	128.56
234.647	132.56
234.881	131.56
235.115	123.56
235.349	135.56
235.583	140.56
235.817	122.56
236.051	125.56
236.285	134.56
236.519	117.56
236.753	128.56
236.987	127.56
237.221	136.56
237.455	134.56
237.689	141.56
237.922	138.56
238.156	128.56
238.39	143.56
238.624	139.56
238.858	139.56
239.091	142.56
239.325	118.56
239.559	130.56
239.793	161.56
240.027	152.56
240.26	153.56
240.494	142.56
240.728	150.56
240.961	144.56
241.195	152.56
241.429	149.56
241.662	153.56
241.896	141.56
242.13	147.56
242.363	151.56
242.597	156.56
242.83	159.56
243.064	150.56
243.298	161.56
243.531	169.56
243.765	150.56
243.998	158.56
244.232	171.56
244.465	163.56
244.699	144.56
244.932	169.56
245.166	174.56
245.399	182.56
245.633	169.56
245.866	182.56
246.099	179.56
246.333	173.56
246.566	169.56
246.8	173.56
247.033	192.56
247.266	191.56
247.5	184.56
247.733	187.56
247.966	172.56
248.2	186.56
248.433	187.56
248.666	185.56
248.899	197.56
249.133	198.56
249.366	192.56
249.599	205.56
249.832	197.56
250.066	197.56
250.299	202.56
250.532	197.56
250.765	211.56
250.998	215.56
251.231	203.56
251.465	218.56
251.698	207.56
251.931	196.56
252.164	209.56
252.397	218.56
252.63	195.56
252.863	208.56
253.096	206.56
253.329	204.56
253.562	231.56
253.795	224.56
254.028	222.56
254.261	249.56
254.494	226.56
254.727	222.56
254.96	234.56
255.193	213.56
255.426	225.56
255.659	217.56
255.892	218.56
256.124	194.56
256.357	223.56
256.59	218.56
256.823	223.56
257.056	212.56
257.289	224.56
257.521	232.56
257.754	216.56
257.987	226.56
258.22	234.56
258.452	247.56
258.685	241.56
258.918	222.56
259.151	227.56
259.383	238.56
259.616	231.56
259.849	251.56
260.081	244.56
260.314	241.56
260.547	251.56
260.779	253.56
261.012	255.56
261.244	243.56
261.477	250.56
261.71	250.56
261.942	242.56
262.175	256.56
262.407	248.56
262.64	244.56
262.872	256.56
263.105	237.56
263.337	272.56
263.57	257.56
263.802	251.56
264.035	259.56
264.267	263.56
264.499	262.56
264.732	254.56
264.964	286.56
265.197	287.56
265.429	268.56
265.661	259.56
265.894	261.56
266.126	265.56
266.358	271.56
266.591	273.56
266.823	267.56
267.055	275.56
267.287	266.56
267.52	281.56
267.752	294.56
267.984	265.56
268.216	286.56
268.448	280.56
268.681	272.56
268.913	293.56
269.145	268.56
269.377	278.56
269.609	266.56
269.841	291.56
270.073	283.56
270.306	294.56
270.538	293.56
270.77	286.56
271.002	285.56
271.234	285.56
271.466	288.56
271.698	277.56
271.93	302.56
272.162	316.56
272.394	309.56
272.626	298.56
272.858	295.56
273.09	299.56
273.322	292.56
273.553	291.56
273.785	291.56
274.017	317.56
274.249	306.56
274.481	305.56
274.713	310.56
274.945	313.56
275.176	307.56
275.408	298.56
275.64	341.56
275.872	313.56
276.104	323.56
276.335	318.56
276.567	312.56
276.799	309.56
277.031	309.56
277.262	332.56
277.494	350.56
277.726	333.56
277.957	319.56
278.189	312.56
278.421	337.56
278.652	342.56
278.884	325.56
279.115	326.56
279.347	336.56
279.579	325.56
279.81	341.56
280.042	335.56
280.273	352.56
280.505	347.56
280.736	344.56
280.968	363.56
281.199	348.56
281.431	358.56
281.662	358.56
281.894	330.56
282.125	344.56
282.356	355.56
282.588	345.56
282.819	352.56
283.051	333.56
283.282	344.56
283.513	354.56
283.745	346.56
283.976	366.56
284.207	376.56
284.439	376.56
284.67	358.56
284.901	363.56
285.132	373.56
285.364	389.56
285.595	376.56
285.826	389.56
286.057	383.56
286.288	372.56
286.52	373.56
286.751	367.56
286.982	398.56
287.213	390.56
287.444	377.56
287.675	382.56
287.906	381.56
288.138	394.56
288.369	376.56
288.6	372.56
288.831	399.56
289.062	410.56
289.293	392.56
289.524	391.56
289.755	375.56
289.986	383.56
290.217	398.56
290.448	393.56
290.679	389.56
290.91	387.56
291.141	399.56
291.371	399.56
291.602	382.56
291.833	378.56
292.064	395.56
292.295	399.56
292.526	397.56
292.757	403.56
292.987	391.56
293.218	387.56
293.449	395.56
293.68	395.56
293.91	419.56
294.141	394.56
294.372	406.56
294.603	401.56
294.833	394.56
295.064	430.56
295.295	382.56
295.525	394.56
295.756	408.56
295.987	409.56
296.217	423.56
296.448	406.56
296.679	416.56
296.909	405.56
297.14	419.56
297.37	407.56
297.601	426.56
297.831	429.56
298.062	423.56
298.292	421.56
298.523	467.56
298.753	435.56
298.984	437.56
299.214	417.56
299.445	440.56
299.675	437.56
299.905	446.56
300.136	441.56
300.366	442.56
300.597	439.56
300.827	435.56
301.057	442.56
301.288	453.56
301.518	451.56
301.748	459.56
301.979	479.56
302.209	457.56
302.439	417.56
302.669	463.56
302.9	432.56
303.13	417.56
303.36	451.56
303.59	461.56
303.82	445.56
304.051	445.56
304.281	458.56
304.511	444.56
304.741	424.56
304.971	445.56
305.201	433.56
305.431	455.56
305.661	437.56
305.891	445.56
306.121	426.56
306.352	421.56
306.582	450.56
306.812	423.56
307.042	456.56
307.272	429.56
307.502	431.56
307.731	430.56
307.961	445.56
308.191	422.56
308.421	462.56
308.651	440.56
308.881	449.56
309.111	456.56
309.341	449.56
309.571	463.56
309.8	458.56
310.03	450.56
310.26	451.56
310.49	442.56
310.72	429.56
310.949	469.56
311.179	445.56
311.409	429.56
311.639	448.56
311.868	447.56
312.098	463.56
312.328	456.56
312.557	459.56
312.787	494.56
313.017	463.56
313.246	454.56
313.476	456.56
313.706	470.56
313.935	475.56
314.165	466.56
314.394	472.56
314.624	485.56
314.853	472.56
315.083	464.56
315.312	476.56
315.542	477.56
315.771	495.56
316.001	461.56
316.23	455.56
316.46	467.56
316.689	454.56
316.919	481.56
317.148	478.56
317.377	470.56
317.607	451.56
317.836	474.56
318.065	464.56
318.295	466.56
318.524	463.56
318.753	450.56
318.983	476.56
319.212	441.56
319.441	490.56
319.67	480.56
319.9	481.56
320.129	478.56
320.358	475.56
320.587	458.56
320.816	461.56
321.046	479.56
321.275	459.56
321.504	467.56
321.733	460.56
321.962	452.56
322.191	472.56
322.42	477.56
322.649	512.56
322.878	509.56
323.108	458.56
323.337	471.56
323.566	480.56
323.795	485.56
324.024	489.56
324.253	496.56
324.482	477.56
324.71	483.56
324.939	492.56
325.168	505.56
325.397	500.56
325.626	498.56
325.855	499.56
326.084	495.56
326.313	512.56
326.542	523.56
326.77	530.56
326.999	518.56
327.228	503.56
327.457	502.56
327.686	519.56
327.914	522.56
328.143	521.56
328.372	540.56
328.6	525.56
328.829	499.56
329.058	503.56
329.287	544.56
329.515	519.56
329.744	532.56
329.972	518.56
330.201	523.56
330.43	539.56
330.658	537.56
330.887	557.56
331.115	541.56
331.344	514.56
331.572	543.56
331.801	554.56
332.03	552.56
332.258	596.56
332.486	616.56
332.715	618.56
332.943	663.56
333.172	682.56
333.4	702.56
333.629	702.56
333.857	731.56
334.085	721.56
334.314	680.56
334.542	661.56
334.771	672.56
334.999	691.56
335.227	640.56
335.455	655.56
335.684	631.56
335.912	656.56
336.14	635.56
336.369	622.56
336.597	637.56
336.825	622.56
337.053	621.56
337.281	628.56
337.51	597.56
337.738	602.56
337.966	578.56
338.194	582.56
338.422	602.56
338.65	597.56
338.878	580.56
339.106	579.56
339.334	574.56
339.562	587.56
339.79	553.56
340.018	538.56
340.246	545.56
340.474	563.56
340.702	544.56
340.93	542.56
341.158	547.56
341.386	549.56
341.614	573.56
341.842	551.56
342.07	553.56
342.298	545.56
342.526	551.56
342.754	552.56
342.981	564.56
343.209	571.56
343.437	582.56
343.665	631.56
343.893	663.56
344.12	692.56
344.348	687.56
344.576	624.56
344.804	591.56
345.031	565.56
345.259	558.56
345.487	569.56
345.714	545.56
345.942	545.56
346.17	560.56
346.397	545.56
346.625	547.56
346.853	535.56
347.08	538.56
347.308	573.56
347.535	549.56
347.763	554.56
347.99	545.56
348.218	546.56
348.445	520.56
348.673	538.56
348.9	542.56
349.128	536.56
349.355	553.56
349.583	530.56
349.81	518.56
350.037	529.56
350.265	529.56
350.492	529.56
350.72	507.56
350.947	519.56
351.174	523.56
351.402	512.56
351.629	533.56
351.856	512.56
352.083	513.56
352.311	546.56
352.538	522.56
352.765	516.56
352.992	507.56
353.22	500.56
353.447	474.56
353.674	485.56
353.901	518.56
354.128	509.56
354.355	498.56
354.583	480.56
354.81	516.56
355.037	529.56
355.264	519.56
355.491	495.56
355.718	509.56
355.945	518.56
356.172	525.56
356.399	537.56
356.626	536.56
356.853	534.56
357.08	522.56
357.307	532.56
357.534	487.56
357.761	522.56
357.988	532.56
358.215	511.56
358.441	511.56
358.668	531.56
358.895	529.56
359.122	530.56
359.349	512.56
359.576	494.56
359.802	538.56
360.029	529.56
360.256	519.56
360.483	521.56
360.709	518.56
360.936	529.56
361.163	527.56
361.39	529.56
361.616	514.56
361.843	515.56
362.07	530.56
362.296	532.56
362.523	537.56
362.749	521.56
362.976	499.56
363.203	520.56
363.429	489.56
363.656	507.56
363.882	524.56
364.109	525.56
364.335	530.56
364.562	506.56
364.788	503.56
365.015	507.56
365.241	491.56
365.468	513.56
365.694	491.56
365.92	498.56
366.147	517.56
366.373	523.56
366.599	526.56
366.826	505.56
367.052	499.56
367.278	506.56
367.505	505.56
367.731	511.56
367.957	511.56
368.184	514.56
368.41	540.56
368.636	521.56
368.862	525.56
369.089	526.56
369.315	527.56
369.541	530.56
369.767	526.56
369.993	530.56
370.219	532.56
370.445	540.56
370.672	549.56
370.898	546.56
371.124	542.56
371.35	558.56
371.576	562.56
371.802	566.56
372.028	560.56
372.254	552.56
372.48	580.56
372.706	554.56
372.932	598.56
373.158	594.56
373.384	588.56
373.61	554.56
373.835	565.56
374.061	545.56
374.287	563.56
374.513	577.56
374.739	607.56
374.965	611.56
375.191	615.56
375.416	609.56
375.642	590.56
375.868	610.56
376.094	564.56
376.319	578.56
376.545	548.56
376.771	555.56
376.997	552.56
377.222	578.56
377.448	541.56
377.674	553.56
377.899	550.56
378.125	543.56
378.35	560.56
378.576	559.56
378.802	532.56
379.027	529.56
379.253	560.56
379.478	561.56
379.704	558.56
379.929	550.56
380.155	539.56
380.38	552.56
380.606	566.56
380.831	554.56
381.057	527.56
381.282	546.56
381.507	566.56
381.733	541.56
381.958	566.56
382.184	584.56
382.409	587.56
382.634	580.56
382.86	579.56
383.085	584.56
383.31	615.56
383.535	603.56
383.761	615.56
383.986	617.56
384.211	652.56
384.436	661.56
384.662	664.56
384.887	667.56
385.112	667.56
385.337	660.56
385.562	662.56
385.787	657.56
386.013	669.56
386.238	665.56
386.463	682.56
386.688	674.56
386.913	656.56
387.138	672.56
387.363	664.56
387.588	646.56
387.813	635.56
388.038	666.56
388.263	663.56
388.488	651.56
388.713	651.56
388.938	648.56
389.163	659.56
389.387	641.56
389.612	651.56
389.837	654.56
390.062	641.56
390.287	631.56
390.512	650.56
390.736	666.56
390.961	633.56
391.186	680.56
391.411	710.56
391.636	714.56
391.86	726.56
392.085	755.56
392.31	746.56
392.534	721.56
392.759	691.56
392.984	712.56
393.208	714.56
393.433	718.56
393.658	698.56
393.882	682.56
394.107	718.56
394.331	705.56
394.556	714.56
394.78	728.56
395.005	720.56
395.229	710.56
395.454	725.56
395.678	773.56
395.903	755.56
396.127	751.56
396.352	703.56
396.576	687.56
396.801	689.56
397.025	700.56
397.249	719.56
397.474	742.56
397.698	727.56
397.922	738.56
398.147	738.56
398.371	765.56
398.595	765.56
398.82	816.56
399.044	879.56
399.268	980.56
399.492	1111.56
399.717	1311.56
399.941	1248.56
400.165	1098.56
400.389	960.56
400.613	889.56
400.837	855.56
401.062	849.56
401.286	825.56
401.51	826.56
401.734	815.56
401.958	823.56
402.182	846.56
402.406	840.56
402.63	889.56
402.854	865.56
403.078	934.56
403.302	930.56
403.526	931.56
403.75	974.56
403.974	967.56
404.198	1000.56
404.422	986.56
404.645	954.56
404.869	951.56
405.093	947.56
405.317	914.56
405.541	919.56
405.765	913.56
405.988	889.56
406.212	897.56
406.436	898.56
406.66	945.56
406.883	928.56
407.107	1000.56
407.331	1056.56
407.555	1068.56
407.778	1054.56
408.002	1047.56
408.226	1001.56
408.449	983.56
408.673	958.56
408.896	954.56
409.12	951.56
409.344	949.56
409.567	922.56
409.791	979.56
410.014	957.56
410.238	945.56
410.461	938.56
410.685	908.56
410.908	904.56
411.132	878.56
411.355	870.56
411.578	903.56
411.802	859.56
412.025	848.56
412.249	869.56
412.472	872.56
412.695	851.56
412.919	841.56
413.142	801.56
413.365	823.56
413.589	839.56
413.812	817.56
414.035	825.56
414.258	831.56
414.482	869.56
414.705	834.56
414.928	864.56
415.151	842.56
415.374	857.56
415.597	834.56
415.821	803.56
416.044	810.56
416.267	804.56
416.49	819.56
416.713	802.56
416.936	806.56
417.159	802.56
417.382	826.56
417.605	797.56
417.828	821.56
418.051	837.56
418.274	838.56
418.497	831.56
418.72	848.56
418.943	882.56
419.166	898.56
419.389	953.56
419.611	921.56
419.834	873.56
420.057	849.56
420.28	843.56
420.503	824.56
420.726	818.56
420.948	807.56
421.171	838.56
421.394	835.56
421.617	832.56
421.839	808.56
422.062	846.56
422.285	829.56
422.507	842.56
422.73	854.56
422.953	846.56
423.175	872.56
423.398	891.56
423.621	881.56
423.843	902.56
424.066	915.56
424.288	895.56
424.511	900.56
424.733	887.56
424.956	853.56
425.178	843.56
425.401	837.56
425.623	824.56
425.846	806.56
426.068	794.56
426.291	806.56
426.513	791.56
426.735	785.56
426.958	787.56
427.18	752.56
427.402	751.56
427.625	756.56
427.847	736.56
428.069	730.56
428.292	743.56
428.514	742.56
428.736	730.56
428.958	753.56
429.181	725.56
429.403	716.56
429.625	730.56
429.847	703.56
430.069	727.56
430.292	732.56
430.514	707.56
430.736	738.56
430.958	727.56
431.18	723.56
431.402	727.56
431.624	690.56
431.846	726.56
432.068	720.56
432.29	748.56
432.512	713.56
432.734	763.56
432.956	735.56
433.178	724.56
433.4	757.56
433.622	778.56
433.844	777.56
434.066	728.56
434.287	777.56
434.509	759.56
434.731	817.56
434.953	834.56
435.175	845.56
435.397	811.56
435.618	814.56
435.84	769.56
436.062	744.56
436.284	740.56
436.505	737.56
436.727	746.56
436.949	761.56
437.17	725.56
437.392	739.56
437.614	723.56
437.835	689.56
438.057	724.56
438.278	681.56
438.5	683.56
438.721	722.56
438.943	723.56
439.165	731.56
439.386	707.56
439.608	734.56
439.829	749.56
440.05	737.56
440.272	760.56
440.493	723.56
440.715	768.56
440.936	749.56
441.158	788.56
441.379	801.56
441.6	841.56
441.822	846.56
442.043	863.56
442.264	837.56
442.486	820.56
442.707	820.56
442.928	808.56
443.149	834.56
443.371	840.56
443.592	860.56
443.813	873.56
444.034	849.56
444.255	873.56
444.476	933.56
444.698	963.56
444.919	1042.56
445.14	1057.56
445.361	966.56
445.582	857.56
445.803	840.56
446.024	801.56
446.245	778.56
446.466	779.56
446.687	766.56
446.908	773.56
447.129	731.56
447.35	693.56
447.571	749.56
447.792	717.56
448.013	708.56
448.234	682.56
448.455	691.56
448.675	688.56
448.896	695.56
449.117	682.56
449.338	678.56
449.559	674.56
449.779	681.56
450	687.56
450.221	713.56
450.442	733.56
450.662	711.56
450.883	688.56
451.104	722.56
451.324	711.56
451.545	694.56
451.766	726.56
451.986	691.56
452.207	703.56
452.428	707.56
452.648	682.56
452.869	677.56
453.089	693.56
453.31	699.56
453.53	694.56
453.751	667.56
453.971	663.56
454.192	659.56
454.412	663.56
454.633	652.56
454.853	663.56
455.073	666.56
455.294	659.56
455.514	649.56
455.734	636.56
455.955	634.56
456.175	641.56
456.395	629.56
456.616	611.56
456.836	641.56
457.056	655.56
457.276	643.56
457.497	657.56
457.717	644.56
457.937	651.56
458.157	639.56
458.377	662.56
458.598	669.56
458.818	678.56
459.038	685.56
459.258	735.56
459.478	756.56
459.698	793.56
459.918	813.56
460.138	838.56
460.358	886.56
460.578	858.56
460.798	877.56
461.018	925.56
461.238	864.56
461.458	882.56
461.678	861.56
461.898	861.56
462.118	871.56
462.338	944.56
462.558	957.56
462.777	978.56
462.997	1094.56
463.217	1198.56
463.437	1198.56
463.657	1064.56
463.876	1037.56
464.096	1028.56
464.316	1027.56
464.536	1029.56
464.755	997.56
464.975	941.56
465.195	892.56
465.414	838.56
465.634	799.56
465.854	790.56
466.073	762.56
466.293	727.56
466.512	707.56
466.732	697.56
466.951	722.56
467.171	739.56
467.391	729.56
467.61	736.56
467.829	742.56
468.049	716.56
468.268	692.56
468.488	672.56
468.707	689.56
468.927	686.56
469.146	670.56
469.365	693.56
469.585	695.56
469.804	711.56
470.023	739.56
470.243	713.56
470.462	753.56
470.681	725.56
470.901	745.56
471.12	724.56
471.339	732.56
471.558	692.56
471.777	697.56
471.997	666.56
472.216	689.56
472.435	693.56
472.654	651.56
472.873	686.56
473.092	650.56
473.311	655.56
473.53	671.56
473.749	662.56
473.968	657.56
474.187	691.56
474.406	672.56
474.625	658.56
474.844	681.56
475.063	699.56
475.282	669.56
475.501	671.56
475.72	649.56
475.939	663.56
476.158	653.56
476.377	688.56
476.596	692.56
476.814	693.56
477.033	699.56
477.252	735.56
477.471	718.56
477.69	731.56
477.908	755.56
478.127	807.56
478.346	785.56
478.564	824.56
478.783	822.56
479.002	866.56
479.22	842.56
479.439	820.56
479.658	837.56
479.876	823.56
480.095	832.56
480.313	857.56
480.532	909.56
480.751	886.56
480.969	842.56
481.188	806.56
481.406	791.56
481.624	790.56
481.843	782.56
482.061	760.56
482.28	771.56
482.498	750.56
482.717	749.56
482.935	751.56
483.153	767.56
483.372	749.56
483.59	755.56
483.808	739.56
484.027	750.56
484.245	763.56
484.463	763.56
484.681	769.56
484.9	744.56
485.118	770.56
485.336	786.56
485.554	797.56
485.772	822.56
485.99	790.56
486.209	823.56
486.427	807.56
486.645	803.56
486.863	826.56
487.081	813.56
487.299	817.56
487.517	782.56
487.735	792.56
487.953	813.56
488.171	829.56
488.389	783.56
488.607	766.56
488.825	781.56
489.043	790.56
489.261	803.56
489.479	778.56
489.696	789.56
489.914	783.56
490.132	805.56
490.35	774.56
490.568	817.56
490.786	821.56
491.003	800.56
491.221	800.56
491.439	808.56
491.657	797.56
491.874	799.56
492.092	803.56
492.31	797.56
492.527	822.56
492.745	829.56
492.963	817.56
493.18	830.56
493.398	839.56
493.615	851.56
493.833	823.56
494.05	836.56
494.268	847.56
494.485	868.56
494.703	851.56
494.92	845.56
495.138	831.56
495.355	829.56
495.573	842.56
495.79	821.56
496.008	853.56
496.225	874.56
496.442	844.56
496.66	869.56
496.877	886.56
497.094	898.56
497.312	900.56
497.529	917.56
497.746	927.56
497.963	984.56
498.181	1016.56
498.398	1006.56
498.615	1119.56
498.832	1181.56
499.049	1259.56
499.267	1413.56
499.484	1541.56
499.701	1672.56
499.918	1882.56
500.135	2179.56
500.352	2538.56
500.569	2719.56
500.786	2655.56
501.003	2352.56
501.22	2136.56
501.437	1826.56
501.654	1569.56
501.871	1449.56
502.088	1347.56
502.305	1249.56
502.522	1198.56
502.739	1147.56
502.956	1066.56
503.172	1022.56
503.389	976.56
503.606	967.56
503.823	933.56
504.04	907.56
504.256	962.56
504.473	984.56
504.69	990.56
504.907	996.56
505.123	915.56
505.34	873.56
505.557	845.56
505.773	845.56
505.99	791.56
506.207	785.56
506.423	780.56
506.64	773.56
506.856	745.56
507.073	739.56
507.289	759.56
507.506	741.56
507.722	730.56
507.939	741.56
508.155	701.56
508.372	726.56
508.588	690.56
508.805	716.56
509.021	689.56
509.238	702.56
509.454	694.56
509.67	693.56
509.887	677.56
510.103	681.56
510.319	696.56
510.536	697.56
510.752	672.56
510.968	677.56
511.184	673.56
511.401	674.56
511.617	667.56
511.833	681.56
512.049	686.56
512.265	685.56
512.481	677.56
512.698	693.56
512.914	695.56
513.13	662.56
513.346	658.56
513.562	664.56
513.778	693.56
513.994	693.56
514.21	673.56
514.426	698.56
514.642	670.56
514.858	710.56
515.074	676.56
515.29	697.56
515.506	681.56
515.721	708.56
515.937	729.56
516.153	758.56
516.369	759.56
516.585	762.56
516.801	831.56
517.016	840.56
517.232	889.56
517.448	928.56
517.664	961.56
517.879	947.56
518.095	970.56
518.311	960.56
518.527	877.56
518.742	807.56
518.958	817.56
519.173	785.56
519.389	766.56
519.605	759.56
519.82	707.56
520.036	733.56
520.251	709.56
520.467	681.56
520.682	664.56
520.898	701.56
521.113	681.56
521.329	689.56
521.544	665.56
521.76	672.56
521.975	646.56
522.19	628.56
522.406	642.56
522.621	669.56
522.836	633.56
523.052	651.56
523.267	617.56
523.482	609.56
523.698	628.56
523.913	614.56
524.128	622.56
524.343	628.56
524.559	627.56
524.774	614.56
524.989	628.56
525.204	595.56
525.419	595.56
525.634	618.56
525.849	614.56
526.064	608.56
526.28	604.56
526.495	643.56
526.71	604.56
526.925	590.56
527.14	605.56
527.355	630.56
527.57	607.56
527.785	616.56
527.999	614.56
528.214	613.56
528.429	614.56
528.644	597.56
528.859	592.56
529.074	615.56
529.289	627.56
529.503	614.56
529.718	628.56
529.933	613.56
530.148	609.56
530.363	618.56
530.577	605.56
530.792	613.56
531.007	598.56
531.221	616.56
531.436	613.56
531.651	598.56
531.865	603.56
532.08	625.56
532.295	631.56
532.509	604.56
532.724	629.56
532.938	616.56
533.153	616.56
533.367	592.56
533.582	587.56
533.796	626.56
534.011	618.56
534.225	599.56
534.44	621.56
534.654	589.56
534.868	605.56
535.083	592.56
535.297	595.56
535.511	578.56
535.726	603.56
535.94	587.56
536.154	601.56
536.369	589.56
536.583	580.56
536.797	572.56
537.011	570.56
537.225	569.56
537.44	554.56
537.654	574.56
537.868	573.56
538.082	560.56
538.296	565.56
538.51	561.56
538.724	549.56
538.938	564.56
539.153	546.56
539.367	551.56
539.581	558.56
539.795	560.56
540.009	564.56
540.222	554.56
540.436	556.56
540.65	560.56
540.864	543.56
541.078	540.56
541.292	558.56
541.506	552.56
541.72	535.56
541.934	558.56
542.147	558.56
542.361	553.56
542.575	561.56
542.789	547.56
543.002	550.56
543.216	525.56
543.43	551.56
543.644	537.56
543.857	535.56
544.071	542.56
544.285	553.56
544.498	549.56
544.712	547.56
544.925	553.56
545.139	565.56
545.352	580.56
545.566	571.56
545.779	558.56
545.993	570.56
546.206	573.56
546.42	554.56
546.633	573.56
546.847	586.56
547.06	575.56
547.274	575.56
547.487	554.56
547.7	563.56
547.914	576.56
548.127	579.56
548.34	571.56
548.554	573.56
548.767	563.56
548.98	541.56
549.193	546.56
549.407	577.56
549.62	608.56
549.833	590.56
550.046	591.56
550.259	580.56
550.473	553.56
550.686	582.56
550.899	530.56
551.112	570.56
551.325	555.56
551.538	559.56
551.751	559.56
551.964	531.56
552.177	558.56
552.39	584.56
552.603	583.56
552.816	598.56
553.029	574.56
553.242	620.56
553.455	624.56
553.667	635.56
553.88	634.56
554.093	610.56
554.306	571.56
554.519	588.56
554.732	557.56
554.944	553.56
555.157	560.56
555.37	550.56
555.583	551.56
555.795	523.56
556.008	520.56
556.221	503.56
556.433	496.56
556.646	481.56
556.859	497.56
557.071	498.56
557.284	472.56
557.496	470.56
557.709	486.56
557.921	470.56
558.134	481.56
558.346	473.56
558.559	472.56
558.771	486.56
558.984	473.56
559.196	462.56
559.409	478.56
559.621	472.56
559.833	468.56
560.046	485.56
560.258	472.56
560.47	459.56
560.683	481.56
560.895	456.56
561.107	459.56
561.32	453.56
561.532	457.56
561.744	477.56
561.956	478.56
562.168	462.56
562.381	449.56
562.593	477.56
562.805	489.56
563.017	489.56
563.229	478.56
563.441	457.56
563.653	448.56
563.865	449.56
564.077	473.56
564.289	471.56
564.501	481.56
564.713	507.56
564.925	512.56
565.137	505.56
565.349	511.56
565.561	544.56
565.773	541.56
565.985	561.56
566.197	595.56
566.408	625.56
566.62	685.56
566.832	772.56
567.044	763.56
567.255	770.56
567.467	795.56
567.679	821.56
567.891	943.56
568.102	965.56
568.314	879.56
568.526	766.56
568.737	722.56
568.949	633.56
569.161	594.56
569.372	547.56
569.584	522.56
569.795	478.56
570.007	496.56
570.218	467.56
570.43	493.56
570.641	443.56
570.853	484.56
571.064	463.56
571.276	475.56
571.487	488.56
571.698	430.56
571.91	435.56
572.121	432.56
572.333	421.56
572.544	411.56
572.755	389.56
572.966	383.56
573.178	390.56
573.389	391.56
573.6	392.56
573.811	404.56
574.023	375.56
574.234	387.56
574.445	391.56
574.656	386.56
574.867	413.56
575.078	391.56
575.289	389.56
575.501	388.56
575.712	387.56
575.923	369.56
576.134	374.56
576.345	365.56
576.556	367.56
576.767	374.56
576.978	370.56
577.188	367.56
577.399	357.56
577.61	355.56
577.821	348.56
578.032	349.56
578.243	349.56
578.454	340.56
578.665	343.56
578.875	351.56
579.086	333.56
579.297	337.56
579.508	356.56
579.718	326.56
579.929	343.56
580.14	344.56
580.35	356.56
580.561	330.56
580.772	330.56
580.982	336.56
581.193	324.56
581.403	315.56
581.614	330.56
581.825	335.56
582.035	331.56
582.246	330.56
582.456	317.56
582.667	314.56
582.877	313.56
583.087	337.56
583.298	335.56
583.508	316.56
583.719	333.56
583.929	323.56
584.139	326.56
584.35	314.56
584.56	334.56
584.77	322.56
584.981	322.56
585.191	323.56
585.401	311.56
585.611	320.56
585.821	319.56
586.032	301.56
586.242	304.56
586.452	333.56
586.662	319.56
586.872	310.56
587.082	299.56
587.292	318.56
587.502	319.56
587.713	304.56
587.923	321.56
588.133	302.56
588.343	322.56
588.553	289.56
588.762	311.56
588.972	319.56
589.182	318.56
589.392	309.56
589.602	299.56
589.812	315.56
590.022	323.56
590.232	285.56
590.441	314.56
590.651	319.56
590.861	327.56
591.071	309.56
591.281	307.56
591.49	338.56
591.7	332.56
591.91	325.56
592.119	327.56
592.329	347.56
592.539	353.56
592.748	361.56
592.958	384.56
593.167	397.56
593.377	385.56
593.587	414.56
593.796	392.56
594.006	417.56
594.215	411.56
594.424	423.56
594.634	394.56
594.843	389.56
595.053	358.56
595.262	350.56
595.472	359.56
595.681	319.56
595.89	335.56
596.1	314.56
596.309	314.56
596.518	310.56
596.727	303.56
596.937	307.56
597.146	288.56
597.355	293.56
597.564	284.56
597.774	281.56
597.983	282.56
598.192	266.56
598.401	270.56
598.61	278.56
598.819	254.56
599.028	276.56
599.237	255.56
599.446	266.56
599.655	265.56
599.864	273.56
600.073	280.56
600.282	285.56
600.491	253.56
600.7	253.56
600.909	272.56
601.118	257.56
601.327	255.56
601.536	269.56
601.745	267.56
601.953	277.56
602.162	255.56
602.371	268.56
602.58	255.56
602.789	263.56
602.997	274.56
603.206	261.56
603.415	256.56
603.623	256.56
603.832	253.56
604.041	260.56
604.249	242.56
604.458	235.56
604.666	253.56
604.875	243.56
605.084	238.56
605.292	243.56
605.501	238.56
605.709	239.56
605.918	272.56
606.126	245.56
606.334	251.56
606.543	261.56
606.751	240.56
606.96	248.56
607.168	245.56
607.376	229.56
607.585	259.56
607.793	243.56
608.001	250.56
608.21	253.56
608.418	233.56
608.626	234.56
608.834	234.56
609.043	224.56
609.251	243.56
609.459	235.56
609.667	250.56
609.875	233.56
610.083	252.56
610.291	240.56
610.499	225.56
610.707	218.56
610.916	243.56
611.124	227.56
611.332	238.56
611.54	233.56
611.748	251.56
611.955	229.56
612.163	226.56
612.371	229.56
612.579	229.56
612.787	227.56
612.995	240.56
613.203	246.56
613.411	245.56
613.618	257.56
613.826	247.56
614.034	242.56
614.242	229.56
614.449	218.56
614.657	202.56
614.865	223.56
615.072	235.56
615.28	242.56
615.488	244.56
615.695	229.56
615.903	228.56
616.111	228.56
616.318	241.56
616.526	235.56
616.733	251.56
616.941	243.56
617.148	233.56
617.356	247.56
617.563	227.56
617.771	240.56
617.978	237.56
618.185	231.56
618.393	241.56
618.6	231.56
618.807	219.56
619.015	222.56
619.222	244.56
619.429	214.56
619.637	227.56
619.844	214.56
620.051	230.56
620.258	218.56
620.466	212.56
620.673	209.56
620.88	218.56
621.087	209.56
621.294	221.56
621.501	207.56
621.708	202.56
621.915	203.56
622.122	206.56
622.329	203.56
622.536	211.56
622.743	199.56
622.95	220.56
623.157	200.56
623.364	197.56
623.571	207.56
623.778	213.56
623.985	211.56
624.192	219.56
624.399	215.56
624.606	225.56
624.812	200.56
625.019	203.56
625.226	205.56
625.433	198.56
625.639	201.56
625.846	212.56
626.053	206.56
626.259	205.56
626.466	187.56
626.673	210.56
626.879	202.56
627.086	196.56
627.293	204.56
627.499	201.56
627.706	186.56
627.912	208.56
628.119	195.56
628.325	178.56
628.532	194.56
628.738	182.56
628.945	183.56
629.151	193.56
629.357	188.56
629.564	194.56
629.77	186.56
629.976	197.56
630.183	189.56
630.389	187.56
630.595	191.56
630.802	173.56
631.008	159.56
631.214	181.56
631.42	175.56
631.627	190.56
631.833	196.56
632.039	182.56
632.245	182.56
632.451	189.56
632.657	173.56
632.863	166.56
633.069	170.56
633.275	181.56
633.481	161.56
633.688	163.56
633.893	170.56
634.099	165.56
634.305	165.56
634.511	159.56
634.717	173.56
634.923	173.56
635.129	165.56
635.335	168.56
635.541	166.56
635.747	179.56
635.952	171.56
636.158	178.56
636.364	167.56
636.57	161.56
636.775	175.56
636.981	193.56
637.187	148.56
637.392	171.56
637.598	170.56
637.804	162.56
638.009	161.56
638.215	170.56
638.421	166.56
638.626	166.56
638.832	170.56
639.037	174.56
639.243	169.56
639.448	164.56
639.654	156.56
639.859	149.56
640.065	159.56
640.27	155.56
640.475	160.56
640.681	158.56
640.886	152.56
641.091	161.56
641.297	163.56
641.502	159.56
641.707	161.56
641.913	174.56
642.118	163.56
642.323	160.56
642.528	153.56
642.733	157.56
642.939	144.56
643.144	150.56
643.349	161.56
643.554	152.56
643.759	153.56
643.964	182.56
644.169	170.56
644.374	153.56
644.579	149.56
644.784	174.56
644.989	152.56
645.194	173.56
645.399	150.56
645.604	148.56
645.809	159.56
646.014	161.56
646.219	165.56
646.423	155.56
646.628	160.56
646.833	162.56
647.038	167.56
647.243	159.56
647.447	170.56
647.652	168.56
647.857	165.56
648.062	179.56
648.266	159.56
648.471	158.56
648.676	172.56
648.88	178.56
649.085	153.56
649.289	162.56
649.494	149.56
649.698	162.56
649.903	167.56
650.107	147.56
650.312	147.56
650.516	150.56
650.721	148.56
650.925	152.56
651.13	142.56
651.334	145.56
651.539	152.56
651.743	146.56
651.947	145.56
652.152	146.56
652.356	125.56
652.56	139.56
652.764	138.56
652.969	147.56
653.173	140.56
653.377	130.56
653.581	125.56
653.785	116.56
653.99	137.56
654.194	125.56
654.398	110.56
654.602	125.56
654.806	139.56
655.01	137.56
655.214	118.56
655.418	129.56
655.622	123.56
655.826	133.56
656.03	113.56
656.234	126.56
656.438	118.56
656.642	123.56
656.846	126.56
657.049	121.56
657.253	112.56
657.457	113.56
657.661	103.56
657.865	127.56
658.068	111.56
658.272	104.56
658.476	112.56
658.68	99.56
658.883	94.56
659.087	94.56
659.291	91.56
659.494	107.56
659.698	90.56
659.901	103.56
660.105	104.56
660.309	101.56
660.512	89.56
660.716	83.56
660.919	84.56
661.123	111.56
661.326	95.56
661.53	83.56
661.733	84.56
661.936	79.56
662.14	77.56
662.343	84.56
662.546	81.56
662.75	84.56
662.953	67.56
663.156	92.56
663.36	96.56
663.563	77.56
663.766	79.56
663.969	85.56
664.173	84.56
664.376	89.56
664.579	83.56
664.782	87.56
664.985	92.56
665.188	75.56
665.391	86.56
665.594	85.56
665.797	84.56
666	77.56
666.203	80.56
666.406	71.56
666.609	80.56
666.812	73.56
667.015	67.56
667.218	82.56
667.421	68.56
667.624	83.56
667.827	72.56
668.03	63.56
668.232	82.56
668.435	72.56
668.638	80.56
668.841	73.56
669.043	76.56
669.246	85.56
669.449	82.56
669.651	81.56
669.854	82.56
670.057	81.56
670.259	75.56
670.462	82.56
670.665	89.56
670.867	72.56
671.07	93.56
671.272	74.56
671.475	88.56
671.677	71.56
671.88	81.56
672.082	83.56
672.284	83.56
672.487	88.56
672.689	88.56
672.892	76.56
