Data from Ni(NO3)2@0.5M.TitratingCurve.Agarose3%dH2O.NegLispCup.LampEnergy10.LIBS07252019_HRD10591_17-57-27-564.txt Node
Date: Thu Jul 25 17:57:27 EDT 2019
User: cochatt
Spectrometer: HR+D1059
Trigger mode: 1
Integration Time (sec): 1.000000E-1
Scans to average: 1
Electric dark correction enabled: true
Nonlinearity correction enabled: false
Boxcar width: 0
XAxis mode: Wavelengths
Number of Pixels in Spectrum: 2048
>>>>>Begin Spectral Data<<<<<
223.165	-19.31
223.4	-19.31
223.635	-19.31
223.869	-27.31
224.104	-17.31
224.338	-18.31
224.573	-16.31
224.808	-8.31
225.042	-10.31
225.277	-3.31
225.511	-14.31
225.746	11.69
225.98	16.69
226.215	8.69
226.449	13.69
226.683	19.69
226.918	28.69
227.152	35.69
227.387	31.69
227.621	39.69
227.856	50.69
228.09	51.69
228.324	40.69
228.559	54.69
228.793	67.69
229.027	82.69
229.262	110.69
229.496	118.69
229.73	117.69
229.964	131.69
230.199	134.69
230.433	126.69
230.667	138.69
230.901	143.69
231.136	124.69
231.37	132.69
231.604	133.69
231.838	167.69
232.072	167.69
232.306	143.69
232.541	151.69
232.775	138.69
233.009	140.69
233.243	131.69
233.477	141.69
233.711	130.69
233.945	154.69
234.179	152.69
234.413	147.69
234.647	148.69
234.881	153.69
235.115	145.69
235.349	134.69
235.583	137.69
235.817	157.69
236.051	145.69
236.285	149.69
236.519	144.69
236.753	149.69
236.987	141.69
237.221	141.69
237.455	140.69
237.689	148.69
237.922	157.69
238.156	157.69
238.39	163.69
238.624	163.69
238.858	149.69
239.091	158.69
239.325	163.69
239.559	169.69
239.793	173.69
240.027	166.69
240.26	157.69
240.494	170.69
240.728	171.69
240.961	183.69
241.195	185.69
241.429	176.69
241.662	170.69
241.896	194.69
242.13	187.69
242.363	202.69
242.597	182.69
242.83	188.69
243.064	169.69
243.298	170.69
243.531	174.69
243.765	179.69
243.998	198.69
244.232	199.69
244.465	206.69
244.699	181.69
244.932	193.69
245.166	202.69
245.399	209.69
245.633	205.69
245.866	212.69
246.099	200.69
246.333	197.69
246.566	193.69
246.8	204.69
247.033	215.69
247.266	203.69
247.5	205.69
247.733	209.69
247.966	224.69
248.2	229.69
248.433	220.69
248.666	214.69
248.899	225.69
249.133	224.69
249.366	238.69
249.599	234.69
249.832	244.69
250.066	245.69
250.299	232.69
250.532	237.69
250.765	267.69
250.998	257.69
251.231	241.69
251.465	255.69
251.698	261.69
251.931	243.69
252.164	257.69
252.397	251.69
252.63	251.69
252.863	253.69
253.096	267.69
253.329	265.69
253.562	245.69
253.795	258.69
254.028	276.69
254.261	271.69
254.494	273.69
254.727	275.69
254.96	275.69
255.193	267.69
255.426	283.69
255.659	308.69
255.892	303.69
256.124	267.69
256.357	299.69
256.59	305.69
256.823	312.69
257.056	314.69
257.289	303.69
257.521	303.69
257.754	302.69
257.987	302.69
258.22	304.69
258.452	316.69
258.685	321.69
258.918	312.69
259.151	307.69
259.383	320.69
259.616	318.69
259.849	308.69
260.081	335.69
260.314	325.69
260.547	326.69
260.779	329.69
261.012	317.69
261.244	319.69
261.477	334.69
261.71	346.69
261.942	341.69
262.175	344.69
262.407	338.69
262.64	329.69
262.872	345.69
263.105	341.69
263.337	354.69
263.57	359.69
263.802	345.69
264.035	344.69
264.267	356.69
264.499	363.69
264.732	351.69
264.964	364.69
265.197	357.69
265.429	362.69
265.661	340.69
265.894	352.69
266.126	365.69
266.358	372.69
266.591	356.69
266.823	375.69
267.055	365.69
267.287	367.69
267.52	372.69
267.752	383.69
267.984	358.69
268.216	369.69
268.448	393.69
268.681	380.69
268.913	384.69
269.145	400.69
269.377	360.69
269.609	373.69
269.841	377.69
270.073	395.69
270.306	391.69
270.538	379.69
270.77	392.69
271.002	387.69
271.234	392.69
271.466	375.69
271.698	382.69
271.93	407.69
272.162	396.69
272.394	395.69
272.626	394.69
272.858	407.69
273.09	393.69
273.322	401.69
273.553	399.69
273.785	417.69
274.017	415.69
274.249	404.69
274.481	404.69
274.713	409.69
274.945	418.69
275.176	423.69
275.408	401.69
275.64	421.69
275.872	408.69
276.104	433.69
276.335	396.69
276.567	410.69
276.799	424.69
277.031	431.69
277.262	427.69
277.494	436.69
277.726	447.69
277.957	442.69
278.189	452.69
278.421	442.69
278.652	436.69
278.884	444.69
279.115	423.69
279.347	435.69
279.579	424.69
279.81	432.69
280.042	432.69
280.273	454.69
280.505	442.69
280.736	448.69
280.968	451.69
281.199	463.69
281.431	460.69
281.662	444.69
281.894	448.69
282.125	475.69
282.356	474.69
282.588	449.69
282.819	444.69
283.051	467.69
283.282	448.69
283.513	447.69
283.745	469.69
283.976	447.69
284.207	476.69
284.439	459.69
284.67	495.69
284.901	485.69
285.132	499.69
285.364	453.69
285.595	458.69
285.826	465.69
286.057	484.69
286.288	489.69
286.52	475.69
286.751	477.69
286.982	473.69
287.213	453.69
287.444	468.69
287.675	479.69
287.906	461.69
288.138	515.69
288.369	497.69
288.6	504.69
288.831	489.69
289.062	476.69
289.293	469.69
289.524	488.69
289.755	490.69
289.986	491.69
290.217	496.69
290.448	467.69
290.679	476.69
290.91	477.69
291.141	488.69
291.371	494.69
291.602	518.69
291.833	473.69
292.064	508.69
292.295	497.69
292.526	512.69
292.757	482.69
292.987	499.69
293.218	475.69
293.449	491.69
293.68	507.69
293.91	513.69
294.141	479.69
294.372	490.69
294.603	524.69
294.833	493.69
295.064	509.69
295.295	497.69
295.525	481.69
295.756	485.69
295.987	500.69
296.217	494.69
296.448	521.69
296.679	509.69
296.909	509.69
297.14	504.69
297.37	520.69
297.601	542.69
297.831	527.69
298.062	514.69
298.292	527.69
298.523	529.69
298.753	524.69
298.984	527.69
299.214	531.69
299.445	539.69
299.675	517.69
299.905	537.69
300.136	553.69
300.366	552.69
300.597	533.69
300.827	526.69
301.057	537.69
301.288	560.69
301.518	550.69
301.748	553.69
301.979	587.69
302.209	553.69
302.439	563.69
302.669	562.69
302.9	542.69
303.13	527.69
303.36	577.69
303.59	571.69
303.82	563.69
304.051	590.69
304.281	563.69
304.511	564.69
304.741	558.69
304.971	575.69
305.201	566.69
305.431	592.69
305.661	574.69
305.891	601.69
306.121	569.69
306.352	544.69
306.582	572.69
306.812	572.69
307.042	575.69
307.272	591.69
307.502	569.69
307.731	576.69
307.961	596.69
308.191	576.69
308.421	586.69
308.651	594.69
308.881	584.69
309.111	585.69
309.341	585.69
309.571	570.69
309.8	587.69
310.03	580.69
310.26	618.69
310.49	623.69
310.72	617.69
310.949	601.69
311.179	592.69
311.409	605.69
311.639	614.69
311.868	616.69
312.098	611.69
312.328	610.69
312.557	617.69
312.787	606.69
313.017	629.69
313.246	615.69
313.476	635.69
313.706	640.69
313.935	643.69
314.165	633.69
314.394	637.69
314.624	647.69
314.853	613.69
315.083	631.69
315.312	624.69
315.542	618.69
315.771	631.69
316.001	629.69
316.23	641.69
316.46	635.69
316.689	652.69
316.919	666.69
317.148	691.69
317.377	676.69
317.607	657.69
317.836	639.69
318.065	656.69
318.295	663.69
318.524	697.69
318.753	659.69
318.983	670.69
319.212	679.69
319.441	693.69
319.67	681.69
319.9	677.69
320.129	656.69
320.358	663.69
320.587	653.69
320.816	689.69
321.046	687.69
321.275	713.69
321.504	707.69
321.733	673.69
321.962	706.69
322.191	702.69
322.42	678.69
322.649	716.69
322.878	722.69
323.108	702.69
323.337	735.69
323.566	734.69
323.795	709.69
324.024	735.69
324.253	713.69
324.482	717.69
324.71	716.69
324.939	717.69
325.168	739.69
325.397	718.69
325.626	732.69
325.855	739.69
326.084	746.69
326.313	766.69
326.542	779.69
326.77	756.69
326.999	752.69
327.228	767.69
327.457	762.69
327.686	743.69
327.914	750.69
328.143	745.69
328.372	741.69
328.6	758.69
328.829	757.69
329.058	756.69
329.287	775.69
329.515	784.69
329.744	775.69
329.972	792.69
330.201	790.69
330.43	763.69
330.658	766.69
330.887	758.69
331.115	764.69
331.344	811.69
331.572	755.69
331.801	783.69
332.03	811.69
332.258	827.69
332.486	815.69
332.715	830.69
332.943	800.69
333.172	807.69
333.4	804.69
333.629	823.69
333.857	838.69
334.085	815.69
334.314	833.69
334.542	827.69
334.771	829.69
334.999	848.69
335.227	830.69
335.455	807.69
335.684	868.69
335.912	828.69
336.14	835.69
336.369	845.69
336.597	854.69
336.825	863.69
337.053	861.69
337.281	852.69
337.51	833.69
337.738	847.69
337.966	838.69
338.194	837.69
338.422	837.69
338.65	833.69
338.878	832.69
339.106	846.69
339.334	875.69
339.562	856.69
339.79	817.69
340.018	828.69
340.246	823.69
340.474	821.69
340.702	820.69
340.93	819.69
341.158	810.69
341.386	861.69
341.614	814.69
341.842	849.69
342.07	815.69
342.298	844.69
342.526	833.69
342.754	832.69
342.981	796.69
343.209	826.69
343.437	810.69
343.665	878.69
343.893	839.69
344.12	846.69
344.348	842.69
344.576	798.69
344.804	833.69
345.031	812.69
345.259	843.69
345.487	843.69
345.714	836.69
345.942	852.69
346.17	862.69
346.397	837.69
346.625	827.69
346.853	810.69
347.08	827.69
347.308	821.69
347.535	828.69
347.763	830.69
347.99	791.69
348.218	796.69
348.445	814.69
348.673	823.69
348.9	791.69
349.128	807.69
349.355	837.69
349.583	819.69
349.81	775.69
350.037	809.69
350.265	805.69
350.492	799.69
350.72	795.69
350.947	808.69
351.174	810.69
351.402	836.69
351.629	847.69
351.856	829.69
352.083	813.69
352.311	813.69
352.538	819.69
352.765	832.69
352.992	815.69
353.22	801.69
353.447	781.69
353.674	799.69
353.901	795.69
354.128	799.69
354.355	798.69
354.583	778.69
354.81	776.69
355.037	791.69
355.264	814.69
355.491	808.69
355.718	784.69
355.945	774.69
356.172	810.69
356.399	797.69
356.626	763.69
356.853	806.69
357.08	827.69
357.307	782.69
357.534	780.69
357.761	790.69
357.988	815.69
358.215	777.69
358.441	800.69
358.668	795.69
358.895	795.69
359.122	794.69
359.349	801.69
359.576	778.69
359.802	813.69
360.029	790.69
360.256	827.69
360.483	790.69
360.709	797.69
360.936	777.69
361.163	784.69
361.39	804.69
361.616	780.69
361.843	808.69
362.07	832.69
362.296	804.69
362.523	793.69
362.749	795.69
362.976	816.69
363.203	804.69
363.429	817.69
363.656	807.69
363.882	793.69
364.109	794.69
364.335	779.69
364.562	820.69
364.788	793.69
365.015	800.69
365.241	793.69
365.468	775.69
365.694	809.69
365.92	809.69
366.147	793.69
366.373	795.69
366.599	797.69
366.826	795.69
367.052	796.69
367.278	820.69
367.505	795.69
367.731	827.69
367.957	788.69
368.184	783.69
368.41	824.69
368.636	780.69
368.862	823.69
369.089	835.69
369.315	795.69
369.541	777.69
369.767	803.69
369.993	815.69
370.219	820.69
370.445	815.69
370.672	817.69
370.898	802.69
371.124	817.69
371.35	821.69
371.576	831.69
371.802	822.69
372.028	817.69
372.254	821.69
372.48	810.69
372.706	825.69
372.932	843.69
373.158	826.69
373.384	805.69
373.61	826.69
373.835	841.69
374.061	851.69
374.287	848.69
374.513	822.69
374.739	810.69
374.965	836.69
375.191	832.69
375.416	839.69
375.642	797.69
375.868	831.69
376.094	795.69
376.319	801.69
376.545	789.69
376.771	817.69
376.997	796.69
377.222	821.69
377.448	800.69
377.674	816.69
377.899	789.69
378.125	805.69
378.35	808.69
378.576	781.69
378.802	792.69
379.027	814.69
379.253	821.69
379.478	797.69
379.704	811.69
379.929	787.69
380.155	789.69
380.38	790.69
380.606	799.69
380.831	795.69
381.057	812.69
381.282	782.69
381.507	799.69
381.733	801.69
381.958	804.69
382.184	802.69
382.409	804.69
382.634	814.69
382.86	815.69
383.085	819.69
383.31	800.69
383.535	819.69
383.761	834.69
383.986	816.69
384.211	813.69
384.436	824.69
384.662	812.69
384.887	851.69
385.112	843.69
385.337	816.69
385.562	844.69
385.787	832.69
386.013	849.69
386.238	820.69
386.463	813.69
386.688	863.69
386.913	844.69
387.138	845.69
387.363	847.69
387.588	827.69
387.813	838.69
388.038	857.69
388.263	872.69
388.488	839.69
388.713	862.69
388.938	846.69
389.163	814.69
389.387	863.69
389.612	844.69
389.837	830.69
390.062	843.69
390.287	860.69
390.512	849.69
390.736	839.69
390.961	840.69
391.186	861.69
391.411	845.69
391.636	839.69
391.86	867.69
392.085	864.69
392.31	873.69
392.534	849.69
392.759	881.69
392.984	881.69
393.208	878.69
393.433	855.69
393.658	855.69
393.882	841.69
394.107	852.69
394.331	861.69
394.556	865.69
394.78	888.69
395.005	857.69
395.229	843.69
395.454	874.69
395.678	892.69
395.903	857.69
396.127	881.69
396.352	861.69
396.576	839.69
396.801	848.69
397.025	873.69
397.249	885.69
397.474	859.69
397.698	857.69
397.922	899.69
398.147	871.69
398.371	885.69
398.595	907.69
398.82	916.69
399.044	915.69
399.268	942.69
399.492	963.69
399.717	968.69
399.941	971.69
400.165	960.69
400.389	920.69
400.613	922.69
400.837	926.69
401.062	942.69
401.286	933.69
401.51	935.69
401.734	918.69
401.958	924.69
402.182	955.69
402.406	945.69
402.63	939.69
402.854	927.69
403.078	918.69
403.302	958.69
403.526	959.69
403.75	916.69
403.974	958.69
404.198	903.69
404.422	943.69
404.645	929.69
404.869	956.69
405.093	953.69
405.317	929.69
405.541	957.69
405.765	935.69
405.988	921.69
406.212	963.69
406.436	946.69
406.66	952.69
406.883	956.69
407.107	994.69
407.331	991.69
407.555	977.69
407.778	984.69
408.002	989.69
408.226	1027.69
408.449	1006.69
408.673	986.69
408.896	998.69
409.12	989.69
409.344	996.69
409.567	979.69
409.791	1001.69
410.014	976.69
410.238	958.69
410.461	992.69
410.685	928.69
410.908	944.69
411.132	956.69
411.355	961.69
411.578	958.69
411.802	949.69
412.025	956.69
412.249	975.69
412.472	968.69
412.695	905.69
412.919	933.69
413.142	931.69
413.365	939.69
413.589	957.69
413.812	917.69
414.035	943.69
414.258	912.69
414.482	949.69
414.705	942.69
414.928	927.69
415.151	925.69
415.374	920.69
415.597	914.69
415.821	892.69
416.044	923.69
416.267	924.69
416.49	923.69
416.713	907.69
416.936	906.69
417.159	912.69
417.382	899.69
417.605	896.69
417.828	920.69
418.051	921.69
418.274	913.69
418.497	896.69
418.72	910.69
418.943	908.69
419.166	930.69
419.389	985.69
419.611	979.69
419.834	953.69
420.057	955.69
420.28	895.69
420.503	876.69
420.726	889.69
420.948	895.69
421.171	920.69
421.394	909.69
421.617	896.69
421.839	907.69
422.062	935.69
422.285	904.69
422.507	903.69
422.73	931.69
422.953	896.69
423.175	915.69
423.398	931.69
423.621	917.69
423.843	904.69
424.066	923.69
424.288	896.69
424.511	912.69
424.733	938.69
424.956	894.69
425.178	911.69
425.401	892.69
425.623	921.69
425.846	885.69
426.068	920.69
426.291	907.69
426.513	894.69
426.735	894.69
426.958	896.69
427.18	886.69
427.402	880.69
427.625	896.69
427.847	912.69
428.069	920.69
428.292	905.69
428.514	867.69
428.736	912.69
428.958	909.69
429.181	890.69
429.403	891.69
429.625	907.69
429.847	911.69
430.069	935.69
430.292	899.69
430.514	882.69
430.736	895.69
430.958	884.69
431.18	885.69
431.402	921.69
431.624	871.69
431.846	891.69
432.068	879.69
432.29	913.69
432.512	887.69
432.734	926.69
432.956	937.69
433.178	924.69
433.4	919.69
433.622	939.69
433.844	937.69
434.066	924.69
434.287	907.69
434.509	889.69
434.731	929.69
434.953	928.69
435.175	940.69
435.397	976.69
435.618	904.69
435.84	926.69
436.062	885.69
436.284	893.69
436.505	925.69
436.727	895.69
436.949	889.69
437.17	926.69
437.392	900.69
437.614	907.69
437.835	887.69
438.057	864.69
438.278	857.69
438.5	893.69
438.721	883.69
438.943	892.69
439.165	867.69
439.386	909.69
439.608	906.69
439.829	922.69
440.05	924.69
440.272	924.69
440.493	927.69
440.715	929.69
440.936	896.69
441.158	922.69
441.379	910.69
441.6	921.69
441.822	920.69
442.043	905.69
442.264	919.69
442.486	914.69
442.707	905.69
442.928	921.69
443.149	895.69
443.371	929.69
443.592	941.69
443.813	951.69
444.034	913.69
444.255	928.69
444.476	943.69
444.698	909.69
444.919	978.69
445.14	1078.69
445.361	983.69
445.582	950.69
445.803	919.69
446.024	895.69
446.245	905.69
446.466	917.69
446.687	880.69
446.908	891.69
447.129	907.69
447.35	875.69
447.571	861.69
447.792	853.69
448.013	889.69
448.234	861.69
448.455	893.69
448.675	849.69
448.896	870.69
449.117	854.69
449.338	832.69
449.559	817.69
449.779	811.69
450	846.69
450.221	835.69
450.442	869.69
450.662	854.69
450.883	828.69
451.104	867.69
451.324	825.69
451.545	836.69
451.766	847.69
451.986	821.69
452.207	835.69
452.428	830.69
452.648	827.69
452.869	823.69
453.089	810.69
453.31	821.69
453.53	786.69
453.751	809.69
453.971	799.69
454.192	829.69
454.412	821.69
454.633	799.69
454.853	820.69
455.073	824.69
455.294	825.69
455.514	821.69
455.734	843.69
455.955	813.69
456.175	806.69
456.395	789.69
456.616	801.69
456.836	800.69
457.056	842.69
457.276	814.69
457.497	832.69
457.717	835.69
457.937	809.69
458.157	831.69
458.377	814.69
458.598	823.69
458.818	804.69
459.038	823.69
459.258	837.69
459.478	847.69
459.698	859.69
459.918	868.69
460.138	903.69
460.358	895.69
460.578	899.69
460.798	907.69
461.018	890.69
461.238	890.69
461.458	916.69
461.678	880.69
461.898	898.69
462.118	887.69
462.338	913.69
462.558	939.69
462.777	933.69
462.997	936.69
463.217	972.69
463.437	980.69
463.657	968.69
463.876	951.69
464.096	938.69
464.316	949.69
464.536	943.69
464.755	923.69
464.975	910.69
465.195	916.69
465.414	896.69
465.634	889.69
465.854	881.69
466.073	879.69
466.293	868.69
466.512	842.69
466.732	881.69
466.951	880.69
467.171	865.69
467.391	880.69
467.61	854.69
467.829	887.69
468.049	895.69
468.268	870.69
468.488	873.69
468.707	877.69
468.927	871.69
469.146	861.69
469.365	896.69
469.585	864.69
469.804	861.69
470.023	892.69
470.243	899.69
470.462	891.69
470.681	866.69
470.901	901.69
471.12	915.69
471.339	889.69
471.558	893.69
471.777	904.69
471.997	875.69
472.216	866.69
472.435	884.69
472.654	878.69
472.873	887.69
473.092	855.69
473.311	878.69
473.53	877.69
473.749	887.69
473.968	901.69
474.187	874.69
474.406	897.69
474.625	892.69
474.844	912.69
475.063	908.69
475.282	924.69
475.501	916.69
475.72	905.69
475.939	907.69
476.158	935.69
476.377	935.69
476.596	934.69
476.814	960.69
477.033	932.69
477.252	955.69
477.471	963.69
477.69	977.69
477.908	971.69
478.127	981.69
478.346	980.69
478.564	966.69
478.783	1005.69
479.002	1023.69
479.22	1037.69
479.439	1062.69
479.658	1026.69
479.876	1007.69
480.095	1002.69
480.313	1028.69
480.532	1004.69
480.751	1020.69
480.969	1042.69
481.188	1008.69
481.406	1024.69
481.624	996.69
481.843	1029.69
482.061	1015.69
482.28	1045.69
482.498	1001.69
482.717	1052.69
482.935	1063.69
483.153	1053.69
483.372	1081.69
483.59	1075.69
483.808	1064.69
484.027	1037.69
484.245	1045.69
484.463	1070.69
484.681	1079.69
484.9	1099.69
485.118	1090.69
485.336	1058.69
485.554	1071.69
485.772	1079.69
485.99	1072.69
486.209	1056.69
486.427	1074.69
486.645	1075.69
486.863	1056.69
487.081	1081.69
487.299	1085.69
487.517	1109.69
487.735	1095.69
487.953	1129.69
488.171	1126.69
488.389	1139.69
488.607	1106.69
488.825	1071.69
489.043	1080.69
489.261	1082.69
489.479	1079.69
489.696	1084.69
489.914	1078.69
490.132	1115.69
490.35	1069.69
490.568	1117.69
490.786	1118.69
491.003	1145.69
491.221	1127.69
491.439	1139.69
491.657	1108.69
491.874	1155.69
492.092	1134.69
492.31	1159.69
492.527	1181.69
492.745	1130.69
492.963	1125.69
493.18	1145.69
493.398	1156.69
493.615	1129.69
493.833	1105.69
494.05	1123.69
494.268	1127.69
494.485	1155.69
494.703	1113.69
494.92	1113.69
495.138	1137.69
495.355	1148.69
495.573	1117.69
495.79	1126.69
496.008	1150.69
496.225	1144.69
496.442	1163.69
496.66	1194.69
496.877	1149.69
497.094	1162.69
497.312	1181.69
497.529	1166.69
497.746	1173.69
497.963	1209.69
498.181	1209.69
498.398	1216.69
498.615	1256.69
498.832	1236.69
499.049	1255.69
499.267	1277.69
499.484	1302.69
499.701	1336.69
499.918	1393.69
500.135	1411.69
500.352	1469.69
500.569	1459.69
500.786	1427.69
501.003	1412.69
501.22	1419.69
501.437	1365.69
501.654	1321.69
501.871	1276.69
502.088	1309.69
502.305	1256.69
502.522	1197.69
502.739	1211.69
502.956	1175.69
503.172	1182.69
503.389	1148.69
503.606	1144.69
503.823	1131.69
504.04	1115.69
504.256	1120.69
504.473	1057.69
504.69	1129.69
504.907	1114.69
505.123	1111.69
505.34	1084.69
505.557	1029.69
505.773	1067.69
505.99	1066.69
506.207	1029.69
506.423	1029.69
506.64	973.69
506.856	992.69
507.073	977.69
507.289	1027.69
507.506	1014.69
507.722	1008.69
507.939	959.69
508.155	978.69
508.372	967.69
508.588	971.69
508.805	959.69
509.021	979.69
509.238	952.69
509.454	915.69
509.67	936.69
509.887	972.69
510.103	947.69
510.319	922.69
510.536	942.69
510.752	903.69
510.968	938.69
511.184	914.69
511.401	915.69
511.617	924.69
511.833	937.69
512.049	908.69
512.265	914.69
512.481	886.69
512.698	907.69
512.914	917.69
513.13	929.69
513.346	887.69
513.562	912.69
513.778	894.69
513.994	932.69
514.21	933.69
514.426	933.69
514.642	910.69
514.858	890.69
515.074	916.69
515.29	930.69
515.506	908.69
515.721	933.69
515.937	935.69
516.153	937.69
516.369	928.69
516.585	903.69
516.801	933.69
517.016	923.69
517.232	965.69
517.448	948.69
517.664	959.69
517.879	912.69
518.095	919.69
518.311	921.69
518.527	953.69
518.742	911.69
518.958	908.69
519.173	891.69
519.389	903.69
519.605	900.69
519.82	898.69
520.036	919.69
520.251	907.69
520.467	891.69
520.682	879.69
520.898	870.69
521.113	876.69
521.329	894.69
521.544	892.69
521.76	864.69
521.975	852.69
522.19	847.69
522.406	878.69
522.621	866.69
522.836	867.69
523.052	870.69
523.267	876.69
523.482	865.69
523.698	859.69
523.913	846.69
524.128	845.69
524.343	835.69
524.559	856.69
524.774	833.69
524.989	844.69
525.204	852.69
525.419	843.69
525.634	831.69
525.849	849.69
526.064	826.69
526.28	819.69
526.495	810.69
526.71	818.69
526.925	800.69
527.14	836.69
527.355	805.69
527.57	815.69
527.785	792.69
527.999	813.69
528.214	823.69
528.429	810.69
528.644	799.69
528.859	843.69
529.074	823.69
529.289	817.69
529.503	835.69
529.718	823.69
529.933	799.69
530.148	828.69
530.363	810.69
530.577	792.69
530.792	800.69
531.007	800.69
531.221	806.69
531.436	797.69
531.651	803.69
531.865	780.69
532.08	780.69
532.295	774.69
532.509	808.69
532.724	785.69
532.938	783.69
533.153	792.69
533.367	783.69
533.582	795.69
533.796	782.69
534.011	799.69
534.225	791.69
534.44	761.69
534.654	783.69
534.868	768.69
535.083	774.69
535.297	761.69
535.511	764.69
535.726	733.69
535.94	756.69
536.154	763.69
536.369	738.69
536.583	769.69
536.797	748.69
537.011	736.69
537.225	729.69
537.44	728.69
537.654	762.69
537.868	748.69
538.082	736.69
538.296	738.69
538.51	726.69
538.724	748.69
538.938	757.69
539.153	745.69
539.367	728.69
539.581	723.69
539.795	740.69
540.009	727.69
540.222	740.69
540.436	739.69
540.65	728.69
540.864	743.69
541.078	741.69
541.292	752.69
541.506	756.69
541.72	750.69
541.934	767.69
542.147	746.69
542.361	763.69
542.575	744.69
542.789	730.69
543.002	726.69
543.216	726.69
543.43	719.69
543.644	720.69
543.857	725.69
544.071	742.69
544.285	740.69
544.498	728.69
544.712	703.69
544.925	733.69
545.139	742.69
545.352	731.69
545.566	735.69
545.779	705.69
545.993	730.69
546.206	734.69
546.42	732.69
546.633	725.69
546.847	718.69
547.06	686.69
547.274	711.69
547.487	717.69
547.7	727.69
547.914	748.69
548.127	706.69
548.34	730.69
548.554	745.69
548.767	741.69
548.98	702.69
549.193	711.69
549.407	711.69
549.62	684.69
549.833	686.69
550.046	697.69
550.259	688.69
550.473	707.69
550.686	711.69
550.899	714.69
551.112	693.69
551.325	680.69
551.538	673.69
551.751	662.69
551.964	661.69
552.177	680.69
552.39	685.69
552.603	705.69
552.816	699.69
553.029	680.69
553.242	693.69
553.455	697.69
553.667	699.69
553.88	688.69
554.093	699.69
554.306	679.69
554.519	683.69
554.732	653.69
554.944	670.69
555.157	673.69
555.37	651.69
555.583	663.69
555.795	667.69
556.008	660.69
556.221	639.69
556.433	649.69
556.646	619.69
556.859	649.69
557.071	631.69
557.284	625.69
557.496	641.69
557.709	609.69
557.921	592.69
558.134	603.69
558.346	625.69
558.559	617.69
558.771	593.69
558.984	633.69
559.196	623.69
559.409	608.69
559.621	589.69
559.833	609.69
560.046	609.69
560.258	615.69
560.47	607.69
560.683	612.69
560.895	605.69
561.107	596.69
561.32	594.69
561.532	600.69
561.744	619.69
561.956	609.69
562.168	580.69
562.381	583.69
562.593	613.69
562.805	617.69
563.017	587.69
563.229	587.69
563.441	592.69
563.653	596.69
563.865	601.69
564.077	603.69
564.289	613.69
564.501	596.69
564.713	612.69
564.925	609.69
565.137	617.69
565.349	564.69
565.561	616.69
565.773	592.69
565.985	616.69
566.197	627.69
566.408	641.69
566.62	653.69
566.832	657.69
567.044	645.69
567.255	621.69
567.467	627.69
567.679	616.69
567.891	652.69
568.102	651.69
568.314	616.69
568.526	622.69
568.737	600.69
568.949	557.69
569.161	587.69
569.372	552.69
569.584	556.69
569.795	549.69
570.007	532.69
570.218	541.69
570.43	533.69
570.641	537.69
570.853	529.69
571.064	563.69
571.276	542.69
571.487	518.69
571.698	517.69
571.91	508.69
572.121	495.69
572.333	484.69
572.544	503.69
572.755	503.69
572.966	493.69
573.178	499.69
573.389	478.69
573.6	511.69
573.811	486.69
574.023	477.69
574.234	477.69
574.445	476.69
574.656	484.69
574.867	496.69
575.078	446.69
575.289	455.69
575.501	479.69
575.712	463.69
575.923	455.69
576.134	468.69
576.345	449.69
576.556	442.69
576.767	461.69
576.978	470.69
577.188	435.69
577.399	433.69
577.61	467.69
577.821	437.69
578.032	449.69
578.243	469.69
578.454	422.69
578.665	436.69
578.875	429.69
579.086	407.69
579.297	438.69
579.508	440.69
579.718	446.69
579.929	432.69
580.14	416.69
580.35	419.69
580.561	450.69
580.772	423.69
580.982	428.69
581.193	424.69
581.403	392.69
581.614	417.69
581.825	423.69
582.035	414.69
582.246	423.69
582.456	401.69
582.667	416.69
582.877	417.69
583.087	411.69
583.298	416.69
583.508	415.69
583.719	393.69
583.929	420.69
584.139	384.69
584.35	413.69
584.56	403.69
584.77	408.69
584.981	400.69
585.191	411.69
585.401	391.69
585.611	377.69
585.821	394.69
586.032	393.69
586.242	383.69
586.452	391.69
586.662	422.69
586.872	399.69
587.082	403.69
587.292	385.69
587.502	391.69
587.713	379.69
587.923	390.69
588.133	390.69
588.343	395.69
588.553	391.69
588.762	374.69
588.972	396.69
589.182	419.69
589.392	381.69
589.602	371.69
589.812	409.69
590.022	377.69
590.232	355.69
590.441	381.69
590.651	385.69
590.861	376.69
591.071	379.69
591.281	389.69
591.49	384.69
591.7	383.69
591.91	397.69
592.119	376.69
592.329	366.69
592.539	375.69
592.748	365.69
592.958	368.69
593.167	375.69
593.377	395.69
593.587	383.69
593.796	370.69
594.006	357.69
594.215	374.69
594.424	381.69
594.634	373.69
594.843	369.69
595.053	369.69
595.262	356.69
595.472	374.69
595.681	357.69
595.89	364.69
596.1	346.69
596.309	373.69
596.518	347.69
596.727	350.69
596.937	342.69
597.146	347.69
597.355	357.69
597.564	359.69
597.774	330.69
597.983	343.69
598.192	314.69
598.401	339.69
598.61	345.69
598.819	321.69
599.028	336.69
599.237	333.69
599.446	313.69
599.655	329.69
599.864	315.69
600.073	345.69
600.282	334.69
600.491	327.69
600.7	323.69
600.909	336.69
601.118	328.69
601.327	319.69
601.536	334.69
601.745	341.69
601.953	340.69
602.162	323.69
602.371	308.69
602.58	327.69
602.789	317.69
602.997	328.69
603.206	329.69
603.415	310.69
603.623	303.69
603.832	307.69
604.041	321.69
604.249	311.69
604.458	328.69
604.666	301.69
604.875	304.69
605.084	313.69
605.292	304.69
605.501	300.69
605.709	313.69
605.918	307.69
606.126	302.69
606.334	309.69
606.543	316.69
606.751	296.69
606.96	325.69
607.168	312.69
607.376	308.69
607.585	302.69
607.793	316.69
608.001	307.69
608.21	300.69
608.418	312.69
608.626	304.69
608.834	287.69
609.043	304.69
609.251	291.69
609.459	287.69
609.667	287.69
609.875	304.69
610.083	297.69
610.291	305.69
610.499	297.69
610.707	302.69
610.916	291.69
611.124	295.69
611.332	292.69
611.54	297.69
611.748	292.69
611.955	302.69
612.163	281.69
612.371	300.69
612.579	293.69
612.787	279.69
612.995	302.69
613.203	299.69
613.411	288.69
613.618	304.69
613.826	295.69
614.034	283.69
614.242	293.69
614.449	283.69
614.657	287.69
614.865	272.69
615.072	290.69
615.28	294.69
615.488	308.69
615.695	265.69
615.903	301.69
616.111	288.69
616.318	296.69
616.526	286.69
616.733	283.69
616.941	291.69
617.148	281.69
617.356	283.69
617.563	273.69
617.771	274.69
617.978	261.69
618.185	285.69
618.393	273.69
618.6	273.69
618.807	278.69
619.015	273.69
619.222	278.69
619.429	267.69
619.637	279.69
619.844	239.69
620.051	250.69
620.258	270.69
620.466	266.69
620.673	255.69
620.88	245.69
621.087	249.69
621.294	271.69
621.501	239.69
621.708	270.69
621.915	252.69
622.122	265.69
622.329	283.69
622.536	244.69
622.743	273.69
622.95	264.69
623.157	250.69
623.364	267.69
623.571	253.69
623.778	250.69
623.985	267.69
624.192	249.69
624.399	247.69
624.606	247.69
624.812	256.69
625.019	240.69
625.226	246.69
625.433	258.69
625.639	252.69
625.846	240.69
626.053	252.69
626.259	254.69
626.466	237.69
626.673	235.69
626.879	236.69
627.086	238.69
627.293	233.69
627.499	257.69
627.706	243.69
627.912	246.69
628.119	237.69
628.325	245.69
628.532	249.69
628.738	253.69
628.945	238.69
629.151	257.69
629.357	253.69
629.564	237.69
629.77	241.69
629.976	248.69
630.183	216.69
630.389	227.69
630.595	207.69
630.802	232.69
631.008	232.69
631.214	233.69
631.42	255.69
631.627	229.69
631.833	223.69
632.039	224.69
632.245	234.69
632.451	232.69
632.657	233.69
632.863	210.69
633.069	229.69
633.275	223.69
633.481	232.69
633.688	222.69
633.893	232.69
634.099	216.69
634.305	211.69
634.511	216.69
634.717	221.69
634.923	213.69
635.129	219.69
635.335	225.69
635.541	226.69
635.747	219.69
635.952	223.69
636.158	212.69
636.364	226.69
636.57	218.69
636.775	207.69
636.981	209.69
637.187	207.69
637.392	222.69
637.598	215.69
637.804	218.69
638.009	211.69
638.215	218.69
638.421	217.69
638.626	217.69
638.832	200.69
639.037	193.69
639.243	217.69
639.448	207.69
639.654	218.69
639.859	221.69
640.065	205.69
640.27	207.69
640.475	220.69
640.681	212.69
640.886	211.69
641.091	212.69
641.297	209.69
641.502	216.69
641.707	213.69
641.913	213.69
642.118	192.69
642.323	199.69
642.528	209.69
642.733	202.69
642.939	194.69
643.144	200.69
643.349	222.69
643.554	233.69
643.759	213.69
643.964	218.69
644.169	203.69
644.374	201.69
644.579	213.69
644.784	195.69
644.989	211.69
645.194	197.69
645.399	203.69
645.604	208.69
645.809	191.69
646.014	196.69
646.219	214.69
646.423	209.69
646.628	205.69
646.833	221.69
647.038	213.69
647.243	216.69
647.447	228.69
647.652	219.69
647.857	201.69
648.062	203.69
648.266	212.69
648.471	197.69
648.676	210.69
648.88	205.69
649.085	215.69
649.289	215.69
649.494	206.69
649.698	211.69
649.903	216.69
650.107	209.69
650.312	221.69
650.516	214.69
650.721	201.69
650.925	200.69
651.13	194.69
651.334	200.69
651.539	199.69
651.743	194.69
651.947	183.69
652.152	200.69
652.356	191.69
652.56	208.69
652.764	197.69
652.969	179.69
653.173	196.69
653.377	191.69
653.581	184.69
653.785	193.69
653.99	181.69
654.194	185.69
654.398	193.69
654.602	194.69
654.806	199.69
655.01	181.69
655.214	182.69
655.418	183.69
655.622	184.69
655.826	190.69
656.03	188.69
656.234	197.69
656.438	204.69
656.642	188.69
656.846	208.69
657.049	175.69
657.253	175.69
657.457	160.69
657.661	150.69
657.865	153.69
658.068	151.69
658.272	151.69
658.476	136.69
658.68	143.69
658.883	126.69
659.087	127.69
659.291	126.69
659.494	126.69
659.698	119.69
659.901	140.69
660.105	110.69
660.309	119.69
660.512	110.69
660.716	118.69
660.919	101.69
661.123	93.69
661.326	105.69
661.53	105.69
661.733	103.69
661.936	85.69
662.14	78.69
662.343	101.69
662.546	108.69
662.75	94.69
662.953	93.69
663.156	83.69
663.36	97.69
663.563	109.69
663.766	99.69
663.969	83.69
664.173	76.69
664.376	88.69
664.579	92.69
664.782	79.69
664.985	78.69
665.188	72.69
665.391	98.69
665.594	87.69
665.797	74.69
666	75.69
666.203	71.69
666.406	90.69
666.609	75.69
666.812	91.69
667.015	88.69
667.218	80.69
667.421	79.69
667.624	84.69
667.827	89.69
668.03	80.69
668.232	87.69
668.435	93.69
668.638	78.69
668.841	88.69
669.043	88.69
669.246	91.69
669.449	88.69
669.651	85.69
669.854	87.69
670.057	82.69
670.259	82.69
670.462	89.69
670.665	83.69
670.867	85.69
671.07	81.69
671.272	83.69
671.475	93.69
671.677	88.69
671.88	89.69
672.082	80.69
672.284	88.69
672.487	79.69
672.689	83.69
672.892	71.69
