Data from Ni(NO3)2@0.5M.TitratingCurve.Agarose3%dH2O.NegLispCup.LampEnergy10.LIBS07252019_HRD10591_17-59-53-565.txt Node
Date: Thu Jul 25 17:59:53 EDT 2019
User: cochatt
Spectrometer: HR+D1059
Trigger mode: 1
Integration Time (sec): 1.000000E-1
Scans to average: 1
Electric dark correction enabled: true
Nonlinearity correction enabled: false
Boxcar width: 0
XAxis mode: Wavelengths
Number of Pixels in Spectrum: 2048
>>>>>Begin Spectral Data<<<<<
223.165	-18.94
223.4	-18.94
223.635	-18.94
223.869	-15.94
224.104	-30.94
224.338	-1.94
224.573	-12.94
224.808	-17.94
225.042	-8.94
225.277	-5.94
225.511	-9.94
225.746	5.06
225.98	-1.94
226.215	10.06
226.449	13.06
226.683	19.06
226.918	39.06
227.152	39.06
227.387	33.06
227.621	31.06
227.856	28.06
228.09	51.06
228.324	48.06
228.559	54.06
228.793	75.06
229.027	124.06
229.262	114.06
229.496	114.06
229.73	114.06
229.964	134.06
230.199	156.06
230.433	161.06
230.667	143.06
230.901	149.06
231.136	139.06
231.37	131.06
231.604	140.06
231.838	147.06
232.072	168.06
232.306	165.06
232.541	160.06
232.775	159.06
233.009	141.06
233.243	137.06
233.477	140.06
233.711	148.06
233.945	150.06
234.179	169.06
234.413	158.06
234.647	147.06
234.881	161.06
235.115	153.06
235.349	139.06
235.583	139.06
235.817	149.06
236.051	141.06
236.285	137.06
236.519	142.06
236.753	161.06
236.987	144.06
237.221	150.06
237.455	151.06
237.689	153.06
237.922	169.06
238.156	155.06
238.39	155.06
238.624	167.06
238.858	166.06
239.091	170.06
239.325	183.06
239.559	171.06
239.793	174.06
240.027	176.06
240.26	173.06
240.494	167.06
240.728	183.06
240.961	176.06
241.195	167.06
241.429	182.06
241.662	189.06
241.896	183.06
242.13	210.06
242.363	188.06
242.597	186.06
242.83	192.06
243.064	172.06
243.298	178.06
243.531	178.06
243.765	211.06
243.998	193.06
244.232	199.06
244.465	207.06
244.699	208.06
244.932	187.06
245.166	191.06
245.399	208.06
245.633	205.06
245.866	197.06
246.099	205.06
246.333	187.06
246.566	199.06
246.8	199.06
247.033	216.06
247.266	205.06
247.5	202.06
247.733	212.06
247.966	214.06
248.2	209.06
248.433	223.06
248.666	216.06
248.899	211.06
249.133	222.06
249.366	229.06
249.599	209.06
249.832	218.06
250.066	226.06
250.299	234.06
250.532	218.06
250.765	222.06
250.998	226.06
251.231	241.06
251.465	235.06
251.698	247.06
251.931	232.06
252.164	240.06
252.397	249.06
252.63	239.06
252.863	237.06
253.096	249.06
253.329	234.06
253.562	244.06
253.795	258.06
254.028	253.06
254.261	266.06
254.494	246.06
254.727	253.06
254.96	265.06
255.193	246.06
255.426	247.06
255.659	247.06
255.892	261.06
256.124	273.06
256.357	261.06
256.59	278.06
256.823	271.06
257.056	257.06
257.289	269.06
257.521	263.06
257.754	282.06
257.987	280.06
258.22	282.06
258.452	281.06
258.685	280.06
258.918	288.06
259.151	269.06
259.383	302.06
259.616	310.06
259.849	264.06
260.081	298.06
260.314	284.06
260.547	297.06
260.779	294.06
261.012	291.06
261.244	302.06
261.477	297.06
261.71	298.06
261.942	288.06
262.175	311.06
262.407	301.06
262.64	292.06
262.872	290.06
263.105	308.06
263.337	298.06
263.57	330.06
263.802	335.06
264.035	296.06
264.267	310.06
264.499	322.06
264.732	332.06
264.964	312.06
265.197	333.06
265.429	308.06
265.661	319.06
265.894	338.06
266.126	314.06
266.358	320.06
266.591	336.06
266.823	327.06
267.055	321.06
267.287	325.06
267.52	347.06
267.752	342.06
267.984	333.06
268.216	328.06
268.448	351.06
268.681	346.06
268.913	350.06
269.145	348.06
269.377	346.06
269.609	356.06
269.841	334.06
270.073	339.06
270.306	350.06
270.538	349.06
270.77	345.06
271.002	367.06
271.234	352.06
271.466	362.06
271.698	364.06
271.93	364.06
272.162	365.06
272.394	358.06
272.626	349.06
272.858	354.06
273.09	375.06
273.322	384.06
273.553	367.06
273.785	382.06
274.017	380.06
274.249	377.06
274.481	395.06
274.713	361.06
274.945	382.06
275.176	376.06
275.408	379.06
275.64	364.06
275.872	380.06
276.104	390.06
276.335	380.06
276.567	363.06
276.799	397.06
277.031	386.06
277.262	398.06
277.494	401.06
277.726	395.06
277.957	394.06
278.189	377.06
278.421	379.06
278.652	420.06
278.884	412.06
279.115	402.06
279.347	417.06
279.579	396.06
279.81	422.06
280.042	433.06
280.273	415.06
280.505	421.06
280.736	410.06
280.968	420.06
281.199	420.06
281.431	420.06
281.662	407.06
281.894	420.06
282.125	407.06
282.356	442.06
282.588	426.06
282.819	434.06
283.051	426.06
283.282	434.06
283.513	424.06
283.745	428.06
283.976	433.06
284.207	458.06
284.439	442.06
284.67	427.06
284.901	436.06
285.132	433.06
285.364	447.06
285.595	457.06
285.826	442.06
286.057	444.06
286.288	443.06
286.52	434.06
286.751	456.06
286.982	434.06
287.213	465.06
287.444	455.06
287.675	436.06
287.906	471.06
288.138	458.06
288.369	464.06
288.6	453.06
288.831	446.06
289.062	458.06
289.293	441.06
289.524	485.06
289.755	484.06
289.986	466.06
290.217	458.06
290.448	457.06
290.679	462.06
290.91	455.06
291.141	460.06
291.371	466.06
291.602	470.06
291.833	473.06
292.064	448.06
292.295	448.06
292.526	470.06
292.757	462.06
292.987	460.06
293.218	457.06
293.449	474.06
293.68	488.06
293.91	485.06
294.141	493.06
294.372	458.06
294.603	470.06
294.833	466.06
295.064	463.06
295.295	490.06
295.525	492.06
295.756	478.06
295.987	491.06
296.217	489.06
296.448	469.06
296.679	465.06
296.909	492.06
297.14	500.06
297.37	531.06
297.601	490.06
297.831	500.06
298.062	492.06
298.292	508.06
298.523	518.06
298.753	509.06
298.984	528.06
299.214	497.06
299.445	513.06
299.675	512.06
299.905	527.06
300.136	516.06
300.366	535.06
300.597	539.06
300.827	543.06
301.057	522.06
301.288	539.06
301.518	528.06
301.748	544.06
301.979	543.06
302.209	546.06
302.439	518.06
302.669	535.06
302.9	537.06
303.13	538.06
303.36	518.06
303.59	536.06
303.82	511.06
304.051	539.06
304.281	537.06
304.511	536.06
304.741	542.06
304.971	537.06
305.201	557.06
305.431	545.06
305.661	537.06
305.891	518.06
306.121	516.06
306.352	542.06
306.582	530.06
306.812	543.06
307.042	552.06
307.272	553.06
307.502	524.06
307.731	533.06
307.961	542.06
308.191	560.06
308.421	550.06
308.651	538.06
308.881	530.06
309.111	525.06
309.341	525.06
309.571	568.06
309.8	556.06
310.03	547.06
310.26	562.06
310.49	574.06
310.72	547.06
310.949	540.06
311.179	546.06
311.409	549.06
311.639	550.06
311.868	539.06
312.098	558.06
312.328	574.06
312.557	551.06
312.787	589.06
313.017	559.06
313.246	561.06
313.476	572.06
313.706	592.06
313.935	578.06
314.165	577.06
314.394	578.06
314.624	584.06
314.853	570.06
315.083	589.06
315.312	600.06
315.542	586.06
315.771	596.06
316.001	587.06
316.23	598.06
316.46	576.06
316.689	585.06
316.919	577.06
317.148	598.06
317.377	597.06
317.607	591.06
317.836	585.06
318.065	600.06
318.295	562.06
318.524	591.06
318.753	600.06
318.983	613.06
319.212	587.06
319.441	587.06
319.67	600.06
319.9	591.06
320.129	604.06
320.358	597.06
320.587	583.06
320.816	609.06
321.046	610.06
321.275	616.06
321.504	616.06
321.733	597.06
321.962	588.06
322.191	608.06
322.42	617.06
322.649	592.06
322.878	611.06
323.108	609.06
323.337	607.06
323.566	638.06
323.795	635.06
324.024	633.06
324.253	633.06
324.482	635.06
324.71	612.06
324.939	626.06
325.168	654.06
325.397	623.06
325.626	649.06
325.855	658.06
326.084	644.06
326.313	646.06
326.542	649.06
326.77	651.06
326.999	636.06
327.228	628.06
327.457	632.06
327.686	652.06
327.914	657.06
328.143	667.06
328.372	656.06
328.6	662.06
328.829	640.06
329.058	669.06
329.287	663.06
329.515	685.06
329.744	653.06
329.972	678.06
330.201	676.06
330.43	670.06
330.658	663.06
330.887	668.06
331.115	693.06
331.344	683.06
331.572	687.06
331.801	712.06
332.03	711.06
332.258	685.06
332.486	734.06
332.715	721.06
332.943	748.06
333.172	740.06
333.4	760.06
333.629	762.06
333.857	773.06
334.085	780.06
334.314	802.06
334.542	789.06
334.771	803.06
334.999	818.06
335.227	787.06
335.455	773.06
335.684	782.06
335.912	791.06
336.14	778.06
336.369	773.06
336.597	759.06
336.825	758.06
337.053	776.06
337.281	783.06
337.51	764.06
337.738	779.06
337.966	742.06
338.194	764.06
338.422	743.06
338.65	732.06
338.878	717.06
339.106	720.06
339.334	715.06
339.562	718.06
339.79	703.06
340.018	712.06
340.246	717.06
340.474	717.06
340.702	711.06
340.93	724.06
341.158	724.06
341.386	701.06
341.614	735.06
341.842	744.06
342.07	696.06
342.298	705.06
342.526	720.06
342.754	706.06
342.981	716.06
343.209	746.06
343.437	728.06
343.665	752.06
343.893	789.06
344.12	785.06
344.348	777.06
344.576	778.06
344.804	757.06
345.031	731.06
345.259	719.06
345.487	746.06
345.714	743.06
345.942	710.06
346.17	753.06
346.397	714.06
346.625	711.06
346.853	689.06
347.08	678.06
347.308	690.06
347.535	685.06
347.763	672.06
347.99	678.06
348.218	688.06
348.445	670.06
348.673	676.06
348.9	675.06
349.128	695.06
349.355	700.06
349.583	685.06
349.81	702.06
350.037	678.06
350.265	664.06
350.492	668.06
350.72	683.06
350.947	693.06
351.174	662.06
351.402	671.06
351.629	715.06
351.856	672.06
352.083	678.06
352.311	694.06
352.538	689.06
352.765	695.06
352.992	664.06
353.22	648.06
353.447	623.06
353.674	637.06
353.901	667.06
354.128	648.06
354.355	653.06
354.583	651.06
354.81	645.06
355.037	653.06
355.264	659.06
355.491	655.06
355.718	661.06
355.945	660.06
356.172	656.06
356.399	652.06
356.626	673.06
356.853	687.06
357.08	676.06
357.307	705.06
357.534	670.06
357.761	659.06
357.988	642.06
358.215	640.06
358.441	658.06
358.668	650.06
358.895	670.06
359.122	658.06
359.349	654.06
359.576	668.06
359.802	661.06
360.029	662.06
360.256	658.06
360.483	681.06
360.709	662.06
360.936	695.06
361.163	648.06
361.39	674.06
361.616	645.06
361.843	665.06
362.07	684.06
362.296	688.06
362.523	678.06
362.749	669.06
362.976	692.06
363.203	672.06
363.429	676.06
363.656	653.06
363.882	664.06
364.109	662.06
364.335	652.06
364.562	662.06
364.788	664.06
365.015	686.06
365.241	678.06
365.468	671.06
365.694	652.06
365.92	680.06
366.147	682.06
366.373	675.06
366.599	658.06
366.826	676.06
367.052	677.06
367.278	668.06
367.505	662.06
367.731	698.06
367.957	649.06
368.184	705.06
368.41	687.06
368.636	687.06
368.862	683.06
369.089	678.06
369.315	682.06
369.541	660.06
369.767	680.06
369.993	669.06
370.219	695.06
370.445	694.06
370.672	715.06
370.898	706.06
371.124	690.06
371.35	728.06
371.576	713.06
371.802	739.06
372.028	728.06
372.254	736.06
372.48	713.06
372.706	736.06
372.932	723.06
373.158	687.06
373.384	697.06
373.61	712.06
373.835	704.06
374.061	738.06
374.287	721.06
374.513	736.06
374.739	752.06
374.965	761.06
375.191	764.06
375.416	736.06
375.642	735.06
375.868	740.06
376.094	741.06
376.319	728.06
376.545	762.06
376.771	724.06
376.997	725.06
377.222	723.06
377.448	718.06
377.674	689.06
377.899	713.06
378.125	719.06
378.35	697.06
378.576	688.06
378.802	700.06
379.027	718.06
379.253	715.06
379.478	704.06
379.704	707.06
379.929	702.06
380.155	708.06
380.38	707.06
380.606	715.06
380.831	706.06
381.057	710.06
381.282	724.06
381.507	702.06
381.733	720.06
381.958	709.06
382.184	723.06
382.409	718.06
382.634	729.06
382.86	743.06
383.085	733.06
383.31	736.06
383.535	732.06
383.761	736.06
383.986	749.06
384.211	758.06
384.436	743.06
384.662	756.06
384.887	796.06
385.112	787.06
385.337	789.06
385.562	796.06
385.787	802.06
386.013	847.06
386.238	826.06
386.463	807.06
386.688	806.06
386.913	796.06
387.138	801.06
387.363	825.06
387.588	815.06
387.813	832.06
388.038	813.06
388.263	850.06
388.488	826.06
388.713	805.06
388.938	818.06
389.163	801.06
389.387	816.06
389.612	802.06
389.837	803.06
390.062	817.06
390.287	812.06
390.512	809.06
390.736	836.06
390.961	840.06
391.186	854.06
391.411	867.06
391.636	873.06
391.86	882.06
392.085	864.06
392.31	862.06
392.534	881.06
392.759	884.06
392.984	841.06
393.208	858.06
393.433	868.06
393.658	879.06
393.882	846.06
394.107	850.06
394.331	860.06
394.556	876.06
394.78	883.06
395.005	891.06
395.229	865.06
395.454	901.06
395.678	926.06
395.903	890.06
396.127	885.06
396.352	896.06
396.576	871.06
396.801	897.06
397.025	904.06
397.249	898.06
397.474	935.06
397.698	924.06
397.922	935.06
398.147	938.06
398.371	941.06
398.595	958.06
398.82	991.06
399.044	1029.06
399.268	1076.06
399.492	1136.06
399.717	1201.06
399.941	1208.06
400.165	1190.06
400.389	1132.06
400.613	1062.06
400.837	1055.06
401.062	1029.06
401.286	1013.06
401.51	968.06
401.734	1000.06
401.958	994.06
402.182	1004.06
402.406	1015.06
402.63	1006.06
402.854	1014.06
403.078	990.06
403.302	1000.06
403.526	996.06
403.75	1004.06
403.974	1042.06
404.198	1031.06
404.422	1056.06
404.645	1032.06
404.869	1045.06
405.093	1036.06
405.317	1028.06
405.541	1034.06
405.765	1050.06
405.988	1046.06
406.212	1073.06
406.436	1046.06
406.66	1110.06
406.883	1087.06
407.107	1135.06
407.331	1165.06
407.555	1180.06
407.778	1171.06
408.002	1130.06
408.226	1121.06
408.449	1157.06
408.673	1068.06
408.896	1120.06
409.12	1063.06
409.344	1088.06
409.567	1054.06
409.791	1087.06
410.014	1087.06
410.238	1071.06
410.461	1065.06
410.685	1041.06
410.908	1054.06
411.132	1057.06
411.355	1042.06
411.578	1013.06
411.802	1048.06
412.025	1025.06
412.249	1037.06
412.472	1014.06
412.695	1000.06
412.919	1001.06
413.142	1001.06
413.365	1001.06
413.589	980.06
413.812	1012.06
414.035	1016.06
414.258	1000.06
414.482	1005.06
414.705	1039.06
414.928	1004.06
415.151	1000.06
415.374	982.06
415.597	980.06
415.821	942.06
416.044	953.06
416.267	985.06
416.49	974.06
416.713	951.06
416.936	962.06
417.159	954.06
417.382	963.06
417.605	909.06
417.828	951.06
418.051	936.06
418.274	951.06
418.497	960.06
418.72	985.06
418.943	963.06
419.166	1026.06
419.389	1043.06
419.611	1037.06
419.834	1017.06
420.057	985.06
420.28	956.06
420.503	961.06
420.726	956.06
420.948	958.06
421.171	959.06
421.394	991.06
421.617	960.06
421.839	959.06
422.062	992.06
422.285	945.06
422.507	973.06
422.73	969.06
422.953	937.06
423.175	964.06
423.398	942.06
423.621	967.06
423.843	976.06
424.066	987.06
424.288	967.06
424.511	982.06
424.733	960.06
424.956	950.06
425.178	941.06
425.401	953.06
425.623	932.06
425.846	936.06
426.068	962.06
426.291	932.06
426.513	928.06
426.735	942.06
426.958	930.06
427.18	898.06
427.402	920.06
427.625	927.06
427.847	913.06
428.069	900.06
428.292	911.06
428.514	856.06
428.736	906.06
428.958	934.06
429.181	903.06
429.403	904.06
429.625	903.06
429.847	907.06
430.069	886.06
430.292	867.06
430.514	885.06
430.736	904.06
430.958	896.06
431.18	893.06
431.402	914.06
431.624	895.06
431.846	898.06
432.068	897.06
432.29	930.06
432.512	892.06
432.734	897.06
432.956	895.06
433.178	918.06
433.4	924.06
433.622	907.06
433.844	946.06
434.066	920.06
434.287	925.06
434.509	932.06
434.731	942.06
434.953	961.06
435.175	960.06
435.397	975.06
435.618	944.06
435.84	934.06
436.062	915.06
436.284	922.06
436.505	909.06
436.727	916.06
436.949	905.06
437.17	892.06
437.392	900.06
437.614	907.06
437.835	875.06
438.057	903.06
438.278	879.06
438.5	889.06
438.721	849.06
438.943	893.06
439.165	858.06
439.386	865.06
439.608	868.06
439.829	897.06
440.05	888.06
440.272	917.06
440.493	902.06
440.715	912.06
440.936	921.06
441.158	964.06
441.379	964.06
441.6	976.06
441.822	971.06
442.043	939.06
442.264	961.06
442.486	946.06
442.707	933.06
442.928	930.06
443.149	984.06
443.371	945.06
443.592	993.06
443.813	930.06
444.034	985.06
444.255	1011.06
444.476	1028.06
444.698	1052.06
444.919	1035.06
445.14	1133.06
445.361	1055.06
445.582	1006.06
445.803	964.06
446.024	950.06
446.245	929.06
446.466	925.06
446.687	897.06
446.908	902.06
447.129	879.06
447.35	891.06
447.571	887.06
447.792	849.06
448.013	870.06
448.234	871.06
448.455	849.06
448.675	839.06
448.896	844.06
449.117	817.06
449.338	825.06
449.559	817.06
449.779	832.06
450	820.06
450.221	824.06
450.442	828.06
450.662	836.06
450.883	840.06
451.104	846.06
451.324	820.06
451.545	835.06
451.766	818.06
451.986	793.06
452.207	815.06
452.428	824.06
452.648	790.06
452.869	810.06
453.089	794.06
453.31	794.06
453.53	793.06
453.751	784.06
453.971	801.06
454.192	775.06
454.412	794.06
454.633	801.06
454.853	796.06
455.073	787.06
455.294	805.06
455.514	815.06
455.734	789.06
455.955	802.06
456.175	786.06
456.395	784.06
456.616	762.06
456.836	772.06
457.056	780.06
457.276	765.06
457.497	785.06
457.717	800.06
457.937	792.06
458.157	801.06
458.377	813.06
458.598	828.06
458.818	823.06
459.038	838.06
459.258	874.06
459.478	907.06
459.698	944.06
459.918	952.06
460.138	973.06
460.358	965.06
460.578	976.06
460.798	1012.06
461.018	1033.06
461.238	977.06
461.458	973.06
461.678	981.06
461.898	979.06
462.118	1012.06
462.338	1020.06
462.558	1064.06
462.777	1131.06
462.997	1143.06
463.217	1154.06
463.437	1162.06
463.657	1161.06
463.876	1092.06
464.096	1068.06
464.316	1070.06
464.536	1068.06
464.755	1058.06
464.975	1017.06
465.195	1000.06
465.414	965.06
465.634	956.06
465.854	925.06
466.073	902.06
466.293	885.06
466.512	880.06
466.732	884.06
466.951	865.06
467.171	864.06
467.391	914.06
467.61	873.06
467.829	850.06
468.049	832.06
468.268	843.06
468.488	836.06
468.707	851.06
468.927	840.06
469.146	822.06
469.365	851.06
469.585	860.06
469.804	843.06
470.023	884.06
470.243	878.06
470.462	850.06
470.681	855.06
470.901	885.06
471.12	892.06
471.339	858.06
471.558	862.06
471.777	855.06
471.997	843.06
472.216	844.06
472.435	861.06
472.654	851.06
472.873	848.06
473.092	832.06
473.311	863.06
473.53	828.06
473.749	834.06
473.968	864.06
474.187	860.06
474.406	844.06
474.625	841.06
474.844	863.06
475.063	838.06
475.282	846.06
475.501	861.06
475.72	849.06
475.939	851.06
476.158	873.06
476.377	860.06
476.596	865.06
476.814	904.06
477.033	904.06
477.252	896.06
477.471	920.06
477.69	911.06
477.908	963.06
478.127	934.06
478.346	967.06
478.564	988.06
478.783	971.06
479.002	994.06
479.22	1000.06
479.439	1066.06
479.658	992.06
479.876	979.06
480.095	1000.06
480.313	1034.06
480.532	1052.06
480.751	1027.06
480.969	988.06
481.188	1008.06
481.406	1009.06
481.624	997.06
481.843	943.06
482.061	986.06
482.28	998.06
482.498	962.06
482.717	948.06
482.935	965.06
483.153	1009.06
483.372	1010.06
483.59	1049.06
483.808	999.06
484.027	1002.06
484.245	996.06
484.463	978.06
484.681	1014.06
484.9	1020.06
485.118	1040.06
485.336	1009.06
485.554	1027.06
485.772	1044.06
485.99	1059.06
486.209	1019.06
486.427	1002.06
486.645	1011.06
486.863	1022.06
487.081	1033.06
487.299	1008.06
487.517	1016.06
487.735	1036.06
487.953	1064.06
488.171	1022.06
488.389	1041.06
488.607	1053.06
488.825	1057.06
489.043	1028.06
489.261	982.06
489.479	994.06
489.696	1018.06
489.914	1002.06
490.132	1005.06
490.35	1016.06
490.568	1045.06
490.786	1038.06
491.003	1037.06
491.221	1037.06
491.439	1038.06
491.657	1022.06
491.874	1070.06
492.092	1041.06
492.31	1045.06
492.527	1057.06
492.745	1057.06
492.963	1039.06
493.18	1019.06
493.398	1060.06
493.615	1048.06
493.833	1058.06
494.05	1055.06
494.268	1037.06
494.485	1055.06
494.703	1100.06
494.92	1084.06
495.138	1042.06
495.355	1090.06
495.573	1052.06
495.79	1060.06
496.008	1083.06
496.225	1080.06
496.442	1089.06
496.66	1102.06
496.877	1120.06
497.094	1148.06
497.312	1186.06
497.529	1178.06
497.746	1174.06
497.963	1213.06
498.181	1263.06
498.398	1292.06
498.615	1360.06
498.832	1402.06
499.049	1436.06
499.267	1528.06
499.484	1648.06
499.701	1710.06
499.918	1817.06
500.135	1952.06
500.352	2002.06
500.569	2065.06
500.786	2027.06
501.003	1988.06
501.22	1873.06
501.437	1763.06
501.654	1676.06
501.871	1620.06
502.088	1539.06
502.305	1449.06
502.522	1421.06
502.739	1387.06
502.956	1286.06
503.172	1261.06
503.389	1251.06
503.606	1204.06
503.823	1213.06
504.04	1182.06
504.256	1190.06
504.473	1145.06
504.69	1159.06
504.907	1116.06
505.123	1086.06
505.34	1057.06
505.557	1013.06
505.773	1033.06
505.99	1014.06
506.207	1006.06
506.423	971.06
506.64	976.06
506.856	959.06
507.073	936.06
507.289	903.06
507.506	910.06
507.722	937.06
507.939	901.06
508.155	915.06
508.372	900.06
508.588	860.06
508.805	881.06
509.021	880.06
509.238	875.06
509.454	886.06
509.67	870.06
509.887	854.06
510.103	848.06
510.319	825.06
510.536	843.06
510.752	845.06
510.968	849.06
511.184	827.06
511.401	836.06
511.617	836.06
511.833	834.06
512.049	840.06
512.265	822.06
512.481	839.06
512.698	828.06
512.914	832.06
513.13	845.06
513.346	830.06
513.562	844.06
513.778	852.06
513.994	846.06
514.21	851.06
514.426	853.06
514.642	845.06
514.858	870.06
515.074	870.06
515.29	851.06
515.506	876.06
515.721	867.06
515.937	910.06
516.153	934.06
516.369	890.06
516.585	904.06
516.801	923.06
517.016	937.06
517.232	975.06
517.448	988.06
517.664	1006.06
517.879	1003.06
518.095	1022.06
518.311	974.06
518.527	939.06
518.742	937.06
518.958	915.06
519.173	897.06
519.389	895.06
519.605	861.06
519.82	868.06
520.036	888.06
520.251	839.06
520.467	839.06
520.682	837.06
520.898	833.06
521.113	785.06
521.329	827.06
521.544	788.06
521.76	784.06
521.975	773.06
522.19	793.06
522.406	798.06
522.621	780.06
522.836	786.06
523.052	760.06
523.267	767.06
523.482	742.06
523.698	748.06
523.913	742.06
524.128	767.06
524.343	731.06
524.559	753.06
524.774	787.06
524.989	774.06
525.204	761.06
525.419	754.06
525.634	738.06
525.849	745.06
526.064	764.06
526.28	749.06
526.495	755.06
526.71	737.06
526.925	742.06
527.14	708.06
527.355	727.06
527.57	716.06
527.785	735.06
527.999	715.06
528.214	737.06
528.429	727.06
528.644	717.06
528.859	710.06
529.074	716.06
529.289	764.06
529.503	727.06
529.718	742.06
529.933	720.06
530.148	713.06
530.363	717.06
530.577	705.06
530.792	696.06
531.007	708.06
531.221	727.06
531.436	711.06
531.651	729.06
531.865	703.06
532.08	715.06
532.295	710.06
532.509	707.06
532.724	708.06
532.938	738.06
533.153	698.06
533.367	724.06
533.582	705.06
533.796	714.06
534.011	724.06
534.225	694.06
534.44	696.06
534.654	713.06
534.868	697.06
535.083	710.06
535.297	687.06
535.511	713.06
535.726	698.06
535.94	710.06
536.154	700.06
536.369	685.06
536.583	685.06
536.797	687.06
537.011	673.06
537.225	676.06
537.44	678.06
537.654	692.06
537.868	660.06
538.082	674.06
538.296	647.06
538.51	680.06
538.724	673.06
538.938	661.06
539.153	656.06
539.367	678.06
539.581	674.06
539.795	652.06
540.009	677.06
540.222	662.06
540.436	661.06
540.65	662.06
540.864	658.06
541.078	660.06
541.292	649.06
541.506	646.06
541.72	662.06
541.934	678.06
542.147	669.06
542.361	668.06
542.575	653.06
542.789	653.06
543.002	673.06
543.216	642.06
543.43	649.06
543.644	634.06
543.857	642.06
544.071	628.06
544.285	655.06
544.498	643.06
544.712	657.06
544.925	670.06
545.139	672.06
545.352	674.06
545.566	668.06
545.779	663.06
545.993	677.06
546.206	666.06
546.42	682.06
546.633	667.06
546.847	673.06
547.06	683.06
547.274	650.06
547.487	656.06
547.7	666.06
547.914	664.06
548.127	681.06
548.34	680.06
548.554	668.06
548.767	676.06
548.98	664.06
549.193	680.06
549.407	663.06
549.62	648.06
549.833	678.06
550.046	678.06
550.259	641.06
550.473	662.06
550.686	622.06
550.899	650.06
551.112	640.06
551.325	654.06
551.538	643.06
551.751	656.06
551.964	643.06
552.177	666.06
552.39	656.06
552.603	650.06
552.816	650.06
553.029	679.06
553.242	666.06
553.455	709.06
553.667	688.06
553.88	660.06
554.093	663.06
554.306	637.06
554.519	659.06
554.732	634.06
554.944	648.06
555.157	623.06
555.37	624.06
555.583	593.06
555.795	605.06
556.008	594.06
556.221	586.06
556.433	608.06
556.646	580.06
556.859	602.06
557.071	591.06
557.284	580.06
557.496	576.06
557.709	578.06
557.921	570.06
558.134	596.06
558.346	552.06
558.559	572.06
558.771	548.06
558.984	569.06
559.196	567.06
559.409	557.06
559.621	553.06
559.833	556.06
560.046	559.06
560.258	546.06
560.47	561.06
560.683	550.06
560.895	542.06
561.107	548.06
561.32	564.06
561.532	559.06
561.744	572.06
561.956	525.06
562.168	574.06
562.381	556.06
562.593	573.06
562.805	562.06
563.017	555.06
563.229	557.06
563.441	545.06
563.653	574.06
563.865	562.06
564.077	580.06
564.289	586.06
564.501	576.06
564.713	596.06
564.925	576.06
565.137	623.06
565.349	628.06
565.561	636.06
565.773	619.06
565.985	669.06
566.197	674.06
566.408	670.06
566.62	693.06
566.832	738.06
567.044	732.06
567.255	725.06
567.467	743.06
567.679	785.06
567.891	795.06
568.102	804.06
568.314	752.06
568.526	735.06
568.737	713.06
568.949	673.06
569.161	644.06
569.372	612.06
569.584	575.06
569.795	609.06
570.007	577.06
570.218	567.06
570.43	591.06
570.641	568.06
570.853	541.06
571.064	526.06
571.276	538.06
571.487	523.06
571.698	517.06
571.91	489.06
572.121	488.06
572.333	494.06
572.544	497.06
572.755	488.06
572.966	477.06
573.178	474.06
573.389	468.06
573.6	482.06
573.811	463.06
574.023	448.06
574.234	441.06
574.445	447.06
574.656	453.06
574.867	442.06
575.078	462.06
575.289	449.06
575.501	449.06
575.712	436.06
575.923	443.06
576.134	448.06
576.345	436.06
576.556	442.06
576.767	432.06
576.978	451.06
577.188	425.06
577.399	450.06
577.61	416.06
577.821	436.06
578.032	410.06
578.243	410.06
578.454	401.06
578.665	424.06
578.875	426.06
579.086	410.06
579.297	409.06
579.508	389.06
579.718	418.06
579.929	397.06
580.14	394.06
580.35	407.06
580.561	406.06
580.772	372.06
580.982	375.06
581.193	391.06
581.403	385.06
581.614	404.06
581.825	403.06
582.035	394.06
582.246	406.06
582.456	402.06
582.667	376.06
582.877	391.06
583.087	386.06
583.298	401.06
583.508	368.06
583.719	380.06
583.929	384.06
584.139	369.06
584.35	377.06
584.56	389.06
584.77	374.06
584.981	373.06
585.191	374.06
585.401	378.06
585.611	389.06
585.821	377.06
586.032	384.06
586.242	379.06
586.452	384.06
586.662	382.06
586.872	356.06
587.082	369.06
587.292	379.06
587.502	378.06
587.713	379.06
587.923	387.06
588.133	380.06
588.343	380.06
588.553	365.06
588.762	372.06
588.972	388.06
589.182	390.06
589.392	372.06
589.602	370.06
589.812	380.06
590.022	366.06
590.232	378.06
590.441	362.06
590.651	369.06
590.861	348.06
591.071	385.06
591.281	376.06
591.49	362.06
591.7	380.06
591.91	364.06
592.119	388.06
592.329	383.06
592.539	391.06
592.748	396.06
592.958	408.06
593.167	411.06
593.377	416.06
593.587	413.06
593.796	406.06
594.006	395.06
594.215	408.06
594.424	392.06
594.634	398.06
594.843	394.06
595.053	397.06
595.262	389.06
595.472	373.06
595.681	370.06
595.89	356.06
596.1	360.06
596.309	364.06
596.518	362.06
596.727	359.06
596.937	346.06
597.146	352.06
597.355	364.06
597.564	334.06
597.774	342.06
597.983	333.06
598.192	332.06
598.401	341.06
598.61	322.06
598.819	330.06
599.028	307.06
599.237	309.06
599.446	295.06
599.655	330.06
599.864	303.06
600.073	319.06
600.282	311.06
600.491	300.06
600.7	325.06
600.909	333.06
601.118	288.06
601.327	294.06
601.536	320.06
601.745	310.06
601.953	301.06
602.162	302.06
602.371	297.06
602.58	305.06
602.789	309.06
602.997	304.06
603.206	308.06
603.415	302.06
603.623	292.06
603.832	296.06
604.041	288.06
604.249	292.06
604.458	303.06
604.666	294.06
604.875	273.06
605.084	298.06
605.292	295.06
605.501	296.06
605.709	301.06
605.918	309.06
606.126	301.06
606.334	287.06
606.543	276.06
606.751	300.06
606.96	273.06
607.168	295.06
607.376	308.06
607.585	287.06
607.793	292.06
608.001	300.06
608.21	268.06
608.418	279.06
608.626	297.06
608.834	287.06
609.043	274.06
609.251	273.06
609.459	277.06
609.667	310.06
609.875	290.06
610.083	278.06
610.291	282.06
610.499	294.06
610.707	281.06
610.916	274.06
611.124	282.06
611.332	268.06
611.54	273.06
611.748	278.06
611.955	278.06
612.163	257.06
612.371	271.06
612.579	279.06
612.787	262.06
612.995	264.06
613.203	255.06
613.411	257.06
613.618	283.06
613.826	263.06
614.034	280.06
614.242	266.06
614.449	252.06
614.657	268.06
614.865	278.06
615.072	286.06
615.28	283.06
615.488	278.06
615.695	262.06
615.903	279.06
616.111	274.06
616.318	266.06
616.526	271.06
616.733	243.06
616.941	263.06
617.148	253.06
617.356	268.06
617.563	272.06
617.771	269.06
617.978	257.06
618.185	255.06
618.393	270.06
618.6	270.06
618.807	265.06
619.015	268.06
619.222	250.06
619.429	247.06
619.637	247.06
619.844	241.06
620.051	254.06
620.258	238.06
620.466	244.06
620.673	270.06
620.88	233.06
621.087	260.06
621.294	246.06
621.501	238.06
621.708	259.06
621.915	239.06
622.122	245.06
622.329	280.06
622.536	234.06
622.743	249.06
622.95	253.06
623.157	239.06
623.364	244.06
623.571	247.06
623.778	266.06
623.985	225.06
624.192	244.06
624.399	222.06
624.606	244.06
624.812	237.06
625.019	253.06
625.226	236.06
625.433	232.06
625.639	229.06
625.846	236.06
626.053	236.06
626.259	238.06
626.466	229.06
626.673	232.06
626.879	222.06
627.086	249.06
627.293	225.06
627.499	235.06
627.706	237.06
627.912	237.06
628.119	222.06
628.325	230.06
628.532	234.06
628.738	253.06
628.945	225.06
629.151	215.06
629.357	231.06
629.564	224.06
629.77	233.06
629.976	215.06
630.183	228.06
630.389	214.06
630.595	219.06
630.802	225.06
631.008	204.06
631.214	217.06
631.42	205.06
631.627	205.06
631.833	219.06
632.039	217.06
632.245	223.06
632.451	211.06
632.657	225.06
632.863	221.06
633.069	218.06
633.275	218.06
633.481	197.06
633.688	215.06
633.893	220.06
634.099	217.06
634.305	209.06
634.511	190.06
634.717	235.06
634.923	211.06
635.129	217.06
635.335	198.06
635.541	223.06
635.747	214.06
635.952	207.06
636.158	226.06
636.364	216.06
636.57	205.06
636.775	192.06
636.981	214.06
637.187	222.06
637.392	213.06
637.598	199.06
637.804	207.06
638.009	210.06
638.215	201.06
638.421	207.06
638.626	208.06
638.832	211.06
639.037	203.06
639.243	204.06
639.448	213.06
639.654	196.06
639.859	189.06
640.065	190.06
640.27	214.06
640.475	203.06
640.681	184.06
640.886	213.06
641.091	212.06
641.297	205.06
641.502	194.06
641.707	202.06
641.913	197.06
642.118	179.06
642.323	209.06
642.528	203.06
642.733	194.06
642.939	196.06
643.144	200.06
643.349	209.06
643.554	201.06
643.759	226.06
643.964	193.06
644.169	194.06
644.374	206.06
644.579	201.06
644.784	197.06
644.989	189.06
645.194	170.06
645.399	189.06
645.604	189.06
645.809	203.06
646.014	213.06
646.219	208.06
646.423	220.06
646.628	194.06
646.833	202.06
647.038	199.06
647.243	205.06
647.447	184.06
647.652	213.06
647.857	216.06
648.062	216.06
648.266	200.06
648.471	217.06
648.676	198.06
648.88	201.06
649.085	222.06
649.289	200.06
649.494	217.06
649.698	226.06
649.903	208.06
650.107	207.06
650.312	202.06
650.516	183.06
650.721	204.06
650.925	191.06
651.13	188.06
651.334	200.06
651.539	216.06
651.743	212.06
651.947	207.06
652.152	197.06
652.356	198.06
652.56	209.06
652.764	202.06
652.969	183.06
653.173	192.06
653.377	199.06
653.581	196.06
653.785	184.06
653.99	177.06
654.194	186.06
654.398	202.06
654.602	209.06
654.806	203.06
655.01	183.06
655.214	193.06
655.418	214.06
655.622	200.06
655.826	221.06
656.03	206.06
656.234	206.06
656.438	218.06
656.642	205.06
656.846	198.06
657.049	197.06
657.253	180.06
657.457	174.06
657.661	206.06
657.865	162.06
658.068	163.06
658.272	146.06
658.476	150.06
658.68	136.06
658.883	133.06
659.087	127.06
659.291	122.06
659.494	132.06
659.698	123.06
659.901	127.06
660.105	119.06
660.309	116.06
660.512	104.06
660.716	106.06
660.919	99.06
661.123	110.06
661.326	102.06
661.53	93.06
661.733	98.06
661.936	96.06
662.14	92.06
662.343	88.06
662.546	85.06
662.75	90.06
662.953	97.06
663.156	94.06
663.36	89.06
663.563	83.06
663.766	92.06
663.969	86.06
664.173	91.06
664.376	88.06
664.579	77.06
664.782	85.06
664.985	81.06
665.188	82.06
665.391	94.06
665.594	89.06
665.797	99.06
666	90.06
666.203	86.06
666.406	84.06
666.609	89.06
666.812	91.06
667.015	81.06
667.218	86.06
667.421	88.06
667.624	81.06
667.827	102.06
668.03	81.06
668.232	92.06
668.435	79.06
668.638	76.06
668.841	93.06
669.043	74.06
669.246	86.06
669.449	91.06
669.651	94.06
669.854	86.06
670.057	92.06
670.259	96.06
670.462	87.06
670.665	98.06
670.867	80.06
671.07	81.06
671.272	95.06
671.475	82.06
671.677	95.06
671.88	92.06
672.082	76.06
672.284	91.06
672.487	77.06
672.689	69.06
672.892	82.06
