Data from Ni(NO3)2Standard.Agarose3%.GreenCap.LampEnergy5.5.E.O_HRD10591_14-41-56-189.txt Node
Date: Mon Jul 22 14:41:56 EDT 2019
User: cochatt
Spectrometer: HR+D1059
Trigger mode: 1
Integration Time (sec): 1.000000E-1
Scans to average: 1
Electric dark correction enabled: true
Nonlinearity correction enabled: false
Boxcar width: 0
XAxis mode: Wavelengths
Number of Pixels in Spectrum: 2048
>>>>>Begin Spectral Data<<<<<
223.165	-11.25
223.4	-11.25
223.635	-11.25
223.869	-21.25
224.104	-25.25
224.338	-7.25
224.573	-11.25
224.808	-22.25
225.042	-2.25
225.277	-2.25
225.511	-7.25
225.746	7.75
225.98	11.75
226.215	0.75
226.449	19.75
226.683	21.75
226.918	15.75
227.152	32.75
227.387	43.75
227.621	33.75
227.856	31.75
228.09	30.75
228.324	41.75
228.559	61.75
228.793	59.75
229.027	58.75
229.262	65.75
229.496	62.75
229.73	53.75
229.964	76.75
230.199	80.75
230.433	73.75
230.667	77.75
230.901	79.75
231.136	78.75
231.37	86.75
231.604	78.75
231.838	88.75
232.072	85.75
232.306	101.75
232.541	79.75
232.775	83.75
233.009	81.75
233.243	75.75
233.477	75.75
233.711	87.75
233.945	77.75
234.179	84.75
234.413	78.75
234.647	75.75
234.881	71.75
235.115	93.75
235.349	67.75
235.583	86.75
235.817	94.75
236.051	86.75
236.285	88.75
236.519	82.75
236.753	55.75
236.987	85.75
237.221	92.75
237.455	65.75
237.689	74.75
237.922	70.75
238.156	86.75
238.39	68.75
238.624	64.75
238.858	83.75
239.091	74.75
239.325	85.75
239.559	90.75
239.793	75.75
240.027	86.75
240.26	81.75
240.494	88.75
240.728	79.75
240.961	69.75
241.195	84.75
241.429	77.75
241.662	75.75
241.896	70.75
242.13	65.75
242.363	83.75
242.597	82.75
242.83	83.75
243.064	58.75
243.298	73.75
243.531	73.75
243.765	71.75
243.998	81.75
244.232	70.75
244.465	87.75
244.699	78.75
244.932	77.75
245.166	82.75
245.399	75.75
245.633	67.75
245.866	73.75
246.099	79.75
246.333	75.75
246.566	78.75
246.8	75.75
247.033	76.75
247.266	81.75
247.5	79.75
247.733	91.75
247.966	82.75
248.2	84.75
248.433	77.75
248.666	76.75
248.899	77.75
249.133	81.75
249.366	69.75
249.599	79.75
249.832	77.75
250.066	79.75
250.299	82.75
250.532	90.75
250.765	79.75
250.998	86.75
251.231	77.75
251.465	77.75
251.698	74.75
251.931	82.75
252.164	87.75
252.397	92.75
252.63	82.75
252.863	78.75
253.096	86.75
253.329	73.75
253.562	79.75
253.795	83.75
254.028	79.75
254.261	76.75
254.494	82.75
254.727	83.75
254.96	93.75
255.193	82.75
255.426	88.75
255.659	80.75
255.892	90.75
256.124	90.75
256.357	89.75
256.59	79.75
256.823	84.75
257.056	74.75
257.289	73.75
257.521	82.75
257.754	77.75
257.987	72.75
258.22	87.75
258.452	67.75
258.685	77.75
258.918	70.75
259.151	78.75
259.383	74.75
259.616	69.75
259.849	94.75
260.081	68.75
260.314	68.75
260.547	78.75
260.779	68.75
261.012	75.75
261.244	87.75
261.477	101.75
261.71	91.75
261.942	69.75
262.175	88.75
262.407	90.75
262.64	76.75
262.872	76.75
263.105	75.75
263.337	87.75
263.57	64.75
263.802	78.75
264.035	78.75
264.267	77.75
264.499	70.75
264.732	81.75
264.964	91.75
265.197	77.75
265.429	81.75
265.661	69.75
265.894	88.75
266.126	71.75
266.358	78.75
266.591	88.75
266.823	84.75
267.055	74.75
267.287	69.75
267.52	91.75
267.752	70.75
267.984	95.75
268.216	96.75
268.448	83.75
268.681	81.75
268.913	79.75
269.145	84.75
269.377	83.75
269.609	85.75
269.841	90.75
270.073	78.75
270.306	67.75
270.538	85.75
270.77	80.75
271.002	97.75
271.234	90.75
271.466	71.75
271.698	86.75
271.93	71.75
272.162	69.75
272.394	94.75
272.626	89.75
272.858	90.75
273.09	74.75
273.322	87.75
273.553	76.75
273.785	79.75
274.017	75.75
274.249	83.75
274.481	87.75
274.713	93.75
274.945	79.75
275.176	89.75
275.408	84.75
275.64	79.75
275.872	81.75
276.104	87.75
276.335	84.75
276.567	98.75
276.799	90.75
277.031	93.75
277.262	80.75
277.494	96.75
277.726	74.75
277.957	86.75
278.189	76.75
278.421	79.75
278.652	90.75
278.884	82.75
279.115	80.75
279.347	87.75
279.579	79.75
279.81	79.75
280.042	85.75
280.273	82.75
280.505	91.75
280.736	80.75
280.968	79.75
281.199	98.75
281.431	77.75
281.662	79.75
281.894	94.75
282.125	78.75
282.356	82.75
282.588	89.75
282.819	93.75
283.051	91.75
283.282	69.75
283.513	84.75
283.745	84.75
283.976	89.75
284.207	93.75
284.439	90.75
284.67	88.75
284.901	91.75
285.132	75.75
285.364	86.75
285.595	89.75
285.826	81.75
286.057	86.75
286.288	86.75
286.52	81.75
286.751	79.75
286.982	74.75
287.213	77.75
287.444	76.75
287.675	78.75
287.906	86.75
288.138	90.75
288.369	82.75
288.6	90.75
288.831	91.75
289.062	90.75
289.293	82.75
289.524	91.75
289.755	91.75
289.986	97.75
290.217	67.75
290.448	79.75
290.679	83.75
290.91	101.75
291.141	85.75
291.371	86.75
291.602	82.75
291.833	79.75
292.064	87.75
292.295	86.75
292.526	84.75
292.757	76.75
292.987	76.75
293.218	81.75
293.449	70.75
293.68	79.75
293.91	93.75
294.141	92.75
294.372	76.75
294.603	81.75
294.833	77.75
295.064	87.75
295.295	89.75
295.525	79.75
295.756	86.75
295.987	88.75
296.217	78.75
296.448	71.75
296.679	90.75
296.909	93.75
297.14	76.75
297.37	92.75
297.601	83.75
297.831	96.75
298.062	88.75
298.292	83.75
298.523	74.75
298.753	89.75
298.984	77.75
299.214	90.75
299.445	87.75
299.675	90.75
299.905	81.75
300.136	100.75
300.366	78.75
300.597	90.75
300.827	90.75
301.057	82.75
301.288	94.75
301.518	95.75
301.748	74.75
301.979	85.75
302.209	83.75
302.439	84.75
302.669	74.75
302.9	83.75
303.13	79.75
303.36	85.75
303.59	69.75
303.82	93.75
304.051	92.75
304.281	86.75
304.511	105.75
304.741	78.75
304.971	78.75
305.201	84.75
305.431	79.75
305.661	84.75
305.891	94.75
306.121	83.75
306.352	83.75
306.582	93.75
306.812	83.75
307.042	79.75
307.272	92.75
307.502	89.75
307.731	90.75
307.961	90.75
308.191	74.75
308.421	91.75
308.651	83.75
308.881	87.75
309.111	92.75
309.341	81.75
309.571	85.75
309.8	101.75
310.03	84.75
310.26	98.75
310.49	82.75
310.72	101.75
310.949	86.75
311.179	80.75
311.409	79.75
311.639	82.75
311.868	83.75
312.098	76.75
312.328	102.75
312.557	79.75
312.787	83.75
313.017	90.75
313.246	87.75
313.476	87.75
313.706	78.75
313.935	78.75
314.165	77.75
314.394	91.75
314.624	78.75
314.853	98.75
315.083	91.75
315.312	87.75
315.542	81.75
315.771	94.75
316.001	79.75
316.23	88.75
316.46	72.75
316.689	71.75
316.919	84.75
317.148	83.75
317.377	84.75
317.607	93.75
317.836	91.75
318.065	94.75
318.295	93.75
318.524	87.75
318.753	85.75
318.983	86.75
319.212	85.75
319.441	85.75
319.67	76.75
319.9	74.75
320.129	79.75
320.358	77.75
320.587	78.75
320.816	83.75
321.046	96.75
321.275	77.75
321.504	89.75
321.733	92.75
321.962	73.75
322.191	86.75
322.42	77.75
322.649	78.75
322.878	90.75
323.108	86.75
323.337	93.75
323.566	93.75
323.795	81.75
324.024	93.75
324.253	89.75
324.482	79.75
324.71	95.75
324.939	92.75
325.168	87.75
325.397	83.75
325.626	86.75
325.855	99.75
326.084	93.75
326.313	92.75
326.542	74.75
326.77	96.75
326.999	91.75
327.228	97.75
327.457	95.75
327.686	87.75
327.914	75.75
328.143	80.75
328.372	85.75
328.6	88.75
328.829	90.75
329.058	82.75
329.287	88.75
329.515	74.75
329.744	87.75
329.972	100.75
330.201	98.75
330.43	90.75
330.658	87.75
330.887	76.75
331.115	78.75
331.344	95.75
331.572	91.75
331.801	89.75
332.03	95.75
332.258	87.75
332.486	87.75
332.715	86.75
332.943	82.75
333.172	79.75
333.4	76.75
333.629	85.75
333.857	79.75
334.085	93.75
334.314	95.75
334.542	89.75
334.771	103.75
334.999	83.75
335.227	95.75
335.455	87.75
335.684	81.75
335.912	89.75
336.14	101.75
336.369	86.75
336.597	84.75
336.825	92.75
337.053	78.75
337.281	80.75
337.51	82.75
337.738	87.75
337.966	88.75
338.194	94.75
338.422	104.75
338.65	87.75
338.878	82.75
339.106	93.75
339.334	93.75
339.562	104.75
339.79	94.75
340.018	94.75
340.246	97.75
340.474	85.75
340.702	74.75
340.93	87.75
341.158	89.75
341.386	82.75
341.614	78.75
341.842	83.75
342.07	83.75
342.298	86.75
342.526	92.75
342.754	91.75
342.981	86.75
343.209	87.75
343.437	90.75
343.665	90.75
343.893	94.75
344.12	91.75
344.348	84.75
344.576	80.75
344.804	85.75
345.031	86.75
345.259	89.75
345.487	70.75
345.714	91.75
345.942	77.75
346.17	84.75
346.397	93.75
346.625	82.75
346.853	82.75
347.08	82.75
347.308	89.75
347.535	81.75
347.763	93.75
347.99	86.75
348.218	86.75
348.445	75.75
348.673	93.75
348.9	83.75
349.128	97.75
349.355	86.75
349.583	86.75
349.81	82.75
350.037	77.75
350.265	97.75
350.492	94.75
350.72	102.75
350.947	62.75
351.174	99.75
351.402	79.75
351.629	85.75
351.856	78.75
352.083	78.75
352.311	78.75
352.538	89.75
352.765	94.75
352.992	87.75
353.22	93.75
353.447	90.75
353.674	99.75
353.901	90.75
354.128	94.75
354.355	80.75
354.583	89.75
354.81	94.75
355.037	94.75
355.264	95.75
355.491	83.75
355.718	79.75
355.945	89.75
356.172	91.75
356.399	78.75
356.626	82.75
356.853	72.75
357.08	87.75
357.307	77.75
357.534	76.75
357.761	89.75
357.988	89.75
358.215	86.75
358.441	82.75
358.668	88.75
358.895	90.75
359.122	91.75
359.349	80.75
359.576	87.75
359.802	94.75
360.029	98.75
360.256	108.75
360.483	82.75
360.709	86.75
360.936	82.75
361.163	93.75
361.39	94.75
361.616	84.75
361.843	93.75
362.07	81.75
362.296	87.75
362.523	87.75
362.749	94.75
362.976	94.75
363.203	92.75
363.429	75.75
363.656	75.75
363.882	80.75
364.109	90.75
364.335	94.75
364.562	82.75
364.788	68.75
365.015	100.75
365.241	94.75
365.468	94.75
365.694	82.75
365.92	73.75
366.147	85.75
366.373	89.75
366.599	79.75
366.826	88.75
367.052	97.75
367.278	85.75
367.505	87.75
367.731	97.75
367.957	89.75
368.184	78.75
368.41	88.75
368.636	82.75
368.862	75.75
369.089	86.75
369.315	80.75
369.541	70.75
369.767	91.75
369.993	98.75
370.219	85.75
370.445	101.75
370.672	98.75
370.898	91.75
371.124	94.75
371.35	88.75
371.576	80.75
371.802	78.75
372.028	84.75
372.254	80.75
372.48	93.75
372.706	79.75
372.932	75.75
373.158	89.75
373.384	74.75
373.61	84.75
373.835	89.75
374.061	76.75
374.287	92.75
374.513	110.75
374.739	85.75
374.965	79.75
375.191	87.75
375.416	83.75
375.642	77.75
375.868	89.75
376.094	93.75
376.319	73.75
376.545	85.75
376.771	93.75
376.997	79.75
377.222	83.75
377.448	95.75
377.674	79.75
377.899	98.75
378.125	103.75
378.35	94.75
378.576	89.75
378.802	85.75
379.027	86.75
379.253	97.75
379.478	76.75
379.704	78.75
379.929	84.75
380.155	96.75
380.38	93.75
380.606	84.75
380.831	83.75
381.057	86.75
381.282	89.75
381.507	80.75
381.733	88.75
381.958	91.75
382.184	87.75
382.409	89.75
382.634	86.75
382.86	107.75
383.085	93.75
383.31	91.75
383.535	83.75
383.761	84.75
383.986	90.75
384.211	76.75
384.436	90.75
384.662	78.75
384.887	86.75
385.112	79.75
385.337	79.75
385.562	86.75
385.787	76.75
386.013	97.75
386.238	88.75
386.463	76.75
386.688	75.75
386.913	84.75
387.138	85.75
387.363	74.75
387.588	98.75
387.813	87.75
388.038	83.75
388.263	87.75
388.488	78.75
388.713	82.75
388.938	98.75
389.163	84.75
389.387	86.75
389.612	74.75
389.837	82.75
390.062	101.75
390.287	92.75
390.512	91.75
390.736	87.75
390.961	90.75
391.186	100.75
391.411	92.75
391.636	90.75
391.86	78.75
392.085	79.75
392.31	102.75
392.534	84.75
392.759	82.75
392.984	97.75
393.208	84.75
393.433	82.75
393.658	83.75
393.882	84.75
394.107	87.75
394.331	87.75
394.556	91.75
394.78	84.75
395.005	86.75
395.229	86.75
395.454	93.75
395.678	90.75
395.903	86.75
396.127	102.75
396.352	87.75
396.576	83.75
396.801	97.75
397.025	94.75
397.249	82.75
397.474	88.75
397.698	92.75
397.922	91.75
398.147	88.75
398.371	89.75
398.595	98.75
398.82	82.75
399.044	82.75
399.268	82.75
399.492	84.75
399.717	92.75
399.941	83.75
400.165	73.75
400.389	76.75
400.613	86.75
400.837	87.75
401.062	93.75
401.286	88.75
401.51	81.75
401.734	93.75
401.958	86.75
402.182	103.75
402.406	78.75
402.63	90.75
402.854	94.75
403.078	87.75
403.302	70.75
403.526	81.75
403.75	75.75
403.974	79.75
404.198	90.75
404.422	92.75
404.645	92.75
404.869	86.75
405.093	83.75
405.317	89.75
405.541	73.75
405.765	85.75
405.988	91.75
406.212	82.75
406.436	94.75
406.66	97.75
406.883	86.75
407.107	77.75
407.331	95.75
407.555	95.75
407.778	106.75
408.002	87.75
408.226	94.75
408.449	88.75
408.673	93.75
408.896	94.75
409.12	77.75
409.344	89.75
409.567	79.75
409.791	85.75
410.014	83.75
410.238	93.75
410.461	98.75
410.685	91.75
410.908	79.75
411.132	72.75
411.355	81.75
411.578	100.75
411.802	84.75
412.025	80.75
412.249	75.75
412.472	82.75
412.695	94.75
412.919	83.75
413.142	87.75
413.365	87.75
413.589	95.75
413.812	85.75
414.035	90.75
414.258	89.75
414.482	79.75
414.705	78.75
414.928	93.75
415.151	75.75
415.374	86.75
415.597	74.75
415.821	88.75
416.044	79.75
416.267	76.75
416.49	80.75
416.713	87.75
416.936	93.75
417.159	83.75
417.382	76.75
417.605	77.75
417.828	82.75
418.051	82.75
418.274	89.75
418.497	90.75
418.72	83.75
418.943	83.75
419.166	86.75
419.389	91.75
419.611	71.75
419.834	95.75
420.057	94.75
420.28	83.75
420.503	89.75
420.726	86.75
420.948	86.75
421.171	82.75
421.394	86.75
421.617	87.75
421.839	96.75
422.062	88.75
422.285	88.75
422.507	83.75
422.73	71.75
422.953	85.75
423.175	91.75
423.398	90.75
423.621	84.75
423.843	89.75
424.066	97.75
424.288	106.75
424.511	87.75
424.733	85.75
424.956	77.75
425.178	101.75
425.401	98.75
425.623	80.75
425.846	76.75
426.068	83.75
426.291	96.75
426.513	83.75
426.735	87.75
426.958	68.75
427.18	75.75
427.402	95.75
427.625	98.75
427.847	98.75
428.069	83.75
428.292	86.75
428.514	74.75
428.736	82.75
428.958	85.75
429.181	91.75
429.403	94.75
429.625	80.75
429.847	83.75
430.069	90.75
430.292	87.75
430.514	89.75
430.736	94.75
430.958	105.75
431.18	97.75
431.402	82.75
431.624	83.75
431.846	94.75
432.068	94.75
432.29	99.75
432.512	87.75
432.734	95.75
432.956	82.75
433.178	89.75
433.4	91.75
433.622	98.75
433.844	93.75
434.066	89.75
434.287	88.75
434.509	91.75
434.731	95.75
434.953	89.75
435.175	85.75
435.397	74.75
435.618	74.75
435.84	90.75
436.062	94.75
436.284	69.75
436.505	77.75
436.727	87.75
436.949	93.75
437.17	94.75
437.392	92.75
437.614	89.75
437.835	97.75
438.057	76.75
438.278	92.75
438.5	91.75
438.721	87.75
438.943	90.75
439.165	70.75
439.386	70.75
439.608	91.75
439.829	81.75
440.05	95.75
440.272	79.75
440.493	94.75
440.715	82.75
440.936	75.75
441.158	80.75
441.379	76.75
441.6	100.75
441.822	95.75
442.043	92.75
442.264	79.75
442.486	93.75
442.707	91.75
442.928	81.75
443.149	93.75
443.371	77.75
443.592	82.75
443.813	84.75
444.034	93.75
444.255	87.75
444.476	69.75
444.698	87.75
444.919	84.75
445.14	221.75
445.361	158.75
445.582	92.75
445.803	105.75
446.024	70.75
446.245	90.75
446.466	79.75
446.687	78.75
446.908	104.75
447.129	76.75
447.35	80.75
447.571	98.75
447.792	79.75
448.013	80.75
448.234	87.75
448.455	87.75
448.675	88.75
448.896	86.75
449.117	90.75
449.338	82.75
449.559	95.75
449.779	95.75
450	69.75
450.221	93.75
450.442	88.75
450.662	91.75
450.883	97.75
451.104	99.75
451.324	89.75
451.545	77.75
451.766	85.75
451.986	93.75
452.207	92.75
452.428	94.75
452.648	90.75
452.869	100.75
453.089	70.75
453.31	91.75
453.53	89.75
453.751	80.75
453.971	90.75
454.192	90.75
454.412	92.75
454.633	86.75
454.853	95.75
455.073	82.75
455.294	78.75
455.514	94.75
455.734	91.75
455.955	86.75
456.175	82.75
456.395	81.75
456.616	68.75
456.836	72.75
457.056	101.75
457.276	79.75
457.497	77.75
457.717	87.75
457.937	81.75
458.157	82.75
458.377	83.75
458.598	92.75
458.818	86.75
459.038	87.75
459.258	87.75
459.478	77.75
459.698	103.75
459.918	87.75
460.138	88.75
460.358	93.75
460.578	92.75
460.798	86.75
461.018	90.75
461.238	80.75
461.458	91.75
461.678	76.75
461.898	76.75
462.118	79.75
462.338	88.75
462.558	83.75
462.777	73.75
462.997	79.75
463.217	85.75
463.437	98.75
463.657	103.75
463.876	88.75
464.096	89.75
464.316	93.75
464.536	78.75
464.755	103.75
464.975	83.75
465.195	98.75
465.414	79.75
465.634	88.75
465.854	83.75
466.073	99.75
466.293	85.75
466.512	77.75
466.732	78.75
466.951	79.75
467.171	87.75
467.391	95.75
467.61	97.75
467.829	91.75
468.049	92.75
468.268	89.75
468.488	80.75
468.707	78.75
468.927	73.75
469.146	77.75
469.365	86.75
469.585	87.75
469.804	101.75
470.023	85.75
470.243	84.75
470.462	84.75
470.681	94.75
470.901	94.75
471.12	76.75
471.339	97.75
471.558	79.75
471.777	86.75
471.997	84.75
472.216	86.75
472.435	86.75
472.654	93.75
472.873	89.75
473.092	106.75
473.311	78.75
473.53	86.75
473.749	80.75
473.968	94.75
474.187	91.75
474.406	85.75
474.625	91.75
474.844	86.75
475.063	94.75
475.282	81.75
475.501	71.75
475.72	91.75
475.939	97.75
476.158	95.75
476.377	89.75
476.596	98.75
476.814	94.75
477.033	85.75
477.252	91.75
477.471	85.75
477.69	82.75
477.908	97.75
478.127	85.75
478.346	98.75
478.564	101.75
478.783	94.75
479.002	87.75
479.22	85.75
479.439	94.75
479.658	83.75
479.876	80.75
480.095	95.75
480.313	86.75
480.532	95.75
480.751	80.75
480.969	68.75
481.188	93.75
481.406	99.75
481.624	81.75
481.843	83.75
482.061	97.75
482.28	93.75
482.498	90.75
482.717	84.75
482.935	87.75
483.153	87.75
483.372	99.75
483.59	91.75
483.808	78.75
484.027	107.75
484.245	93.75
484.463	89.75
484.681	92.75
484.9	90.75
485.118	91.75
485.336	90.75
485.554	87.75
485.772	99.75
485.99	87.75
486.209	90.75
486.427	68.75
486.645	77.75
486.863	102.75
487.081	89.75
487.299	89.75
487.517	98.75
487.735	99.75
487.953	102.75
488.171	93.75
488.389	79.75
488.607	83.75
488.825	97.75
489.043	81.75
489.261	92.75
489.479	90.75
489.696	78.75
489.914	89.75
490.132	90.75
490.35	100.75
490.568	94.75
490.786	94.75
491.003	84.75
491.221	99.75
491.439	97.75
491.657	100.75
491.874	97.75
492.092	98.75
492.31	92.75
492.527	102.75
492.745	87.75
492.963	87.75
493.18	101.75
493.398	93.75
493.615	100.75
493.833	90.75
494.05	89.75
494.268	100.75
494.485	79.75
494.703	91.75
494.92	87.75
495.138	84.75
495.355	90.75
495.573	74.75
495.79	89.75
496.008	89.75
496.225	101.75
496.442	101.75
496.66	86.75
496.877	90.75
497.094	106.75
497.312	94.75
497.529	86.75
497.746	100.75
497.963	91.75
498.181	89.75
498.398	103.75
498.615	99.75
498.832	90.75
499.049	95.75
499.267	109.75
499.484	95.75
499.701	103.75
499.918	106.75
500.135	99.75
500.352	115.75
500.569	105.75
500.786	111.75
501.003	111.75
501.22	111.75
501.437	100.75
501.654	109.75
501.871	96.75
502.088	90.75
502.305	91.75
502.522	89.75
502.739	99.75
502.956	101.75
503.172	102.75
503.389	86.75
503.606	104.75
503.823	99.75
504.04	94.75
504.256	84.75
504.473	102.75
504.69	95.75
504.907	88.75
505.123	109.75
505.34	89.75
505.557	88.75
505.773	100.75
505.99	98.75
506.207	96.75
506.423	75.75
506.64	90.75
506.856	83.75
507.073	86.75
507.289	88.75
507.506	91.75
507.722	68.75
507.939	89.75
508.155	90.75
508.372	79.75
508.588	87.75
508.805	83.75
509.021	89.75
509.238	88.75
509.454	86.75
509.67	96.75
509.887	86.75
510.103	89.75
510.319	90.75
510.536	78.75
510.752	89.75
510.968	82.75
511.184	78.75
511.401	91.75
511.617	94.75
511.833	90.75
512.049	95.75
512.265	87.75
512.481	93.75
512.698	100.75
512.914	98.75
513.13	95.75
513.346	86.75
513.562	85.75
513.778	93.75
513.994	76.75
514.21	97.75
514.426	77.75
514.642	90.75
514.858	97.75
515.074	85.75
515.29	93.75
515.506	89.75
515.721	95.75
515.937	90.75
516.153	99.75
516.369	100.75
516.585	101.75
516.801	91.75
517.016	89.75
517.232	92.75
517.448	86.75
517.664	97.75
517.879	103.75
518.095	113.75
518.311	92.75
518.527	96.75
518.742	94.75
518.958	98.75
519.173	93.75
519.389	87.75
519.605	90.75
519.82	99.75
520.036	97.75
520.251	84.75
520.467	82.75
520.682	79.75
520.898	95.75
521.113	85.75
521.329	87.75
521.544	107.75
521.76	88.75
521.975	91.75
522.19	81.75
522.406	94.75
522.621	81.75
522.836	83.75
523.052	94.75
523.267	91.75
523.482	86.75
523.698	81.75
523.913	93.75
524.128	83.75
524.343	102.75
524.559	87.75
524.774	95.75
524.989	77.75
525.204	85.75
525.419	106.75
525.634	85.75
525.849	85.75
526.064	93.75
526.28	97.75
526.495	88.75
526.71	83.75
526.925	86.75
527.14	79.75
527.355	92.75
527.57	91.75
527.785	91.75
527.999	93.75
528.214	97.75
528.429	102.75
528.644	93.75
528.859	85.75
529.074	90.75
529.289	94.75
529.503	95.75
529.718	100.75
529.933	85.75
530.148	88.75
530.363	91.75
530.577	93.75
530.792	88.75
531.007	100.75
531.221	97.75
531.436	80.75
531.651	93.75
531.865	82.75
532.08	86.75
532.295	87.75
532.509	83.75
532.724	98.75
532.938	103.75
533.153	89.75
533.367	102.75
533.582	97.75
533.796	89.75
534.011	77.75
534.225	86.75
534.44	86.75
534.654	71.75
534.868	84.75
535.083	104.75
535.297	93.75
535.511	103.75
535.726	98.75
535.94	93.75
536.154	102.75
536.369	93.75
536.583	82.75
536.797	98.75
537.011	84.75
537.225	86.75
537.44	87.75
537.654	94.75
537.868	74.75
538.082	87.75
538.296	77.75
538.51	85.75
538.724	93.75
538.938	95.75
539.153	88.75
539.367	86.75
539.581	88.75
539.795	72.75
540.009	83.75
540.222	78.75
540.436	80.75
540.65	89.75
540.864	83.75
541.078	89.75
541.292	90.75
541.506	82.75
541.72	93.75
541.934	85.75
542.147	89.75
542.361	92.75
542.575	111.75
542.789	95.75
543.002	84.75
543.216	89.75
543.43	109.75
543.644	83.75
543.857	93.75
544.071	98.75
544.285	90.75
544.498	89.75
544.712	91.75
544.925	92.75
545.139	79.75
545.352	87.75
545.566	85.75
545.779	89.75
545.993	90.75
546.206	91.75
546.42	97.75
546.633	85.75
546.847	98.75
547.06	85.75
547.274	88.75
547.487	103.75
547.7	98.75
547.914	106.75
548.127	86.75
548.34	84.75
548.554	98.75
548.767	92.75
548.98	113.75
549.193	81.75
549.407	89.75
549.62	86.75
549.833	98.75
550.046	89.75
550.259	97.75
550.473	107.75
550.686	89.75
550.899	94.75
551.112	93.75
551.325	89.75
551.538	93.75
551.751	85.75
551.964	85.75
552.177	79.75
552.39	85.75
552.603	103.75
552.816	90.75
553.029	89.75
553.242	85.75
553.455	85.75
553.667	89.75
553.88	94.75
554.093	97.75
554.306	89.75
554.519	84.75
554.732	80.75
554.944	82.75
555.157	106.75
555.37	93.75
555.583	87.75
555.795	92.75
556.008	76.75
556.221	92.75
556.433	89.75
556.646	84.75
556.859	80.75
557.071	91.75
557.284	81.75
557.496	91.75
557.709	95.75
557.921	99.75
558.134	92.75
558.346	87.75
558.559	95.75
558.771	82.75
558.984	87.75
559.196	91.75
559.409	84.75
559.621	92.75
559.833	93.75
560.046	81.75
560.258	85.75
560.47	105.75
560.683	84.75
560.895	73.75
561.107	90.75
561.32	108.75
561.532	100.75
561.744	92.75
561.956	91.75
562.168	92.75
562.381	86.75
562.593	85.75
562.805	84.75
563.017	85.75
563.229	94.75
563.441	91.75
563.653	86.75
563.865	91.75
564.077	107.75
564.289	91.75
564.501	92.75
564.713	91.75
564.925	89.75
565.137	89.75
565.349	93.75
565.561	84.75
565.773	94.75
565.985	86.75
566.197	73.75
566.408	103.75
566.62	79.75
566.832	91.75
567.044	100.75
567.255	108.75
567.467	84.75
567.679	86.75
567.891	98.75
568.102	79.75
568.314	83.75
568.526	86.75
568.737	98.75
568.949	99.75
569.161	83.75
569.372	91.75
569.584	106.75
569.795	84.75
570.007	83.75
570.218	89.75
570.43	93.75
570.641	87.75
570.853	98.75
571.064	82.75
571.276	76.75
571.487	82.75
571.698	96.75
571.91	77.75
572.121	79.75
572.333	93.75
572.544	79.75
572.755	78.75
572.966	93.75
573.178	84.75
573.389	87.75
573.6	69.75
573.811	93.75
574.023	90.75
574.234	91.75
574.445	87.75
574.656	91.75
574.867	88.75
575.078	92.75
575.289	86.75
575.501	92.75
575.712	93.75
575.923	88.75
576.134	88.75
576.345	79.75
576.556	94.75
576.767	95.75
576.978	100.75
577.188	74.75
577.399	87.75
577.61	96.75
577.821	90.75
578.032	91.75
578.243	89.75
578.454	92.75
578.665	85.75
578.875	80.75
579.086	86.75
579.297	81.75
579.508	74.75
579.718	85.75
579.929	92.75
580.14	94.75
580.35	84.75
580.561	80.75
580.772	72.75
580.982	75.75
581.193	83.75
581.403	86.75
581.614	83.75
581.825	87.75
582.035	76.75
582.246	92.75
582.456	87.75
582.667	83.75
582.877	85.75
583.087	74.75
583.298	87.75
583.508	77.75
583.719	102.75
583.929	87.75
584.139	89.75
584.35	94.75
584.56	91.75
584.77	97.75
584.981	80.75
585.191	85.75
585.401	86.75
585.611	90.75
585.821	90.75
586.032	85.75
586.242	97.75
586.452	103.75
586.662	93.75
586.872	76.75
587.082	90.75
587.292	86.75
587.502	81.75
587.713	88.75
587.923	99.75
588.133	95.75
588.343	86.75
588.553	95.75
588.762	81.75
588.972	91.75
589.182	83.75
589.392	88.75
589.602	91.75
589.812	99.75
590.022	79.75
590.232	87.75
590.441	84.75
590.651	97.75
590.861	90.75
591.071	86.75
591.281	89.75
591.49	74.75
591.7	78.75
591.91	97.75
592.119	76.75
592.329	85.75
592.539	89.75
592.748	82.75
592.958	98.75
593.167	79.75
593.377	95.75
593.587	101.75
593.796	89.75
594.006	83.75
594.215	78.75
594.424	78.75
594.634	84.75
594.843	85.75
595.053	79.75
595.262	88.75
595.472	81.75
595.681	94.75
595.89	83.75
596.1	84.75
596.309	91.75
596.518	84.75
596.727	81.75
596.937	78.75
597.146	88.75
597.355	85.75
597.564	83.75
597.774	102.75
597.983	92.75
598.192	95.75
598.401	84.75
598.61	82.75
598.819	98.75
599.028	91.75
599.237	72.75
599.446	89.75
599.655	95.75
599.864	90.75
600.073	91.75
600.282	83.75
600.491	83.75
600.7	76.75
600.909	90.75
601.118	104.75
601.327	88.75
601.536	90.75
601.745	76.75
601.953	99.75
602.162	76.75
602.371	75.75
602.58	91.75
602.789	90.75
602.997	92.75
603.206	90.75
603.415	103.75
603.623	91.75
603.832	82.75
604.041	92.75
604.249	79.75
604.458	84.75
604.666	85.75
604.875	69.75
605.084	71.75
605.292	86.75
605.501	84.75
605.709	87.75
605.918	81.75
606.126	89.75
606.334	90.75
606.543	89.75
606.751	85.75
606.96	80.75
607.168	87.75
607.376	75.75
607.585	85.75
607.793	100.75
608.001	82.75
608.21	92.75
608.418	93.75
608.626	78.75
608.834	91.75
609.043	78.75
609.251	74.75
609.459	85.75
609.667	81.75
609.875	90.75
610.083	91.75
610.291	107.75
610.499	91.75
610.707	88.75
610.916	84.75
611.124	82.75
611.332	87.75
611.54	90.75
611.748	87.75
611.955	79.75
612.163	96.75
612.371	86.75
612.579	86.75
612.787	94.75
612.995	79.75
613.203	89.75
613.411	61.75
613.618	93.75
613.826	105.75
614.034	83.75
614.242	82.75
614.449	87.75
614.657	94.75
614.865	85.75
615.072	93.75
615.28	85.75
615.488	88.75
615.695	87.75
615.903	95.75
616.111	95.75
616.318	101.75
616.526	105.75
616.733	85.75
616.941	86.75
617.148	89.75
617.356	97.75
617.563	87.75
617.771	94.75
617.978	92.75
618.185	88.75
618.393	93.75
618.6	88.75
618.807	93.75
619.015	95.75
619.222	92.75
619.429	85.75
619.637	104.75
619.844	79.75
620.051	98.75
620.258	69.75
620.466	81.75
620.673	84.75
620.88	102.75
621.087	76.75
621.294	86.75
621.501	88.75
621.708	90.75
621.915	74.75
622.122	93.75
622.329	97.75
622.536	88.75
622.743	85.75
622.95	90.75
623.157	87.75
623.364	90.75
623.571	82.75
623.778	74.75
623.985	93.75
624.192	69.75
624.399	83.75
624.606	88.75
624.812	94.75
625.019	81.75
625.226	85.75
625.433	93.75
625.639	91.75
625.846	86.75
626.053	92.75
626.259	72.75
626.466	95.75
626.673	78.75
626.879	87.75
627.086	90.75
627.293	85.75
627.499	68.75
627.706	84.75
627.912	75.75
628.119	82.75
628.325	99.75
628.532	89.75
628.738	94.75
628.945	85.75
629.151	79.75
629.357	91.75
629.564	99.75
629.77	92.75
629.976	85.75
630.183	88.75
630.389	88.75
630.595	85.75
630.802	76.75
631.008	83.75
631.214	80.75
631.42	89.75
631.627	82.75
631.833	72.75
632.039	77.75
632.245	91.75
632.451	91.75
632.657	89.75
632.863	71.75
633.069	79.75
633.275	92.75
633.481	85.75
633.688	79.75
633.893	92.75
634.099	90.75
634.305	82.75
634.511	85.75
634.717	96.75
634.923	99.75
635.129	80.75
635.335	80.75
635.541	86.75
635.747	75.75
635.952	80.75
636.158	83.75
636.364	98.75
636.57	89.75
636.775	72.75
636.981	91.75
637.187	75.75
637.392	91.75
637.598	75.75
637.804	86.75
638.009	78.75
638.215	97.75
638.421	80.75
638.626	89.75
638.832	83.75
639.037	96.75
639.243	91.75
639.448	73.75
639.654	95.75
639.859	70.75
640.065	83.75
640.27	92.75
640.475	81.75
640.681	95.75
640.886	102.75
641.091	87.75
641.297	94.75
641.502	74.75
641.707	81.75
641.913	80.75
642.118	91.75
642.323	79.75
642.528	85.75
642.733	78.75
642.939	82.75
643.144	75.75
643.349	79.75
643.554	74.75
643.759	83.75
643.964	81.75
644.169	85.75
644.374	77.75
644.579	91.75
644.784	85.75
644.989	83.75
645.194	103.75
645.399	89.75
645.604	91.75
645.809	83.75
646.014	85.75
646.219	83.75
646.423	105.75
646.628	78.75
646.833	93.75
647.038	84.75
647.243	108.75
647.447	86.75
647.652	92.75
647.857	82.75
648.062	87.75
648.266	84.75
648.471	94.75
648.676	87.75
648.88	75.75
649.085	82.75
649.289	91.75
649.494	94.75
649.698	95.75
649.903	94.75
650.107	76.75
650.312	86.75
650.516	60.75
650.721	83.75
650.925	77.75
651.13	101.75
651.334	87.75
651.539	85.75
651.743	80.75
651.947	92.75
652.152	85.75
652.356	75.75
652.56	86.75
652.764	73.75
652.969	86.75
653.173	86.75
653.377	81.75
653.581	94.75
653.785	85.75
653.99	87.75
654.194	101.75
654.398	92.75
654.602	73.75
654.806	76.75
655.01	83.75
655.214	87.75
655.418	78.75
655.622	99.75
655.826	101.75
656.03	94.75
656.234	85.75
656.438	85.75
656.642	79.75
656.846	84.75
657.049	77.75
657.253	90.75
657.457	88.75
657.661	85.75
657.865	91.75
658.068	86.75
658.272	67.75
658.476	89.75
658.68	85.75
658.883	78.75
659.087	85.75
659.291	89.75
659.494	79.75
659.698	89.75
659.901	80.75
660.105	77.75
660.309	81.75
660.512	92.75
660.716	95.75
660.919	99.75
661.123	83.75
661.326	88.75
661.53	77.75
661.733	89.75
661.936	84.75
662.14	87.75
662.343	82.75
662.546	79.75
662.75	104.75
662.953	90.75
663.156	79.75
663.36	91.75
663.563	76.75
663.766	87.75
663.969	73.75
664.173	86.75
664.376	80.75
664.579	88.75
664.782	87.75
664.985	78.75
665.188	73.75
665.391	79.75
665.594	82.75
665.797	84.75
666	78.75
666.203	88.75
666.406	82.75
666.609	95.75
666.812	81.75
667.015	78.75
667.218	81.75
667.421	67.75
667.624	76.75
667.827	86.75
668.03	68.75
668.232	81.75
668.435	77.75
668.638	83.75
668.841	81.75
669.043	71.75
669.246	83.75
669.449	79.75
669.651	86.75
669.854	77.75
670.057	84.75
670.259	70.75
670.462	89.75
670.665	75.75
670.867	98.75
671.07	97.75
671.272	70.75
671.475	94.75
671.677	75.75
671.88	91.75
672.082	88.75
672.284	98.75
672.487	89.75
672.689	85.75
672.892	79.75
