Data from Ni(NO3)2@0.25M.TitratingCurve.Agarose3%dH2O.NegLispCup.LampEnergy10.LIBS07252019_HRD10591_18-04-31-566.txt Node
Date: Thu Jul 25 18:04:31 EDT 2019
User: cochatt
Spectrometer: HR+D1059
Trigger mode: 1
Integration Time (sec): 1.000000E-1
Scans to average: 1
Electric dark correction enabled: true
Nonlinearity correction enabled: false
Boxcar width: 0
XAxis mode: Wavelengths
Number of Pixels in Spectrum: 2048
>>>>>Begin Spectral Data<<<<<
223.165	-24.62
223.4	-24.62
223.635	-24.62
223.869	-16.62
224.104	-24.62
224.338	-4.62
224.573	-16.62
224.808	-19.62
225.042	4.38
225.277	-7.62
225.511	-0.62
225.746	11.38
225.98	-6.62
226.215	4.38
226.449	14.38
226.683	37.38
226.918	16.38
227.152	33.38
227.387	32.38
227.621	23.38
227.856	42.38
228.09	47.38
228.324	41.38
228.559	47.38
228.793	82.38
229.027	111.38
229.262	86.38
229.496	103.38
229.73	118.38
229.964	124.38
230.199	124.38
230.433	117.38
230.667	118.38
230.901	126.38
231.136	119.38
231.37	127.38
231.604	129.38
231.838	139.38
232.072	138.38
232.306	135.38
232.541	144.38
232.775	123.38
233.009	116.38
233.243	131.38
233.477	138.38
233.711	133.38
233.945	121.38
234.179	131.38
234.413	135.38
234.647	147.38
234.881	141.38
235.115	130.38
235.349	123.38
235.583	141.38
235.817	135.38
236.051	136.38
236.285	131.38
236.519	139.38
236.753	141.38
236.987	140.38
237.221	136.38
237.455	142.38
237.689	145.38
237.922	129.38
238.156	136.38
238.39	151.38
238.624	139.38
238.858	138.38
239.091	138.38
239.325	157.38
239.559	159.38
239.793	132.38
240.027	163.38
240.26	152.38
240.494	172.38
240.728	162.38
240.961	149.38
241.195	173.38
241.429	163.38
241.662	156.38
241.896	173.38
242.13	153.38
242.363	155.38
242.597	177.38
242.83	192.38
243.064	170.38
243.298	185.38
243.531	183.38
243.765	193.38
243.998	166.38
244.232	164.38
244.465	177.38
244.699	191.38
244.932	184.38
245.166	195.38
245.399	181.38
245.633	185.38
245.866	170.38
246.099	191.38
246.333	181.38
246.566	188.38
246.8	189.38
247.033	196.38
247.266	204.38
247.5	187.38
247.733	185.38
247.966	218.38
248.2	211.38
248.433	218.38
248.666	197.38
248.899	216.38
249.133	214.38
249.366	215.38
249.599	218.38
249.832	235.38
250.066	244.38
250.299	210.38
250.532	221.38
250.765	226.38
250.998	230.38
251.231	231.38
251.465	247.38
251.698	241.38
251.931	233.38
252.164	239.38
252.397	227.38
252.63	235.38
252.863	262.38
253.096	251.38
253.329	261.38
253.562	255.38
253.795	245.38
254.028	248.38
254.261	265.38
254.494	260.38
254.727	269.38
254.96	253.38
255.193	253.38
255.426	267.38
255.659	277.38
255.892	278.38
256.124	277.38
256.357	279.38
256.59	264.38
256.823	260.38
257.056	266.38
257.289	285.38
257.521	291.38
257.754	279.38
257.987	273.38
258.22	276.38
258.452	281.38
258.685	292.38
258.918	279.38
259.151	298.38
259.383	297.38
259.616	303.38
259.849	299.38
260.081	303.38
260.314	307.38
260.547	291.38
260.779	306.38
261.012	304.38
261.244	333.38
261.477	301.38
261.71	312.38
261.942	308.38
262.175	306.38
262.407	312.38
262.64	287.38
262.872	293.38
263.105	322.38
263.337	329.38
263.57	316.38
263.802	320.38
264.035	325.38
264.267	328.38
264.499	335.38
264.732	337.38
264.964	329.38
265.197	331.38
265.429	335.38
265.661	342.38
265.894	359.38
266.126	337.38
266.358	344.38
266.591	329.38
266.823	358.38
267.055	343.38
267.287	330.38
267.52	346.38
267.752	373.38
267.984	353.38
268.216	361.38
268.448	358.38
268.681	362.38
268.913	348.38
269.145	355.38
269.377	354.38
269.609	360.38
269.841	367.38
270.073	367.38
270.306	378.38
270.538	349.38
270.77	360.38
271.002	354.38
271.234	377.38
271.466	381.38
271.698	355.38
271.93	363.38
272.162	371.38
272.394	385.38
272.626	387.38
272.858	377.38
273.09	382.38
273.322	383.38
273.553	376.38
273.785	371.38
274.017	392.38
274.249	382.38
274.481	381.38
274.713	375.38
274.945	395.38
275.176	384.38
275.408	396.38
275.64	397.38
275.872	404.38
276.104	391.38
276.335	405.38
276.567	411.38
276.799	401.38
277.031	397.38
277.262	416.38
277.494	399.38
277.726	378.38
277.957	431.38
278.189	399.38
278.421	412.38
278.652	391.38
278.884	391.38
279.115	405.38
279.347	419.38
279.579	416.38
279.81	424.38
280.042	405.38
280.273	393.38
280.505	415.38
280.736	424.38
280.968	387.38
281.199	434.38
281.431	459.38
281.662	428.38
281.894	412.38
282.125	438.38
282.356	427.38
282.588	437.38
282.819	453.38
283.051	442.38
283.282	445.38
283.513	447.38
283.745	443.38
283.976	450.38
284.207	431.38
284.439	437.38
284.67	450.38
284.901	455.38
285.132	462.38
285.364	442.38
285.595	447.38
285.826	447.38
286.057	451.38
286.288	450.38
286.52	440.38
286.751	433.38
286.982	442.38
287.213	451.38
287.444	459.38
287.675	470.38
287.906	463.38
288.138	461.38
288.369	449.38
288.6	457.38
288.831	468.38
289.062	463.38
289.293	453.38
289.524	474.38
289.755	467.38
289.986	459.38
290.217	465.38
290.448	443.38
290.679	474.38
290.91	473.38
291.141	481.38
291.371	490.38
291.602	490.38
291.833	477.38
292.064	470.38
292.295	459.38
292.526	472.38
292.757	463.38
292.987	457.38
293.218	449.38
293.449	464.38
293.68	477.38
293.91	477.38
294.141	464.38
294.372	450.38
294.603	473.38
294.833	488.38
295.064	496.38
295.295	476.38
295.525	482.38
295.756	476.38
295.987	481.38
296.217	479.38
296.448	480.38
296.679	473.38
296.909	506.38
297.14	497.38
297.37	503.38
297.601	503.38
297.831	477.38
298.062	517.38
298.292	520.38
298.523	519.38
298.753	519.38
298.984	522.38
299.214	518.38
299.445	529.38
299.675	522.38
299.905	527.38
300.136	518.38
300.366	551.38
300.597	553.38
300.827	551.38
301.057	540.38
301.288	545.38
301.518	539.38
301.748	535.38
301.979	559.38
302.209	543.38
302.439	530.38
302.669	550.38
302.9	551.38
303.13	522.38
303.36	540.38
303.59	525.38
303.82	543.38
304.051	554.38
304.281	551.38
304.511	540.38
304.741	559.38
304.971	541.38
305.201	542.38
305.431	549.38
305.661	557.38
305.891	556.38
306.121	534.38
306.352	546.38
306.582	550.38
306.812	537.38
307.042	527.38
307.272	537.38
307.502	529.38
307.731	531.38
307.961	548.38
308.191	531.38
308.421	537.38
308.651	548.38
308.881	514.38
309.111	533.38
309.341	530.38
309.571	554.38
309.8	544.38
310.03	567.38
310.26	555.38
310.49	567.38
310.72	546.38
310.949	573.38
311.179	545.38
311.409	569.38
311.639	563.38
311.868	543.38
312.098	569.38
312.328	565.38
312.557	578.38
312.787	597.38
313.017	584.38
313.246	586.38
313.476	619.38
313.706	610.38
313.935	604.38
314.165	584.38
314.394	587.38
314.624	617.38
314.853	603.38
315.083	587.38
315.312	609.38
315.542	596.38
315.771	602.38
316.001	590.38
316.23	589.38
316.46	635.38
316.689	614.38
316.919	602.38
317.148	611.38
317.377	609.38
317.607	607.38
317.836	609.38
318.065	598.38
318.295	617.38
318.524	619.38
318.753	603.38
318.983	616.38
319.212	597.38
319.441	612.38
319.67	634.38
319.9	604.38
320.129	619.38
320.358	612.38
320.587	640.38
320.816	619.38
321.046	635.38
321.275	632.38
321.504	619.38
321.733	637.38
321.962	643.38
322.191	649.38
322.42	637.38
322.649	652.38
322.878	652.38
323.108	664.38
323.337	649.38
323.566	633.38
323.795	633.38
324.024	681.38
324.253	683.38
324.482	662.38
324.71	659.38
324.939	680.38
325.168	667.38
325.397	693.38
325.626	692.38
325.855	697.38
326.084	699.38
326.313	721.38
326.542	709.38
326.77	739.38
326.999	696.38
327.228	737.38
327.457	703.38
327.686	722.38
327.914	725.38
328.143	721.38
328.372	697.38
328.6	712.38
328.829	755.38
329.058	726.38
329.287	722.38
329.515	746.38
329.744	771.38
329.972	738.38
330.201	740.38
330.43	736.38
330.658	732.38
330.887	769.38
331.115	779.38
331.344	791.38
331.572	803.38
331.801	796.38
332.03	821.38
332.258	826.38
332.486	813.38
332.715	846.38
332.943	885.38
333.172	933.38
333.4	954.38
333.629	916.38
333.857	977.38
334.085	932.38
334.314	931.38
334.542	929.38
334.771	950.38
334.999	917.38
335.227	953.38
335.455	927.38
335.684	961.38
335.912	920.38
336.14	933.38
336.369	930.38
336.597	930.38
336.825	921.38
337.053	930.38
337.281	901.38
337.51	880.38
337.738	883.38
337.966	854.38
338.194	858.38
338.422	890.38
338.65	834.38
338.878	844.38
339.106	842.38
339.334	862.38
339.562	841.38
339.79	802.38
340.018	826.38
340.246	833.38
340.474	808.38
340.702	793.38
340.93	848.38
341.158	805.38
341.386	867.38
341.614	863.38
341.842	858.38
342.07	839.38
342.298	827.38
342.526	812.38
342.754	790.38
342.981	828.38
343.209	866.38
343.437	885.38
343.665	909.38
343.893	955.38
344.12	974.38
344.348	921.38
344.576	916.38
344.804	891.38
345.031	827.38
345.259	825.38
345.487	860.38
345.714	869.38
345.942	848.38
346.17	866.38
346.397	855.38
346.625	802.38
346.853	797.38
347.08	803.38
347.308	806.38
347.535	819.38
347.763	799.38
347.99	767.38
348.218	804.38
348.445	755.38
348.673	807.38
348.9	779.38
349.128	810.38
349.355	801.38
349.583	819.38
349.81	780.38
350.037	788.38
350.265	766.38
350.492	773.38
350.72	763.38
350.947	757.38
351.174	785.38
351.402	803.38
351.629	813.38
351.856	798.38
352.083	770.38
352.311	769.38
352.538	775.38
352.765	834.38
352.992	763.38
353.22	756.38
353.447	754.38
353.674	755.38
353.901	736.38
354.128	733.38
354.355	752.38
354.583	757.38
354.81	769.38
355.037	736.38
355.264	759.38
355.491	743.38
355.718	760.38
355.945	732.38
356.172	759.38
356.399	748.38
356.626	779.38
356.853	807.38
357.08	789.38
357.307	783.38
357.534	736.38
357.761	757.38
357.988	755.38
358.215	741.38
358.441	772.38
358.668	734.38
358.895	745.38
359.122	776.38
359.349	761.38
359.576	739.38
359.802	776.38
360.029	760.38
360.256	760.38
360.483	757.38
360.709	756.38
360.936	764.38
361.163	753.38
361.39	755.38
361.616	784.38
361.843	764.38
362.07	791.38
362.296	775.38
362.523	765.38
362.749	778.38
362.976	762.38
363.203	751.38
363.429	754.38
363.656	743.38
363.882	774.38
364.109	737.38
364.335	759.38
364.562	767.38
364.788	753.38
365.015	757.38
365.241	715.38
365.468	733.38
365.694	722.38
365.92	745.38
366.147	755.38
366.373	746.38
366.599	753.38
366.826	769.38
367.052	748.38
367.278	776.38
367.505	753.38
367.731	757.38
367.957	753.38
368.184	755.38
368.41	759.38
368.636	747.38
368.862	746.38
369.089	755.38
369.315	753.38
369.541	791.38
369.767	788.38
369.993	756.38
370.219	779.38
370.445	799.38
370.672	790.38
370.898	791.38
371.124	768.38
371.35	772.38
371.576	772.38
371.802	780.38
372.028	799.38
372.254	763.38
372.48	801.38
372.706	809.38
372.932	838.38
373.158	805.38
373.384	804.38
373.61	797.38
373.835	805.38
374.061	834.38
374.287	809.38
374.513	826.38
374.739	849.38
374.965	876.38
375.191	850.38
375.416	843.38
375.642	845.38
375.868	826.38
376.094	810.38
376.319	784.38
376.545	819.38
376.771	778.38
376.997	798.38
377.222	777.38
377.448	806.38
377.674	777.38
377.899	779.38
378.125	785.38
378.35	787.38
378.576	759.38
378.802	778.38
379.027	759.38
379.253	767.38
379.478	781.38
379.704	787.38
379.929	784.38
380.155	777.38
380.38	767.38
380.606	772.38
380.831	756.38
381.057	811.38
381.282	789.38
381.507	791.38
381.733	793.38
381.958	809.38
382.184	808.38
382.409	824.38
382.634	803.38
382.86	819.38
383.085	810.38
383.31	809.38
383.535	838.38
383.761	859.38
383.986	859.38
384.211	856.38
384.436	883.38
384.662	892.38
384.887	897.38
385.112	913.38
385.337	899.38
385.562	908.38
385.787	915.38
386.013	949.38
386.238	908.38
386.463	932.38
386.688	926.38
386.913	904.38
387.138	915.38
387.363	923.38
387.588	906.38
387.813	907.38
388.038	919.38
388.263	925.38
388.488	907.38
388.713	933.38
388.938	923.38
389.163	897.38
389.387	935.38
389.612	921.38
389.837	911.38
390.062	894.38
390.287	892.38
390.512	908.38
390.736	922.38
390.961	926.38
391.186	951.38
391.411	953.38
391.636	1001.38
391.86	1010.38
392.085	1032.38
392.31	1011.38
392.534	984.38
392.759	1005.38
392.984	979.38
393.208	964.38
393.433	930.38
393.658	963.38
393.882	999.38
394.107	966.38
394.331	961.38
394.556	967.38
394.78	999.38
395.005	1000.38
395.229	976.38
395.454	985.38
395.678	1022.38
395.903	1049.38
396.127	1020.38
396.352	993.38
396.576	973.38
396.801	973.38
397.025	1025.38
397.249	1024.38
397.474	1023.38
397.698	1059.38
397.922	1091.38
398.147	1057.38
398.371	1089.38
398.595	1085.38
398.82	1153.38
399.044	1221.38
399.268	1306.38
399.492	1453.38
399.717	1555.38
399.941	1522.38
400.165	1465.38
400.389	1363.38
400.613	1294.38
400.837	1238.38
401.062	1216.38
401.286	1198.38
401.51	1151.38
401.734	1165.38
401.958	1152.38
402.182	1167.38
402.406	1148.38
402.63	1172.38
402.854	1191.38
403.078	1185.38
403.302	1246.38
403.526	1243.38
403.75	1257.38
403.974	1238.38
404.198	1221.38
404.422	1236.38
404.645	1250.38
404.869	1245.38
405.093	1229.38
405.317	1266.38
405.541	1297.38
405.765	1237.38
405.988	1264.38
406.212	1256.38
406.436	1211.38
406.66	1275.38
406.883	1281.38
407.107	1372.38
407.331	1412.38
407.555	1411.38
407.778	1453.38
408.002	1416.38
408.226	1371.38
408.449	1352.38
408.673	1336.38
408.896	1316.38
409.12	1292.38
409.344	1298.38
409.567	1283.38
409.791	1284.38
410.014	1267.38
410.238	1258.38
410.461	1252.38
410.685	1215.38
410.908	1252.38
411.132	1256.38
411.355	1183.38
411.578	1189.38
411.802	1197.38
412.025	1233.38
412.249	1223.38
412.472	1240.38
412.695	1211.38
412.919	1153.38
413.142	1167.38
413.365	1167.38
413.589	1190.38
413.812	1190.38
414.035	1178.38
414.258	1148.38
414.482	1207.38
414.705	1194.38
414.928	1178.38
415.151	1187.38
415.374	1183.38
415.597	1174.38
415.821	1169.38
416.044	1151.38
416.267	1161.38
416.49	1118.38
416.713	1151.38
416.936	1182.38
417.159	1128.38
417.382	1159.38
417.605	1122.38
417.828	1141.38
418.051	1176.38
418.274	1180.38
418.497	1159.38
418.72	1194.38
418.943	1183.38
419.166	1251.38
419.389	1307.38
419.611	1318.38
419.834	1258.38
420.057	1234.38
420.28	1197.38
420.503	1133.38
420.726	1171.38
420.948	1165.38
421.171	1173.38
421.394	1186.38
421.617	1161.38
421.839	1184.38
422.062	1207.38
422.285	1143.38
422.507	1151.38
422.73	1212.38
422.953	1194.38
423.175	1178.38
423.398	1192.38
423.621	1188.38
423.843	1210.38
424.066	1208.38
424.288	1197.38
424.511	1193.38
424.733	1209.38
424.956	1233.38
425.178	1160.38
425.401	1190.38
425.623	1181.38
425.846	1164.38
426.068	1148.38
426.291	1140.38
426.513	1136.38
426.735	1116.38
426.958	1133.38
427.18	1107.38
427.402	1112.38
427.625	1102.38
427.847	1111.38
428.069	1112.38
428.292	1117.38
428.514	1091.38
428.736	1087.38
428.958	1092.38
429.181	1085.38
429.403	1082.38
429.625	1069.38
429.847	1082.38
430.069	1069.38
430.292	1097.38
430.514	1055.38
430.736	1057.38
430.958	1067.38
431.18	1067.38
431.402	1064.38
431.624	1071.38
431.846	1068.38
432.068	1073.38
432.29	1115.38
432.512	1082.38
432.734	1114.38
432.956	1088.38
433.178	1106.38
433.4	1122.38
433.622	1144.38
433.844	1125.38
434.066	1119.38
434.287	1111.38
434.509	1133.38
434.731	1169.38
434.953	1165.38
435.175	1183.38
435.397	1176.38
435.618	1153.38
435.84	1133.38
436.062	1108.38
436.284	1111.38
436.505	1101.38
436.727	1091.38
436.949	1109.38
437.17	1088.38
437.392	1105.38
437.614	1074.38
437.835	1048.38
438.057	1063.38
438.278	1049.38
438.5	1053.38
438.721	1084.38
438.943	1056.38
439.165	1077.38
439.386	1089.38
439.608	1122.38
439.829	1109.38
440.05	1081.38
440.272	1137.38
440.493	1104.38
440.715	1148.38
440.936	1153.38
441.158	1150.38
441.379	1191.38
441.6	1212.38
441.822	1204.38
442.043	1203.38
442.264	1172.38
442.486	1177.38
442.707	1189.38
442.928	1206.38
443.149	1180.38
443.371	1186.38
443.592	1205.38
443.813	1207.38
444.034	1231.38
444.255	1260.38
444.476	1291.38
444.698	1365.38
444.919	1371.38
445.14	1410.38
445.361	1322.38
445.582	1258.38
445.803	1197.38
446.024	1165.38
446.245	1161.38
446.466	1154.38
446.687	1123.38
446.908	1161.38
447.129	1106.38
447.35	1102.38
447.571	1111.38
447.792	1079.38
448.013	1046.38
448.234	1046.38
448.455	1023.38
448.675	1059.38
448.896	1063.38
449.117	1020.38
449.338	1018.38
449.559	1012.38
449.779	1029.38
450	1032.38
450.221	1030.38
450.442	1013.38
450.662	1015.38
450.883	1036.38
451.104	1034.38
451.324	1031.38
451.545	1037.38
451.766	1008.38
451.986	1027.38
452.207	1029.38
452.428	981.38
452.648	1011.38
452.869	1011.38
453.089	989.38
453.31	1002.38
453.53	989.38
453.751	948.38
453.971	987.38
454.192	1007.38
454.412	957.38
454.633	968.38
454.853	952.38
455.073	949.38
455.294	968.38
455.514	939.38
455.734	962.38
455.955	938.38
456.175	963.38
456.395	959.38
456.616	931.38
456.836	960.38
457.056	947.38
457.276	946.38
457.497	963.38
457.717	965.38
457.937	969.38
458.157	992.38
458.377	1023.38
458.598	1025.38
458.818	1041.38
459.038	1043.38
459.258	1071.38
459.478	1080.38
459.698	1144.38
459.918	1175.38
460.138	1197.38
460.358	1211.38
460.578	1244.38
460.798	1264.38
461.018	1287.38
461.238	1240.38
461.458	1274.38
461.678	1257.38
461.898	1319.38
462.118	1329.38
462.338	1359.38
462.558	1398.38
462.777	1407.38
462.997	1513.38
463.217	1570.38
463.437	1609.38
463.657	1524.38
463.876	1479.38
464.096	1463.38
464.316	1429.38
464.536	1444.38
464.755	1437.38
464.975	1361.38
465.195	1299.38
465.414	1242.38
465.634	1194.38
465.854	1160.38
466.073	1157.38
466.293	1110.38
466.512	1098.38
466.732	1081.38
466.951	1081.38
467.171	1075.38
467.391	1072.38
467.61	1035.38
467.829	1068.38
468.049	1081.38
468.268	1021.38
468.488	1047.38
468.707	1052.38
468.927	1041.38
469.146	1037.38
469.365	1068.38
469.585	1067.38
469.804	1059.38
470.023	1100.38
470.243	1100.38
470.462	1082.38
470.681	1071.38
470.901	1081.38
471.12	1079.38
471.339	1102.38
471.558	1068.38
471.777	1067.38
471.997	1042.38
472.216	1022.38
472.435	1039.38
472.654	1022.38
472.873	998.38
473.092	1004.38
473.311	997.38
473.53	1027.38
473.749	1035.38
473.968	1042.38
474.187	1021.38
474.406	1006.38
474.625	1032.38
474.844	1035.38
475.063	1037.38
475.282	1044.38
475.501	1050.38
475.72	1048.38
475.939	1025.38
476.158	1060.38
476.377	1060.38
476.596	1084.38
476.814	1059.38
477.033	1084.38
477.252	1095.38
477.471	1130.38
477.69	1122.38
477.908	1192.38
478.127	1158.38
478.346	1176.38
478.564	1233.38
478.783	1252.38
479.002	1266.38
479.22	1263.38
479.439	1250.38
479.658	1240.38
479.876	1241.38
480.095	1228.38
480.313	1311.38
480.532	1311.38
480.751	1272.38
480.969	1237.38
481.188	1191.38
481.406	1201.38
481.624	1193.38
481.843	1175.38
482.061	1162.38
482.28	1199.38
482.498	1165.38
482.717	1194.38
482.935	1196.38
483.153	1180.38
483.372	1184.38
483.59	1200.38
483.808	1176.38
484.027	1166.38
484.245	1189.38
484.463	1197.38
484.681	1209.38
484.9	1219.38
485.118	1203.38
485.336	1236.38
485.554	1218.38
485.772	1221.38
485.99	1215.38
486.209	1241.38
486.427	1233.38
486.645	1210.38
486.863	1258.38
487.081	1215.38
487.299	1224.38
487.517	1231.38
487.735	1232.38
487.953	1234.38
488.171	1209.38
488.389	1250.38
488.607	1206.38
488.825	1218.38
489.043	1203.38
489.261	1208.38
489.479	1209.38
489.696	1254.38
489.914	1224.38
490.132	1212.38
490.35	1254.38
490.568	1227.38
490.786	1237.38
491.003	1213.38
491.221	1211.38
491.439	1267.38
491.657	1247.38
491.874	1255.38
492.092	1301.38
492.31	1301.38
492.527	1270.38
492.745	1297.38
492.963	1281.38
493.18	1286.38
493.398	1316.38
493.615	1288.38
493.833	1327.38
494.05	1277.38
494.268	1305.38
494.485	1317.38
494.703	1329.38
494.92	1327.38
495.138	1333.38
495.355	1348.38
495.573	1357.38
495.79	1395.38
496.008	1382.38
496.225	1411.38
496.442	1385.38
496.66	1437.38
496.877	1403.38
497.094	1447.38
497.312	1469.38
497.529	1527.38
497.746	1517.38
497.963	1579.38
498.181	1643.38
498.398	1730.38
498.615	1759.38
498.832	1827.38
499.049	1991.38
499.267	2064.38
499.484	2219.38
499.701	2453.38
499.918	2606.38
500.135	2850.38
500.352	3083.38
500.569	3240.38
500.786	3170.38
501.003	3003.38
501.22	2805.38
501.437	2587.38
501.654	2336.38
501.871	2243.38
502.088	2079.38
502.305	1967.38
502.522	1895.38
502.739	1833.38
502.956	1700.38
503.172	1655.38
503.389	1591.38
503.606	1596.38
503.823	1554.38
504.04	1510.38
504.256	1505.38
504.473	1527.38
504.69	1495.38
504.907	1497.38
505.123	1437.38
505.34	1360.38
505.557	1346.38
505.773	1331.38
505.99	1286.38
506.207	1239.38
506.423	1272.38
506.64	1233.38
506.856	1187.38
507.073	1203.38
507.289	1196.38
507.506	1171.38
507.722	1164.38
507.939	1187.38
508.155	1143.38
508.372	1174.38
508.588	1128.38
508.805	1117.38
509.021	1111.38
509.238	1107.38
509.454	1156.38
509.67	1084.38
509.887	1059.38
510.103	1071.38
510.319	1081.38
510.536	1069.38
510.752	1063.38
510.968	1101.38
511.184	1077.38
511.401	1055.38
511.617	1069.38
511.833	1061.38
512.049	1076.38
512.265	1059.38
512.481	1076.38
512.698	1051.38
512.914	1072.38
513.13	1096.38
513.346	1043.38
513.562	1061.38
513.778	1057.38
513.994	1048.38
514.21	1109.38
514.426	1101.38
514.642	1062.38
514.858	1072.38
515.074	1092.38
515.29	1113.38
515.506	1135.38
515.721	1117.38
515.937	1179.38
516.153	1153.38
516.369	1162.38
516.585	1178.38
516.801	1219.38
517.016	1235.38
517.232	1272.38
517.448	1321.38
517.664	1336.38
517.879	1359.38
518.095	1372.38
518.311	1354.38
518.527	1297.38
518.742	1253.38
518.958	1222.38
519.173	1192.38
519.389	1165.38
519.605	1164.38
519.82	1113.38
520.036	1100.38
520.251	1047.38
520.467	1057.38
520.682	1076.38
520.898	1064.38
521.113	1039.38
521.329	1044.38
521.544	1019.38
521.76	1045.38
521.975	1014.38
522.19	1009.38
522.406	995.38
522.621	1011.38
522.836	1001.38
523.052	984.38
523.267	981.38
523.482	962.38
523.698	961.38
523.913	969.38
524.128	970.38
524.343	964.38
524.559	945.38
524.774	922.38
524.989	976.38
525.204	968.38
525.419	962.38
525.634	950.38
525.849	963.38
526.064	965.38
526.28	960.38
526.495	937.38
526.71	943.38
526.925	939.38
527.14	919.38
527.355	937.38
527.57	975.38
527.785	950.38
527.999	955.38
528.214	953.38
528.429	922.38
528.644	949.38
528.859	938.38
529.074	929.38
529.289	966.38
529.503	941.38
529.718	962.38
529.933	935.38
530.148	940.38
530.363	915.38
530.577	928.38
530.792	917.38
531.007	932.38
531.221	903.38
531.436	930.38
531.651	957.38
531.865	924.38
532.08	925.38
532.295	915.38
532.509	970.38
532.724	931.38
532.938	913.38
533.153	939.38
533.367	932.38
533.582	909.38
533.796	935.38
534.011	931.38
534.225	914.38
534.44	921.38
534.654	913.38
534.868	886.38
535.083	929.38
535.297	903.38
535.511	903.38
535.726	894.38
535.94	913.38
536.154	887.38
536.369	884.38
536.583	866.38
536.797	864.38
537.011	886.38
537.225	879.38
537.44	875.38
537.654	851.38
537.868	857.38
538.082	874.38
538.296	837.38
538.51	854.38
538.724	875.38
538.938	845.38
539.153	870.38
539.367	869.38
539.581	856.38
539.795	840.38
540.009	853.38
540.222	834.38
540.436	840.38
540.65	844.38
540.864	857.38
541.078	882.38
541.292	871.38
541.506	860.38
541.72	854.38
541.934	852.38
542.147	888.38
542.361	859.38
542.575	829.38
542.789	821.38
543.002	822.38
543.216	839.38
543.43	841.38
543.644	828.38
543.857	856.38
544.071	870.38
544.285	891.38
544.498	887.38
544.712	894.38
544.925	852.38
545.139	888.38
545.352	853.38
545.566	898.38
545.779	869.38
545.993	877.38
546.206	864.38
546.42	873.38
546.633	865.38
546.847	847.38
547.06	859.38
547.274	866.38
547.487	884.38
547.7	891.38
547.914	864.38
548.127	886.38
548.34	859.38
548.554	866.38
548.767	875.38
548.98	876.38
549.193	874.38
549.407	902.38
549.62	902.38
549.833	893.38
550.046	878.38
550.259	891.38
550.473	873.38
550.686	865.38
550.899	866.38
551.112	862.38
551.325	860.38
551.538	857.38
551.751	839.38
551.964	852.38
552.177	860.38
552.39	888.38
552.603	916.38
552.816	921.38
553.029	905.38
553.242	950.38
553.455	896.38
553.667	916.38
553.88	912.38
554.093	891.38
554.306	863.38
554.519	863.38
554.732	859.38
554.944	840.38
555.157	847.38
555.37	796.38
555.583	803.38
555.795	829.38
556.008	775.38
556.221	779.38
556.433	781.38
556.646	756.38
556.859	761.38
557.071	763.38
557.284	767.38
557.496	748.38
557.709	763.38
557.921	741.38
558.134	740.38
558.346	735.38
558.559	759.38
558.771	720.38
558.984	735.38
559.196	735.38
559.409	743.38
559.621	731.38
559.833	730.38
560.046	715.38
560.258	727.38
560.47	738.38
560.683	734.38
560.895	713.38
561.107	704.38
561.32	705.38
561.532	709.38
561.744	712.38
561.956	724.38
562.168	715.38
562.381	695.38
562.593	738.38
562.805	728.38
563.017	726.38
563.229	735.38
563.441	713.38
563.653	716.38
563.865	723.38
564.077	755.38
564.289	758.38
564.501	751.38
564.713	767.38
564.925	751.38
565.137	767.38
565.349	797.38
565.561	831.38
565.773	862.38
565.985	863.38
566.197	928.38
566.408	978.38
566.62	1010.38
566.832	1046.38
567.044	1061.38
567.255	1075.38
567.467	1092.38
567.679	1100.38
567.891	1148.38
568.102	1130.38
568.314	1111.38
568.526	1045.38
568.737	984.38
568.949	923.38
569.161	878.38
569.372	831.38
569.584	790.38
569.795	753.38
570.007	740.38
570.218	729.38
570.43	745.38
570.641	696.38
570.853	716.38
571.064	724.38
571.276	707.38
571.487	691.38
571.698	676.38
571.91	663.38
572.121	663.38
572.333	651.38
572.544	614.38
572.755	627.38
572.966	627.38
573.178	637.38
573.389	620.38
573.6	596.38
573.811	574.38
574.023	609.38
574.234	596.38
574.445	590.38
574.656	586.38
574.867	563.38
575.078	560.38
575.289	588.38
575.501	589.38
575.712	565.38
575.923	559.38
576.134	563.38
576.345	554.38
576.556	561.38
576.767	552.38
576.978	561.38
577.188	555.38
577.399	543.38
577.61	555.38
577.821	553.38
578.032	510.38
578.243	522.38
578.454	505.38
578.665	539.38
578.875	517.38
579.086	498.38
579.297	500.38
579.508	502.38
579.718	491.38
579.929	501.38
580.14	517.38
580.35	509.38
580.561	499.38
580.772	492.38
580.982	504.38
581.193	507.38
581.403	519.38
581.614	499.38
581.825	514.38
582.035	482.38
582.246	487.38
582.456	485.38
582.667	505.38
582.877	463.38
583.087	463.38
583.298	480.38
583.508	480.38
583.719	479.38
583.929	496.38
584.139	475.38
584.35	472.38
584.56	477.38
584.77	492.38
584.981	484.38
585.191	468.38
585.401	491.38
585.611	460.38
585.821	483.38
586.032	468.38
586.242	451.38
586.452	447.38
586.662	454.38
586.872	469.38
587.082	451.38
587.292	477.38
587.502	458.38
587.713	464.38
587.923	453.38
588.133	467.38
588.343	458.38
588.553	452.38
588.762	484.38
588.972	487.38
589.182	486.38
589.392	480.38
589.602	463.38
589.812	497.38
590.022	488.38
590.232	459.38
590.441	475.38
590.651	460.38
590.861	491.38
591.071	456.38
591.281	472.38
591.49	479.38
591.7	511.38
591.91	520.38
592.119	492.38
592.329	491.38
592.539	515.38
592.748	500.38
592.958	527.38
593.167	535.38
593.377	549.38
593.587	551.38
593.796	549.38
594.006	550.38
594.215	543.38
594.424	556.38
594.634	531.38
594.843	541.38
595.053	519.38
595.262	489.38
595.472	484.38
595.681	463.38
595.89	471.38
596.1	452.38
596.309	455.38
596.518	443.38
596.727	454.38
596.937	426.38
597.146	427.38
597.355	437.38
597.564	423.38
597.774	418.38
597.983	427.38
598.192	395.38
598.401	425.38
598.61	403.38
598.819	405.38
599.028	396.38
599.237	395.38
599.446	396.38
599.655	416.38
599.864	400.38
600.073	417.38
600.282	387.38
600.491	403.38
600.7	388.38
600.909	389.38
601.118	373.38
601.327	376.38
601.536	373.38
601.745	392.38
601.953	393.38
602.162	372.38
602.371	368.38
602.58	362.38
602.789	389.38
602.997	375.38
603.206	371.38
603.415	350.38
603.623	351.38
603.832	346.38
604.041	369.38
604.249	355.38
604.458	374.38
604.666	369.38
604.875	357.38
605.084	363.38
605.292	354.38
605.501	356.38
605.709	360.38
605.918	355.38
606.126	360.38
606.334	348.38
606.543	349.38
606.751	355.38
606.96	358.38
607.168	354.38
607.376	340.38
607.585	347.38
607.793	359.38
608.001	348.38
608.21	347.38
608.418	340.38
608.626	353.38
608.834	335.38
609.043	348.38
609.251	354.38
609.459	359.38
609.667	354.38
609.875	333.38
610.083	329.38
610.291	339.38
610.499	336.38
610.707	355.38
610.916	349.38
611.124	353.38
611.332	349.38
611.54	340.38
611.748	329.38
611.955	339.38
612.163	312.38
612.371	317.38
612.579	332.38
612.787	335.38
612.995	319.38
613.203	324.38
613.411	335.38
613.618	341.38
613.826	336.38
614.034	333.38
614.242	351.38
614.449	309.38
614.657	318.38
614.865	323.38
615.072	346.38
615.28	327.38
615.488	343.38
615.695	336.38
615.903	343.38
616.111	327.38
616.318	330.38
616.526	332.38
616.733	342.38
616.941	332.38
617.148	326.38
617.356	324.38
617.563	319.38
617.771	327.38
617.978	315.38
618.185	316.38
618.393	330.38
618.6	316.38
618.807	334.38
619.015	303.38
619.222	315.38
619.429	312.38
619.637	322.38
619.844	320.38
620.051	315.38
620.258	312.38
620.466	281.38
620.673	307.38
620.88	293.38
621.087	301.38
621.294	303.38
621.501	299.38
621.708	306.38
621.915	297.38
622.122	291.38
622.329	290.38
622.536	293.38
622.743	300.38
622.95	306.38
623.157	290.38
623.364	288.38
623.571	282.38
623.778	298.38
623.985	295.38
624.192	309.38
624.399	289.38
624.606	286.38
624.812	288.38
625.019	304.38
625.226	298.38
625.433	289.38
625.639	285.38
625.846	279.38
626.053	277.38
626.259	280.38
626.466	284.38
626.673	278.38
626.879	274.38
627.086	269.38
627.293	277.38
627.499	268.38
627.706	279.38
627.912	291.38
628.119	256.38
628.325	265.38
628.532	266.38
628.738	280.38
628.945	258.38
629.151	272.38
629.357	258.38
629.564	267.38
629.77	265.38
629.976	273.38
630.183	248.38
630.389	266.38
630.595	248.38
630.802	265.38
631.008	280.38
631.214	260.38
631.42	258.38
631.627	263.38
631.833	266.38
632.039	244.38
632.245	272.38
632.451	256.38
632.657	243.38
632.863	242.38
633.069	252.38
633.275	245.38
633.481	239.38
633.688	241.38
633.893	253.38
634.099	258.38
634.305	243.38
634.511	232.38
634.717	244.38
634.923	245.38
635.129	246.38
635.335	261.38
635.541	231.38
635.747	249.38
635.952	228.38
636.158	255.38
636.364	239.38
636.57	254.38
636.775	259.38
636.981	244.38
637.187	231.38
637.392	224.38
637.598	239.38
637.804	245.38
638.009	225.38
638.215	223.38
638.421	235.38
638.626	246.38
638.832	229.38
639.037	232.38
639.243	233.38
639.448	222.38
639.654	232.38
639.859	215.38
640.065	234.38
640.27	217.38
640.475	233.38
640.681	219.38
640.886	228.38
641.091	220.38
641.297	212.38
641.502	217.38
641.707	234.38
641.913	229.38
642.118	218.38
642.323	210.38
642.528	227.38
642.733	228.38
642.939	228.38
643.144	221.38
643.349	231.38
643.554	216.38
643.759	219.38
643.964	218.38
644.169	202.38
644.374	222.38
644.579	206.38
644.784	215.38
644.989	215.38
645.194	220.38
645.399	216.38
645.604	207.38
645.809	226.38
646.014	225.38
646.219	223.38
646.423	216.38
646.628	215.38
646.833	227.38
647.038	219.38
647.243	222.38
647.447	218.38
647.652	210.38
647.857	225.38
648.062	203.38
648.266	223.38
648.471	215.38
648.676	222.38
648.88	224.38
649.085	214.38
649.289	210.38
649.494	201.38
649.698	213.38
649.903	221.38
650.107	201.38
650.312	204.38
650.516	211.38
650.721	200.38
650.925	195.38
651.13	201.38
651.334	186.38
651.539	193.38
651.743	195.38
651.947	192.38
652.152	190.38
652.356	187.38
652.56	193.38
652.764	194.38
652.969	172.38
653.173	181.38
653.377	160.38
653.581	175.38
653.785	179.38
653.99	185.38
654.194	184.38
654.398	166.38
654.602	153.38
654.806	166.38
655.01	167.38
655.214	164.38
655.418	159.38
655.622	159.38
655.826	157.38
656.03	155.38
656.234	161.38
656.438	157.38
656.642	166.38
656.846	160.38
657.049	154.38
657.253	148.38
657.457	143.38
657.661	137.38
657.865	135.38
658.068	122.38
658.272	126.38
658.476	130.38
658.68	117.38
658.883	106.38
659.087	118.38
659.291	105.38
659.494	106.38
659.698	120.38
659.901	114.38
660.105	104.38
660.309	101.38
660.512	96.38
660.716	103.38
660.919	106.38
661.123	106.38
661.326	93.38
661.53	105.38
661.733	95.38
661.936	86.38
662.14	101.38
662.343	82.38
662.546	84.38
662.75	94.38
662.953	107.38
663.156	103.38
663.36	87.38
663.563	84.38
663.766	78.38
663.969	82.38
664.173	79.38
664.376	85.38
664.579	86.38
664.782	69.38
664.985	84.38
665.188	87.38
665.391	71.38
665.594	75.38
665.797	88.38
666	77.38
666.203	81.38
666.406	88.38
666.609	64.38
666.812	81.38
667.015	85.38
667.218	84.38
667.421	77.38
667.624	74.38
667.827	82.38
668.03	78.38
668.232	71.38
668.435	81.38
668.638	53.38
668.841	79.38
669.043	87.38
669.246	77.38
669.449	75.38
669.651	64.38
669.854	67.38
670.057	83.38
670.259	74.38
670.462	87.38
670.665	84.38
670.867	94.38
671.07	83.38
671.272	84.38
671.475	82.38
671.677	77.38
671.88	65.38
672.082	75.38
672.284	79.38
672.487	80.38
672.689	79.38
672.892	80.38
