Data from Ni(NO3)2@0.0625M.TitratingCurve.Agarose3%dH2O.NegLispCup.LampEnergy10.LIBS07252019_HRD10591_18-15-39-569.txt Node
Date: Thu Jul 25 18:15:39 EDT 2019
User: cochatt
Spectrometer: HR+D1059
Trigger mode: 1
Integration Time (sec): 1.000000E-1
Scans to average: 1
Electric dark correction enabled: true
Nonlinearity correction enabled: false
Boxcar width: 0
XAxis mode: Wavelengths
Number of Pixels in Spectrum: 2048
>>>>>Begin Spectral Data<<<<<
223.165	-19.75
223.4	-19.75
223.635	-19.75
223.869	-13.75
224.104	-25.75
224.338	-10.75
224.573	-19.75
224.808	-11.75
225.042	-10.75
225.277	-9.75
225.511	-2.75
225.746	10.25
225.98	14.25
226.215	-0.75
226.449	19.25
226.683	19.25
226.918	29.25
227.152	33.25
227.387	30.25
227.621	40.25
227.856	29.25
228.09	45.25
228.324	53.25
228.559	56.25
228.793	75.25
229.027	104.25
229.262	101.25
229.496	110.25
229.73	107.25
229.964	96.25
230.199	114.25
230.433	121.25
230.667	118.25
230.901	119.25
231.136	113.25
231.37	118.25
231.604	137.25
231.838	115.25
232.072	123.25
232.306	124.25
232.541	138.25
232.775	129.25
233.009	123.25
233.243	125.25
233.477	130.25
233.711	135.25
233.945	124.25
234.179	111.25
234.413	123.25
234.647	116.25
234.881	125.25
235.115	122.25
235.349	117.25
235.583	122.25
235.817	141.25
236.051	131.25
236.285	121.25
236.519	139.25
236.753	130.25
236.987	131.25
237.221	126.25
237.455	135.25
237.689	130.25
237.922	122.25
238.156	140.25
238.39	136.25
238.624	137.25
238.858	147.25
239.091	136.25
239.325	145.25
239.559	144.25
239.793	146.25
240.027	144.25
240.26	152.25
240.494	157.25
240.728	135.25
240.961	141.25
241.195	142.25
241.429	153.25
241.662	165.25
241.896	169.25
242.13	158.25
242.363	157.25
242.597	166.25
242.83	157.25
243.064	161.25
243.298	150.25
243.531	173.25
243.765	172.25
243.998	158.25
244.232	163.25
244.465	167.25
244.699	183.25
244.932	169.25
245.166	171.25
245.399	181.25
245.633	174.25
245.866	172.25
246.099	164.25
246.333	190.25
246.566	181.25
246.8	184.25
247.033	166.25
247.266	173.25
247.5	192.25
247.733	181.25
247.966	189.25
248.2	189.25
248.433	190.25
248.666	195.25
248.899	174.25
249.133	193.25
249.366	180.25
249.599	198.25
249.832	201.25
250.066	204.25
250.299	192.25
250.532	190.25
250.765	184.25
250.998	220.25
251.231	215.25
251.465	201.25
251.698	207.25
251.931	202.25
252.164	214.25
252.397	217.25
252.63	214.25
252.863	222.25
253.096	213.25
253.329	196.25
253.562	222.25
253.795	225.25
254.028	198.25
254.261	213.25
254.494	222.25
254.727	219.25
254.96	218.25
255.193	228.25
255.426	220.25
255.659	217.25
255.892	217.25
256.124	227.25
256.357	227.25
256.59	225.25
256.823	226.25
257.056	223.25
257.289	217.25
257.521	218.25
257.754	211.25
257.987	235.25
258.22	229.25
258.452	227.25
258.685	227.25
258.918	236.25
259.151	232.25
259.383	227.25
259.616	222.25
259.849	246.25
260.081	241.25
260.314	246.25
260.547	259.25
260.779	233.25
261.012	231.25
261.244	229.25
261.477	259.25
261.71	267.25
261.942	246.25
262.175	246.25
262.407	265.25
262.64	232.25
262.872	254.25
263.105	237.25
263.337	261.25
263.57	283.25
263.802	256.25
264.035	251.25
264.267	253.25
264.499	280.25
264.732	266.25
264.964	273.25
265.197	278.25
265.429	261.25
265.661	279.25
265.894	273.25
266.126	273.25
266.358	251.25
266.591	265.25
266.823	279.25
267.055	257.25
267.287	267.25
267.52	287.25
267.752	283.25
267.984	278.25
268.216	275.25
268.448	278.25
268.681	290.25
268.913	282.25
269.145	291.25
269.377	299.25
269.609	298.25
269.841	259.25
270.073	297.25
270.306	300.25
270.538	302.25
270.77	282.25
271.002	268.25
271.234	289.25
271.466	258.25
271.698	285.25
271.93	298.25
272.162	299.25
272.394	309.25
272.626	302.25
272.858	296.25
273.09	308.25
273.322	301.25
273.553	292.25
273.785	290.25
274.017	301.25
274.249	313.25
274.481	312.25
274.713	301.25
274.945	320.25
275.176	312.25
275.408	318.25
275.64	316.25
275.872	310.25
276.104	332.25
276.335	309.25
276.567	302.25
276.799	325.25
277.031	342.25
277.262	325.25
277.494	330.25
277.726	310.25
277.957	321.25
278.189	329.25
278.421	317.25
278.652	338.25
278.884	334.25
279.115	345.25
279.347	333.25
279.579	330.25
279.81	345.25
280.042	325.25
280.273	342.25
280.505	333.25
280.736	332.25
280.968	353.25
281.199	341.25
281.431	347.25
281.662	354.25
281.894	347.25
282.125	331.25
282.356	365.25
282.588	373.25
282.819	346.25
283.051	335.25
283.282	358.25
283.513	361.25
283.745	341.25
283.976	369.25
284.207	338.25
284.439	349.25
284.67	363.25
284.901	351.25
285.132	390.25
285.364	369.25
285.595	374.25
285.826	365.25
286.057	362.25
286.288	353.25
286.52	381.25
286.751	375.25
286.982	364.25
287.213	376.25
287.444	371.25
287.675	377.25
287.906	387.25
288.138	387.25
288.369	381.25
288.6	383.25
288.831	384.25
289.062	383.25
289.293	391.25
289.524	398.25
289.755	391.25
289.986	406.25
290.217	397.25
290.448	395.25
290.679	406.25
290.91	397.25
291.141	373.25
291.371	382.25
291.602	385.25
291.833	397.25
292.064	409.25
292.295	398.25
292.526	385.25
292.757	391.25
292.987	413.25
293.218	410.25
293.449	409.25
293.68	387.25
293.91	397.25
294.141	395.25
294.372	384.25
294.603	389.25
294.833	411.25
295.064	400.25
295.295	399.25
295.525	395.25
295.756	392.25
295.987	408.25
296.217	414.25
296.448	409.25
296.679	428.25
296.909	434.25
297.14	409.25
297.37	427.25
297.601	431.25
297.831	438.25
298.062	429.25
298.292	429.25
298.523	444.25
298.753	427.25
298.984	433.25
299.214	434.25
299.445	421.25
299.675	432.25
299.905	423.25
300.136	433.25
300.366	437.25
300.597	433.25
300.827	465.25
301.057	445.25
301.288	464.25
301.518	466.25
301.748	464.25
301.979	463.25
302.209	451.25
302.439	465.25
302.669	441.25
302.9	452.25
303.13	439.25
303.36	429.25
303.59	435.25
303.82	438.25
304.051	445.25
304.281	430.25
304.511	463.25
304.741	439.25
304.971	451.25
305.201	462.25
305.431	450.25
305.661	446.25
305.891	420.25
306.121	441.25
306.352	435.25
306.582	439.25
306.812	442.25
307.042	437.25
307.272	429.25
307.502	429.25
307.731	436.25
307.961	434.25
308.191	431.25
308.421	447.25
308.651	440.25
308.881	442.25
309.111	434.25
309.341	427.25
309.571	459.25
309.8	447.25
310.03	436.25
310.26	440.25
310.49	430.25
310.72	449.25
310.949	428.25
311.179	433.25
311.409	427.25
311.639	432.25
311.868	450.25
312.098	449.25
312.328	464.25
312.557	451.25
312.787	459.25
313.017	454.25
313.246	461.25
313.476	483.25
313.706	474.25
313.935	459.25
314.165	482.25
314.394	490.25
314.624	469.25
314.853	468.25
315.083	484.25
315.312	476.25
315.542	472.25
315.771	466.25
316.001	463.25
316.23	456.25
316.46	463.25
316.689	457.25
316.919	457.25
317.148	450.25
317.377	451.25
317.607	453.25
317.836	439.25
318.065	460.25
318.295	457.25
318.524	453.25
318.753	462.25
318.983	461.25
319.212	453.25
319.441	458.25
319.67	435.25
319.9	455.25
320.129	450.25
320.358	471.25
320.587	459.25
320.816	438.25
321.046	451.25
321.275	464.25
321.504	444.25
321.733	458.25
321.962	459.25
322.191	469.25
322.42	479.25
322.649	453.25
322.878	470.25
323.108	452.25
323.337	474.25
323.566	463.25
323.795	466.25
324.024	461.25
324.253	465.25
324.482	450.25
324.71	484.25
324.939	463.25
325.168	461.25
325.397	467.25
325.626	493.25
325.855	502.25
326.084	492.25
326.313	488.25
326.542	519.25
326.77	537.25
326.999	515.25
327.228	504.25
327.457	499.25
327.686	500.25
327.914	513.25
328.143	519.25
328.372	507.25
328.6	508.25
328.829	498.25
329.058	504.25
329.287	504.25
329.515	514.25
329.744	533.25
329.972	511.25
330.201	513.25
330.43	501.25
330.658	501.25
330.887	511.25
331.115	535.25
331.344	523.25
331.572	558.25
331.801	551.25
332.03	570.25
332.258	571.25
332.486	592.25
332.715	594.25
332.943	637.25
333.172	635.25
333.4	671.25
333.629	676.25
333.857	695.25
334.085	681.25
334.314	683.25
334.542	641.25
334.771	629.25
334.999	626.25
335.227	633.25
335.455	607.25
335.684	613.25
335.912	618.25
336.14	616.25
336.369	594.25
336.597	607.25
336.825	610.25
337.053	590.25
337.281	617.25
337.51	586.25
337.738	567.25
337.966	568.25
338.194	566.25
338.422	566.25
338.65	595.25
338.878	545.25
339.106	547.25
339.334	568.25
339.562	540.25
339.79	539.25
340.018	517.25
340.246	537.25
340.474	535.25
340.702	533.25
340.93	548.25
341.158	536.25
341.386	540.25
341.614	541.25
341.842	534.25
342.07	507.25
342.298	526.25
342.526	517.25
342.754	517.25
342.981	518.25
343.209	521.25
343.437	569.25
343.665	609.25
343.893	641.25
344.12	676.25
344.348	647.25
344.576	602.25
344.804	591.25
345.031	545.25
345.259	553.25
345.487	542.25
345.714	571.25
345.942	554.25
346.17	537.25
346.397	532.25
346.625	521.25
346.853	518.25
347.08	521.25
347.308	508.25
347.535	533.25
347.763	542.25
347.99	550.25
348.218	566.25
348.445	543.25
348.673	511.25
348.9	530.25
349.128	511.25
349.355	519.25
349.583	524.25
349.81	511.25
350.037	510.25
350.265	510.25
350.492	526.25
350.72	509.25
350.947	486.25
351.174	490.25
351.402	510.25
351.629	493.25
351.856	503.25
352.083	496.25
352.311	505.25
352.538	494.25
352.765	519.25
352.992	497.25
353.22	479.25
353.447	494.25
353.674	523.25
353.901	498.25
354.128	498.25
354.355	488.25
354.583	501.25
354.81	488.25
355.037	497.25
355.264	492.25
355.491	507.25
355.718	498.25
355.945	503.25
356.172	500.25
356.399	505.25
356.626	513.25
356.853	514.25
357.08	511.25
357.307	507.25
357.534	503.25
357.761	506.25
357.988	499.25
358.215	492.25
358.441	502.25
358.668	515.25
358.895	503.25
359.122	519.25
359.349	503.25
359.576	530.25
359.802	504.25
360.029	516.25
360.256	525.25
360.483	506.25
360.709	502.25
360.936	475.25
361.163	499.25
361.39	490.25
361.616	491.25
361.843	499.25
362.07	509.25
362.296	503.25
362.523	498.25
362.749	509.25
362.976	523.25
363.203	520.25
363.429	502.25
363.656	494.25
363.882	485.25
364.109	477.25
364.335	500.25
364.562	505.25
364.788	503.25
365.015	498.25
365.241	464.25
365.468	488.25
365.694	481.25
365.92	497.25
366.147	517.25
366.373	518.25
366.599	486.25
366.826	500.25
367.052	494.25
367.278	520.25
367.505	502.25
367.731	519.25
367.957	486.25
368.184	516.25
368.41	530.25
368.636	533.25
368.862	522.25
369.089	515.25
369.315	502.25
369.541	501.25
369.767	516.25
369.993	517.25
370.219	538.25
370.445	535.25
370.672	543.25
370.898	541.25
371.124	527.25
371.35	555.25
371.576	568.25
371.802	545.25
372.028	536.25
372.254	553.25
372.48	545.25
372.706	582.25
372.932	583.25
373.158	562.25
373.384	574.25
373.61	547.25
373.835	543.25
374.061	551.25
374.287	556.25
374.513	562.25
374.739	581.25
374.965	612.25
375.191	622.25
375.416	625.25
375.642	591.25
375.868	581.25
376.094	577.25
376.319	563.25
376.545	585.25
376.771	563.25
376.997	567.25
377.222	562.25
377.448	542.25
377.674	563.25
377.899	542.25
378.125	568.25
378.35	545.25
378.576	532.25
378.802	524.25
379.027	534.25
379.253	538.25
379.478	525.25
379.704	536.25
379.929	547.25
380.155	517.25
380.38	542.25
380.606	557.25
380.831	547.25
381.057	555.25
381.282	525.25
381.507	527.25
381.733	561.25
381.958	545.25
382.184	555.25
382.409	569.25
382.634	591.25
382.86	587.25
383.085	584.25
383.31	584.25
383.535	621.25
383.761	595.25
383.986	630.25
384.211	643.25
384.436	643.25
384.662	634.25
384.887	652.25
385.112	645.25
385.337	667.25
385.562	643.25
385.787	657.25
386.013	676.25
386.238	677.25
386.463	643.25
386.688	649.25
386.913	636.25
387.138	646.25
387.363	622.25
387.588	651.25
387.813	641.25
388.038	634.25
388.263	653.25
388.488	638.25
388.713	631.25
388.938	641.25
389.163	641.25
389.387	653.25
389.612	654.25
389.837	632.25
390.062	643.25
390.287	627.25
390.512	631.25
390.736	654.25
390.961	630.25
391.186	642.25
391.411	675.25
391.636	717.25
391.86	722.25
392.085	753.25
392.31	716.25
392.534	722.25
392.759	721.25
392.984	701.25
393.208	688.25
393.433	693.25
393.658	685.25
393.882	683.25
394.107	697.25
394.331	700.25
394.556	721.25
394.78	697.25
395.005	702.25
395.229	691.25
395.454	753.25
395.678	749.25
395.903	732.25
396.127	717.25
396.352	696.25
396.576	708.25
396.801	692.25
397.025	709.25
397.249	693.25
397.474	720.25
397.698	746.25
397.922	729.25
398.147	701.25
398.371	774.25
398.595	763.25
398.82	797.25
399.044	849.25
399.268	966.25
399.492	1118.25
399.717	1317.25
399.941	1293.25
400.165	1086.25
400.389	983.25
400.613	901.25
400.837	856.25
401.062	823.25
401.286	813.25
401.51	793.25
401.734	807.25
401.958	842.25
402.182	832.25
402.406	850.25
402.63	890.25
402.854	867.25
403.078	878.25
403.302	886.25
403.526	925.25
403.75	927.25
403.974	986.25
404.198	939.25
404.422	985.25
404.645	935.25
404.869	919.25
405.093	932.25
405.317	929.25
405.541	895.25
405.765	922.25
405.988	889.25
406.212	905.25
406.436	899.25
406.66	911.25
406.883	943.25
407.107	996.25
407.331	1053.25
407.555	1049.25
407.778	1055.25
408.002	1034.25
408.226	995.25
408.449	987.25
408.673	917.25
408.896	942.25
409.12	913.25
409.344	918.25
409.567	926.25
409.791	950.25
410.014	930.25
410.238	935.25
410.461	930.25
410.685	930.25
410.908	927.25
411.132	868.25
411.355	841.25
411.578	841.25
411.802	852.25
412.025	843.25
412.249	861.25
412.472	858.25
412.695	815.25
412.919	810.25
413.142	848.25
413.365	841.25
413.589	831.25
413.812	813.25
414.035	793.25
414.258	806.25
414.482	818.25
414.705	823.25
414.928	854.25
415.151	819.25
415.374	821.25
415.597	820.25
415.821	833.25
416.044	792.25
416.267	809.25
416.49	790.25
416.713	785.25
416.936	814.25
417.159	814.25
417.382	803.25
417.605	797.25
417.828	806.25
418.051	810.25
418.274	812.25
418.497	818.25
418.72	813.25
418.943	842.25
419.166	889.25
419.389	943.25
419.611	917.25
419.834	893.25
420.057	851.25
420.28	823.25
420.503	824.25
420.726	795.25
420.948	819.25
421.171	811.25
421.394	812.25
421.617	829.25
421.839	828.25
422.062	810.25
422.285	819.25
422.507	843.25
422.73	821.25
422.953	859.25
423.175	864.25
423.398	895.25
423.621	852.25
423.843	918.25
424.066	896.25
424.288	887.25
424.511	847.25
424.733	841.25
424.956	832.25
425.178	848.25
425.401	810.25
425.623	819.25
425.846	801.25
426.068	794.25
426.291	787.25
426.513	775.25
426.735	748.25
426.958	764.25
427.18	743.25
427.402	741.25
427.625	744.25
427.847	708.25
428.069	739.25
428.292	743.25
428.514	714.25
428.736	712.25
428.958	730.25
429.181	703.25
429.403	709.25
429.625	734.25
429.847	690.25
430.069	737.25
430.292	711.25
430.514	700.25
430.736	722.25
430.958	707.25
431.18	717.25
431.402	703.25
431.624	702.25
431.846	708.25
432.068	719.25
432.29	778.25
432.512	743.25
432.734	724.25
432.956	726.25
433.178	756.25
433.4	761.25
433.622	763.25
433.844	742.25
434.066	742.25
434.287	761.25
434.509	775.25
434.731	833.25
434.953	832.25
435.175	820.25
435.397	842.25
435.618	766.25
435.84	771.25
436.062	741.25
436.284	749.25
436.505	711.25
436.727	757.25
436.949	726.25
437.17	728.25
437.392	733.25
437.614	733.25
437.835	692.25
438.057	716.25
438.278	702.25
438.5	698.25
438.721	699.25
438.943	705.25
439.165	707.25
439.386	722.25
439.608	727.25
439.829	723.25
440.05	735.25
440.272	739.25
440.493	747.25
440.715	758.25
440.936	775.25
441.158	788.25
441.379	796.25
441.6	826.25
441.822	850.25
442.043	839.25
442.264	814.25
442.486	817.25
442.707	805.25
442.928	815.25
443.149	814.25
443.371	805.25
443.592	813.25
443.813	808.25
444.034	838.25
444.255	863.25
444.476	897.25
444.698	942.25
444.919	981.25
445.14	1098.25
445.361	953.25
445.582	860.25
445.803	795.25
446.024	798.25
446.245	756.25
446.466	770.25
446.687	756.25
446.908	750.25
447.129	706.25
447.35	701.25
447.571	691.25
447.792	665.25
448.013	676.25
448.234	667.25
448.455	681.25
448.675	683.25
448.896	686.25
449.117	680.25
449.338	672.25
449.559	667.25
449.779	658.25
450	671.25
450.221	681.25
450.442	672.25
450.662	686.25
450.883	690.25
451.104	703.25
451.324	704.25
451.545	687.25
451.766	682.25
451.986	723.25
452.207	686.25
452.428	661.25
452.648	690.25
452.869	682.25
453.089	676.25
453.31	679.25
453.53	671.25
453.751	676.25
453.971	665.25
454.192	663.25
454.412	635.25
454.633	671.25
454.853	647.25
455.073	652.25
455.294	652.25
455.514	606.25
455.734	620.25
455.955	643.25
456.175	625.25
456.395	630.25
456.616	634.25
456.836	636.25
457.056	643.25
457.276	645.25
457.497	636.25
457.717	636.25
457.937	626.25
458.157	631.25
458.377	625.25
458.598	680.25
458.818	669.25
459.038	710.25
459.258	717.25
459.478	743.25
459.698	789.25
459.918	789.25
460.138	814.25
460.358	870.25
460.578	871.25
460.798	892.25
461.018	897.25
461.238	853.25
461.458	869.25
461.678	851.25
461.898	885.25
462.118	866.25
462.338	921.25
462.558	954.25
462.777	981.25
462.997	1092.25
463.217	1178.25
463.437	1181.25
463.657	1085.25
463.876	1027.25
464.096	1045.25
464.316	1014.25
464.536	1051.25
464.755	1003.25
464.975	954.25
465.195	891.25
465.414	847.25
465.634	817.25
465.854	788.25
466.073	747.25
466.293	738.25
466.512	714.25
466.732	727.25
466.951	705.25
467.171	724.25
467.391	707.25
467.61	717.25
467.829	709.25
468.049	679.25
468.268	682.25
468.488	667.25
468.707	677.25
468.927	674.25
469.146	695.25
469.365	689.25
469.585	683.25
469.804	716.25
470.023	738.25
470.243	717.25
470.462	718.25
470.681	739.25
470.901	731.25
471.12	716.25
471.339	720.25
471.558	710.25
471.777	729.25
471.997	695.25
472.216	676.25
472.435	693.25
472.654	671.25
472.873	670.25
473.092	661.25
473.311	655.25
473.53	662.25
473.749	656.25
473.968	658.25
474.187	662.25
474.406	671.25
474.625	656.25
474.844	645.25
475.063	681.25
475.282	660.25
475.501	674.25
475.72	669.25
475.939	691.25
476.158	695.25
476.377	674.25
476.596	714.25
476.814	718.25
477.033	701.25
477.252	710.25
477.471	718.25
477.69	741.25
477.908	781.25
478.127	815.25
478.346	776.25
478.564	785.25
478.783	837.25
479.002	841.25
479.22	869.25
479.439	834.25
479.658	822.25
479.876	810.25
480.095	829.25
480.313	878.25
480.532	906.25
480.751	885.25
480.969	854.25
481.188	854.25
481.406	839.25
481.624	797.25
481.843	785.25
482.061	776.25
482.28	784.25
482.498	770.25
482.717	761.25
482.935	802.25
483.153	774.25
483.372	780.25
483.59	794.25
483.808	804.25
484.027	792.25
484.245	769.25
484.463	772.25
484.681	810.25
484.9	803.25
485.118	833.25
485.336	801.25
485.554	825.25
485.772	826.25
485.99	862.25
486.209	832.25
486.427	842.25
486.645	831.25
486.863	825.25
487.081	809.25
487.299	834.25
487.517	801.25
487.735	797.25
487.953	828.25
488.171	806.25
488.389	799.25
488.607	805.25
488.825	792.25
489.043	787.25
489.261	791.25
489.479	784.25
489.696	825.25
489.914	819.25
490.132	835.25
490.35	796.25
490.568	821.25
490.786	811.25
491.003	809.25
491.221	819.25
491.439	793.25
491.657	805.25
491.874	801.25
492.092	794.25
492.31	801.25
492.527	827.25
492.745	835.25
492.963	836.25
493.18	831.25
493.398	819.25
493.615	841.25
493.833	836.25
494.05	828.25
494.268	851.25
494.485	858.25
494.703	838.25
494.92	837.25
495.138	839.25
495.355	846.25
495.573	857.25
495.79	837.25
496.008	847.25
496.225	860.25
496.442	881.25
496.66	893.25
496.877	873.25
497.094	907.25
497.312	911.25
497.529	930.25
497.746	947.25
497.963	974.25
498.181	1018.25
498.398	1069.25
498.615	1101.25
498.832	1195.25
499.049	1248.25
499.267	1379.25
499.484	1549.25
499.701	1704.25
499.918	1891.25
500.135	2155.25
500.352	2511.25
500.569	2634.25
500.786	2643.25
501.003	2373.25
501.22	2108.25
501.437	1843.25
501.654	1586.25
501.871	1477.25
502.088	1383.25
502.305	1253.25
502.522	1173.25
502.739	1165.25
502.956	1089.25
503.172	1050.25
503.389	997.25
503.606	974.25
503.823	969.25
504.04	971.25
504.256	965.25
504.473	984.25
504.69	1024.25
504.907	964.25
505.123	922.25
505.34	885.25
505.557	847.25
505.773	835.25
505.99	813.25
506.207	813.25
506.423	781.25
506.64	751.25
506.856	754.25
507.073	778.25
507.289	767.25
507.506	739.25
507.722	742.25
507.939	771.25
508.155	739.25
508.372	702.25
508.588	685.25
508.805	723.25
509.021	707.25
509.238	707.25
509.454	739.25
509.67	706.25
509.887	711.25
510.103	694.25
510.319	694.25
510.536	693.25
510.752	683.25
510.968	705.25
511.184	683.25
511.401	692.25
511.617	683.25
511.833	698.25
512.049	681.25
512.265	661.25
512.481	686.25
512.698	670.25
512.914	682.25
513.13	674.25
513.346	710.25
513.562	721.25
513.778	687.25
513.994	682.25
514.21	697.25
514.426	699.25
514.642	706.25
514.858	726.25
515.074	718.25
515.29	709.25
515.506	728.25
515.721	719.25
515.937	733.25
516.153	749.25
516.369	749.25
516.585	797.25
516.801	830.25
517.016	838.25
517.232	897.25
517.448	911.25
517.664	958.25
517.879	950.25
518.095	958.25
518.311	925.25
518.527	892.25
518.742	866.25
518.958	821.25
519.173	798.25
519.389	775.25
519.605	755.25
519.82	733.25
520.036	723.25
520.251	717.25
520.467	721.25
520.682	685.25
520.898	700.25
521.113	684.25
521.329	696.25
521.544	685.25
521.76	663.25
521.975	637.25
522.19	667.25
522.406	673.25
522.621	646.25
522.836	654.25
523.052	670.25
523.267	670.25
523.482	629.25
523.698	637.25
523.913	653.25
524.128	637.25
524.343	615.25
524.559	645.25
524.774	653.25
524.989	634.25
525.204	636.25
525.419	645.25
525.634	636.25
525.849	661.25
526.064	647.25
526.28	644.25
526.495	625.25
526.71	638.25
526.925	605.25
527.14	651.25
527.355	618.25
527.57	620.25
527.785	627.25
527.999	629.25
528.214	652.25
528.429	634.25
528.644	638.25
528.859	645.25
529.074	636.25
529.289	651.25
529.503	641.25
529.718	638.25
529.933	621.25
530.148	626.25
530.363	619.25
530.577	620.25
530.792	644.25
531.007	605.25
531.221	629.25
531.436	647.25
531.651	649.25
531.865	619.25
532.08	627.25
532.295	637.25
532.509	620.25
532.724	619.25
532.938	643.25
533.153	623.25
533.367	640.25
533.582	618.25
533.796	621.25
534.011	619.25
534.225	622.25
534.44	613.25
534.654	602.25
534.868	597.25
535.083	613.25
535.297	598.25
535.511	612.25
535.726	596.25
535.94	613.25
536.154	616.25
536.369	589.25
536.583	587.25
536.797	592.25
537.011	585.25
537.225	602.25
537.44	590.25
537.654	578.25
537.868	581.25
538.082	589.25
538.296	598.25
538.51	593.25
538.724	580.25
538.938	595.25
539.153	580.25
539.367	556.25
539.581	566.25
539.795	589.25
540.009	587.25
540.222	574.25
540.436	562.25
540.65	555.25
540.864	566.25
541.078	568.25
541.292	566.25
541.506	550.25
541.72	580.25
541.934	565.25
542.147	570.25
542.361	569.25
542.575	549.25
542.789	546.25
543.002	545.25
543.216	550.25
543.43	539.25
543.644	569.25
543.857	526.25
544.071	557.25
544.285	574.25
544.498	569.25
544.712	571.25
544.925	590.25
545.139	557.25
545.352	573.25
545.566	597.25
545.779	568.25
545.993	580.25
546.206	589.25
546.42	579.25
546.633	550.25
546.847	585.25
547.06	563.25
547.274	582.25
547.487	579.25
547.7	569.25
547.914	575.25
548.127	555.25
548.34	596.25
548.554	566.25
548.767	581.25
548.98	582.25
549.193	580.25
549.407	580.25
549.62	623.25
549.833	589.25
550.046	580.25
550.259	592.25
550.473	567.25
550.686	576.25
550.899	558.25
551.112	545.25
551.325	549.25
551.538	552.25
551.751	579.25
551.964	582.25
552.177	584.25
552.39	575.25
552.603	597.25
552.816	581.25
553.029	629.25
553.242	603.25
553.455	628.25
553.667	621.25
553.88	628.25
554.093	634.25
554.306	588.25
554.519	571.25
554.732	593.25
554.944	542.25
555.157	556.25
555.37	544.25
555.583	553.25
555.795	519.25
556.008	522.25
556.221	511.25
556.433	513.25
556.646	509.25
556.859	523.25
557.071	497.25
557.284	506.25
557.496	512.25
557.709	513.25
557.921	458.25
558.134	485.25
558.346	506.25
558.559	493.25
558.771	501.25
558.984	478.25
559.196	503.25
559.409	477.25
559.621	471.25
559.833	485.25
560.046	461.25
560.258	467.25
560.47	468.25
560.683	489.25
560.895	484.25
561.107	482.25
561.32	474.25
561.532	452.25
561.744	477.25
561.956	473.25
562.168	480.25
562.381	500.25
562.593	487.25
562.805	497.25
563.017	485.25
563.229	471.25
563.441	491.25
563.653	487.25
563.865	480.25
564.077	498.25
564.289	489.25
564.501	528.25
564.713	505.25
564.925	524.25
565.137	524.25
565.349	534.25
565.561	537.25
565.773	581.25
565.985	586.25
566.197	607.25
566.408	643.25
566.62	708.25
566.832	783.25
567.044	812.25
567.255	777.25
567.467	804.25
567.679	822.25
567.891	923.25
568.102	971.25
568.314	918.25
568.526	828.25
568.737	738.25
568.949	664.25
569.161	635.25
569.372	574.25
569.584	539.25
569.795	533.25
570.007	509.25
570.218	501.25
570.43	494.25
570.641	506.25
570.853	502.25
571.064	516.25
571.276	532.25
571.487	488.25
571.698	481.25
571.91	459.25
572.121	454.25
572.333	430.25
572.544	427.25
572.755	444.25
572.966	402.25
573.178	409.25
573.389	406.25
573.6	392.25
573.811	401.25
574.023	398.25
574.234	396.25
574.445	399.25
574.656	414.25
574.867	417.25
575.078	409.25
575.289	402.25
575.501	407.25
575.712	403.25
575.923	396.25
576.134	396.25
576.345	383.25
576.556	375.25
576.767	359.25
576.978	375.25
577.188	372.25
577.399	369.25
577.61	394.25
577.821	370.25
578.032	360.25
578.243	387.25
578.454	369.25
578.665	365.25
578.875	361.25
579.086	375.25
579.297	373.25
579.508	365.25
579.718	363.25
579.929	364.25
580.14	362.25
580.35	356.25
580.561	356.25
580.772	379.25
580.982	350.25
581.193	349.25
581.403	346.25
581.614	368.25
581.825	346.25
582.035	332.25
582.246	324.25
582.456	338.25
582.667	361.25
582.877	351.25
583.087	348.25
583.298	329.25
583.508	344.25
583.719	342.25
583.929	348.25
584.139	348.25
584.35	350.25
584.56	329.25
584.77	333.25
584.981	339.25
585.191	333.25
585.401	332.25
585.611	334.25
585.821	345.25
586.032	348.25
586.242	360.25
586.452	335.25
586.662	355.25
586.872	331.25
587.082	343.25
587.292	342.25
587.502	327.25
587.713	338.25
587.923	321.25
588.133	328.25
588.343	350.25
588.553	341.25
588.762	323.25
588.972	355.25
589.182	333.25
589.392	329.25
589.602	343.25
589.812	345.25
590.022	322.25
590.232	329.25
590.441	346.25
590.651	339.25
590.861	330.25
591.071	342.25
591.281	348.25
591.49	350.25
591.7	343.25
591.91	340.25
592.119	366.25
592.329	346.25
592.539	378.25
592.748	377.25
592.958	427.25
593.167	413.25
593.377	414.25
593.587	417.25
593.796	407.25
594.006	423.25
594.215	414.25
594.424	422.25
594.634	421.25
594.843	405.25
595.053	407.25
595.262	375.25
595.472	380.25
595.681	345.25
595.89	356.25
596.1	352.25
596.309	343.25
596.518	335.25
596.727	305.25
596.937	327.25
597.146	297.25
597.355	323.25
597.564	306.25
597.774	303.25
597.983	312.25
598.192	311.25
598.401	279.25
598.61	285.25
598.819	287.25
599.028	275.25
599.237	301.25
599.446	293.25
599.655	302.25
599.864	297.25
600.073	297.25
600.282	318.25
600.491	296.25
600.7	268.25
600.909	285.25
601.118	271.25
601.327	287.25
601.536	274.25
601.745	267.25
601.953	260.25
602.162	271.25
602.371	263.25
602.58	283.25
602.789	271.25
602.997	286.25
603.206	274.25
603.415	275.25
603.623	266.25
603.832	276.25
604.041	267.25
604.249	259.25
604.458	278.25
604.666	273.25
604.875	251.25
605.084	274.25
605.292	270.25
605.501	270.25
605.709	260.25
605.918	274.25
606.126	259.25
606.334	289.25
606.543	276.25
606.751	278.25
606.96	269.25
607.168	261.25
607.376	269.25
607.585	256.25
607.793	263.25
608.001	255.25
608.21	261.25
608.418	265.25
608.626	270.25
608.834	237.25
609.043	267.25
609.251	269.25
609.459	256.25
609.667	261.25
609.875	253.25
610.083	258.25
610.291	237.25
610.499	251.25
610.707	263.25
610.916	256.25
611.124	251.25
611.332	275.25
611.54	253.25
611.748	246.25
611.955	260.25
612.163	253.25
612.371	252.25
612.579	249.25
612.787	261.25
612.995	261.25
613.203	242.25
613.411	249.25
613.618	246.25
613.826	241.25
614.034	234.25
614.242	271.25
614.449	251.25
614.657	239.25
614.865	260.25
615.072	239.25
615.28	254.25
615.488	241.25
615.695	238.25
615.903	231.25
616.111	244.25
616.318	277.25
616.526	257.25
616.733	242.25
616.941	258.25
617.148	268.25
617.356	235.25
617.563	255.25
617.771	254.25
617.978	247.25
618.185	235.25
618.393	270.25
618.6	253.25
618.807	251.25
619.015	259.25
619.222	228.25
619.429	242.25
619.637	235.25
619.844	244.25
620.051	226.25
620.258	227.25
620.466	233.25
620.673	227.25
620.88	240.25
621.087	229.25
621.294	245.25
621.501	246.25
621.708	229.25
621.915	228.25
622.122	227.25
622.329	225.25
622.536	233.25
622.743	234.25
622.95	241.25
623.157	225.25
623.364	241.25
623.571	231.25
623.778	225.25
623.985	241.25
624.192	235.25
624.399	222.25
624.606	238.25
624.812	234.25
625.019	219.25
625.226	217.25
625.433	206.25
625.639	206.25
625.846	223.25
626.053	212.25
626.259	210.25
626.466	212.25
626.673	210.25
626.879	223.25
627.086	229.25
627.293	217.25
627.499	210.25
627.706	205.25
627.912	226.25
628.119	200.25
628.325	207.25
628.532	205.25
628.738	213.25
628.945	205.25
629.151	204.25
629.357	194.25
629.564	204.25
629.77	201.25
629.976	222.25
630.183	207.25
630.389	183.25
630.595	195.25
630.802	201.25
631.008	210.25
631.214	198.25
631.42	203.25
631.627	203.25
631.833	202.25
632.039	203.25
632.245	192.25
632.451	180.25
632.657	198.25
632.863	204.25
633.069	202.25
633.275	203.25
633.481	182.25
633.688	195.25
633.893	193.25
634.099	195.25
634.305	194.25
634.511	191.25
634.717	212.25
634.923	193.25
635.129	202.25
635.335	190.25
635.541	189.25
635.747	179.25
635.952	191.25
636.158	191.25
636.364	206.25
636.57	192.25
636.775	186.25
636.981	177.25
637.187	181.25
637.392	174.25
637.598	179.25
637.804	188.25
638.009	198.25
638.215	183.25
638.421	180.25
638.626	191.25
638.832	186.25
639.037	189.25
639.243	166.25
639.448	177.25
639.654	190.25
639.859	174.25
640.065	177.25
640.27	181.25
640.475	170.25
640.681	168.25
640.886	173.25
641.091	178.25
641.297	179.25
641.502	175.25
641.707	165.25
641.913	171.25
642.118	182.25
642.323	181.25
642.528	178.25
642.733	161.25
642.939	179.25
643.144	173.25
643.349	165.25
643.554	161.25
643.759	163.25
643.964	169.25
644.169	177.25
644.374	174.25
644.579	182.25
644.784	155.25
644.989	151.25
645.194	172.25
645.399	171.25
645.604	165.25
645.809	182.25
646.014	179.25
646.219	189.25
646.423	170.25
646.628	158.25
646.833	185.25
647.038	173.25
647.243	174.25
647.447	171.25
647.652	173.25
647.857	194.25
648.062	197.25
648.266	174.25
648.471	183.25
648.676	182.25
648.88	186.25
649.085	195.25
649.289	181.25
649.494	196.25
649.698	181.25
649.903	169.25
650.107	169.25
650.312	172.25
650.516	169.25
650.721	167.25
650.925	161.25
651.13	166.25
651.334	172.25
651.539	163.25
651.743	158.25
651.947	172.25
652.152	179.25
652.356	155.25
652.56	155.25
652.764	143.25
652.969	140.25
653.173	152.25
653.377	151.25
653.581	150.25
653.785	165.25
653.99	157.25
654.194	159.25
654.398	142.25
654.602	140.25
654.806	144.25
655.01	141.25
655.214	149.25
655.418	146.25
655.622	138.25
655.826	146.25
656.03	145.25
656.234	149.25
656.438	153.25
656.642	148.25
656.846	151.25
657.049	130.25
657.253	145.25
657.457	124.25
657.661	129.25
657.865	126.25
658.068	118.25
658.272	110.25
658.476	108.25
658.68	117.25
658.883	114.25
659.087	121.25
659.291	108.25
659.494	99.25
659.698	85.25
659.901	82.25
660.105	101.25
660.309	101.25
660.512	103.25
660.716	90.25
660.919	104.25
661.123	92.25
661.326	104.25
661.53	92.25
661.733	88.25
661.936	106.25
662.14	84.25
662.343	85.25
662.546	77.25
662.75	75.25
662.953	100.25
663.156	80.25
663.36	89.25
663.563	86.25
663.766	85.25
663.969	80.25
664.173	83.25
664.376	89.25
664.579	84.25
664.782	90.25
664.985	89.25
665.188	96.25
665.391	68.25
665.594	90.25
665.797	71.25
666	87.25
666.203	77.25
666.406	88.25
666.609	71.25
666.812	84.25
667.015	87.25
667.218	86.25
667.421	74.25
667.624	89.25
667.827	84.25
668.03	70.25
668.232	91.25
668.435	92.25
668.638	87.25
668.841	90.25
669.043	83.25
669.246	90.25
669.449	85.25
669.651	78.25
669.854	85.25
670.057	76.25
670.259	82.25
670.462	78.25
670.665	76.25
670.867	93.25
671.07	87.25
671.272	87.25
671.475	78.25
671.677	83.25
671.88	78.25
672.082	68.25
672.284	93.25
672.487	77.25
672.689	87.25
672.892	85.25
