Data from Ni(NO3)2@0.0625M.TitratingCurve.Agarose3%dH2O.NegLispCup.LampEnergy10.LIBS07252019_HRD10591_18-15-10-569.txt Node
Date: Thu Jul 25 18:15:10 EDT 2019
User: cochatt
Spectrometer: HR+D1059
Trigger mode: 1
Integration Time (sec): 1.000000E-1
Scans to average: 1
Electric dark correction enabled: true
Nonlinearity correction enabled: false
Boxcar width: 0
XAxis mode: Wavelengths
Number of Pixels in Spectrum: 2048
>>>>>Begin Spectral Data<<<<<
223.165	-19.12
223.4	-19.12
223.635	-19.12
223.869	3.88
224.104	-22.12
224.338	-14.12
224.573	-3.12
224.808	-1.12
225.042	-2.12
225.277	-11.12
225.511	-6.12
225.746	-5.12
225.98	-14.12
226.215	22.88
226.449	11.88
226.683	15.88
226.918	16.88
227.152	26.88
227.387	32.88
227.621	28.88
227.856	47.88
228.09	39.88
228.324	57.88
228.559	58.88
228.793	60.88
229.027	104.88
229.262	107.88
229.496	116.88
229.73	116.88
229.964	115.88
230.199	108.88
230.433	117.88
230.667	124.88
230.901	120.88
231.136	131.88
231.37	127.88
231.604	135.88
231.838	143.88
232.072	134.88
232.306	126.88
232.541	146.88
232.775	127.88
233.009	144.88
233.243	138.88
233.477	138.88
233.711	140.88
233.945	140.88
234.179	138.88
234.413	129.88
234.647	140.88
234.881	150.88
235.115	142.88
235.349	151.88
235.583	136.88
235.817	131.88
236.051	146.88
236.285	148.88
236.519	135.88
236.753	129.88
236.987	129.88
237.221	141.88
237.455	138.88
237.689	160.88
237.922	139.88
238.156	132.88
238.39	151.88
238.624	155.88
238.858	146.88
239.091	166.88
239.325	138.88
239.559	160.88
239.793	158.88
240.027	160.88
240.26	176.88
240.494	156.88
240.728	170.88
240.961	165.88
241.195	162.88
241.429	162.88
241.662	161.88
241.896	176.88
242.13	182.88
242.363	183.88
242.597	167.88
242.83	174.88
243.064	181.88
243.298	176.88
243.531	168.88
243.765	176.88
243.998	173.88
244.232	194.88
244.465	190.88
244.699	205.88
244.932	190.88
245.166	191.88
245.399	190.88
245.633	193.88
245.866	189.88
246.099	210.88
246.333	194.88
246.566	178.88
246.8	202.88
247.033	199.88
247.266	203.88
247.5	195.88
247.733	206.88
247.966	195.88
248.2	211.88
248.433	217.88
248.666	210.88
248.899	210.88
249.133	210.88
249.366	214.88
249.599	214.88
249.832	224.88
250.066	215.88
250.299	222.88
250.532	210.88
250.765	197.88
250.998	228.88
251.231	212.88
251.465	228.88
251.698	210.88
251.931	245.88
252.164	238.88
252.397	246.88
252.63	241.88
252.863	235.88
253.096	243.88
253.329	232.88
253.562	236.88
253.795	247.88
254.028	243.88
254.261	232.88
254.494	240.88
254.727	238.88
254.96	235.88
255.193	232.88
255.426	259.88
255.659	240.88
255.892	263.88
256.124	256.88
256.357	247.88
256.59	280.88
256.823	271.88
257.056	254.88
257.289	270.88
257.521	276.88
257.754	255.88
257.987	257.88
258.22	273.88
258.452	263.88
258.685	260.88
258.918	264.88
259.151	263.88
259.383	265.88
259.616	285.88
259.849	281.88
260.081	288.88
260.314	260.88
260.547	273.88
260.779	271.88
261.012	288.88
261.244	271.88
261.477	303.88
261.71	262.88
261.942	277.88
262.175	292.88
262.407	291.88
262.64	275.88
262.872	296.88
263.105	305.88
263.337	264.88
263.57	305.88
263.802	294.88
264.035	287.88
264.267	283.88
264.499	292.88
264.732	296.88
264.964	314.88
265.197	302.88
265.429	315.88
265.661	288.88
265.894	296.88
266.126	326.88
266.358	301.88
266.591	307.88
266.823	331.88
267.055	298.88
267.287	318.88
267.52	298.88
267.752	312.88
267.984	331.88
268.216	326.88
268.448	328.88
268.681	309.88
268.913	311.88
269.145	311.88
269.377	331.88
269.609	335.88
269.841	328.88
270.073	332.88
270.306	310.88
270.538	322.88
270.77	327.88
271.002	327.88
271.234	316.88
271.466	322.88
271.698	347.88
271.93	343.88
272.162	339.88
272.394	344.88
272.626	336.88
272.858	337.88
273.09	334.88
273.322	342.88
273.553	342.88
273.785	338.88
274.017	343.88
274.249	366.88
274.481	361.88
274.713	354.88
274.945	361.88
275.176	337.88
275.408	351.88
275.64	349.88
275.872	348.88
276.104	342.88
276.335	356.88
276.567	359.88
276.799	356.88
277.031	361.88
277.262	375.88
277.494	368.88
277.726	383.88
277.957	385.88
278.189	359.88
278.421	379.88
278.652	369.88
278.884	357.88
279.115	366.88
279.347	377.88
279.579	384.88
279.81	383.88
280.042	375.88
280.273	386.88
280.505	377.88
280.736	409.88
280.968	379.88
281.199	381.88
281.431	404.88
281.662	399.88
281.894	403.88
282.125	410.88
282.356	391.88
282.588	394.88
282.819	404.88
283.051	405.88
283.282	411.88
283.513	403.88
283.745	428.88
283.976	407.88
284.207	419.88
284.439	426.88
284.67	432.88
284.901	428.88
285.132	422.88
285.364	400.88
285.595	425.88
285.826	404.88
286.057	414.88
286.288	419.88
286.52	429.88
286.751	435.88
286.982	442.88
287.213	442.88
287.444	416.88
287.675	429.88
287.906	447.88
288.138	434.88
288.369	441.88
288.6	448.88
288.831	450.88
289.062	448.88
289.293	452.88
289.524	472.88
289.755	455.88
289.986	449.88
290.217	446.88
290.448	452.88
290.679	427.88
290.91	441.88
291.141	422.88
291.371	464.88
291.602	454.88
291.833	426.88
292.064	450.88
292.295	454.88
292.526	466.88
292.757	440.88
292.987	454.88
293.218	456.88
293.449	455.88
293.68	455.88
293.91	445.88
294.141	439.88
294.372	459.88
294.603	450.88
294.833	468.88
295.064	470.88
295.295	464.88
295.525	464.88
295.756	482.88
295.987	458.88
296.217	476.88
296.448	484.88
296.679	474.88
296.909	481.88
297.14	478.88
297.37	495.88
297.601	490.88
297.831	470.88
298.062	486.88
298.292	514.88
298.523	531.88
298.753	510.88
298.984	493.88
299.214	486.88
299.445	508.88
299.675	524.88
299.905	501.88
300.136	479.88
300.366	496.88
300.597	495.88
300.827	519.88
301.057	529.88
301.288	520.88
301.518	523.88
301.748	521.88
301.979	530.88
302.209	512.88
302.439	535.88
302.669	503.88
302.9	529.88
303.13	522.88
303.36	498.88
303.59	524.88
303.82	500.88
304.051	511.88
304.281	537.88
304.511	504.88
304.741	519.88
304.971	533.88
305.201	517.88
305.431	510.88
305.661	520.88
305.891	501.88
306.121	513.88
306.352	529.88
306.582	520.88
306.812	488.88
307.042	511.88
307.272	521.88
307.502	507.88
307.731	512.88
307.961	507.88
308.191	491.88
308.421	500.88
308.651	499.88
308.881	493.88
309.111	490.88
309.341	486.88
309.571	516.88
309.8	511.88
310.03	502.88
310.26	491.88
310.49	510.88
310.72	498.88
310.949	505.88
311.179	506.88
311.409	538.88
311.639	512.88
311.868	519.88
312.098	521.88
312.328	507.88
312.557	527.88
312.787	517.88
313.017	528.88
313.246	544.88
313.476	551.88
313.706	539.88
313.935	560.88
314.165	525.88
314.394	533.88
314.624	533.88
314.853	551.88
315.083	524.88
315.312	518.88
315.542	528.88
315.771	530.88
316.001	536.88
316.23	533.88
316.46	498.88
316.689	519.88
316.919	525.88
317.148	534.88
317.377	525.88
317.607	534.88
317.836	539.88
318.065	520.88
318.295	517.88
318.524	511.88
318.753	529.88
318.983	525.88
319.212	530.88
319.441	529.88
319.67	518.88
319.9	522.88
320.129	514.88
320.358	530.88
320.587	536.88
320.816	526.88
321.046	533.88
321.275	537.88
321.504	520.88
321.733	534.88
321.962	535.88
322.191	551.88
322.42	550.88
322.649	527.88
322.878	536.88
323.108	531.88
323.337	539.88
323.566	546.88
323.795	559.88
324.024	546.88
324.253	566.88
324.482	555.88
324.71	533.88
324.939	541.88
325.168	551.88
325.397	555.88
325.626	568.88
325.855	555.88
326.084	572.88
326.313	584.88
326.542	607.88
326.77	600.88
326.999	571.88
327.228	568.88
327.457	575.88
327.686	582.88
327.914	595.88
328.143	575.88
328.372	597.88
328.6	587.88
328.829	576.88
329.058	558.88
329.287	576.88
329.515	594.88
329.744	602.88
329.972	594.88
330.201	598.88
330.43	600.88
330.658	568.88
330.887	581.88
331.115	627.88
331.344	617.88
331.572	619.88
331.801	631.88
332.03	642.88
332.258	639.88
332.486	651.88
332.715	680.88
332.943	739.88
333.172	766.88
333.4	768.88
333.629	786.88
333.857	802.88
334.085	773.88
334.314	768.88
334.542	757.88
334.771	727.88
334.999	709.88
335.227	723.88
335.455	722.88
335.684	713.88
335.912	688.88
336.14	712.88
336.369	701.88
336.597	705.88
336.825	715.88
337.053	704.88
337.281	717.88
337.51	640.88
337.738	643.88
337.966	650.88
338.194	667.88
338.422	646.88
338.65	644.88
338.878	630.88
339.106	622.88
339.334	653.88
339.562	636.88
339.79	629.88
340.018	610.88
340.246	595.88
340.474	629.88
340.702	609.88
340.93	589.88
341.158	619.88
341.386	624.88
341.614	599.88
341.842	609.88
342.07	586.88
342.298	594.88
342.526	587.88
342.754	601.88
342.981	615.88
343.209	618.88
343.437	672.88
343.665	675.88
343.893	745.88
344.12	778.88
344.348	738.88
344.576	700.88
344.804	661.88
345.031	640.88
345.259	627.88
345.487	619.88
345.714	617.88
345.942	604.88
346.17	602.88
346.397	596.88
346.625	589.88
346.853	585.88
347.08	597.88
347.308	591.88
347.535	617.88
347.763	612.88
347.99	604.88
348.218	614.88
348.445	626.88
348.673	599.88
348.9	614.88
349.128	578.88
349.355	604.88
349.583	576.88
349.81	580.88
350.037	566.88
350.265	562.88
350.492	591.88
350.72	586.88
350.947	564.88
351.174	576.88
351.402	568.88
351.629	570.88
351.856	597.88
352.083	586.88
352.311	586.88
352.538	583.88
352.765	584.88
352.992	565.88
353.22	535.88
353.447	579.88
353.674	558.88
353.901	555.88
354.128	564.88
354.355	549.88
354.583	582.88
354.81	580.88
355.037	578.88
355.264	576.88
355.491	568.88
355.718	584.88
355.945	560.88
356.172	572.88
356.399	565.88
356.626	594.88
356.853	566.88
357.08	579.88
357.307	576.88
357.534	598.88
357.761	583.88
357.988	612.88
358.215	575.88
358.441	580.88
358.668	554.88
358.895	579.88
359.122	551.88
359.349	579.88
359.576	568.88
359.802	571.88
360.029	551.88
360.256	586.88
360.483	551.88
360.709	565.88
360.936	562.88
361.163	590.88
361.39	577.88
361.616	578.88
361.843	576.88
362.07	585.88
362.296	564.88
362.523	544.88
362.749	589.88
362.976	567.88
363.203	543.88
363.429	563.88
363.656	574.88
363.882	578.88
364.109	582.88
364.335	549.88
364.562	558.88
364.788	570.88
365.015	567.88
365.241	581.88
365.468	568.88
365.694	578.88
365.92	559.88
366.147	566.88
366.373	574.88
366.599	561.88
366.826	583.88
367.052	571.88
367.278	577.88
367.505	584.88
367.731	583.88
367.957	555.88
368.184	555.88
368.41	575.88
368.636	595.88
368.862	601.88
369.089	597.88
369.315	584.88
369.541	602.88
369.767	595.88
369.993	593.88
370.219	599.88
370.445	599.88
370.672	590.88
370.898	610.88
371.124	617.88
371.35	626.88
371.576	634.88
371.802	620.88
372.028	623.88
372.254	622.88
372.48	624.88
372.706	641.88
372.932	656.88
373.158	643.88
373.384	634.88
373.61	630.88
373.835	634.88
374.061	620.88
374.287	629.88
374.513	635.88
374.739	642.88
374.965	704.88
375.191	713.88
375.416	709.88
375.642	678.88
375.868	679.88
376.094	635.88
376.319	662.88
376.545	629.88
376.771	630.88
376.997	639.88
377.222	610.88
377.448	615.88
377.674	625.88
377.899	599.88
378.125	630.88
378.35	601.88
378.576	580.88
378.802	617.88
379.027	622.88
379.253	611.88
379.478	626.88
379.704	615.88
379.929	602.88
380.155	638.88
380.38	594.88
380.606	616.88
380.831	619.88
381.057	610.88
381.282	635.88
381.507	634.88
381.733	623.88
381.958	640.88
382.184	642.88
382.409	636.88
382.634	642.88
382.86	643.88
383.085	647.88
383.31	671.88
383.535	674.88
383.761	697.88
383.986	702.88
384.211	725.88
384.436	755.88
384.662	738.88
384.887	756.88
385.112	755.88
385.337	742.88
385.562	747.88
385.787	754.88
386.013	756.88
386.238	735.88
386.463	731.88
386.688	775.88
386.913	723.88
387.138	734.88
387.363	739.88
387.588	731.88
387.813	740.88
388.038	705.88
388.263	731.88
388.488	744.88
388.713	750.88
388.938	718.88
389.163	727.88
389.387	724.88
389.612	720.88
389.837	723.88
390.062	723.88
390.287	732.88
390.512	716.88
390.736	731.88
390.961	747.88
391.186	788.88
391.411	774.88
391.636	804.88
391.86	818.88
392.085	854.88
392.31	848.88
392.534	826.88
392.759	800.88
392.984	757.88
393.208	787.88
393.433	797.88
393.658	766.88
393.882	794.88
394.107	802.88
394.331	806.88
394.556	790.88
394.78	814.88
395.005	795.88
395.229	772.88
395.454	798.88
395.678	849.88
395.903	856.88
396.127	823.88
396.352	814.88
396.576	772.88
396.801	776.88
397.025	781.88
397.249	777.88
397.474	811.88
397.698	807.88
397.922	840.88
398.147	858.88
398.371	825.88
398.595	868.88
398.82	897.88
399.044	922.88
399.268	1063.88
399.492	1259.88
399.717	1442.88
399.941	1430.88
400.165	1255.88
400.389	1088.88
400.613	1039.88
400.837	975.88
401.062	915.88
401.286	895.88
401.51	930.88
401.734	904.88
401.958	928.88
402.182	958.88
402.406	932.88
402.63	976.88
402.854	971.88
403.078	1001.88
403.302	1030.88
403.526	1032.88
403.75	1089.88
403.974	1100.88
404.198	1125.88
404.422	1123.88
404.645	1093.88
404.869	1094.88
405.093	1056.88
405.317	1021.88
405.541	1037.88
405.765	1033.88
405.988	1020.88
406.212	1031.88
406.436	1020.88
406.66	1010.88
406.883	1060.88
407.107	1124.88
407.331	1172.88
407.555	1234.88
407.778	1208.88
408.002	1192.88
408.226	1159.88
408.449	1123.88
408.673	1097.88
408.896	1060.88
409.12	1062.88
409.344	1054.88
409.567	1036.88
409.791	1086.88
410.014	1076.88
410.238	1072.88
410.461	1058.88
410.685	1026.88
410.908	1022.88
411.132	993.88
411.355	976.88
411.578	950.88
411.802	971.88
412.025	969.88
412.249	975.88
412.472	972.88
412.695	944.88
412.919	936.88
413.142	917.88
413.365	921.88
413.589	916.88
413.812	900.88
414.035	900.88
414.258	933.88
414.482	942.88
414.705	947.88
414.928	969.88
415.151	926.88
415.374	956.88
415.597	932.88
415.821	914.88
416.044	900.88
416.267	907.88
416.49	900.88
416.713	888.88
416.936	921.88
417.159	905.88
417.382	928.88
417.605	931.88
417.828	907.88
418.051	925.88
418.274	919.88
418.497	904.88
418.72	953.88
418.943	944.88
419.166	1015.88
419.389	1059.88
419.611	1059.88
419.834	984.88
420.057	982.88
420.28	930.88
420.503	913.88
420.726	912.88
420.948	905.88
421.171	909.88
421.394	890.88
421.617	911.88
421.839	947.88
422.062	918.88
422.285	903.88
422.507	940.88
422.73	929.88
422.953	913.88
423.175	960.88
423.398	1009.88
423.621	978.88
423.843	1002.88
424.066	1033.88
424.288	993.88
424.511	988.88
424.733	985.88
424.956	968.88
425.178	942.88
425.401	932.88
425.623	919.88
425.846	893.88
426.068	907.88
426.291	866.88
426.513	902.88
426.735	857.88
426.958	876.88
427.18	854.88
427.402	846.88
427.625	838.88
427.847	807.88
428.069	834.88
428.292	828.88
428.514	794.88
428.736	822.88
428.958	849.88
429.181	805.88
429.403	775.88
429.625	811.88
429.847	788.88
430.069	798.88
430.292	772.88
430.514	779.88
430.736	778.88
430.958	812.88
431.18	802.88
431.402	795.88
431.624	801.88
431.846	857.88
432.068	852.88
432.29	839.88
432.512	818.88
432.734	829.88
432.956	801.88
433.178	852.88
433.4	804.88
433.622	828.88
433.844	818.88
434.066	842.88
434.287	852.88
434.509	878.88
434.731	884.88
434.953	936.88
435.175	962.88
435.397	924.88
435.618	881.88
435.84	880.88
436.062	861.88
436.284	810.88
436.505	792.88
436.727	830.88
436.949	838.88
437.17	862.88
437.392	798.88
437.614	832.88
437.835	783.88
438.057	812.88
438.278	808.88
438.5	800.88
438.721	793.88
438.943	808.88
439.165	809.88
439.386	839.88
439.608	827.88
439.829	827.88
440.05	841.88
440.272	815.88
440.493	839.88
440.715	824.88
440.936	850.88
441.158	860.88
441.379	873.88
441.6	945.88
441.822	939.88
442.043	957.88
442.264	911.88
442.486	928.88
442.707	903.88
442.928	907.88
443.149	936.88
443.371	911.88
443.592	929.88
443.813	932.88
444.034	938.88
444.255	978.88
444.476	1004.88
444.698	1087.88
444.919	1116.88
445.14	1199.88
445.361	1049.88
445.582	983.88
445.803	897.88
446.024	865.88
446.245	848.88
446.466	847.88
446.687	836.88
446.908	839.88
447.129	856.88
447.35	795.88
447.571	803.88
447.792	794.88
448.013	774.88
448.234	764.88
448.455	760.88
448.675	754.88
448.896	773.88
449.117	767.88
449.338	746.88
449.559	741.88
449.779	748.88
450	777.88
450.221	745.88
450.442	771.88
450.662	779.88
450.883	777.88
451.104	788.88
451.324	820.88
451.545	799.88
451.766	773.88
451.986	763.88
452.207	776.88
452.428	774.88
452.648	786.88
452.869	758.88
453.089	750.88
453.31	789.88
453.53	751.88
453.751	742.88
453.971	722.88
454.192	734.88
454.412	742.88
454.633	715.88
454.853	708.88
455.073	720.88
455.294	711.88
455.514	723.88
455.734	730.88
455.955	714.88
456.175	724.88
456.395	722.88
456.616	712.88
456.836	731.88
457.056	707.88
457.276	686.88
457.497	730.88
457.717	706.88
457.937	745.88
458.157	726.88
458.377	747.88
458.598	757.88
458.818	741.88
459.038	770.88
459.258	818.88
459.478	855.88
459.698	883.88
459.918	897.88
460.138	930.88
460.358	964.88
460.578	1011.88
460.798	1022.88
461.018	1002.88
461.238	985.88
461.458	985.88
461.678	975.88
461.898	991.88
462.118	971.88
462.338	1047.88
462.558	1036.88
462.777	1106.88
462.997	1202.88
463.217	1338.88
463.437	1401.88
463.657	1226.88
463.876	1152.88
464.096	1141.88
464.316	1170.88
464.536	1165.88
464.755	1120.88
464.975	1104.88
465.195	1009.88
465.414	976.88
465.634	904.88
465.854	858.88
466.073	842.88
466.293	836.88
466.512	815.88
466.732	816.88
466.951	800.88
467.171	811.88
467.391	796.88
467.61	811.88
467.829	819.88
468.049	816.88
468.268	784.88
468.488	762.88
468.707	752.88
468.927	747.88
469.146	770.88
469.365	790.88
469.585	757.88
469.804	788.88
470.023	822.88
470.243	831.88
470.462	826.88
470.681	846.88
470.901	824.88
471.12	811.88
471.339	805.88
471.558	812.88
471.777	779.88
471.997	752.88
472.216	750.88
472.435	747.88
472.654	764.88
472.873	729.88
473.092	735.88
473.311	755.88
473.53	738.88
473.749	726.88
473.968	720.88
474.187	730.88
474.406	741.88
474.625	766.88
474.844	753.88
475.063	733.88
475.282	752.88
475.501	754.88
475.72	774.88
475.939	768.88
476.158	774.88
476.377	772.88
476.596	754.88
476.814	785.88
477.033	770.88
477.252	801.88
477.471	800.88
477.69	851.88
477.908	840.88
478.127	882.88
478.346	866.88
478.564	900.88
478.783	924.88
479.002	940.88
479.22	933.88
479.439	938.88
479.658	919.88
479.876	956.88
480.095	936.88
480.313	974.88
480.532	1008.88
480.751	1013.88
480.969	970.88
481.188	936.88
481.406	884.88
481.624	858.88
481.843	875.88
482.061	871.88
482.28	853.88
482.498	863.88
482.717	846.88
482.935	874.88
483.153	870.88
483.372	875.88
483.59	873.88
483.808	863.88
484.027	879.88
484.245	890.88
484.463	878.88
484.681	893.88
484.9	889.88
485.118	914.88
485.336	914.88
485.554	908.88
485.772	914.88
485.99	920.88
486.209	932.88
486.427	937.88
486.645	919.88
486.863	924.88
487.081	902.88
487.299	914.88
487.517	909.88
487.735	927.88
487.953	899.88
488.171	904.88
488.389	898.88
488.607	867.88
488.825	859.88
489.043	885.88
489.261	912.88
489.479	884.88
489.696	909.88
489.914	902.88
490.132	908.88
490.35	917.88
490.568	908.88
490.786	889.88
491.003	927.88
491.221	899.88
491.439	915.88
491.657	885.88
491.874	931.88
492.092	920.88
492.31	891.88
492.527	903.88
492.745	939.88
492.963	939.88
493.18	919.88
493.398	912.88
493.615	929.88
493.833	963.88
494.05	939.88
494.268	951.88
494.485	944.88
494.703	959.88
494.92	961.88
495.138	917.88
495.355	958.88
495.573	930.88
495.79	937.88
496.008	951.88
496.225	960.88
496.442	961.88
496.66	961.88
496.877	964.88
497.094	1012.88
497.312	998.88
497.529	1028.88
497.746	1030.88
497.963	1089.88
498.181	1116.88
498.398	1138.88
498.615	1210.88
498.832	1329.88
499.049	1431.88
499.267	1534.88
499.484	1713.88
499.701	1898.88
499.918	2106.88
500.135	2421.88
500.352	2820.88
500.569	2977.88
500.786	2945.88
501.003	2698.88
501.22	2416.88
501.437	2080.88
501.654	1790.88
501.871	1644.88
502.088	1487.88
502.305	1416.88
502.522	1326.88
502.739	1284.88
502.956	1214.88
503.172	1172.88
503.389	1096.88
503.606	1079.88
503.823	1054.88
504.04	1048.88
504.256	1080.88
504.473	1115.88
504.69	1152.88
504.907	1123.88
505.123	1054.88
505.34	971.88
505.557	955.88
505.773	908.88
505.99	917.88
506.207	880.88
506.423	878.88
506.64	851.88
506.856	849.88
507.073	842.88
507.289	814.88
507.506	847.88
507.722	833.88
507.939	814.88
508.155	828.88
508.372	793.88
508.588	806.88
508.805	806.88
509.021	794.88
509.238	780.88
509.454	759.88
509.67	785.88
509.887	824.88
510.103	780.88
510.319	747.88
510.536	758.88
510.752	745.88
510.968	764.88
511.184	748.88
511.401	773.88
511.617	781.88
511.833	797.88
512.049	776.88
512.265	782.88
512.481	787.88
512.698	769.88
512.914	771.88
513.13	767.88
513.346	756.88
513.562	743.88
513.778	767.88
513.994	759.88
514.21	790.88
514.426	783.88
514.642	778.88
514.858	791.88
515.074	775.88
515.29	790.88
515.506	760.88
515.721	796.88
515.937	803.88
516.153	851.88
516.369	839.88
516.585	871.88
516.801	894.88
517.016	940.88
517.232	1007.88
517.448	1040.88
517.664	1068.88
517.879	1100.88
518.095	1123.88
518.311	1070.88
518.527	981.88
518.742	980.88
518.958	946.88
519.173	918.88
519.389	862.88
519.605	810.88
519.82	831.88
520.036	808.88
520.251	814.88
520.467	760.88
520.682	766.88
520.898	788.88
521.113	784.88
521.329	768.88
521.544	756.88
521.76	759.88
521.975	732.88
522.19	727.88
522.406	737.88
522.621	729.88
522.836	722.88
523.052	723.88
523.267	723.88
523.482	712.88
523.698	718.88
523.913	701.88
524.128	713.88
524.343	699.88
524.559	698.88
524.774	703.88
524.989	695.88
525.204	710.88
525.419	711.88
525.634	681.88
525.849	708.88
526.064	681.88
526.28	715.88
526.495	697.88
526.71	662.88
526.925	686.88
527.14	700.88
527.355	711.88
527.57	690.88
527.785	698.88
527.999	689.88
528.214	697.88
528.429	725.88
528.644	721.88
528.859	707.88
529.074	717.88
529.289	717.88
529.503	695.88
529.718	734.88
529.933	706.88
530.148	696.88
530.363	693.88
530.577	708.88
530.792	692.88
531.007	678.88
531.221	707.88
531.436	709.88
531.651	724.88
531.865	690.88
532.08	687.88
532.295	711.88
532.509	683.88
532.724	684.88
532.938	715.88
533.153	707.88
533.367	696.88
533.582	713.88
533.796	680.88
534.011	710.88
534.225	689.88
534.44	687.88
534.654	673.88
534.868	663.88
535.083	665.88
535.297	687.88
535.511	675.88
535.726	683.88
535.94	665.88
536.154	686.88
536.369	672.88
536.583	662.88
536.797	664.88
537.011	638.88
537.225	646.88
537.44	648.88
537.654	634.88
537.868	651.88
538.082	660.88
538.296	643.88
538.51	657.88
538.724	638.88
538.938	635.88
539.153	623.88
539.367	613.88
539.581	619.88
539.795	627.88
540.009	608.88
540.222	634.88
540.436	630.88
540.65	629.88
540.864	616.88
541.078	625.88
541.292	647.88
541.506	630.88
541.72	632.88
541.934	627.88
542.147	639.88
542.361	619.88
542.575	607.88
542.789	616.88
543.002	624.88
543.216	625.88
543.43	624.88
543.644	591.88
543.857	595.88
544.071	630.88
544.285	620.88
544.498	604.88
544.712	596.88
544.925	633.88
545.139	644.88
545.352	664.88
545.566	659.88
545.779	652.88
545.993	639.88
546.206	627.88
546.42	642.88
546.633	640.88
546.847	647.88
547.06	632.88
547.274	620.88
547.487	635.88
547.7	635.88
547.914	629.88
548.127	650.88
548.34	640.88
548.554	641.88
548.767	638.88
548.98	639.88
549.193	619.88
549.407	635.88
549.62	662.88
549.833	694.88
550.046	636.88
550.259	644.88
550.473	639.88
550.686	623.88
550.899	624.88
551.112	622.88
551.325	602.88
551.538	603.88
551.751	615.88
551.964	631.88
552.177	620.88
552.39	622.88
552.603	638.88
552.816	677.88
553.029	690.88
553.242	670.88
553.455	707.88
553.667	713.88
553.88	695.88
554.093	674.88
554.306	668.88
554.519	642.88
554.732	645.88
554.944	643.88
555.157	616.88
555.37	620.88
555.583	581.88
555.795	581.88
556.008	591.88
556.221	572.88
556.433	555.88
556.646	555.88
556.859	561.88
557.071	546.88
557.284	536.88
557.496	548.88
557.709	536.88
557.921	556.88
558.134	538.88
558.346	547.88
558.559	557.88
558.771	539.88
558.984	524.88
559.196	532.88
559.409	539.88
559.621	538.88
559.833	514.88
560.046	524.88
560.258	538.88
560.47	524.88
560.683	537.88
560.895	514.88
561.107	511.88
561.32	518.88
561.532	507.88
561.744	522.88
561.956	531.88
562.168	537.88
562.381	505.88
562.593	547.88
562.805	532.88
563.017	536.88
563.229	553.88
563.441	519.88
563.653	530.88
563.865	532.88
564.077	539.88
564.289	532.88
564.501	561.88
564.713	544.88
564.925	560.88
565.137	603.88
565.349	592.88
565.561	594.88
565.773	622.88
565.985	634.88
566.197	670.88
566.408	727.88
566.62	776.88
566.832	866.88
567.044	854.88
567.255	885.88
567.467	893.88
567.679	970.88
567.891	1017.88
568.102	1082.88
568.314	1010.88
568.526	888.88
568.737	807.88
568.949	730.88
569.161	676.88
569.372	630.88
569.584	597.88
569.795	563.88
570.007	580.88
570.218	561.88
570.43	560.88
570.641	569.88
570.853	550.88
571.064	565.88
571.276	564.88
571.487	534.88
571.698	544.88
571.91	504.88
572.121	490.88
572.333	456.88
572.544	468.88
572.755	474.88
572.966	457.88
573.178	464.88
573.389	445.88
573.6	426.88
573.811	456.88
574.023	450.88
574.234	441.88
574.445	440.88
574.656	443.88
574.867	430.88
575.078	435.88
575.289	454.88
575.501	420.88
575.712	446.88
575.923	447.88
576.134	423.88
576.345	427.88
576.556	421.88
576.767	407.88
576.978	410.88
577.188	441.88
577.399	401.88
577.61	401.88
577.821	410.88
578.032	410.88
578.243	412.88
578.454	400.88
578.665	391.88
578.875	382.88
579.086	386.88
579.297	392.88
579.508	420.88
579.718	396.88
579.929	380.88
580.14	400.88
580.35	396.88
580.561	384.88
580.772	377.88
580.982	375.88
581.193	382.88
581.403	386.88
581.614	398.88
581.825	400.88
582.035	382.88
582.246	366.88
582.456	367.88
582.667	393.88
582.877	359.88
583.087	394.88
583.298	384.88
583.508	365.88
583.719	372.88
583.929	385.88
584.139	388.88
584.35	357.88
584.56	365.88
584.77	386.88
584.981	361.88
585.191	357.88
585.401	371.88
585.611	366.88
585.821	373.88
586.032	349.88
586.242	364.88
586.452	359.88
586.662	372.88
586.872	358.88
587.082	370.88
587.292	348.88
587.502	371.88
587.713	361.88
587.923	355.88
588.133	367.88
588.343	368.88
588.553	360.88
588.762	357.88
588.972	344.88
589.182	359.88
589.392	346.88
589.602	368.88
589.812	355.88
590.022	355.88
590.232	348.88
590.441	354.88
590.651	347.88
590.861	359.88
591.071	358.88
591.281	362.88
591.49	382.88
591.7	388.88
591.91	400.88
592.119	387.88
592.329	388.88
592.539	393.88
592.748	424.88
592.958	424.88
593.167	434.88
593.377	458.88
593.587	465.88
593.796	452.88
594.006	444.88
594.215	461.88
594.424	476.88
594.634	458.88
594.843	451.88
595.053	433.88
595.262	401.88
595.472	381.88
595.681	382.88
595.89	378.88
596.1	373.88
596.309	357.88
596.518	348.88
596.727	340.88
596.937	354.88
597.146	336.88
597.355	324.88
597.564	341.88
597.774	327.88
597.983	318.88
598.192	322.88
598.401	333.88
598.61	332.88
598.819	313.88
599.028	304.88
599.237	310.88
599.446	313.88
599.655	313.88
599.864	321.88
600.073	305.88
600.282	310.88
600.491	316.88
600.7	286.88
600.909	304.88
601.118	288.88
601.327	294.88
601.536	286.88
601.745	298.88
601.953	292.88
602.162	309.88
602.371	299.88
602.58	304.88
602.789	298.88
602.997	309.88
603.206	297.88
603.415	297.88
603.623	295.88
603.832	292.88
604.041	270.88
604.249	298.88
604.458	295.88
604.666	278.88
604.875	292.88
605.084	286.88
605.292	273.88
605.501	274.88
605.709	276.88
605.918	283.88
606.126	296.88
606.334	278.88
606.543	288.88
606.751	279.88
606.96	275.88
607.168	261.88
607.376	278.88
607.585	274.88
607.793	289.88
608.001	285.88
608.21	269.88
608.418	274.88
608.626	280.88
608.834	278.88
609.043	270.88
609.251	259.88
609.459	246.88
609.667	288.88
609.875	280.88
610.083	262.88
610.291	253.88
610.499	272.88
610.707	287.88
610.916	276.88
611.124	262.88
611.332	256.88
611.54	273.88
611.748	251.88
611.955	273.88
612.163	255.88
612.371	271.88
612.579	257.88
612.787	247.88
612.995	255.88
613.203	278.88
613.411	256.88
613.618	259.88
613.826	264.88
614.034	276.88
614.242	255.88
614.449	258.88
614.657	266.88
614.865	256.88
615.072	258.88
615.28	254.88
615.488	251.88
615.695	268.88
615.903	260.88
616.111	267.88
616.318	275.88
616.526	263.88
616.733	270.88
616.941	274.88
617.148	271.88
617.356	275.88
617.563	268.88
617.771	276.88
617.978	280.88
618.185	264.88
618.393	254.88
618.6	275.88
618.807	242.88
619.015	265.88
619.222	238.88
619.429	271.88
619.637	263.88
619.844	248.88
620.051	259.88
620.258	251.88
620.466	247.88
620.673	228.88
620.88	250.88
621.087	242.88
621.294	255.88
621.501	242.88
621.708	240.88
621.915	244.88
622.122	252.88
622.329	241.88
622.536	238.88
622.743	218.88
622.95	222.88
623.157	228.88
623.364	236.88
623.571	235.88
623.778	226.88
623.985	244.88
624.192	227.88
624.399	242.88
624.606	228.88
624.812	238.88
625.019	215.88
625.226	233.88
625.433	226.88
625.639	220.88
625.846	219.88
626.053	229.88
626.259	228.88
626.466	236.88
626.673	219.88
626.879	217.88
627.086	224.88
627.293	229.88
627.499	231.88
627.706	224.88
627.912	217.88
628.119	213.88
628.325	220.88
628.532	232.88
628.738	214.88
628.945	228.88
629.151	215.88
629.357	227.88
629.564	207.88
629.77	207.88
629.976	217.88
630.183	222.88
630.389	213.88
630.595	208.88
630.802	208.88
631.008	216.88
631.214	210.88
631.42	203.88
631.627	209.88
631.833	206.88
632.039	207.88
632.245	209.88
632.451	219.88
632.657	189.88
632.863	190.88
633.069	191.88
633.275	200.88
633.481	207.88
633.688	200.88
633.893	199.88
634.099	182.88
634.305	190.88
634.511	191.88
634.717	192.88
634.923	179.88
635.129	205.88
635.335	201.88
635.541	190.88
635.747	218.88
635.952	202.88
636.158	196.88
636.364	205.88
636.57	187.88
636.775	182.88
636.981	191.88
637.187	194.88
637.392	206.88
637.598	175.88
637.804	182.88
638.009	205.88
638.215	206.88
638.421	199.88
638.626	186.88
638.832	199.88
639.037	196.88
639.243	191.88
639.448	183.88
639.654	191.88
639.859	172.88
640.065	194.88
640.27	181.88
640.475	180.88
640.681	171.88
640.886	182.88
641.091	186.88
641.297	191.88
641.502	177.88
641.707	175.88
641.913	188.88
642.118	179.88
642.323	162.88
642.528	167.88
642.733	165.88
642.939	175.88
643.144	184.88
643.349	170.88
643.554	170.88
643.759	193.88
643.964	161.88
644.169	159.88
644.374	178.88
644.579	172.88
644.784	182.88
644.989	168.88
645.194	194.88
645.399	169.88
645.604	184.88
645.809	172.88
646.014	165.88
646.219	192.88
646.423	178.88
646.628	164.88
646.833	186.88
647.038	179.88
647.243	171.88
647.447	190.88
647.652	168.88
647.857	173.88
648.062	178.88
648.266	187.88
648.471	194.88
648.676	197.88
648.88	186.88
649.085	183.88
649.289	178.88
649.494	172.88
649.698	169.88
649.903	178.88
650.107	170.88
650.312	170.88
650.516	179.88
650.721	164.88
650.925	155.88
651.13	174.88
651.334	146.88
651.539	165.88
651.743	142.88
651.947	162.88
652.152	165.88
652.356	158.88
652.56	154.88
652.764	135.88
652.969	158.88
653.173	149.88
653.377	147.88
653.581	154.88
653.785	155.88
653.99	146.88
654.194	131.88
654.398	137.88
654.602	133.88
654.806	144.88
655.01	158.88
655.214	127.88
655.418	136.88
655.622	151.88
655.826	142.88
656.03	150.88
656.234	136.88
656.438	115.88
656.642	140.88
656.846	149.88
657.049	135.88
657.253	149.88
657.457	124.88
657.661	122.88
657.865	117.88
658.068	126.88
658.272	112.88
658.476	116.88
658.68	110.88
658.883	105.88
659.087	107.88
659.291	107.88
659.494	107.88
659.698	89.88
659.901	91.88
660.105	99.88
660.309	87.88
660.512	90.88
660.716	88.88
660.919	101.88
661.123	85.88
661.326	92.88
661.53	90.88
661.733	101.88
661.936	90.88
662.14	89.88
662.343	74.88
662.546	83.88
662.75	94.88
662.953	72.88
663.156	82.88
663.36	79.88
663.563	76.88
663.766	85.88
663.969	90.88
664.173	80.88
664.376	71.88
664.579	88.88
664.782	81.88
664.985	70.88
665.188	74.88
665.391	74.88
665.594	71.88
665.797	70.88
666	82.88
666.203	83.88
666.406	77.88
666.609	73.88
666.812	76.88
667.015	66.88
667.218	92.88
667.421	82.88
667.624	78.88
667.827	82.88
668.03	80.88
668.232	87.88
668.435	85.88
668.638	82.88
668.841	79.88
669.043	68.88
669.246	69.88
669.449	70.88
669.651	89.88
669.854	71.88
670.057	76.88
670.259	77.88
670.462	57.88
670.665	82.88
670.867	74.88
671.07	63.88
671.272	73.88
671.475	85.88
671.677	72.88
671.88	87.88
672.082	62.88
672.284	63.88
672.487	79.88
672.689	80.88
672.892	84.88
