Data from Ni(NO3)2@0.5M.TitratingCurve.Agarose3%dH2O.NegLispCup.LampEnergy10.LIBS07252019_HRD10591_18-00-16-564.txt Node
Date: Thu Jul 25 18:00:16 EDT 2019
User: cochatt
Spectrometer: HR+D1059
Trigger mode: 1
Integration Time (sec): 1.000000E-1
Scans to average: 1
Electric dark correction enabled: true
Nonlinearity correction enabled: false
Boxcar width: 0
XAxis mode: Wavelengths
Number of Pixels in Spectrum: 2048
>>>>>Begin Spectral Data<<<<<
223.165	-7.31
223.4	-7.31
223.635	-7.31
223.869	-33.31
224.104	-18.31
224.338	-17.31
224.573	-17.31
224.808	-11.31
225.042	-12.31
225.277	-13.31
225.511	-6.31
225.746	3.69
225.98	9.69
226.215	16.69
226.449	22.69
226.683	21.69
226.918	29.69
227.152	32.69
227.387	43.69
227.621	38.69
227.856	27.69
228.09	45.69
228.324	44.69
228.559	52.69
228.793	71.69
229.027	97.69
229.262	117.69
229.496	99.69
229.73	107.69
229.964	123.69
230.199	131.69
230.433	142.69
230.667	129.69
230.901	141.69
231.136	124.69
231.37	136.69
231.604	127.69
231.838	129.69
232.072	129.69
232.306	138.69
232.541	139.69
232.775	127.69
233.009	133.69
233.243	132.69
233.477	135.69
233.711	138.69
233.945	139.69
234.179	134.69
234.413	156.69
234.647	131.69
234.881	139.69
235.115	133.69
235.349	135.69
235.583	133.69
235.817	123.69
236.051	113.69
236.285	137.69
236.519	135.69
236.753	121.69
236.987	129.69
237.221	124.69
237.455	122.69
237.689	138.69
237.922	164.69
238.156	131.69
238.39	144.69
238.624	129.69
238.858	129.69
239.091	156.69
239.325	156.69
239.559	153.69
239.793	130.69
240.027	160.69
240.26	141.69
240.494	147.69
240.728	155.69
240.961	144.69
241.195	160.69
241.429	166.69
241.662	158.69
241.896	175.69
242.13	160.69
242.363	164.69
242.597	166.69
242.83	151.69
243.064	157.69
243.298	161.69
243.531	149.69
243.765	162.69
243.998	165.69
244.232	191.69
244.465	158.69
244.699	170.69
244.932	179.69
245.166	170.69
245.399	170.69
245.633	166.69
245.866	168.69
246.099	158.69
246.333	174.69
246.566	174.69
246.8	181.69
247.033	177.69
247.266	180.69
247.5	178.69
247.733	180.69
247.966	191.69
248.2	175.69
248.433	182.69
248.666	181.69
248.899	175.69
249.133	202.69
249.366	207.69
249.599	211.69
249.832	204.69
250.066	198.69
250.299	204.69
250.532	218.69
250.765	222.69
250.998	202.69
251.231	213.69
251.465	219.69
251.698	228.69
251.931	200.69
252.164	217.69
252.397	222.69
252.63	220.69
252.863	209.69
253.096	224.69
253.329	214.69
253.562	223.69
253.795	211.69
254.028	233.69
254.261	221.69
254.494	213.69
254.727	248.69
254.96	215.69
255.193	221.69
255.426	225.69
255.659	222.69
255.892	242.69
256.124	246.69
256.357	228.69
256.59	221.69
256.823	228.69
257.056	237.69
257.289	224.69
257.521	251.69
257.754	231.69
257.987	240.69
258.22	250.69
258.452	252.69
258.685	235.69
258.918	237.69
259.151	248.69
259.383	245.69
259.616	251.69
259.849	241.69
260.081	246.69
260.314	243.69
260.547	251.69
260.779	241.69
261.012	261.69
261.244	254.69
261.477	253.69
261.71	275.69
261.942	261.69
262.175	266.69
262.407	261.69
262.64	255.69
262.872	257.69
263.105	263.69
263.337	285.69
263.57	278.69
263.802	260.69
264.035	266.69
264.267	271.69
264.499	285.69
264.732	269.69
264.964	289.69
265.197	267.69
265.429	287.69
265.661	287.69
265.894	273.69
266.126	289.69
266.358	292.69
266.591	304.69
266.823	286.69
267.055	282.69
267.287	279.69
267.52	311.69
267.752	297.69
267.984	302.69
268.216	290.69
268.448	302.69
268.681	310.69
268.913	311.69
269.145	298.69
269.377	299.69
269.609	317.69
269.841	312.69
270.073	290.69
270.306	309.69
270.538	309.69
270.77	308.69
271.002	311.69
271.234	316.69
271.466	308.69
271.698	306.69
271.93	301.69
272.162	326.69
272.394	302.69
272.626	312.69
272.858	311.69
273.09	338.69
273.322	301.69
273.553	313.69
273.785	321.69
274.017	314.69
274.249	315.69
274.481	330.69
274.713	318.69
274.945	316.69
275.176	317.69
275.408	321.69
275.64	320.69
275.872	340.69
276.104	322.69
276.335	340.69
276.567	334.69
276.799	336.69
277.031	333.69
277.262	356.69
277.494	333.69
277.726	330.69
277.957	361.69
278.189	335.69
278.421	351.69
278.652	339.69
278.884	331.69
279.115	350.69
279.347	344.69
279.579	347.69
279.81	345.69
280.042	348.69
280.273	349.69
280.505	350.69
280.736	350.69
280.968	364.69
281.199	347.69
281.431	375.69
281.662	357.69
281.894	381.69
282.125	381.69
282.356	395.69
282.588	390.69
282.819	378.69
283.051	376.69
283.282	359.69
283.513	356.69
283.745	376.69
283.976	364.69
284.207	366.69
284.439	369.69
284.67	382.69
284.901	385.69
285.132	387.69
285.364	369.69
285.595	384.69
285.826	367.69
286.057	383.69
286.288	376.69
286.52	382.69
286.751	403.69
286.982	398.69
287.213	397.69
287.444	398.69
287.675	399.69
287.906	379.69
288.138	413.69
288.369	393.69
288.6	418.69
288.831	426.69
289.062	379.69
289.293	413.69
289.524	374.69
289.755	403.69
289.986	391.69
290.217	397.69
290.448	392.69
290.679	405.69
290.91	411.69
291.141	405.69
291.371	417.69
291.602	407.69
291.833	406.69
292.064	425.69
292.295	403.69
292.526	391.69
292.757	408.69
292.987	405.69
293.218	383.69
293.449	415.69
293.68	418.69
293.91	411.69
294.141	405.69
294.372	410.69
294.603	427.69
294.833	417.69
295.064	418.69
295.295	391.69
295.525	410.69
295.756	408.69
295.987	418.69
296.217	402.69
296.448	425.69
296.679	407.69
296.909	439.69
297.14	419.69
297.37	441.69
297.601	439.69
297.831	455.69
298.062	453.69
298.292	439.69
298.523	474.69
298.753	454.69
298.984	448.69
299.214	451.69
299.445	451.69
299.675	433.69
299.905	448.69
300.136	454.69
300.366	450.69
300.597	479.69
300.827	485.69
301.057	486.69
301.288	474.69
301.518	464.69
301.748	461.69
301.979	449.69
302.209	457.69
302.439	447.69
302.669	474.69
302.9	477.69
303.13	464.69
303.36	475.69
303.59	487.69
303.82	467.69
304.051	484.69
304.281	459.69
304.511	484.69
304.741	472.69
304.971	469.69
305.201	487.69
305.431	478.69
305.661	488.69
305.891	490.69
306.121	479.69
306.352	494.69
306.582	460.69
306.812	452.69
307.042	478.69
307.272	471.69
307.502	469.69
307.731	452.69
307.961	457.69
308.191	453.69
308.421	446.69
308.651	469.69
308.881	469.69
309.111	460.69
309.341	476.69
309.571	493.69
309.8	474.69
310.03	467.69
310.26	494.69
310.49	499.69
310.72	486.69
310.949	472.69
311.179	479.69
311.409	486.69
311.639	491.69
311.868	495.69
312.098	508.69
312.328	487.69
312.557	511.69
312.787	493.69
313.017	475.69
313.246	521.69
313.476	509.69
313.706	511.69
313.935	509.69
314.165	493.69
314.394	520.69
314.624	482.69
314.853	505.69
315.083	492.69
315.312	509.69
315.542	509.69
315.771	505.69
316.001	502.69
316.23	518.69
316.46	509.69
316.689	498.69
316.919	483.69
317.148	493.69
317.377	523.69
317.607	528.69
317.836	490.69
318.065	477.69
318.295	509.69
318.524	497.69
318.753	523.69
318.983	527.69
319.212	513.69
319.441	492.69
319.67	520.69
319.9	528.69
320.129	518.69
320.358	525.69
320.587	513.69
320.816	531.69
321.046	518.69
321.275	522.69
321.504	498.69
321.733	489.69
321.962	517.69
322.191	507.69
322.42	565.69
322.649	506.69
322.878	548.69
323.108	509.69
323.337	551.69
323.566	542.69
323.795	541.69
324.024	541.69
324.253	573.69
324.482	535.69
324.71	548.69
324.939	569.69
325.168	539.69
325.397	554.69
325.626	543.69
325.855	533.69
326.084	541.69
326.313	552.69
326.542	577.69
326.77	576.69
326.999	554.69
327.228	565.69
327.457	593.69
327.686	571.69
327.914	565.69
328.143	571.69
328.372	554.69
328.6	558.69
328.829	568.69
329.058	580.69
329.287	576.69
329.515	569.69
329.744	579.69
329.972	579.69
330.201	584.69
330.43	600.69
330.658	591.69
330.887	592.69
331.115	589.69
331.344	597.69
331.572	606.69
331.801	622.69
332.03	642.69
332.258	620.69
332.486	620.69
332.715	620.69
332.943	656.69
333.172	653.69
333.4	683.69
333.629	709.69
333.857	699.69
334.085	709.69
334.314	707.69
334.542	733.69
334.771	717.69
334.999	694.69
335.227	700.69
335.455	712.69
335.684	701.69
335.912	695.69
336.14	682.69
336.369	708.69
336.597	717.69
336.825	673.69
337.053	685.69
337.281	699.69
337.51	654.69
337.738	665.69
337.966	627.69
338.194	671.69
338.422	659.69
338.65	627.69
338.878	654.69
339.106	654.69
339.334	640.69
339.562	634.69
339.79	629.69
340.018	616.69
340.246	617.69
340.474	640.69
340.702	614.69
340.93	604.69
341.158	625.69
341.386	659.69
341.614	636.69
341.842	639.69
342.07	611.69
342.298	613.69
342.526	632.69
342.754	609.69
342.981	625.69
343.209	618.69
343.437	641.69
343.665	674.69
343.893	687.69
344.12	709.69
344.348	687.69
344.576	667.69
344.804	682.69
345.031	649.69
345.259	621.69
345.487	641.69
345.714	628.69
345.942	617.69
346.17	641.69
346.397	639.69
346.625	599.69
346.853	577.69
347.08	628.69
347.308	615.69
347.535	604.69
347.763	620.69
347.99	587.69
348.218	573.69
348.445	595.69
348.673	582.69
348.9	605.69
349.128	620.69
349.355	626.69
349.583	602.69
349.81	574.69
350.037	576.69
350.265	593.69
350.492	576.69
350.72	567.69
350.947	610.69
351.174	613.69
351.402	620.69
351.629	638.69
351.856	616.69
352.083	600.69
352.311	586.69
352.538	617.69
352.765	608.69
352.992	579.69
353.22	576.69
353.447	572.69
353.674	575.69
353.901	579.69
354.128	555.69
354.355	604.69
354.583	552.69
354.81	566.69
355.037	572.69
355.264	583.69
355.491	582.69
355.718	567.69
355.945	578.69
356.172	583.69
356.399	580.69
356.626	585.69
356.853	596.69
357.08	591.69
357.307	604.69
357.534	603.69
357.761	571.69
357.988	574.69
358.215	559.69
358.441	586.69
358.668	593.69
358.895	574.69
359.122	583.69
359.349	563.69
359.576	587.69
359.802	580.69
360.029	577.69
360.256	583.69
360.483	559.69
360.709	551.69
360.936	597.69
361.163	612.69
361.39	585.69
361.616	576.69
361.843	589.69
362.07	635.69
362.296	611.69
362.523	593.69
362.749	585.69
362.976	566.69
363.203	581.69
363.429	585.69
363.656	589.69
363.882	577.69
364.109	569.69
364.335	576.69
364.562	573.69
364.788	552.69
365.015	581.69
365.241	593.69
365.468	577.69
365.694	581.69
365.92	575.69
366.147	598.69
366.373	587.69
366.599	589.69
366.826	584.69
367.052	571.69
367.278	576.69
367.505	583.69
367.731	589.69
367.957	563.69
368.184	583.69
368.41	597.69
368.636	630.69
368.862	614.69
369.089	582.69
369.315	606.69
369.541	589.69
369.767	576.69
369.993	601.69
370.219	621.69
370.445	622.69
370.672	610.69
370.898	614.69
371.124	609.69
371.35	631.69
371.576	630.69
371.802	638.69
372.028	610.69
372.254	627.69
372.48	619.69
372.706	633.69
372.932	647.69
373.158	658.69
373.384	650.69
373.61	645.69
373.835	619.69
374.061	628.69
374.287	635.69
374.513	629.69
374.739	659.69
374.965	681.69
375.191	659.69
375.416	675.69
375.642	651.69
375.868	652.69
376.094	649.69
376.319	650.69
376.545	633.69
376.771	635.69
376.997	630.69
377.222	641.69
377.448	637.69
377.674	633.69
377.899	616.69
378.125	633.69
378.35	611.69
378.576	603.69
378.802	598.69
379.027	625.69
379.253	621.69
379.478	638.69
379.704	620.69
379.929	628.69
380.155	639.69
380.38	637.69
380.606	637.69
380.831	621.69
381.057	610.69
381.282	632.69
381.507	633.69
381.733	637.69
381.958	645.69
382.184	629.69
382.409	666.69
382.634	639.69
382.86	641.69
383.085	683.69
383.31	651.69
383.535	663.69
383.761	668.69
383.986	663.69
384.211	677.69
384.436	697.69
384.662	691.69
384.887	707.69
385.112	717.69
385.337	701.69
385.562	715.69
385.787	733.69
386.013	738.69
386.238	735.69
386.463	732.69
386.688	725.69
386.913	737.69
387.138	731.69
387.363	725.69
387.588	723.69
387.813	717.69
388.038	731.69
388.263	749.69
388.488	717.69
388.713	728.69
388.938	732.69
389.163	718.69
389.387	729.69
389.612	730.69
389.837	724.69
390.062	714.69
390.287	724.69
390.512	716.69
390.736	726.69
390.961	749.69
391.186	764.69
391.411	766.69
391.636	778.69
391.86	819.69
392.085	792.69
392.31	807.69
392.534	801.69
392.759	794.69
392.984	775.69
393.208	764.69
393.433	789.69
393.658	786.69
393.882	782.69
394.107	756.69
394.331	760.69
394.556	737.69
394.78	799.69
395.005	771.69
395.229	821.69
395.454	793.69
395.678	802.69
395.903	797.69
396.127	795.69
396.352	796.69
396.576	786.69
396.801	800.69
397.025	802.69
397.249	795.69
397.474	837.69
397.698	844.69
397.922	827.69
398.147	854.69
398.371	852.69
398.595	884.69
398.82	886.69
399.044	947.69
399.268	1007.69
399.492	1064.69
399.717	1155.69
399.941	1149.69
400.165	1086.69
400.389	1061.69
400.613	973.69
400.837	950.69
401.062	955.69
401.286	951.69
401.51	915.69
401.734	907.69
401.958	909.69
402.182	894.69
402.406	898.69
402.63	882.69
402.854	916.69
403.078	898.69
403.302	922.69
403.526	940.69
403.75	963.69
403.974	953.69
404.198	961.69
404.422	947.69
404.645	964.69
404.869	951.69
405.093	953.69
405.317	929.69
405.541	971.69
405.765	941.69
405.988	957.69
406.212	954.69
406.436	973.69
406.66	1000.69
406.883	986.69
407.107	1037.69
407.331	1078.69
407.555	1076.69
407.778	1094.69
408.002	1069.69
408.226	1031.69
408.449	1037.69
408.673	1028.69
408.896	996.69
409.12	1003.69
409.344	1017.69
409.567	991.69
409.791	968.69
410.014	1022.69
410.238	982.69
410.461	957.69
410.685	949.69
410.908	941.69
411.132	977.69
411.355	928.69
411.578	950.69
411.802	925.69
412.025	939.69
412.249	926.69
412.472	945.69
412.695	894.69
412.919	905.69
413.142	931.69
413.365	921.69
413.589	932.69
413.812	927.69
414.035	905.69
414.258	926.69
414.482	906.69
414.705	903.69
414.928	911.69
415.151	906.69
415.374	895.69
415.597	903.69
415.821	874.69
416.044	870.69
416.267	873.69
416.49	847.69
416.713	864.69
416.936	887.69
417.159	874.69
417.382	854.69
417.605	876.69
417.828	878.69
418.051	849.69
418.274	882.69
418.497	878.69
418.72	872.69
418.943	910.69
419.166	939.69
419.389	995.69
419.611	964.69
419.834	931.69
420.057	910.69
420.28	887.69
420.503	860.69
420.726	881.69
420.948	863.69
421.171	879.69
421.394	878.69
421.617	889.69
421.839	845.69
422.062	901.69
422.285	868.69
422.507	876.69
422.73	873.69
422.953	892.69
423.175	868.69
423.398	899.69
423.621	890.69
423.843	877.69
424.066	891.69
424.288	901.69
424.511	898.69
424.733	874.69
424.956	867.69
425.178	860.69
425.401	884.69
425.623	881.69
425.846	861.69
426.068	828.69
426.291	843.69
426.513	857.69
426.735	845.69
426.958	859.69
427.18	822.69
427.402	804.69
427.625	843.69
427.847	800.69
428.069	802.69
428.292	821.69
428.514	807.69
428.736	806.69
428.958	808.69
429.181	802.69
429.403	796.69
429.625	800.69
429.847	781.69
430.069	783.69
430.292	799.69
430.514	781.69
430.736	809.69
430.958	812.69
431.18	830.69
431.402	812.69
431.624	791.69
431.846	810.69
432.068	823.69
432.29	846.69
432.512	815.69
432.734	824.69
432.956	817.69
433.178	819.69
433.4	847.69
433.622	856.69
433.844	833.69
434.066	839.69
434.287	868.69
434.509	869.69
434.731	876.69
434.953	870.69
435.175	893.69
435.397	903.69
435.618	854.69
435.84	832.69
436.062	814.69
436.284	814.69
436.505	828.69
436.727	833.69
436.949	805.69
437.17	802.69
437.392	823.69
437.614	797.69
437.835	794.69
438.057	797.69
438.278	775.69
438.5	790.69
438.721	794.69
438.943	822.69
439.165	803.69
439.386	803.69
439.608	797.69
439.829	787.69
440.05	803.69
440.272	818.69
440.493	827.69
440.715	813.69
440.936	839.69
441.158	846.69
441.379	867.69
441.6	881.69
441.822	888.69
442.043	909.69
442.264	873.69
442.486	859.69
442.707	862.69
442.928	860.69
443.149	863.69
443.371	873.69
443.592	889.69
443.813	903.69
444.034	881.69
444.255	915.69
444.476	935.69
444.698	959.69
444.919	1009.69
445.14	1083.69
445.361	987.69
445.582	910.69
445.803	885.69
446.024	867.69
446.245	857.69
446.466	825.69
446.687	833.69
446.908	825.69
447.129	795.69
447.35	803.69
447.571	803.69
447.792	777.69
448.013	802.69
448.234	773.69
448.455	780.69
448.675	771.69
448.896	789.69
449.117	732.69
449.338	768.69
449.559	755.69
449.779	738.69
450	742.69
450.221	715.69
450.442	748.69
450.662	734.69
450.883	758.69
451.104	749.69
451.324	748.69
451.545	769.69
451.766	728.69
451.986	729.69
452.207	730.69
452.428	741.69
452.648	742.69
452.869	713.69
453.089	741.69
453.31	756.69
453.53	739.69
453.751	697.69
453.971	693.69
454.192	748.69
454.412	718.69
454.633	740.69
454.853	704.69
455.073	735.69
455.294	699.69
455.514	713.69
455.734	695.69
455.955	713.69
456.175	704.69
456.395	693.69
456.616	697.69
456.836	716.69
457.056	691.69
457.276	698.69
457.497	724.69
457.717	722.69
457.937	707.69
458.157	703.69
458.377	714.69
458.598	712.69
458.818	744.69
459.038	734.69
459.258	775.69
459.478	823.69
459.698	839.69
459.918	866.69
460.138	897.69
460.358	921.69
460.578	923.69
460.798	936.69
461.018	945.69
461.238	927.69
461.458	914.69
461.678	897.69
461.898	935.69
462.118	939.69
462.338	998.69
462.558	1002.69
462.777	1045.69
462.997	1087.69
463.217	1093.69
463.437	1114.69
463.657	1108.69
463.876	1064.69
464.096	1060.69
464.316	1027.69
464.536	1021.69
464.755	1009.69
464.975	975.69
465.195	917.69
465.414	915.69
465.634	881.69
465.854	842.69
466.073	818.69
466.293	817.69
466.512	797.69
466.732	781.69
466.951	768.69
467.171	791.69
467.391	802.69
467.61	778.69
467.829	777.69
468.049	764.69
468.268	762.69
468.488	760.69
468.707	760.69
468.927	762.69
469.146	739.69
469.365	797.69
469.585	760.69
469.804	805.69
470.023	797.69
470.243	771.69
470.462	787.69
470.681	799.69
470.901	794.69
471.12	776.69
471.339	767.69
471.558	787.69
471.777	779.69
471.997	753.69
472.216	776.69
472.435	765.69
472.654	731.69
472.873	765.69
473.092	754.69
473.311	742.69
473.53	723.69
473.749	738.69
473.968	772.69
474.187	765.69
474.406	747.69
474.625	765.69
474.844	753.69
475.063	754.69
475.282	744.69
475.501	775.69
475.72	775.69
475.939	763.69
476.158	793.69
476.377	798.69
476.596	801.69
476.814	799.69
477.033	795.69
477.252	828.69
477.471	826.69
477.69	836.69
477.908	840.69
478.127	867.69
478.346	873.69
478.564	894.69
478.783	908.69
479.002	909.69
479.22	951.69
479.439	922.69
479.658	900.69
479.876	928.69
480.095	953.69
480.313	940.69
480.532	948.69
480.751	943.69
480.969	935.69
481.188	898.69
481.406	895.69
481.624	876.69
481.843	882.69
482.061	873.69
482.28	845.69
482.498	866.69
482.717	894.69
482.935	866.69
483.153	883.69
483.372	911.69
483.59	909.69
483.808	887.69
484.027	849.69
484.245	878.69
484.463	889.69
484.681	899.69
484.9	882.69
485.118	893.69
485.336	920.69
485.554	925.69
485.772	906.69
485.99	915.69
486.209	923.69
486.427	917.69
486.645	899.69
486.863	917.69
487.081	918.69
487.299	911.69
487.517	893.69
487.735	910.69
487.953	912.69
488.171	903.69
488.389	897.69
488.607	901.69
488.825	889.69
489.043	872.69
489.261	901.69
489.479	891.69
489.696	892.69
489.914	912.69
490.132	876.69
490.35	897.69
490.568	917.69
490.786	902.69
491.003	915.69
491.221	922.69
491.439	897.69
491.657	930.69
491.874	931.69
492.092	922.69
492.31	929.69
492.527	938.69
492.745	917.69
492.963	955.69
493.18	948.69
493.398	939.69
493.615	934.69
493.833	947.69
494.05	981.69
494.268	962.69
494.485	934.69
494.703	941.69
494.92	941.69
495.138	946.69
495.355	940.69
495.573	985.69
495.79	977.69
496.008	966.69
496.225	967.69
496.442	993.69
496.66	1025.69
496.877	1033.69
497.094	1055.69
497.312	1073.69
497.529	1049.69
497.746	1101.69
497.963	1112.69
498.181	1147.69
498.398	1178.69
498.615	1242.69
498.832	1283.69
499.049	1394.69
499.267	1457.69
499.484	1572.69
499.701	1687.69
499.918	1791.69
500.135	1918.69
500.352	2063.69
500.569	2117.69
500.786	2075.69
501.003	2020.69
501.22	1916.69
501.437	1771.69
501.654	1597.69
501.871	1527.69
502.088	1457.69
502.305	1395.69
502.522	1315.69
502.739	1218.69
502.956	1181.69
503.172	1161.69
503.389	1122.69
503.606	1109.69
503.823	1094.69
504.04	1061.69
504.256	1063.69
504.473	1049.69
504.69	1057.69
504.907	996.69
505.123	986.69
505.34	971.69
505.557	924.69
505.773	931.69
505.99	905.69
506.207	908.69
506.423	877.69
506.64	883.69
506.856	866.69
507.073	847.69
507.289	839.69
507.506	834.69
507.722	825.69
507.939	793.69
508.155	818.69
508.372	809.69
508.588	799.69
508.805	779.69
509.021	793.69
509.238	813.69
509.454	789.69
509.67	765.69
509.887	765.69
510.103	764.69
510.319	765.69
510.536	771.69
510.752	749.69
510.968	782.69
511.184	748.69
511.401	730.69
511.617	764.69
511.833	748.69
512.049	753.69
512.265	756.69
512.481	750.69
512.698	756.69
512.914	760.69
513.13	744.69
513.346	756.69
513.562	757.69
513.778	748.69
513.994	747.69
514.21	759.69
514.426	785.69
514.642	777.69
514.858	784.69
515.074	780.69
515.29	793.69
515.506	780.69
515.721	796.69
515.937	795.69
516.153	808.69
516.369	823.69
516.585	823.69
516.801	854.69
517.016	881.69
517.232	888.69
517.448	937.69
517.664	931.69
517.879	932.69
518.095	947.69
518.311	909.69
518.527	905.69
518.742	894.69
518.958	845.69
519.173	831.69
519.389	815.69
519.605	830.69
519.82	797.69
520.036	795.69
520.251	755.69
520.467	763.69
520.682	774.69
520.898	744.69
521.113	749.69
521.329	717.69
521.544	737.69
521.76	733.69
521.975	734.69
522.19	716.69
522.406	711.69
522.621	703.69
522.836	683.69
523.052	726.69
523.267	688.69
523.482	714.69
523.698	690.69
523.913	675.69
524.128	693.69
524.343	691.69
524.559	669.69
524.774	686.69
524.989	696.69
525.204	697.69
525.419	709.69
525.634	697.69
525.849	684.69
526.064	661.69
526.28	672.69
526.495	664.69
526.71	667.69
526.925	674.69
527.14	672.69
527.355	654.69
527.57	684.69
527.785	671.69
527.999	678.69
528.214	664.69
528.429	662.69
528.644	640.69
528.859	679.69
529.074	686.69
529.289	663.69
529.503	672.69
529.718	660.69
529.933	673.69
530.148	671.69
530.363	679.69
530.577	660.69
530.792	677.69
531.007	652.69
531.221	675.69
531.436	681.69
531.651	666.69
531.865	658.69
532.08	655.69
532.295	653.69
532.509	644.69
532.724	657.69
532.938	643.69
533.153	649.69
533.367	664.69
533.582	673.69
533.796	663.69
534.011	669.69
534.225	682.69
534.44	636.69
534.654	662.69
534.868	654.69
535.083	643.69
535.297	644.69
535.511	640.69
535.726	650.69
535.94	644.69
536.154	639.69
536.369	629.69
536.583	622.69
536.797	639.69
537.011	615.69
537.225	631.69
537.44	615.69
537.654	609.69
537.868	602.69
538.082	616.69
538.296	606.69
538.51	625.69
538.724	609.69
538.938	622.69
539.153	626.69
539.367	615.69
539.581	602.69
539.795	613.69
540.009	623.69
540.222	614.69
540.436	606.69
540.65	592.69
540.864	618.69
541.078	601.69
541.292	605.69
541.506	630.69
541.72	602.69
541.934	595.69
542.147	639.69
542.361	640.69
542.575	573.69
542.789	605.69
543.002	607.69
543.216	589.69
543.43	590.69
543.644	584.69
543.857	597.69
544.071	613.69
544.285	622.69
544.498	581.69
544.712	594.69
544.925	613.69
545.139	600.69
545.352	609.69
545.566	631.69
545.779	628.69
545.993	642.69
546.206	622.69
546.42	607.69
546.633	633.69
546.847	602.69
547.06	601.69
547.274	631.69
547.487	612.69
547.7	631.69
547.914	653.69
548.127	627.69
548.34	633.69
548.554	602.69
548.767	605.69
548.98	602.69
549.193	612.69
549.407	608.69
549.62	603.69
549.833	605.69
550.046	615.69
550.259	610.69
550.473	626.69
550.686	610.69
550.899	632.69
551.112	619.69
551.325	592.69
551.538	621.69
551.751	621.69
551.964	616.69
552.177	594.69
552.39	606.69
552.603	658.69
552.816	620.69
553.029	643.69
553.242	649.69
553.455	644.69
553.667	658.69
553.88	637.69
554.093	628.69
554.306	605.69
554.519	603.69
554.732	603.69
554.944	581.69
555.157	577.69
555.37	596.69
555.583	535.69
555.795	552.69
556.008	539.69
556.221	555.69
556.433	527.69
556.646	542.69
556.859	547.69
557.071	533.69
557.284	531.69
557.496	521.69
557.709	525.69
557.921	517.69
558.134	528.69
558.346	547.69
558.559	527.69
558.771	517.69
558.984	539.69
559.196	520.69
559.409	517.69
559.621	513.69
559.833	535.69
560.046	485.69
560.258	499.69
560.47	517.69
560.683	497.69
560.895	513.69
561.107	533.69
561.32	509.69
561.532	514.69
561.744	517.69
561.956	509.69
562.168	513.69
562.381	483.69
562.593	498.69
562.805	502.69
563.017	525.69
563.229	518.69
563.441	510.69
563.653	511.69
563.865	527.69
564.077	530.69
564.289	526.69
564.501	558.69
564.713	568.69
564.925	559.69
565.137	548.69
565.349	583.69
565.561	592.69
565.773	610.69
565.985	615.69
566.197	636.69
566.408	666.69
566.62	685.69
566.832	740.69
567.044	763.69
567.255	728.69
567.467	778.69
567.679	778.69
567.891	791.69
568.102	786.69
568.314	780.69
568.526	729.69
568.737	667.69
568.949	658.69
569.161	617.69
569.372	583.69
569.584	538.69
569.795	544.69
570.007	529.69
570.218	537.69
570.43	539.69
570.641	524.69
570.853	521.69
571.064	523.69
571.276	500.69
571.487	499.69
571.698	494.69
571.91	472.69
572.121	476.69
572.333	478.69
572.544	456.69
572.755	445.69
572.966	468.69
573.178	439.69
573.389	454.69
573.6	442.69
573.811	408.69
574.023	434.69
574.234	436.69
574.445	412.69
574.656	415.69
574.867	411.69
575.078	429.69
575.289	419.69
575.501	418.69
575.712	422.69
575.923	420.69
576.134	405.69
576.345	420.69
576.556	397.69
576.767	403.69
576.978	393.69
577.188	389.69
577.399	411.69
577.61	394.69
577.821	382.69
578.032	382.69
578.243	399.69
578.454	371.69
578.665	399.69
578.875	373.69
579.086	364.69
579.297	374.69
579.508	379.69
579.718	395.69
579.929	381.69
580.14	369.69
580.35	351.69
580.561	369.69
580.772	377.69
580.982	354.69
581.193	348.69
581.403	348.69
581.614	368.69
581.825	365.69
582.035	348.69
582.246	364.69
582.456	364.69
582.667	351.69
582.877	356.69
583.087	371.69
583.298	371.69
583.508	379.69
583.719	354.69
583.929	385.69
584.139	354.69
584.35	354.69
584.56	354.69
584.77	353.69
584.981	355.69
585.191	350.69
585.401	349.69
585.611	338.69
585.821	339.69
586.032	342.69
586.242	337.69
586.452	370.69
586.662	337.69
586.872	347.69
587.082	345.69
587.292	347.69
587.502	345.69
587.713	356.69
587.923	340.69
588.133	342.69
588.343	345.69
588.553	361.69
588.762	342.69
588.972	361.69
589.182	363.69
589.392	382.69
589.602	328.69
589.812	377.69
590.022	369.69
590.232	355.69
590.441	345.69
590.651	330.69
590.861	351.69
591.071	351.69
591.281	364.69
591.49	343.69
591.7	353.69
591.91	354.69
592.119	366.69
592.329	370.69
592.539	367.69
592.748	393.69
592.958	373.69
593.167	364.69
593.377	387.69
593.587	403.69
593.796	395.69
594.006	394.69
594.215	404.69
594.424	401.69
594.634	393.69
594.843	414.69
595.053	378.69
595.262	389.69
595.472	353.69
595.681	361.69
595.89	340.69
596.1	345.69
596.309	313.69
596.518	336.69
596.727	321.69
596.937	332.69
597.146	321.69
597.355	323.69
597.564	317.69
597.774	322.69
597.983	302.69
598.192	313.69
598.401	309.69
598.61	309.69
598.819	296.69
599.028	315.69
599.237	299.69
599.446	295.69
599.655	299.69
599.864	277.69
600.073	298.69
600.282	311.69
600.491	297.69
600.7	287.69
600.909	295.69
601.118	301.69
601.327	295.69
601.536	279.69
601.745	276.69
601.953	290.69
602.162	298.69
602.371	282.69
602.58	277.69
602.789	286.69
602.997	283.69
603.206	289.69
603.415	284.69
603.623	247.69
603.832	276.69
604.041	265.69
604.249	276.69
604.458	281.69
604.666	267.69
604.875	276.69
605.084	267.69
605.292	285.69
605.501	281.69
605.709	279.69
605.918	287.69
606.126	291.69
606.334	283.69
606.543	279.69
606.751	263.69
606.96	265.69
607.168	272.69
607.376	267.69
607.585	275.69
607.793	261.69
608.001	272.69
608.21	245.69
608.418	263.69
608.626	256.69
608.834	262.69
609.043	281.69
609.251	277.69
609.459	283.69
609.667	274.69
609.875	277.69
610.083	257.69
610.291	261.69
610.499	279.69
610.707	266.69
610.916	276.69
611.124	261.69
611.332	259.69
611.54	249.69
611.748	259.69
611.955	256.69
612.163	245.69
612.371	245.69
612.579	265.69
612.787	263.69
612.995	265.69
613.203	267.69
613.411	268.69
613.618	264.69
613.826	237.69
614.034	243.69
614.242	261.69
614.449	250.69
614.657	253.69
614.865	243.69
615.072	260.69
615.28	239.69
615.488	265.69
615.695	260.69
615.903	244.69
616.111	268.69
616.318	249.69
616.526	261.69
616.733	257.69
616.941	252.69
617.148	245.69
617.356	255.69
617.563	251.69
617.771	259.69
617.978	241.69
618.185	249.69
618.393	217.69
618.6	234.69
618.807	256.69
619.015	230.69
619.222	243.69
619.429	241.69
619.637	231.69
619.844	253.69
620.051	227.69
620.258	238.69
620.466	237.69
620.673	236.69
620.88	233.69
621.087	246.69
621.294	232.69
621.501	231.69
621.708	232.69
621.915	216.69
622.122	243.69
622.329	220.69
622.536	230.69
622.743	220.69
622.95	236.69
623.157	223.69
623.364	238.69
623.571	229.69
623.778	241.69
623.985	239.69
624.192	247.69
624.399	232.69
624.606	232.69
624.812	229.69
625.019	213.69
625.226	209.69
625.433	231.69
625.639	228.69
625.846	231.69
626.053	236.69
626.259	231.69
626.466	211.69
626.673	222.69
626.879	216.69
627.086	205.69
627.293	218.69
627.499	221.69
627.706	247.69
627.912	216.69
628.119	211.69
628.325	221.69
628.532	227.69
628.738	217.69
628.945	230.69
629.151	217.69
629.357	221.69
629.564	218.69
629.77	204.69
629.976	213.69
630.183	217.69
630.389	210.69
630.595	207.69
630.802	207.69
631.008	226.69
631.214	211.69
631.42	209.69
631.627	204.69
631.833	201.69
632.039	219.69
632.245	200.69
632.451	215.69
632.657	203.69
632.863	193.69
633.069	212.69
633.275	195.69
633.481	212.69
633.688	206.69
633.893	209.69
634.099	212.69
634.305	189.69
634.511	198.69
634.717	212.69
634.923	196.69
635.129	184.69
635.335	206.69
635.541	201.69
635.747	193.69
635.952	213.69
636.158	197.69
636.364	196.69
636.57	208.69
636.775	203.69
636.981	208.69
637.187	196.69
637.392	187.69
637.598	188.69
637.804	189.69
638.009	194.69
638.215	215.69
638.421	189.69
638.626	190.69
638.832	198.69
639.037	202.69
639.243	192.69
639.448	183.69
639.654	193.69
639.859	193.69
640.065	184.69
640.27	191.69
640.475	201.69
640.681	183.69
640.886	180.69
641.091	174.69
641.297	183.69
641.502	181.69
641.707	178.69
641.913	195.69
642.118	181.69
642.323	190.69
642.528	183.69
642.733	181.69
642.939	186.69
643.144	180.69
643.349	187.69
643.554	179.69
643.759	186.69
643.964	202.69
644.169	195.69
644.374	190.69
644.579	180.69
644.784	190.69
644.989	187.69
645.194	195.69
645.399	199.69
645.604	162.69
645.809	171.69
646.014	179.69
646.219	187.69
646.423	183.69
646.628	193.69
646.833	185.69
647.038	182.69
647.243	201.69
647.447	195.69
647.652	188.69
647.857	183.69
648.062	187.69
648.266	198.69
648.471	197.69
648.676	182.69
648.88	193.69
649.085	189.69
649.289	199.69
649.494	197.69
649.698	206.69
649.903	166.69
650.107	176.69
650.312	173.69
650.516	181.69
650.721	190.69
650.925	180.69
651.13	185.69
651.334	185.69
651.539	179.69
651.743	185.69
651.947	165.69
652.152	170.69
652.356	161.69
652.56	171.69
652.764	171.69
652.969	174.69
653.173	159.69
653.377	178.69
653.581	163.69
653.785	164.69
653.99	177.69
654.194	165.69
654.398	180.69
654.602	172.69
654.806	177.69
655.01	177.69
655.214	171.69
655.418	159.69
655.622	168.69
655.826	183.69
656.03	170.69
656.234	184.69
656.438	166.69
656.642	191.69
656.846	174.69
657.049	172.69
657.253	151.69
657.457	159.69
657.661	150.69
657.865	130.69
658.068	133.69
658.272	131.69
658.476	134.69
658.68	126.69
658.883	121.69
659.087	113.69
659.291	113.69
659.494	100.69
659.698	113.69
659.901	126.69
660.105	106.69
660.309	93.69
660.512	99.69
660.716	102.69
660.919	108.69
661.123	113.69
661.326	99.69
661.53	93.69
661.733	102.69
661.936	94.69
662.14	99.69
662.343	91.69
662.546	74.69
662.75	91.69
662.953	87.69
663.156	81.69
663.36	91.69
663.563	71.69
663.766	83.69
663.969	77.69
664.173	84.69
664.376	83.69
664.579	69.69
664.782	86.69
664.985	74.69
665.188	70.69
665.391	81.69
665.594	79.69
665.797	91.69
666	90.69
666.203	83.69
666.406	84.69
666.609	70.69
666.812	78.69
667.015	91.69
667.218	98.69
667.421	82.69
667.624	64.69
667.827	75.69
668.03	105.69
668.232	92.69
668.435	91.69
668.638	88.69
668.841	94.69
669.043	86.69
669.246	98.69
669.449	87.69
669.651	87.69
669.854	86.69
670.057	77.69
670.259	72.69
670.462	87.69
670.665	63.69
670.867	92.69
671.07	92.69
671.272	94.69
671.475	87.69
671.677	82.69
671.88	81.69
672.082	76.69
672.284	78.69
672.487	79.69
672.689	88.69
672.892	83.69
