Data from Ni(NO3)2@0.125M.TitratingCurve.Agarose3%dH2O.NegLispCup.LampEnergy10.LIBS07252019_HRD10591_18-08-53-567.txt Node
Date: Thu Jul 25 18:08:53 EDT 2019
User: cochatt
Spectrometer: HR+D1059
Trigger mode: 1
Integration Time (sec): 1.000000E-1
Scans to average: 1
Electric dark correction enabled: true
Nonlinearity correction enabled: false
Boxcar width: 0
XAxis mode: Wavelengths
Number of Pixels in Spectrum: 2048
>>>>>Begin Spectral Data<<<<<
223.165	-23.38
223.4	-23.38
223.635	-23.38
223.869	-11.38
224.104	-17.38
224.338	-29.38
224.573	-18.38
224.808	-10.38
225.042	-13.38
225.277	7.62
225.511	-2.38
225.746	8.62
225.98	5.62
226.215	13.62
226.449	10.62
226.683	19.62
226.918	22.62
227.152	37.62
227.387	44.62
227.621	24.62
227.856	18.62
228.09	37.62
228.324	50.62
228.559	52.62
228.793	62.62
229.027	100.62
229.262	108.62
229.496	122.62
229.73	119.62
229.964	134.62
230.199	128.62
230.433	123.62
230.667	121.62
230.901	130.62
231.136	146.62
231.37	153.62
231.604	130.62
231.838	145.62
232.072	158.62
232.306	159.62
232.541	146.62
232.775	156.62
233.009	161.62
233.243	150.62
233.477	154.62
233.711	153.62
233.945	153.62
234.179	160.62
234.413	166.62
234.647	164.62
234.881	156.62
235.115	157.62
235.349	154.62
235.583	145.62
235.817	156.62
236.051	157.62
236.285	160.62
236.519	157.62
236.753	161.62
236.987	167.62
237.221	164.62
237.455	178.62
237.689	164.62
237.922	165.62
238.156	174.62
238.39	173.62
238.624	177.62
238.858	190.62
239.091	177.62
239.325	190.62
239.559	189.62
239.793	192.62
240.027	196.62
240.26	192.62
240.494	191.62
240.728	172.62
240.961	192.62
241.195	187.62
241.429	206.62
241.662	201.62
241.896	198.62
242.13	208.62
242.363	200.62
242.597	188.62
242.83	206.62
243.064	219.62
243.298	210.62
243.531	229.62
243.765	230.62
243.998	218.62
244.232	216.62
244.465	233.62
244.699	231.62
244.932	207.62
245.166	209.62
245.399	236.62
245.633	238.62
245.866	239.62
246.099	233.62
246.333	240.62
246.566	249.62
246.8	253.62
247.033	226.62
247.266	257.62
247.5	258.62
247.733	257.62
247.966	229.62
248.2	270.62
248.433	264.62
248.666	257.62
248.899	277.62
249.133	255.62
249.366	268.62
249.599	262.62
249.832	271.62
250.066	271.62
250.299	271.62
250.532	284.62
250.765	289.62
250.998	278.62
251.231	284.62
251.465	291.62
251.698	285.62
251.931	297.62
252.164	301.62
252.397	293.62
252.63	293.62
252.863	313.62
253.096	296.62
253.329	315.62
253.562	306.62
253.795	298.62
254.028	319.62
254.261	308.62
254.494	323.62
254.727	311.62
254.96	297.62
255.193	289.62
255.426	321.62
255.659	325.62
255.892	324.62
256.124	318.62
256.357	326.62
256.59	358.62
256.823	332.62
257.056	333.62
257.289	333.62
257.521	332.62
257.754	358.62
257.987	339.62
258.22	314.62
258.452	342.62
258.685	331.62
258.918	346.62
259.151	351.62
259.383	354.62
259.616	356.62
259.849	345.62
260.081	345.62
260.314	362.62
260.547	358.62
260.779	352.62
261.012	349.62
261.244	355.62
261.477	365.62
261.71	367.62
261.942	373.62
262.175	367.62
262.407	356.62
262.64	357.62
262.872	376.62
263.105	360.62
263.337	372.62
263.57	363.62
263.802	375.62
264.035	393.62
264.267	390.62
264.499	384.62
264.732	396.62
264.964	407.62
265.197	392.62
265.429	395.62
265.661	403.62
265.894	373.62
266.126	397.62
266.358	402.62
266.591	423.62
266.823	401.62
267.055	410.62
267.287	419.62
267.52	391.62
267.752	417.62
267.984	408.62
268.216	419.62
268.448	406.62
268.681	407.62
268.913	429.62
269.145	434.62
269.377	426.62
269.609	409.62
269.841	399.62
270.073	395.62
270.306	419.62
270.538	422.62
270.77	412.62
271.002	451.62
271.234	427.62
271.466	433.62
271.698	425.62
271.93	420.62
272.162	439.62
272.394	442.62
272.626	421.62
272.858	416.62
273.09	446.62
273.322	438.62
273.553	460.62
273.785	440.62
274.017	467.62
274.249	460.62
274.481	464.62
274.713	476.62
274.945	448.62
275.176	456.62
275.408	473.62
275.64	476.62
275.872	453.62
276.104	461.62
276.335	451.62
276.567	478.62
276.799	477.62
277.031	484.62
277.262	470.62
277.494	497.62
277.726	477.62
277.957	491.62
278.189	480.62
278.421	453.62
278.652	473.62
278.884	480.62
279.115	480.62
279.347	512.62
279.579	484.62
279.81	502.62
280.042	489.62
280.273	500.62
280.505	485.62
280.736	500.62
280.968	506.62
281.199	491.62
281.431	522.62
281.662	524.62
281.894	516.62
282.125	530.62
282.356	533.62
282.588	519.62
282.819	536.62
283.051	522.62
283.282	524.62
283.513	542.62
283.745	536.62
283.976	508.62
284.207	530.62
284.439	537.62
284.67	545.62
284.901	550.62
285.132	548.62
285.364	531.62
285.595	533.62
285.826	561.62
286.057	564.62
286.288	550.62
286.52	559.62
286.751	546.62
286.982	577.62
287.213	553.62
287.444	562.62
287.675	560.62
287.906	575.62
288.138	563.62
288.369	557.62
288.6	595.62
288.831	544.62
289.062	572.62
289.293	563.62
289.524	571.62
289.755	572.62
289.986	574.62
290.217	562.62
290.448	562.62
290.679	601.62
290.91	556.62
291.141	577.62
291.371	566.62
291.602	581.62
291.833	578.62
292.064	587.62
292.295	582.62
292.526	580.62
292.757	577.62
292.987	579.62
293.218	574.62
293.449	602.62
293.68	577.62
293.91	567.62
294.141	597.62
294.372	609.62
294.603	617.62
294.833	593.62
295.064	604.62
295.295	597.62
295.525	601.62
295.756	624.62
295.987	613.62
296.217	621.62
296.448	613.62
296.679	595.62
296.909	589.62
297.14	603.62
297.37	610.62
297.601	626.62
297.831	593.62
298.062	629.62
298.292	660.62
298.523	649.62
298.753	662.62
298.984	646.62
299.214	625.62
299.445	632.62
299.675	646.62
299.905	644.62
300.136	616.62
300.366	642.62
300.597	638.62
300.827	671.62
301.057	669.62
301.288	666.62
301.518	661.62
301.748	678.62
301.979	666.62
302.209	649.62
302.439	653.62
302.669	681.62
302.9	659.62
303.13	644.62
303.36	677.62
303.59	658.62
303.82	660.62
304.051	673.62
304.281	666.62
304.511	645.62
304.741	677.62
304.971	643.62
305.201	673.62
305.431	644.62
305.661	656.62
305.891	638.62
306.121	654.62
306.352	663.62
306.582	656.62
306.812	639.62
307.042	642.62
307.272	642.62
307.502	645.62
307.731	640.62
307.961	636.62
308.191	630.62
308.421	642.62
308.651	639.62
308.881	644.62
309.111	619.62
309.341	644.62
309.571	664.62
309.8	647.62
310.03	632.62
310.26	649.62
310.49	629.62
310.72	653.62
310.949	664.62
311.179	654.62
311.409	655.62
311.639	638.62
311.868	670.62
312.098	665.62
312.328	668.62
312.557	685.62
312.787	645.62
313.017	673.62
313.246	666.62
313.476	699.62
313.706	704.62
313.935	692.62
314.165	709.62
314.394	694.62
314.624	714.62
314.853	709.62
315.083	705.62
315.312	705.62
315.542	713.62
315.771	678.62
316.001	665.62
316.23	685.62
316.46	686.62
316.689	670.62
316.919	681.62
317.148	684.62
317.377	681.62
317.607	664.62
317.836	651.62
318.065	680.62
318.295	704.62
318.524	666.62
318.753	672.62
318.983	688.62
319.212	676.62
319.441	676.62
319.67	699.62
319.9	693.62
320.129	708.62
320.358	677.62
320.587	684.62
320.816	683.62
321.046	675.62
321.275	675.62
321.504	673.62
321.733	696.62
321.962	700.62
322.191	676.62
322.42	702.62
322.649	668.62
322.878	710.62
323.108	702.62
323.337	697.62
323.566	718.62
323.795	721.62
324.024	697.62
324.253	729.62
324.482	721.62
324.71	739.62
324.939	724.62
325.168	769.62
325.397	696.62
325.626	717.62
325.855	741.62
326.084	768.62
326.313	785.62
326.542	765.62
326.77	804.62
326.999	759.62
327.228	753.62
327.457	786.62
327.686	762.62
327.914	760.62
328.143	748.62
328.372	752.62
328.6	755.62
328.829	774.62
329.058	786.62
329.287	777.62
329.515	769.62
329.744	791.62
329.972	775.62
330.201	786.62
330.43	808.62
330.658	802.62
330.887	782.62
331.115	809.62
331.344	813.62
331.572	832.62
331.801	840.62
332.03	884.62
332.258	868.62
332.486	919.62
332.715	926.62
332.943	960.62
333.172	1024.62
333.4	1091.62
333.629	1113.62
333.857	1121.62
334.085	1057.62
334.314	1069.62
334.542	1018.62
334.771	985.62
334.999	984.62
335.227	992.62
335.455	1005.62
335.684	978.62
335.912	962.62
336.14	962.62
336.369	946.62
336.597	964.62
336.825	948.62
337.053	915.62
337.281	906.62
337.51	929.62
337.738	892.62
337.966	875.62
338.194	859.62
338.422	857.62
338.65	858.62
338.878	860.62
339.106	869.62
339.334	859.62
339.562	836.62
339.79	813.62
340.018	802.62
340.246	824.62
340.474	806.62
340.702	820.62
340.93	818.62
341.158	829.62
341.386	840.62
341.614	824.62
341.842	828.62
342.07	830.62
342.298	819.62
342.526	807.62
342.754	809.62
342.981	813.62
343.209	863.62
343.437	883.62
343.665	907.62
343.893	999.62
344.12	1037.62
344.348	987.62
344.576	951.62
344.804	920.62
345.031	861.62
345.259	843.62
345.487	837.62
345.714	820.62
345.942	829.62
346.17	821.62
346.397	812.62
346.625	782.62
346.853	797.62
347.08	799.62
347.308	807.62
347.535	805.62
347.763	816.62
347.99	828.62
348.218	803.62
348.445	791.62
348.673	785.62
348.9	795.62
349.128	808.62
349.355	787.62
349.583	798.62
349.81	784.62
350.037	769.62
350.265	782.62
350.492	740.62
350.72	768.62
350.947	775.62
351.174	766.62
351.402	807.62
351.629	776.62
351.856	760.62
352.083	749.62
352.311	736.62
352.538	744.62
352.765	782.62
352.992	786.62
353.22	779.62
353.447	746.62
353.674	731.62
353.901	766.62
354.128	780.62
354.355	773.62
354.583	784.62
354.81	754.62
355.037	772.62
355.264	786.62
355.491	785.62
355.718	763.62
355.945	776.62
356.172	776.62
356.399	748.62
356.626	779.62
356.853	774.62
357.08	765.62
357.307	762.62
357.534	770.62
357.761	745.62
357.988	760.62
358.215	765.62
358.441	758.62
358.668	723.62
358.895	764.62
359.122	788.62
359.349	787.62
359.576	805.62
359.802	768.62
360.029	770.62
360.256	755.62
360.483	775.62
360.709	789.62
360.936	781.62
361.163	765.62
361.39	759.62
361.616	745.62
361.843	752.62
362.07	749.62
362.296	755.62
362.523	758.62
362.749	744.62
362.976	763.62
363.203	770.62
363.429	730.62
363.656	743.62
363.882	756.62
364.109	764.62
364.335	746.62
364.562	761.62
364.788	767.62
365.015	761.62
365.241	750.62
365.468	766.62
365.694	739.62
365.92	749.62
366.147	745.62
366.373	756.62
366.599	741.62
366.826	749.62
367.052	781.62
367.278	745.62
367.505	771.62
367.731	761.62
367.957	782.62
368.184	757.62
368.41	776.62
368.636	738.62
368.862	774.62
369.089	771.62
369.315	795.62
369.541	756.62
369.767	792.62
369.993	801.62
370.219	787.62
370.445	790.62
370.672	802.62
370.898	807.62
371.124	811.62
371.35	836.62
371.576	816.62
371.802	814.62
372.028	827.62
372.254	824.62
372.48	819.62
372.706	852.62
372.932	870.62
373.158	861.62
373.384	834.62
373.61	813.62
373.835	789.62
374.061	813.62
374.287	835.62
374.513	834.62
374.739	857.62
374.965	887.62
375.191	930.62
375.416	921.62
375.642	857.62
375.868	849.62
376.094	844.62
376.319	837.62
376.545	835.62
376.771	817.62
376.997	812.62
377.222	814.62
377.448	824.62
377.674	826.62
377.899	795.62
378.125	786.62
378.35	800.62
378.576	798.62
378.802	810.62
379.027	812.62
379.253	794.62
379.478	818.62
379.704	809.62
379.929	840.62
380.155	791.62
380.38	800.62
380.606	821.62
380.831	790.62
381.057	793.62
381.282	794.62
381.507	818.62
381.733	811.62
381.958	818.62
382.184	824.62
382.409	857.62
382.634	861.62
382.86	861.62
383.085	873.62
383.31	865.62
383.535	886.62
383.761	904.62
383.986	920.62
384.211	950.62
384.436	962.62
384.662	982.62
384.887	992.62
385.112	1005.62
385.337	995.62
385.562	982.62
385.787	983.62
386.013	992.62
386.238	1001.62
386.463	1033.62
386.688	980.62
386.913	974.62
387.138	968.62
387.363	968.62
387.588	938.62
387.813	957.62
388.038	956.62
388.263	939.62
388.488	988.62
388.713	952.62
388.938	936.62
389.163	945.62
389.387	948.62
389.612	937.62
389.837	954.62
390.062	948.62
390.287	967.62
390.512	948.62
390.736	946.62
390.961	931.62
391.186	984.62
391.411	1030.62
391.636	1070.62
391.86	1071.62
392.085	1117.62
392.31	1099.62
392.534	1078.62
392.759	1049.62
392.984	1016.62
393.208	1030.62
393.433	1055.62
393.658	1044.62
393.882	1039.62
394.107	1044.62
394.331	1057.62
394.556	1032.62
394.78	1056.62
395.005	1048.62
395.229	1039.62
395.454	1076.62
395.678	1114.62
395.903	1109.62
396.127	1086.62
396.352	1066.62
396.576	1048.62
396.801	1000.62
397.025	1016.62
397.249	1046.62
397.474	1082.62
397.698	1058.62
397.922	1084.62
398.147	1066.62
398.371	1089.62
398.595	1172.62
398.82	1211.62
399.044	1293.62
399.268	1408.62
399.492	1669.62
399.717	1897.62
399.941	1899.62
400.165	1688.62
400.389	1474.62
400.613	1364.62
400.837	1283.62
401.062	1249.62
401.286	1225.62
401.51	1201.62
401.734	1207.62
401.958	1261.62
402.182	1250.62
402.406	1255.62
402.63	1296.62
402.854	1308.62
403.078	1358.62
403.302	1355.62
403.526	1397.62
403.75	1436.62
403.974	1480.62
404.198	1469.62
404.422	1462.62
404.645	1463.62
404.869	1419.62
405.093	1430.62
405.317	1405.62
405.541	1366.62
405.765	1339.62
405.988	1312.62
406.212	1364.62
406.436	1351.62
406.66	1379.62
406.883	1402.62
407.107	1475.62
407.331	1570.62
407.555	1626.62
407.778	1614.62
408.002	1589.62
408.226	1490.62
408.449	1489.62
408.673	1434.62
408.896	1419.62
409.12	1369.62
409.344	1418.62
409.567	1420.62
409.791	1439.62
410.014	1436.62
410.238	1391.62
410.461	1389.62
410.685	1346.62
410.908	1330.62
411.132	1312.62
411.355	1273.62
411.578	1250.62
411.802	1245.62
412.025	1272.62
412.249	1301.62
412.472	1309.62
412.695	1255.62
412.919	1220.62
413.142	1196.62
413.365	1237.62
413.589	1245.62
413.812	1230.62
414.035	1218.62
414.258	1245.62
414.482	1250.62
414.705	1252.62
414.928	1262.62
415.151	1260.62
415.374	1223.62
415.597	1214.62
415.821	1228.62
416.044	1212.62
416.267	1225.62
416.49	1212.62
416.713	1216.62
416.936	1237.62
417.159	1234.62
417.382	1244.62
417.605	1217.62
417.828	1234.62
418.051	1241.62
418.274	1245.62
418.497	1216.62
418.72	1258.62
418.943	1264.62
419.166	1371.62
419.389	1426.62
419.611	1436.62
419.834	1336.62
420.057	1308.62
420.28	1267.62
420.503	1183.62
420.726	1193.62
420.948	1208.62
421.171	1225.62
421.394	1237.62
421.617	1229.62
421.839	1232.62
422.062	1247.62
422.285	1220.62
422.507	1271.62
422.73	1254.62
422.953	1286.62
423.175	1310.62
423.398	1303.62
423.621	1301.62
423.843	1352.62
424.066	1384.62
424.288	1319.62
424.511	1353.62
424.733	1316.62
424.956	1278.62
425.178	1259.62
425.401	1286.62
425.623	1268.62
425.846	1196.62
426.068	1192.62
426.291	1184.62
426.513	1169.62
426.735	1167.62
426.958	1185.62
427.18	1121.62
427.402	1120.62
427.625	1118.62
427.847	1116.62
428.069	1117.62
428.292	1096.62
428.514	1133.62
428.736	1072.62
428.958	1093.62
429.181	1064.62
429.403	1086.62
429.625	1094.62
429.847	1096.62
430.069	1074.62
430.292	1057.62
430.514	1053.62
430.736	1078.62
430.958	1090.62
431.18	1079.62
431.402	1069.62
431.624	1090.62
431.846	1078.62
432.068	1143.62
432.29	1122.62
432.512	1125.62
432.734	1123.62
432.956	1090.62
433.178	1175.62
433.4	1109.62
433.622	1113.62
433.844	1117.62
434.066	1148.62
434.287	1132.62
434.509	1183.62
434.731	1218.62
434.953	1309.62
435.175	1282.62
435.397	1266.62
435.618	1191.62
435.84	1170.62
436.062	1123.62
436.284	1094.62
436.505	1092.62
436.727	1103.62
436.949	1138.62
437.17	1117.62
437.392	1097.62
437.614	1075.62
437.835	1058.62
438.057	1053.62
438.278	1064.62
438.5	1072.62
438.721	1056.62
438.943	1073.62
439.165	1091.62
439.386	1082.62
439.608	1108.62
439.829	1110.62
440.05	1111.62
440.272	1140.62
440.493	1130.62
440.715	1136.62
440.936	1165.62
441.158	1145.62
441.379	1223.62
441.6	1262.62
441.822	1268.62
442.043	1312.62
442.264	1234.62
442.486	1253.62
442.707	1268.62
442.928	1273.62
443.149	1233.62
443.371	1259.62
443.592	1261.62
443.813	1267.62
444.034	1272.62
444.255	1332.62
444.476	1409.62
444.698	1510.62
444.919	1586.62
445.14	1611.62
445.361	1461.62
445.582	1341.62
445.803	1251.62
446.024	1198.62
446.245	1193.62
446.466	1174.62
446.687	1125.62
446.908	1167.62
447.129	1119.62
447.35	1116.62
447.571	1109.62
447.792	1076.62
448.013	1045.62
448.234	1035.62
448.455	1060.62
448.675	1065.62
448.896	1022.62
449.117	1010.62
449.338	969.62
449.559	987.62
449.779	1038.62
450	988.62
450.221	1057.62
450.442	1022.62
450.662	1056.62
450.883	1062.62
451.104	1081.62
451.324	1092.62
451.545	1068.62
451.766	1064.62
451.986	1028.62
452.207	1072.62
452.428	1030.62
452.648	1048.62
452.869	1013.62
453.089	1010.62
453.31	1012.62
453.53	1008.62
453.751	988.62
453.971	1000.62
454.192	992.62
454.412	989.62
454.633	972.62
454.853	970.62
455.073	958.62
455.294	964.62
455.514	956.62
455.734	979.62
455.955	967.62
456.175	947.62
456.395	944.62
456.616	939.62
456.836	939.62
457.056	933.62
457.276	952.62
457.497	923.62
457.717	949.62
457.937	938.62
458.157	989.62
458.377	994.62
458.598	1017.62
458.818	1028.62
459.038	1106.62
459.258	1090.62
459.478	1124.62
459.698	1147.62
459.918	1201.62
460.138	1230.62
460.358	1296.62
460.578	1357.62
460.798	1358.62
461.018	1377.62
461.238	1366.62
461.458	1291.62
461.678	1339.62
461.898	1322.62
462.118	1354.62
462.338	1436.62
462.558	1493.62
462.777	1517.62
462.997	1662.62
463.217	1829.62
463.437	1872.62
463.657	1685.62
463.876	1574.62
464.096	1580.62
464.316	1601.62
464.536	1611.62
464.755	1554.62
464.975	1486.62
465.195	1404.62
465.414	1327.62
465.634	1217.62
465.854	1170.62
466.073	1160.62
466.293	1118.62
466.512	1092.62
466.732	1060.62
466.951	1109.62
467.171	1087.62
467.391	1079.62
467.61	1067.62
467.829	1055.62
468.049	1073.62
468.268	1006.62
468.488	1043.62
468.707	1028.62
468.927	1012.62
469.146	1057.62
469.365	1046.62
469.585	1067.62
469.804	1046.62
470.023	1110.62
470.243	1124.62
470.462	1128.62
470.681	1144.62
470.901	1140.62
471.12	1117.62
471.339	1085.62
471.558	1078.62
471.777	1057.62
471.997	1046.62
472.216	1079.62
472.435	1036.62
472.654	993.62
472.873	996.62
473.092	1013.62
473.311	1001.62
473.53	995.62
473.749	998.62
473.968	1014.62
474.187	1028.62
474.406	1029.62
474.625	1005.62
474.844	1010.62
475.063	993.62
475.282	991.62
475.501	1020.62
475.72	992.62
475.939	1045.62
476.158	1042.62
476.377	1051.62
476.596	1054.62
476.814	1064.62
477.033	1074.62
477.252	1084.62
477.471	1100.62
477.69	1125.62
477.908	1158.62
478.127	1197.62
478.346	1218.62
478.564	1208.62
478.783	1249.62
479.002	1265.62
479.22	1302.62
479.439	1262.62
479.658	1229.62
479.876	1272.62
480.095	1282.62
480.313	1334.62
480.532	1396.62
480.751	1369.62
480.969	1308.62
481.188	1229.62
481.406	1228.62
481.624	1209.62
481.843	1155.62
482.061	1125.62
482.28	1164.62
482.498	1146.62
482.717	1123.62
482.935	1151.62
483.153	1160.62
483.372	1188.62
483.59	1135.62
483.808	1184.62
484.027	1168.62
484.245	1184.62
484.463	1151.62
484.681	1191.62
484.9	1196.62
485.118	1171.62
485.336	1204.62
485.554	1160.62
485.772	1206.62
485.99	1230.62
486.209	1228.62
486.427	1221.62
486.645	1193.62
486.863	1267.62
487.081	1225.62
487.299	1229.62
487.517	1228.62
487.735	1212.62
487.953	1227.62
488.171	1192.62
488.389	1182.62
488.607	1172.62
488.825	1165.62
489.043	1163.62
489.261	1190.62
489.479	1200.62
489.696	1198.62
489.914	1184.62
490.132	1226.62
490.35	1237.62
490.568	1213.62
490.786	1217.62
491.003	1212.62
491.221	1224.62
491.439	1187.62
491.657	1251.62
491.874	1248.62
492.092	1271.62
492.31	1238.62
492.527	1280.62
492.745	1277.62
492.963	1244.62
493.18	1249.62
493.398	1268.62
493.615	1275.62
493.833	1241.62
494.05	1271.62
494.268	1288.62
494.485	1299.62
494.703	1339.62
494.92	1334.62
495.138	1273.62
495.355	1265.62
495.573	1289.62
495.79	1329.62
496.008	1325.62
496.225	1313.62
496.442	1287.62
496.66	1352.62
496.877	1369.62
497.094	1353.62
497.312	1403.62
497.529	1444.62
497.746	1419.62
497.963	1490.62
498.181	1565.62
498.398	1639.62
498.615	1716.62
498.832	1824.62
499.049	1962.62
499.267	2158.62
499.484	2389.62
499.701	2616.62
499.918	2924.62
500.135	3408.62
500.352	4016.62
500.569	4270.62
500.786	4154.62
501.003	3792.62
501.22	3369.62
501.437	2953.62
501.654	2531.62
501.871	2309.62
502.088	2100.62
502.305	1960.62
502.522	1851.62
502.739	1793.62
502.956	1683.62
503.172	1619.62
503.389	1553.62
503.606	1474.62
503.823	1474.62
504.04	1454.62
504.256	1513.62
504.473	1512.62
504.69	1601.62
504.907	1590.62
505.123	1404.62
505.34	1356.62
505.557	1268.62
505.773	1251.62
505.99	1236.62
506.207	1210.62
506.423	1172.62
506.64	1179.62
506.856	1166.62
507.073	1149.62
507.289	1138.62
507.506	1149.62
507.722	1139.62
507.939	1126.62
508.155	1121.62
508.372	1091.62
508.588	1093.62
508.805	1106.62
509.021	1084.62
509.238	1085.62
509.454	1075.62
509.67	1077.62
509.887	1058.62
510.103	1076.62
510.319	1051.62
510.536	1047.62
510.752	1033.62
510.968	1036.62
511.184	1027.62
511.401	1021.62
511.617	1044.62
511.833	1028.62
512.049	1031.62
512.265	1057.62
512.481	1054.62
512.698	1034.62
512.914	1051.62
513.13	1046.62
513.346	1037.62
513.562	1072.62
513.778	1043.62
513.994	1043.62
514.21	1047.62
514.426	1069.62
514.642	1086.62
514.858	1052.62
515.074	1088.62
515.29	1079.62
515.506	1115.62
515.721	1080.62
515.937	1150.62
516.153	1141.62
516.369	1160.62
516.585	1190.62
516.801	1233.62
517.016	1253.62
517.232	1360.62
517.448	1412.62
517.664	1515.62
517.879	1489.62
518.095	1491.62
518.311	1461.62
518.527	1363.62
518.742	1299.62
518.958	1297.62
519.173	1224.62
519.389	1204.62
519.605	1138.62
519.82	1090.62
520.036	1106.62
520.251	1078.62
520.467	1078.62
520.682	1053.62
520.898	1057.62
521.113	1037.62
521.329	1036.62
521.544	1012.62
521.76	1030.62
521.975	1017.62
522.19	996.62
522.406	994.62
522.621	978.62
522.836	1002.62
523.052	982.62
523.267	987.62
523.482	970.62
523.698	954.62
523.913	960.62
524.128	957.62
524.343	977.62
524.559	955.62
524.774	941.62
524.989	982.62
525.204	972.62
525.419	947.62
525.634	946.62
525.849	933.62
526.064	948.62
526.28	952.62
526.495	941.62
526.71	928.62
526.925	947.62
527.14	964.62
527.355	947.62
527.57	963.62
527.785	934.62
527.999	940.62
528.214	968.62
528.429	946.62
528.644	968.62
528.859	953.62
529.074	942.62
529.289	944.62
529.503	972.62
529.718	933.62
529.933	954.62
530.148	946.62
530.363	956.62
530.577	937.62
530.792	936.62
531.007	935.62
531.221	948.62
531.436	989.62
531.651	951.62
531.865	926.62
532.08	960.62
532.295	970.62
532.509	933.62
532.724	952.62
532.938	958.62
533.153	945.62
533.367	948.62
533.582	967.62
533.796	940.62
534.011	916.62
534.225	970.62
534.44	929.62
534.654	944.62
534.868	932.62
535.083	909.62
535.297	915.62
535.511	948.62
535.726	908.62
535.94	907.62
536.154	869.62
536.369	883.62
536.583	884.62
536.797	896.62
537.011	863.62
537.225	898.62
537.44	879.62
537.654	894.62
537.868	900.62
538.082	886.62
538.296	867.62
538.51	875.62
538.724	844.62
538.938	883.62
539.153	875.62
539.367	868.62
539.581	856.62
539.795	850.62
540.009	869.62
540.222	840.62
540.436	837.62
540.65	823.62
540.864	853.62
541.078	862.62
541.292	845.62
541.506	859.62
541.72	850.62
541.934	852.62
542.147	846.62
542.361	849.62
542.575	826.62
542.789	849.62
543.002	828.62
543.216	830.62
543.43	828.62
543.644	810.62
543.857	829.62
544.071	838.62
544.285	861.62
544.498	826.62
544.712	861.62
544.925	852.62
545.139	864.62
545.352	848.62
545.566	871.62
545.779	866.62
545.993	885.62
546.206	869.62
546.42	877.62
546.633	870.62
546.847	840.62
547.06	866.62
547.274	893.62
547.487	858.62
547.7	861.62
547.914	890.62
548.127	870.62
548.34	896.62
548.554	870.62
548.767	861.62
548.98	872.62
549.193	858.62
549.407	901.62
549.62	882.62
549.833	902.62
550.046	907.62
550.259	883.62
550.473	853.62
550.686	899.62
550.899	864.62
551.112	805.62
551.325	838.62
551.538	849.62
551.751	842.62
551.964	833.62
552.177	860.62
552.39	877.62
552.603	909.62
552.816	924.62
553.029	934.62
553.242	975.62
553.455	981.62
553.667	985.62
553.88	962.62
554.093	945.62
554.306	924.62
554.519	881.62
554.732	875.62
554.944	841.62
555.157	803.62
555.37	820.62
555.583	791.62
555.795	798.62
556.008	779.62
556.221	773.62
556.433	761.62
556.646	749.62
556.859	744.62
557.071	788.62
557.284	767.62
557.496	772.62
557.709	747.62
557.921	746.62
558.134	726.62
558.346	724.62
558.559	733.62
558.771	752.62
558.984	729.62
559.196	738.62
559.409	740.62
559.621	736.62
559.833	691.62
560.046	683.62
560.258	663.62
560.47	719.62
560.683	697.62
560.895	697.62
561.107	700.62
561.32	706.62
561.532	722.62
561.744	700.62
561.956	698.62
562.168	726.62
562.381	728.62
562.593	732.62
562.805	712.62
563.017	733.62
563.229	736.62
563.441	747.62
563.653	710.62
563.865	737.62
564.077	707.62
564.289	737.62
564.501	763.62
564.713	744.62
564.925	758.62
565.137	780.62
565.349	805.62
565.561	802.62
565.773	859.62
565.985	882.62
566.197	924.62
566.408	1001.62
566.62	1083.62
566.832	1182.62
567.044	1215.62
567.255	1179.62
567.467	1244.62
567.679	1256.62
567.891	1457.62
568.102	1496.62
568.314	1387.62
568.526	1252.62
568.737	1131.62
568.949	1028.62
569.161	916.62
569.372	871.62
569.584	811.62
569.795	783.62
570.007	760.62
570.218	733.62
570.43	747.62
570.641	718.62
570.853	742.62
571.064	754.62
571.276	744.62
571.487	737.62
571.698	689.62
571.91	692.62
572.121	656.62
572.333	632.62
572.544	655.62
572.755	620.62
572.966	629.62
573.178	635.62
573.389	624.62
573.6	597.62
573.811	584.62
574.023	592.62
574.234	582.62
574.445	592.62
574.656	582.62
574.867	602.62
575.078	597.62
575.289	587.62
575.501	572.62
575.712	576.62
575.923	590.62
576.134	555.62
576.345	566.62
576.556	569.62
576.767	554.62
576.978	571.62
577.188	536.62
577.399	547.62
577.61	534.62
577.821	549.62
578.032	539.62
578.243	532.62
578.454	515.62
578.665	530.62
578.875	533.62
579.086	527.62
579.297	530.62
579.508	532.62
579.718	524.62
579.929	533.62
580.14	504.62
580.35	511.62
580.561	502.62
580.772	513.62
580.982	523.62
581.193	512.62
581.403	516.62
581.614	507.62
581.825	507.62
582.035	496.62
582.246	486.62
582.456	496.62
582.667	509.62
582.877	502.62
583.087	493.62
583.298	491.62
583.508	465.62
583.719	487.62
583.929	482.62
584.139	482.62
584.35	494.62
584.56	475.62
584.77	474.62
584.981	494.62
585.191	505.62
585.401	470.62
585.611	474.62
585.821	474.62
586.032	496.62
586.242	472.62
586.452	485.62
586.662	476.62
586.872	475.62
587.082	474.62
587.292	460.62
587.502	464.62
587.713	451.62
587.923	473.62
588.133	490.62
588.343	472.62
588.553	455.62
588.762	481.62
588.972	461.62
589.182	442.62
589.392	461.62
589.602	469.62
589.812	468.62
590.022	475.62
590.232	477.62
590.441	472.62
590.651	477.62
590.861	494.62
591.071	469.62
591.281	498.62
591.49	486.62
591.7	489.62
591.91	503.62
592.119	510.62
592.329	517.62
592.539	524.62
592.748	537.62
592.958	560.62
593.167	597.62
593.377	608.62
593.587	617.62
593.796	611.62
594.006	616.62
594.215	616.62
594.424	630.62
594.634	616.62
594.843	562.62
595.053	543.62
595.262	530.62
595.472	520.62
595.681	512.62
595.89	480.62
596.1	467.62
596.309	466.62
596.518	459.62
596.727	459.62
596.937	439.62
597.146	435.62
597.355	428.62
597.564	411.62
597.774	412.62
597.983	410.62
598.192	431.62
598.401	412.62
598.61	417.62
598.819	414.62
599.028	393.62
599.237	410.62
599.446	412.62
599.655	403.62
599.864	407.62
600.073	411.62
600.282	381.62
600.491	387.62
600.7	381.62
600.909	382.62
601.118	402.62
601.327	395.62
601.536	380.62
601.745	392.62
601.953	371.62
602.162	382.62
602.371	393.62
602.58	385.62
602.789	384.62
602.997	393.62
603.206	392.62
603.415	377.62
603.623	379.62
603.832	378.62
604.041	366.62
604.249	359.62
604.458	380.62
604.666	366.62
604.875	368.62
605.084	384.62
605.292	373.62
605.501	353.62
605.709	388.62
605.918	362.62
606.126	353.62
606.334	368.62
606.543	356.62
606.751	345.62
606.96	373.62
607.168	371.62
607.376	349.62
607.585	339.62
607.793	373.62
608.001	354.62
608.21	350.62
608.418	350.62
608.626	361.62
608.834	341.62
609.043	359.62
609.251	357.62
609.459	344.62
609.667	362.62
609.875	337.62
610.083	347.62
610.291	347.62
610.499	360.62
610.707	372.62
610.916	330.62
611.124	353.62
611.332	341.62
611.54	342.62
611.748	326.62
611.955	346.62
612.163	328.62
612.371	345.62
612.579	346.62
612.787	348.62
612.995	360.62
613.203	338.62
613.411	342.62
613.618	340.62
613.826	337.62
614.034	342.62
614.242	345.62
614.449	337.62
614.657	348.62
614.865	351.62
615.072	324.62
615.28	340.62
615.488	325.62
615.695	335.62
615.903	339.62
616.111	335.62
616.318	342.62
616.526	340.62
616.733	338.62
616.941	344.62
617.148	341.62
617.356	341.62
617.563	347.62
617.771	328.62
617.978	333.62
618.185	333.62
618.393	323.62
618.6	343.62
618.807	348.62
619.015	342.62
619.222	334.62
619.429	320.62
619.637	335.62
619.844	346.62
620.051	340.62
620.258	330.62
620.466	322.62
620.673	312.62
620.88	298.62
621.087	318.62
621.294	337.62
621.501	299.62
621.708	338.62
621.915	317.62
622.122	320.62
622.329	304.62
622.536	294.62
622.743	318.62
622.95	291.62
623.157	299.62
623.364	301.62
623.571	305.62
623.778	299.62
623.985	305.62
624.192	287.62
624.399	306.62
624.606	302.62
624.812	296.62
625.019	296.62
625.226	296.62
625.433	286.62
625.639	292.62
625.846	292.62
626.053	266.62
626.259	278.62
626.466	273.62
626.673	275.62
626.879	277.62
627.086	276.62
627.293	285.62
627.499	283.62
627.706	277.62
627.912	268.62
628.119	278.62
628.325	274.62
628.532	287.62
628.738	258.62
628.945	273.62
629.151	269.62
629.357	277.62
629.564	284.62
629.77	272.62
629.976	270.62
630.183	243.62
630.389	250.62
630.595	273.62
630.802	262.62
631.008	261.62
631.214	258.62
631.42	263.62
631.627	265.62
631.833	256.62
632.039	251.62
632.245	257.62
632.451	253.62
632.657	233.62
632.863	247.62
633.069	260.62
633.275	274.62
633.481	250.62
633.688	243.62
633.893	236.62
634.099	262.62
634.305	260.62
634.511	264.62
634.717	235.62
634.923	234.62
635.129	245.62
635.335	248.62
635.541	243.62
635.747	252.62
635.952	264.62
636.158	235.62
636.364	247.62
636.57	235.62
636.775	248.62
636.981	259.62
637.187	252.62
637.392	242.62
637.598	256.62
637.804	253.62
638.009	249.62
638.215	240.62
638.421	232.62
638.626	241.62
638.832	220.62
639.037	229.62
639.243	231.62
639.448	233.62
639.654	220.62
639.859	214.62
640.065	221.62
640.27	236.62
640.475	210.62
640.681	212.62
640.886	228.62
641.091	206.62
641.297	209.62
641.502	207.62
641.707	212.62
641.913	216.62
642.118	221.62
642.323	220.62
642.528	224.62
642.733	218.62
642.939	235.62
643.144	207.62
643.349	208.62
643.554	205.62
643.759	224.62
643.964	195.62
644.169	206.62
644.374	197.62
644.579	220.62
644.784	206.62
644.989	217.62
645.194	221.62
645.399	221.62
645.604	217.62
645.809	221.62
646.014	218.62
646.219	224.62
646.423	221.62
646.628	210.62
646.833	227.62
647.038	221.62
647.243	208.62
647.447	216.62
647.652	221.62
647.857	216.62
648.062	219.62
648.266	250.62
648.471	226.62
648.676	229.62
648.88	224.62
649.085	216.62
649.289	211.62
649.494	196.62
649.698	206.62
649.903	208.62
650.107	204.62
650.312	200.62
650.516	186.62
650.721	192.62
650.925	193.62
651.13	201.62
651.334	198.62
651.539	191.62
651.743	190.62
651.947	193.62
652.152	192.62
652.356	184.62
652.56	167.62
652.764	186.62
652.969	186.62
653.173	161.62
653.377	171.62
653.581	171.62
653.785	165.62
653.99	165.62
654.194	172.62
654.398	175.62
654.602	172.62
654.806	160.62
655.01	150.62
655.214	158.62
655.418	146.62
655.622	158.62
655.826	156.62
656.03	141.62
656.234	139.62
656.438	154.62
656.642	131.62
656.846	150.62
657.049	155.62
657.253	146.62
657.457	131.62
657.661	135.62
657.865	147.62
658.068	124.62
658.272	134.62
658.476	123.62
658.68	124.62
658.883	123.62
659.087	99.62
659.291	113.62
659.494	94.62
659.698	106.62
659.901	91.62
660.105	96.62
660.309	101.62
660.512	101.62
660.716	96.62
660.919	95.62
661.123	93.62
661.326	86.62
661.53	91.62
661.733	106.62
661.936	96.62
662.14	91.62
662.343	91.62
662.546	89.62
662.75	92.62
662.953	106.62
663.156	82.62
663.36	79.62
663.563	84.62
663.766	85.62
663.969	85.62
664.173	83.62
664.376	92.62
664.579	93.62
664.782	82.62
664.985	69.62
665.188	77.62
665.391	67.62
665.594	82.62
665.797	86.62
666	83.62
666.203	80.62
666.406	87.62
666.609	83.62
666.812	78.62
667.015	92.62
667.218	88.62
667.421	70.62
667.624	79.62
667.827	84.62
668.03	81.62
668.232	78.62
668.435	89.62
668.638	81.62
668.841	81.62
669.043	76.62
669.246	82.62
669.449	98.62
669.651	88.62
669.854	89.62
670.057	81.62
670.259	76.62
670.462	86.62
670.665	76.62
670.867	86.62
671.07	91.62
671.272	88.62
671.475	76.62
671.677	86.62
671.88	77.62
672.082	68.62
672.284	78.62
672.487	75.62
672.689	81.62
672.892	76.62
