Data from Ni(NO3)2@0.25M.TitratingCurve.Agarose3%dH2O.NegLispCup.LampEnergy10.LIBS07252019_HRD10591_18-03-50-565.txt Node
Date: Thu Jul 25 18:03:50 EDT 2019
User: cochatt
Spectrometer: HR+D1059
Trigger mode: 1
Integration Time (sec): 1.000000E-1
Scans to average: 1
Electric dark correction enabled: true
Nonlinearity correction enabled: false
Boxcar width: 0
XAxis mode: Wavelengths
Number of Pixels in Spectrum: 2048
>>>>>Begin Spectral Data<<<<<
223.165	-18.25
223.4	-18.25
223.635	-18.25
223.869	-24.25
224.104	-9.25
224.338	-3.25
224.573	-12.25
224.808	-24.25
225.042	-1.25
225.277	-11.25
225.511	2.75
225.746	-8.25
225.98	0.75
226.215	10.75
226.449	13.75
226.683	12.75
226.918	44.75
227.152	26.75
227.387	34.75
227.621	52.75
227.856	36.75
228.09	49.75
228.324	54.75
228.559	53.75
228.793	56.75
229.027	81.75
229.262	87.75
229.496	86.75
229.73	84.75
229.964	88.75
230.199	99.75
230.433	90.75
230.667	90.75
230.901	88.75
231.136	101.75
231.37	106.75
231.604	106.75
231.838	122.75
232.072	100.75
232.306	92.75
232.541	108.75
232.775	93.75
233.009	104.75
233.243	106.75
233.477	111.75
233.711	107.75
233.945	102.75
234.179	103.75
234.413	93.75
234.647	96.75
234.881	110.75
235.115	102.75
235.349	98.75
235.583	91.75
235.817	101.75
236.051	104.75
236.285	70.75
236.519	103.75
236.753	120.75
236.987	110.75
237.221	104.75
237.455	102.75
237.689	100.75
237.922	120.75
238.156	110.75
238.39	102.75
238.624	97.75
238.858	111.75
239.091	108.75
239.325	104.75
239.559	116.75
239.793	112.75
240.027	116.75
240.26	98.75
240.494	105.75
240.728	121.75
240.961	112.75
241.195	109.75
241.429	116.75
241.662	118.75
241.896	121.75
242.13	118.75
242.363	120.75
242.597	119.75
242.83	120.75
243.064	122.75
243.298	123.75
243.531	107.75
243.765	106.75
243.998	120.75
244.232	114.75
244.465	116.75
244.699	115.75
244.932	122.75
245.166	118.75
245.399	129.75
245.633	136.75
245.866	119.75
246.099	136.75
246.333	133.75
246.566	110.75
246.8	116.75
247.033	124.75
247.266	137.75
247.5	131.75
247.733	120.75
247.966	141.75
248.2	121.75
248.433	132.75
248.666	152.75
248.899	139.75
249.133	140.75
249.366	138.75
249.599	152.75
249.832	146.75
250.066	152.75
250.299	142.75
250.532	150.75
250.765	144.75
250.998	158.75
251.231	146.75
251.465	177.75
251.698	161.75
251.931	160.75
252.164	152.75
252.397	168.75
252.63	170.75
252.863	149.75
253.096	172.75
253.329	184.75
253.562	180.75
253.795	163.75
254.028	178.75
254.261	165.75
254.494	180.75
254.727	194.75
254.96	194.75
255.193	198.75
255.426	188.75
255.659	180.75
255.892	197.75
256.124	190.75
256.357	199.75
256.59	199.75
256.823	190.75
257.056	194.75
257.289	202.75
257.521	194.75
257.754	217.75
257.987	200.75
258.22	196.75
258.452	224.75
258.685	197.75
258.918	222.75
259.151	217.75
259.383	204.75
259.616	203.75
259.849	190.75
260.081	219.75
260.314	231.75
260.547	220.75
260.779	232.75
261.012	214.75
261.244	210.75
261.477	229.75
261.71	221.75
261.942	221.75
262.175	226.75
262.407	220.75
262.64	227.75
262.872	225.75
263.105	226.75
263.337	218.75
263.57	223.75
263.802	227.75
264.035	222.75
264.267	240.75
264.499	229.75
264.732	229.75
264.964	224.75
265.197	233.75
265.429	242.75
265.661	234.75
265.894	250.75
266.126	222.75
266.358	228.75
266.591	236.75
266.823	232.75
267.055	240.75
267.287	233.75
267.52	260.75
267.752	246.75
267.984	232.75
268.216	248.75
268.448	257.75
268.681	247.75
268.913	249.75
269.145	249.75
269.377	258.75
269.609	259.75
269.841	233.75
270.073	255.75
270.306	260.75
270.538	258.75
270.77	266.75
271.002	250.75
271.234	246.75
271.466	242.75
271.698	258.75
271.93	264.75
272.162	257.75
272.394	261.75
272.626	270.75
272.858	264.75
273.09	248.75
273.322	258.75
273.553	247.75
273.785	259.75
274.017	261.75
274.249	257.75
274.481	263.75
274.713	254.75
274.945	249.75
275.176	273.75
275.408	261.75
275.64	269.75
275.872	281.75
276.104	275.75
276.335	240.75
276.567	259.75
276.799	256.75
277.031	270.75
277.262	269.75
277.494	276.75
277.726	264.75
277.957	252.75
278.189	263.75
278.421	265.75
278.652	275.75
278.884	286.75
279.115	280.75
279.347	288.75
279.579	272.75
279.81	274.75
280.042	272.75
280.273	273.75
280.505	264.75
280.736	276.75
280.968	278.75
281.199	284.75
281.431	282.75
281.662	268.75
281.894	284.75
282.125	277.75
282.356	292.75
282.588	284.75
282.819	272.75
283.051	290.75
283.282	260.75
283.513	279.75
283.745	276.75
283.976	271.75
284.207	297.75
284.439	299.75
284.67	282.75
284.901	270.75
285.132	301.75
285.364	279.75
285.595	268.75
285.826	281.75
286.057	270.75
286.288	280.75
286.52	300.75
286.751	279.75
286.982	269.75
287.213	281.75
287.444	286.75
287.675	285.75
287.906	281.75
288.138	284.75
288.369	292.75
288.6	292.75
288.831	286.75
289.062	288.75
289.293	285.75
289.524	277.75
289.755	270.75
289.986	287.75
290.217	298.75
290.448	282.75
290.679	299.75
290.91	306.75
291.141	291.75
291.371	281.75
291.602	284.75
291.833	279.75
292.064	265.75
292.295	294.75
292.526	297.75
292.757	278.75
292.987	273.75
293.218	265.75
293.449	297.75
293.68	288.75
293.91	298.75
294.141	282.75
294.372	267.75
294.603	284.75
294.833	279.75
295.064	282.75
295.295	294.75
295.525	282.75
295.756	287.75
295.987	301.75
296.217	291.75
296.448	273.75
296.679	283.75
296.909	278.75
297.14	295.75
297.37	319.75
297.601	320.75
297.831	282.75
298.062	302.75
298.292	299.75
298.523	292.75
298.753	295.75
298.984	303.75
299.214	318.75
299.445	313.75
299.675	323.75
299.905	290.75
300.136	328.75
300.366	327.75
300.597	323.75
300.827	314.75
301.057	315.75
301.288	333.75
301.518	323.75
301.748	317.75
301.979	314.75
302.209	310.75
302.439	320.75
302.669	330.75
302.9	308.75
303.13	324.75
303.36	323.75
303.59	324.75
303.82	334.75
304.051	317.75
304.281	331.75
304.511	314.75
304.741	324.75
304.971	328.75
305.201	346.75
305.431	330.75
305.661	331.75
305.891	318.75
306.121	324.75
306.352	337.75
306.582	316.75
306.812	313.75
307.042	314.75
307.272	337.75
307.502	334.75
307.731	331.75
307.961	335.75
308.191	310.75
308.421	329.75
308.651	318.75
308.881	341.75
309.111	336.75
309.341	314.75
309.571	328.75
309.8	330.75
310.03	343.75
310.26	357.75
310.49	362.75
310.72	345.75
310.949	324.75
311.179	321.75
311.409	333.75
311.639	364.75
311.868	370.75
312.098	380.75
312.328	362.75
312.557	356.75
312.787	362.75
313.017	353.75
313.246	363.75
313.476	375.75
313.706	381.75
313.935	372.75
314.165	375.75
314.394	365.75
314.624	370.75
314.853	378.75
315.083	397.75
315.312	387.75
315.542	395.75
315.771	380.75
316.001	371.75
316.23	378.75
316.46	390.75
316.689	390.75
316.919	384.75
317.148	408.75
317.377	398.75
317.607	389.75
317.836	402.75
318.065	382.75
318.295	387.75
318.524	419.75
318.753	382.75
318.983	427.75
319.212	412.75
319.441	421.75
319.67	424.75
319.9	427.75
320.129	410.75
320.358	428.75
320.587	409.75
320.816	404.75
321.046	425.75
321.275	423.75
321.504	441.75
321.733	421.75
321.962	436.75
322.191	422.75
322.42	434.75
322.649	434.75
322.878	453.75
323.108	451.75
323.337	462.75
323.566	434.75
323.795	478.75
324.024	496.75
324.253	468.75
324.482	485.75
324.71	469.75
324.939	482.75
325.168	470.75
325.397	472.75
325.626	486.75
325.855	501.75
326.084	494.75
326.313	519.75
326.542	483.75
326.77	531.75
326.999	497.75
327.228	510.75
327.457	525.75
327.686	499.75
327.914	517.75
328.143	518.75
328.372	497.75
328.6	532.75
328.829	513.75
329.058	519.75
329.287	518.75
329.515	537.75
329.744	538.75
329.972	547.75
330.201	564.75
330.43	536.75
330.658	562.75
330.887	552.75
331.115	560.75
331.344	566.75
331.572	560.75
331.801	595.75
332.03	577.75
332.258	590.75
332.486	600.75
332.715	609.75
332.943	605.75
333.172	608.75
333.4	643.75
333.629	648.75
333.857	636.75
334.085	646.75
334.314	661.75
334.542	671.75
334.771	664.75
334.999	660.75
335.227	652.75
335.455	658.75
335.684	652.75
335.912	692.75
336.14	678.75
336.369	678.75
336.597	700.75
336.825	649.75
337.053	675.75
337.281	699.75
337.51	665.75
337.738	640.75
337.966	651.75
338.194	670.75
338.422	655.75
338.65	641.75
338.878	644.75
339.106	644.75
339.334	654.75
339.562	637.75
339.79	601.75
340.018	627.75
340.246	612.75
340.474	618.75
340.702	621.75
340.93	602.75
341.158	608.75
341.386	627.75
341.614	640.75
341.842	626.75
342.07	613.75
342.298	610.75
342.526	604.75
342.754	608.75
342.981	612.75
343.209	638.75
343.437	652.75
343.665	652.75
343.893	674.75
344.12	665.75
344.348	654.75
344.576	668.75
344.804	661.75
345.031	637.75
345.259	663.75
345.487	643.75
345.714	620.75
345.942	633.75
346.17	658.75
346.397	640.75
346.625	601.75
346.853	610.75
347.08	599.75
347.308	608.75
347.535	603.75
347.763	582.75
347.99	606.75
348.218	611.75
348.445	600.75
348.673	610.75
348.9	583.75
349.128	610.75
349.355	603.75
349.583	592.75
349.81	583.75
350.037	592.75
350.265	576.75
350.492	578.75
350.72	576.75
350.947	601.75
351.174	576.75
351.402	603.75
351.629	615.75
351.856	583.75
352.083	587.75
352.311	578.75
352.538	589.75
352.765	586.75
352.992	568.75
353.22	554.75
353.447	556.75
353.674	585.75
353.901	562.75
354.128	554.75
354.355	545.75
354.583	553.75
354.81	581.75
355.037	557.75
355.264	549.75
355.491	554.75
355.718	572.75
355.945	580.75
356.172	566.75
356.399	576.75
356.626	586.75
356.853	584.75
357.08	573.75
357.307	573.75
357.534	573.75
357.761	563.75
357.988	583.75
358.215	577.75
358.441	564.75
358.668	566.75
358.895	576.75
359.122	563.75
359.349	562.75
359.576	576.75
359.802	585.75
360.029	546.75
360.256	579.75
360.483	585.75
360.709	565.75
360.936	583.75
361.163	584.75
361.39	557.75
361.616	575.75
361.843	597.75
362.07	588.75
362.296	585.75
362.523	572.75
362.749	585.75
362.976	531.75
363.203	570.75
363.429	554.75
363.656	536.75
363.882	578.75
364.109	580.75
364.335	560.75
364.562	537.75
364.788	552.75
365.015	535.75
365.241	546.75
365.468	545.75
365.694	576.75
365.92	548.75
366.147	557.75
366.373	547.75
366.599	564.75
366.826	568.75
367.052	571.75
367.278	563.75
367.505	560.75
367.731	563.75
367.957	557.75
368.184	572.75
368.41	543.75
368.636	540.75
368.862	542.75
369.089	553.75
369.315	568.75
369.541	585.75
369.767	553.75
369.993	539.75
370.219	549.75
370.445	576.75
370.672	580.75
370.898	582.75
371.124	553.75
371.35	556.75
371.576	570.75
371.802	568.75
372.028	571.75
372.254	575.75
372.48	577.75
372.706	570.75
372.932	589.75
373.158	583.75
373.384	563.75
373.61	563.75
373.835	575.75
374.061	589.75
374.287	582.75
374.513	588.75
374.739	593.75
374.965	581.75
375.191	582.75
375.416	617.75
375.642	582.75
375.868	592.75
376.094	585.75
376.319	580.75
376.545	557.75
376.771	575.75
376.997	574.75
377.222	565.75
377.448	572.75
377.674	562.75
377.899	544.75
378.125	545.75
378.35	578.75
378.576	550.75
378.802	542.75
379.027	563.75
379.253	568.75
379.478	568.75
379.704	552.75
379.929	539.75
380.155	541.75
380.38	553.75
380.606	536.75
380.831	553.75
381.057	532.75
381.282	564.75
381.507	543.75
381.733	553.75
381.958	552.75
382.184	549.75
382.409	539.75
382.634	534.75
382.86	565.75
383.085	552.75
383.31	554.75
383.535	569.75
383.761	566.75
383.986	573.75
384.211	593.75
384.436	595.75
384.662	595.75
384.887	604.75
385.112	593.75
385.337	618.75
385.562	610.75
385.787	605.75
386.013	634.75
386.238	624.75
386.463	620.75
386.688	605.75
386.913	624.75
387.138	627.75
387.363	600.75
387.588	648.75
387.813	630.75
388.038	630.75
388.263	593.75
388.488	624.75
388.713	630.75
388.938	607.75
389.163	605.75
389.387	623.75
389.612	607.75
389.837	592.75
390.062	603.75
390.287	604.75
390.512	597.75
390.736	598.75
390.961	629.75
391.186	636.75
391.411	653.75
391.636	666.75
391.86	658.75
392.085	661.75
392.31	691.75
392.534	667.75
392.759	665.75
392.984	639.75
393.208	662.75
393.433	674.75
393.658	671.75
393.882	646.75
394.107	662.75
394.331	664.75
394.556	646.75
394.78	654.75
395.005	665.75
395.229	660.75
395.454	657.75
395.678	700.75
395.903	710.75
396.127	674.75
396.352	688.75
396.576	669.75
396.801	657.75
397.025	673.75
397.249	712.75
397.474	702.75
397.698	685.75
397.922	698.75
398.147	717.75
398.371	710.75
398.595	707.75
398.82	716.75
399.044	809.75
399.268	839.75
399.492	877.75
399.717	908.75
399.941	924.75
400.165	900.75
400.389	859.75
400.613	820.75
400.837	838.75
401.062	806.75
401.286	797.75
401.51	752.75
401.734	772.75
401.958	799.75
402.182	786.75
402.406	754.75
402.63	771.75
402.854	812.75
403.078	782.75
403.302	795.75
403.526	805.75
403.75	800.75
403.974	811.75
404.198	794.75
404.422	804.75
404.645	804.75
404.869	779.75
405.093	832.75
405.317	790.75
405.541	824.75
405.765	818.75
405.988	806.75
406.212	836.75
406.436	826.75
406.66	854.75
406.883	838.75
407.107	875.75
407.331	900.75
407.555	928.75
407.778	940.75
408.002	925.75
408.226	901.75
408.449	905.75
408.673	902.75
408.896	896.75
409.12	870.75
409.344	883.75
409.567	896.75
409.791	880.75
410.014	882.75
410.238	869.75
410.461	853.75
410.685	826.75
410.908	828.75
411.132	841.75
411.355	833.75
411.578	838.75
411.802	840.75
412.025	823.75
412.249	837.75
412.472	836.75
412.695	838.75
412.919	828.75
413.142	826.75
413.365	801.75
413.589	828.75
413.812	802.75
414.035	820.75
414.258	839.75
414.482	828.75
414.705	833.75
414.928	832.75
415.151	830.75
415.374	800.75
415.597	809.75
415.821	837.75
416.044	812.75
416.267	805.75
416.49	813.75
416.713	804.75
416.936	813.75
417.159	808.75
417.382	801.75
417.605	796.75
417.828	809.75
418.051	808.75
418.274	790.75
418.497	805.75
418.72	840.75
418.943	806.75
419.166	830.75
419.389	924.75
419.611	894.75
419.834	900.75
420.057	865.75
420.28	849.75
420.503	806.75
420.726	809.75
420.948	827.75
421.171	792.75
421.394	830.75
421.617	825.75
421.839	815.75
422.062	821.75
422.285	796.75
422.507	817.75
422.73	802.75
422.953	805.75
423.175	813.75
423.398	835.75
423.621	809.75
423.843	813.75
424.066	838.75
424.288	841.75
424.511	835.75
424.733	828.75
424.956	844.75
425.178	829.75
425.401	838.75
425.623	852.75
425.846	807.75
426.068	827.75
426.291	800.75
426.513	800.75
426.735	808.75
426.958	803.75
427.18	782.75
427.402	805.75
427.625	803.75
427.847	806.75
428.069	795.75
428.292	824.75
428.514	794.75
428.736	789.75
428.958	820.75
429.181	786.75
429.403	794.75
429.625	781.75
429.847	792.75
430.069	808.75
430.292	794.75
430.514	799.75
430.736	802.75
430.958	783.75
431.18	787.75
431.402	802.75
431.624	822.75
431.846	772.75
432.068	788.75
432.29	814.75
432.512	818.75
432.734	814.75
432.956	836.75
433.178	821.75
433.4	825.75
433.622	833.75
433.844	813.75
434.066	818.75
434.287	830.75
434.509	821.75
434.731	857.75
434.953	867.75
435.175	877.75
435.397	901.75
435.618	853.75
435.84	824.75
436.062	806.75
436.284	827.75
436.505	786.75
436.727	824.75
436.949	823.75
437.17	804.75
437.392	821.75
437.614	788.75
437.835	792.75
438.057	774.75
438.278	788.75
438.5	782.75
438.721	790.75
438.943	795.75
439.165	820.75
439.386	801.75
439.608	811.75
439.829	794.75
440.05	833.75
440.272	844.75
440.493	848.75
440.715	856.75
440.936	837.75
441.158	869.75
441.379	857.75
441.6	851.75
441.822	882.75
442.043	893.75
442.264	888.75
442.486	866.75
442.707	857.75
442.928	883.75
443.149	885.75
443.371	881.75
443.592	888.75
443.813	885.75
444.034	871.75
444.255	903.75
444.476	925.75
444.698	931.75
444.919	950.75
445.14	1044.75
445.361	955.75
445.582	906.75
445.803	898.75
446.024	870.75
446.245	862.75
446.466	852.75
446.687	834.75
446.908	833.75
447.129	837.75
447.35	850.75
447.571	796.75
447.792	829.75
448.013	780.75
448.234	785.75
448.455	774.75
448.675	773.75
448.896	764.75
449.117	754.75
449.338	772.75
449.559	748.75
449.779	756.75
450	772.75
450.221	773.75
450.442	780.75
450.662	772.75
450.883	776.75
451.104	774.75
451.324	750.75
451.545	747.75
451.766	788.75
451.986	744.75
452.207	756.75
452.428	742.75
452.648	738.75
452.869	726.75
453.089	733.75
453.31	728.75
453.53	714.75
453.751	714.75
453.971	708.75
454.192	710.75
454.412	723.75
454.633	722.75
454.853	750.75
455.073	716.75
455.294	772.75
455.514	741.75
455.734	711.75
455.955	711.75
456.175	731.75
456.395	746.75
456.616	713.75
456.836	732.75
457.056	704.75
457.276	716.75
457.497	716.75
457.717	707.75
457.937	721.75
458.157	726.75
458.377	740.75
458.598	738.75
458.818	767.75
459.038	782.75
459.258	800.75
459.478	819.75
459.698	834.75
459.918	839.75
460.138	889.75
460.358	894.75
460.578	871.75
460.798	902.75
461.018	910.75
461.238	901.75
461.458	941.75
461.678	914.75
461.898	916.75
462.118	944.75
462.338	973.75
462.558	970.75
462.777	981.75
462.997	1048.75
463.217	1082.75
463.437	1069.75
463.657	1099.75
463.876	1031.75
464.096	1026.75
464.316	1035.75
464.536	996.75
464.755	999.75
464.975	951.75
465.195	899.75
465.414	918.75
465.634	867.75
465.854	824.75
466.073	804.75
466.293	857.75
466.512	840.75
466.732	806.75
466.951	810.75
467.171	785.75
467.391	791.75
467.61	805.75
467.829	801.75
468.049	825.75
468.268	785.75
468.488	781.75
468.707	806.75
468.927	772.75
469.146	780.75
469.365	756.75
469.585	782.75
469.804	798.75
470.023	812.75
470.243	835.75
470.462	799.75
470.681	809.75
470.901	818.75
471.12	821.75
471.339	798.75
471.558	820.75
471.777	813.75
471.997	801.75
472.216	774.75
472.435	760.75
472.654	767.75
472.873	760.75
473.092	778.75
473.311	774.75
473.53	769.75
473.749	780.75
473.968	787.75
474.187	740.75
474.406	786.75
474.625	753.75
474.844	812.75
475.063	806.75
475.282	797.75
475.501	795.75
475.72	793.75
475.939	798.75
476.158	820.75
476.377	810.75
476.596	822.75
476.814	818.75
477.033	809.75
477.252	821.75
477.471	848.75
477.69	862.75
477.908	876.75
478.127	886.75
478.346	897.75
478.564	891.75
478.783	908.75
479.002	923.75
479.22	936.75
479.439	946.75
479.658	928.75
479.876	946.75
480.095	925.75
480.313	935.75
480.532	957.75
480.751	935.75
480.969	909.75
481.188	923.75
481.406	922.75
481.624	899.75
481.843	881.75
482.061	881.75
482.28	897.75
482.498	898.75
482.717	881.75
482.935	894.75
483.153	916.75
483.372	911.75
483.59	939.75
483.808	899.75
484.027	911.75
484.245	907.75
484.463	904.75
484.681	932.75
484.9	922.75
485.118	926.75
485.336	934.75
485.554	956.75
485.772	917.75
485.99	916.75
486.209	946.75
486.427	941.75
486.645	934.75
486.863	950.75
487.081	957.75
487.299	902.75
487.517	926.75
487.735	936.75
487.953	943.75
488.171	932.75
488.389	967.75
488.607	916.75
488.825	907.75
489.043	924.75
489.261	923.75
489.479	932.75
489.696	915.75
489.914	955.75
490.132	923.75
490.35	956.75
490.568	947.75
490.786	968.75
491.003	971.75
491.221	988.75
491.439	981.75
491.657	959.75
491.874	994.75
492.092	997.75
492.31	1026.75
492.527	1020.75
492.745	987.75
492.963	990.75
493.18	982.75
493.398	1016.75
493.615	1042.75
493.833	1042.75
494.05	997.75
494.268	998.75
494.485	1009.75
494.703	1003.75
494.92	1028.75
495.138	1033.75
495.355	1017.75
495.573	1057.75
495.79	1019.75
496.008	1088.75
496.225	1059.75
496.442	1094.75
496.66	1107.75
496.877	1110.75
497.094	1119.75
497.312	1114.75
497.529	1133.75
497.746	1160.75
497.963	1212.75
498.181	1214.75
498.398	1242.75
498.615	1304.75
498.832	1370.75
499.049	1432.75
499.267	1479.75
499.484	1545.75
499.701	1632.75
499.918	1759.75
500.135	1832.75
500.352	1957.75
500.569	1970.75
500.786	1933.75
501.003	1895.75
501.22	1899.75
501.437	1735.75
501.654	1611.75
501.871	1589.75
502.088	1504.75
502.305	1431.75
502.522	1401.75
502.739	1364.75
502.956	1266.75
503.172	1234.75
503.389	1216.75
503.606	1192.75
503.823	1204.75
504.04	1152.75
504.256	1152.75
504.473	1134.75
504.69	1133.75
504.907	1107.75
505.123	1082.75
505.34	1061.75
505.557	1026.75
505.773	1006.75
505.99	999.75
506.207	951.75
506.423	963.75
506.64	936.75
506.856	966.75
507.073	902.75
507.289	942.75
507.506	898.75
507.722	921.75
507.939	884.75
508.155	896.75
508.372	888.75
508.588	875.75
508.805	869.75
509.021	866.75
509.238	883.75
509.454	860.75
509.67	868.75
509.887	852.75
510.103	854.75
510.319	824.75
510.536	829.75
510.752	847.75
510.968	824.75
511.184	829.75
511.401	833.75
511.617	806.75
511.833	818.75
512.049	821.75
512.265	833.75
512.481	837.75
512.698	830.75
512.914	836.75
513.13	822.75
513.346	805.75
513.562	847.75
513.778	836.75
513.994	860.75
514.21	840.75
514.426	819.75
514.642	856.75
514.858	840.75
515.074	861.75
515.29	844.75
515.506	843.75
515.721	898.75
515.937	852.75
516.153	888.75
516.369	893.75
516.585	896.75
516.801	922.75
517.016	918.75
517.232	936.75
517.448	934.75
517.664	988.75
517.879	941.75
518.095	968.75
518.311	973.75
518.527	956.75
518.742	941.75
518.958	941.75
519.173	893.75
519.389	921.75
519.605	895.75
519.82	852.75
520.036	876.75
520.251	827.75
520.467	824.75
520.682	823.75
520.898	820.75
521.113	793.75
521.329	794.75
521.544	792.75
521.76	789.75
521.975	812.75
522.19	809.75
522.406	797.75
522.621	783.75
522.836	782.75
523.052	811.75
523.267	792.75
523.482	780.75
523.698	753.75
523.913	769.75
524.128	740.75
524.343	773.75
524.559	776.75
524.774	766.75
524.989	777.75
525.204	777.75
525.419	763.75
525.634	754.75
525.849	768.75
526.064	741.75
526.28	738.75
526.495	728.75
526.71	717.75
526.925	744.75
527.14	730.75
527.355	714.75
527.57	728.75
527.785	754.75
527.999	752.75
528.214	738.75
528.429	733.75
528.644	747.75
528.859	761.75
529.074	756.75
529.289	749.75
529.503	760.75
529.718	752.75
529.933	721.75
530.148	734.75
530.363	741.75
530.577	696.75
530.792	699.75
531.007	704.75
531.221	727.75
531.436	715.75
531.651	717.75
531.865	712.75
532.08	736.75
532.295	722.75
532.509	715.75
532.724	719.75
532.938	710.75
533.153	706.75
533.367	735.75
533.582	702.75
533.796	718.75
534.011	742.75
534.225	686.75
534.44	708.75
534.654	706.75
534.868	697.75
535.083	704.75
535.297	698.75
535.511	668.75
535.726	681.75
535.94	690.75
536.154	685.75
536.369	684.75
536.583	674.75
536.797	686.75
537.011	698.75
537.225	663.75
537.44	679.75
537.654	692.75
537.868	664.75
538.082	678.75
538.296	688.75
538.51	662.75
538.724	671.75
538.938	682.75
539.153	680.75
539.367	698.75
539.581	694.75
539.795	665.75
540.009	664.75
540.222	676.75
540.436	660.75
540.65	653.75
540.864	692.75
541.078	678.75
541.292	665.75
541.506	686.75
541.72	669.75
541.934	676.75
542.147	682.75
542.361	701.75
542.575	676.75
542.789	700.75
543.002	669.75
543.216	629.75
543.43	661.75
543.644	669.75
543.857	682.75
544.071	668.75
544.285	690.75
544.498	676.75
544.712	676.75
544.925	697.75
545.139	676.75
545.352	681.75
545.566	700.75
545.779	692.75
545.993	691.75
546.206	730.75
546.42	702.75
546.633	682.75
546.847	678.75
547.06	672.75
547.274	692.75
547.487	681.75
547.7	683.75
547.914	704.75
548.127	691.75
548.34	679.75
548.554	674.75
548.767	677.75
548.98	675.75
549.193	687.75
549.407	684.75
549.62	696.75
549.833	688.75
550.046	665.75
550.259	658.75
550.473	692.75
550.686	658.75
550.899	685.75
551.112	668.75
551.325	673.75
551.538	672.75
551.751	683.75
551.964	679.75
552.177	660.75
552.39	683.75
552.603	693.75
552.816	698.75
553.029	680.75
553.242	692.75
553.455	685.75
553.667	713.75
553.88	676.75
554.093	662.75
554.306	672.75
554.519	654.75
554.732	638.75
554.944	650.75
555.157	646.75
555.37	635.75
555.583	623.75
555.795	632.75
556.008	611.75
556.221	610.75
556.433	616.75
556.646	614.75
556.859	614.75
557.071	621.75
557.284	613.75
557.496	610.75
557.709	612.75
557.921	616.75
558.134	603.75
558.346	564.75
558.559	581.75
558.771	565.75
558.984	578.75
559.196	573.75
559.409	578.75
559.621	567.75
559.833	554.75
560.046	570.75
560.258	582.75
560.47	570.75
560.683	566.75
560.895	572.75
561.107	591.75
561.32	573.75
561.532	593.75
561.744	554.75
561.956	585.75
562.168	582.75
562.381	566.75
562.593	582.75
562.805	589.75
563.017	589.75
563.229	578.75
563.441	568.75
563.653	586.75
563.865	609.75
564.077	609.75
564.289	607.75
564.501	617.75
564.713	608.75
564.925	606.75
565.137	622.75
565.349	633.75
565.561	634.75
565.773	666.75
565.985	646.75
566.197	676.75
566.408	697.75
566.62	731.75
566.832	709.75
567.044	732.75
567.255	736.75
567.467	749.75
567.679	768.75
567.891	768.75
568.102	742.75
568.314	745.75
568.526	716.75
568.737	667.75
568.949	671.75
569.161	616.75
569.372	618.75
569.584	605.75
569.795	596.75
570.007	583.75
570.218	568.75
570.43	564.75
570.641	571.75
570.853	563.75
571.064	550.75
571.276	547.75
571.487	513.75
571.698	534.75
571.91	520.75
572.121	524.75
572.333	515.75
572.544	506.75
572.755	475.75
572.966	477.75
573.178	485.75
573.389	474.75
573.6	480.75
573.811	486.75
574.023	468.75
574.234	458.75
574.445	470.75
574.656	461.75
574.867	428.75
575.078	475.75
575.289	459.75
575.501	464.75
575.712	442.75
575.923	472.75
576.134	445.75
576.345	434.75
576.556	418.75
576.767	427.75
576.978	421.75
577.188	434.75
577.399	429.75
577.61	409.75
577.821	428.75
578.032	416.75
578.243	418.75
578.454	426.75
578.665	417.75
578.875	416.75
579.086	417.75
579.297	393.75
579.508	421.75
579.718	408.75
579.929	391.75
580.14	388.75
580.35	393.75
580.561	383.75
580.772	407.75
580.982	396.75
581.193	399.75
581.403	416.75
581.614	390.75
581.825	396.75
582.035	409.75
582.246	384.75
582.456	384.75
582.667	395.75
582.877	415.75
583.087	396.75
583.298	371.75
583.508	404.75
583.719	376.75
583.929	368.75
584.139	377.75
584.35	380.75
584.56	384.75
584.77	378.75
584.981	370.75
585.191	372.75
585.401	369.75
585.611	389.75
585.821	370.75
586.032	362.75
586.242	378.75
586.452	374.75
586.662	363.75
586.872	370.75
587.082	377.75
587.292	372.75
587.502	370.75
587.713	374.75
587.923	381.75
588.133	390.75
588.343	378.75
588.553	376.75
588.762	365.75
588.972	364.75
589.182	377.75
589.392	383.75
589.602	377.75
589.812	394.75
590.022	387.75
590.232	380.75
590.441	376.75
590.651	386.75
590.861	380.75
591.071	381.75
591.281	380.75
591.49	394.75
591.7	380.75
591.91	394.75
592.119	377.75
592.329	386.75
592.539	382.75
592.748	402.75
592.958	389.75
593.167	394.75
593.377	390.75
593.587	407.75
593.796	413.75
594.006	386.75
594.215	388.75
594.424	403.75
594.634	406.75
594.843	382.75
595.053	387.75
595.262	388.75
595.472	368.75
595.681	355.75
595.89	351.75
596.1	354.75
596.309	346.75
596.518	360.75
596.727	344.75
596.937	338.75
597.146	344.75
597.355	357.75
597.564	358.75
597.774	356.75
597.983	333.75
598.192	333.75
598.401	328.75
598.61	314.75
598.819	315.75
599.028	322.75
599.237	316.75
599.446	308.75
599.655	315.75
599.864	310.75
600.073	314.75
600.282	305.75
600.491	321.75
600.7	315.75
600.909	323.75
601.118	325.75
601.327	322.75
601.536	301.75
601.745	317.75
601.953	313.75
602.162	316.75
602.371	307.75
602.58	296.75
602.789	300.75
602.997	299.75
603.206	305.75
603.415	305.75
603.623	293.75
603.832	293.75
604.041	299.75
604.249	309.75
604.458	289.75
604.666	287.75
604.875	293.75
605.084	310.75
605.292	313.75
605.501	292.75
605.709	292.75
605.918	285.75
606.126	298.75
606.334	294.75
606.543	297.75
606.751	295.75
606.96	284.75
607.168	280.75
607.376	267.75
607.585	288.75
607.793	298.75
608.001	288.75
608.21	269.75
608.418	270.75
608.626	276.75
608.834	278.75
609.043	281.75
609.251	264.75
609.459	264.75
609.667	283.75
609.875	291.75
610.083	299.75
610.291	313.75
610.499	292.75
610.707	277.75
610.916	271.75
611.124	290.75
611.332	273.75
611.54	284.75
611.748	284.75
611.955	265.75
612.163	287.75
612.371	286.75
612.579	274.75
612.787	279.75
612.995	300.75
613.203	256.75
613.411	244.75
613.618	272.75
613.826	249.75
614.034	263.75
614.242	263.75
614.449	285.75
614.657	271.75
614.865	259.75
615.072	268.75
615.28	262.75
615.488	261.75
615.695	253.75
615.903	271.75
616.111	265.75
616.318	270.75
616.526	271.75
616.733	254.75
616.941	266.75
617.148	263.75
617.356	274.75
617.563	261.75
617.771	267.75
617.978	252.75
618.185	244.75
618.393	261.75
618.6	271.75
618.807	262.75
619.015	267.75
619.222	269.75
619.429	264.75
619.637	249.75
619.844	227.75
620.051	253.75
620.258	254.75
620.466	238.75
620.673	261.75
620.88	229.75
621.087	242.75
621.294	225.75
621.501	254.75
621.708	243.75
621.915	234.75
622.122	260.75
622.329	262.75
622.536	249.75
622.743	243.75
622.95	250.75
623.157	229.75
623.364	235.75
623.571	226.75
623.778	242.75
623.985	249.75
624.192	235.75
624.399	234.75
624.606	253.75
624.812	241.75
625.019	224.75
625.226	236.75
625.433	233.75
625.639	224.75
625.846	230.75
626.053	224.75
626.259	234.75
626.466	230.75
626.673	218.75
626.879	216.75
627.086	243.75
627.293	220.75
627.499	236.75
627.706	233.75
627.912	227.75
628.119	225.75
628.325	223.75
628.532	232.75
628.738	225.75
628.945	217.75
629.151	222.75
629.357	208.75
629.564	220.75
629.77	219.75
629.976	209.75
630.183	229.75
630.389	211.75
630.595	196.75
630.802	220.75
631.008	222.75
631.214	220.75
631.42	228.75
631.627	227.75
631.833	210.75
632.039	212.75
632.245	201.75
632.451	196.75
632.657	225.75
632.863	225.75
633.069	215.75
633.275	208.75
633.481	210.75
633.688	206.75
633.893	208.75
634.099	215.75
634.305	202.75
634.511	205.75
634.717	201.75
634.923	211.75
635.129	181.75
635.335	186.75
635.541	183.75
635.747	192.75
635.952	204.75
636.158	196.75
636.364	196.75
636.57	206.75
636.775	184.75
636.981	198.75
637.187	208.75
637.392	198.75
637.598	192.75
637.804	213.75
638.009	193.75
638.215	185.75
638.421	188.75
638.626	203.75
638.832	189.75
639.037	189.75
639.243	182.75
639.448	196.75
639.654	195.75
639.859	194.75
640.065	182.75
640.27	195.75
640.475	181.75
640.681	187.75
640.886	193.75
641.091	189.75
641.297	189.75
641.502	196.75
641.707	201.75
641.913	183.75
642.118	188.75
642.323	198.75
642.528	179.75
642.733	186.75
642.939	184.75
643.144	173.75
643.349	195.75
643.554	187.75
643.759	181.75
643.964	188.75
644.169	192.75
644.374	181.75
644.579	193.75
644.784	194.75
644.989	170.75
645.194	183.75
645.399	177.75
645.604	172.75
645.809	191.75
646.014	179.75
646.219	193.75
646.423	196.75
646.628	176.75
646.833	174.75
647.038	166.75
647.243	198.75
647.447	197.75
647.652	184.75
647.857	176.75
648.062	192.75
648.266	184.75
648.471	192.75
648.676	166.75
648.88	186.75
649.085	169.75
649.289	171.75
649.494	182.75
649.698	184.75
649.903	193.75
650.107	159.75
650.312	170.75
650.516	161.75
650.721	165.75
650.925	176.75
651.13	178.75
651.334	186.75
651.539	187.75
651.743	173.75
651.947	169.75
652.152	171.75
652.356	166.75
652.56	171.75
652.764	164.75
652.969	148.75
653.173	163.75
653.377	160.75
653.581	145.75
653.785	164.75
653.99	139.75
654.194	146.75
654.398	154.75
654.602	130.75
654.806	159.75
655.01	148.75
655.214	144.75
655.418	136.75
655.622	132.75
655.826	131.75
656.03	137.75
656.234	146.75
656.438	131.75
656.642	124.75
656.846	140.75
657.049	134.75
657.253	140.75
657.457	123.75
657.661	139.75
657.865	116.75
658.068	124.75
658.272	117.75
658.476	113.75
658.68	103.75
658.883	107.75
659.087	107.75
659.291	99.75
659.494	99.75
659.698	105.75
659.901	107.75
660.105	111.75
660.309	85.75
660.512	93.75
660.716	94.75
660.919	84.75
661.123	101.75
661.326	97.75
661.53	74.75
661.733	100.75
661.936	74.75
662.14	85.75
662.343	84.75
662.546	100.75
662.75	89.75
662.953	85.75
663.156	72.75
663.36	76.75
663.563	87.75
663.766	80.75
663.969	69.75
664.173	86.75
664.376	78.75
664.579	87.75
664.782	82.75
664.985	100.75
665.188	75.75
665.391	89.75
665.594	82.75
665.797	69.75
666	82.75
666.203	76.75
666.406	81.75
666.609	84.75
666.812	80.75
667.015	75.75
667.218	88.75
667.421	85.75
667.624	86.75
667.827	85.75
668.03	88.75
668.232	84.75
668.435	68.75
668.638	79.75
668.841	84.75
669.043	75.75
669.246	78.75
669.449	87.75
669.651	95.75
669.854	78.75
670.057	77.75
670.259	76.75
670.462	75.75
670.665	79.75
670.867	91.75
671.07	68.75
671.272	99.75
671.475	85.75
671.677	81.75
671.88	83.75
672.082	68.75
672.284	73.75
672.487	88.75
672.689	83.75
672.892	79.75
