Data from Ni(NO3)2@0.5M.TitratingCurve.Agarose3%dH2O.NegLispCup.LampEnergy10.LIBS07252019_HRD10591_18-00-23-564.txt Node
Date: Thu Jul 25 18:00:23 EDT 2019
User: cochatt
Spectrometer: HR+D1059
Trigger mode: 1
Integration Time (sec): 1.000000E-1
Scans to average: 1
Electric dark correction enabled: true
Nonlinearity correction enabled: false
Boxcar width: 0
XAxis mode: Wavelengths
Number of Pixels in Spectrum: 2048
>>>>>Begin Spectral Data<<<<<
223.165	-8.25
223.4	-8.25
223.635	-8.25
223.869	-29.25
224.104	-15.25
224.338	-19.25
224.573	-16.25
224.808	-7.25
225.042	-2.25
225.277	7.75
225.511	-11.25
225.746	8.75
225.98	-5.25
226.215	20.75
226.449	14.75
226.683	12.75
226.918	12.75
227.152	36.75
227.387	33.75
227.621	32.75
227.856	34.75
228.09	45.75
228.324	67.75
228.559	46.75
228.793	51.75
229.027	97.75
229.262	121.75
229.496	135.75
229.73	118.75
229.964	135.75
230.199	160.75
230.433	154.75
230.667	154.75
230.901	151.75
231.136	138.75
231.37	148.75
231.604	150.75
231.838	148.75
232.072	170.75
232.306	159.75
232.541	150.75
232.775	138.75
233.009	143.75
233.243	152.75
233.477	152.75
233.711	142.75
233.945	159.75
234.179	144.75
234.413	140.75
234.647	150.75
234.881	168.75
235.115	160.75
235.349	146.75
235.583	144.75
235.817	147.75
236.051	140.75
236.285	146.75
236.519	168.75
236.753	158.75
236.987	152.75
237.221	157.75
237.455	159.75
237.689	169.75
237.922	174.75
238.156	158.75
238.39	154.75
238.624	160.75
238.858	152.75
239.091	180.75
239.325	168.75
239.559	184.75
239.793	184.75
240.027	181.75
240.26	180.75
240.494	167.75
240.728	182.75
240.961	165.75
241.195	182.75
241.429	169.75
241.662	184.75
241.896	196.75
242.13	199.75
242.363	168.75
242.597	188.75
242.83	188.75
243.064	176.75
243.298	199.75
243.531	192.75
243.765	215.75
243.998	199.75
244.232	191.75
244.465	196.75
244.699	204.75
244.932	211.75
245.166	213.75
245.399	206.75
245.633	214.75
245.866	219.75
246.099	218.75
246.333	211.75
246.566	231.75
246.8	203.75
247.033	221.75
247.266	222.75
247.5	224.75
247.733	226.75
247.966	216.75
248.2	243.75
248.433	226.75
248.666	243.75
248.899	227.75
249.133	226.75
249.366	250.75
249.599	235.75
249.832	230.75
250.066	240.75
250.299	239.75
250.532	254.75
250.765	241.75
250.998	235.75
251.231	266.75
251.465	261.75
251.698	259.75
251.931	251.75
252.164	262.75
252.397	264.75
252.63	265.75
252.863	270.75
253.096	272.75
253.329	271.75
253.562	250.75
253.795	258.75
254.028	256.75
254.261	279.75
254.494	279.75
254.727	267.75
254.96	264.75
255.193	281.75
255.426	282.75
255.659	267.75
255.892	283.75
256.124	295.75
256.357	303.75
256.59	299.75
256.823	286.75
257.056	289.75
257.289	316.75
257.521	299.75
257.754	279.75
257.987	291.75
258.22	297.75
258.452	294.75
258.685	295.75
258.918	292.75
259.151	310.75
259.383	314.75
259.616	306.75
259.849	339.75
260.081	324.75
260.314	323.75
260.547	314.75
260.779	312.75
261.012	334.75
261.244	329.75
261.477	337.75
261.71	337.75
261.942	318.75
262.175	313.75
262.407	327.75
262.64	325.75
262.872	321.75
263.105	337.75
263.337	342.75
263.57	340.75
263.802	351.75
264.035	335.75
264.267	369.75
264.499	354.75
264.732	332.75
264.964	354.75
265.197	352.75
265.429	357.75
265.661	372.75
265.894	361.75
266.126	346.75
266.358	359.75
266.591	324.75
266.823	372.75
267.055	356.75
267.287	374.75
267.52	347.75
267.752	364.75
267.984	370.75
268.216	358.75
268.448	382.75
268.681	392.75
268.913	368.75
269.145	379.75
269.377	374.75
269.609	375.75
269.841	390.75
270.073	366.75
270.306	372.75
270.538	356.75
270.77	378.75
271.002	384.75
271.234	392.75
271.466	393.75
271.698	383.75
271.93	398.75
272.162	397.75
272.394	391.75
272.626	395.75
272.858	396.75
273.09	404.75
273.322	390.75
273.553	395.75
273.785	404.75
274.017	420.75
274.249	420.75
274.481	396.75
274.713	411.75
274.945	421.75
275.176	412.75
275.408	410.75
275.64	418.75
275.872	400.75
276.104	401.75
276.335	416.75
276.567	414.75
276.799	432.75
277.031	432.75
277.262	450.75
277.494	435.75
277.726	431.75
277.957	416.75
278.189	461.75
278.421	458.75
278.652	442.75
278.884	451.75
279.115	461.75
279.347	427.75
279.579	452.75
279.81	426.75
280.042	460.75
280.273	440.75
280.505	432.75
280.736	433.75
280.968	448.75
281.199	460.75
281.431	462.75
281.662	463.75
281.894	481.75
282.125	461.75
282.356	464.75
282.588	477.75
282.819	480.75
283.051	477.75
283.282	436.75
283.513	469.75
283.745	474.75
283.976	458.75
284.207	487.75
284.439	465.75
284.67	491.75
284.901	479.75
285.132	479.75
285.364	479.75
285.595	478.75
285.826	476.75
286.057	484.75
286.288	481.75
286.52	492.75
286.751	500.75
286.982	530.75
287.213	484.75
287.444	525.75
287.675	501.75
287.906	498.75
288.138	502.75
288.369	498.75
288.6	498.75
288.831	500.75
289.062	495.75
289.293	520.75
289.524	507.75
289.755	515.75
289.986	504.75
290.217	500.75
290.448	499.75
290.679	514.75
290.91	510.75
291.141	519.75
291.371	534.75
291.602	549.75
291.833	533.75
292.064	528.75
292.295	508.75
292.526	502.75
292.757	511.75
292.987	515.75
293.218	522.75
293.449	502.75
293.68	524.75
293.91	507.75
294.141	516.75
294.372	528.75
294.603	534.75
294.833	543.75
295.064	520.75
295.295	523.75
295.525	519.75
295.756	525.75
295.987	524.75
296.217	551.75
296.448	553.75
296.679	544.75
296.909	517.75
297.14	548.75
297.37	560.75
297.601	537.75
297.831	546.75
298.062	559.75
298.292	550.75
298.523	563.75
298.753	572.75
298.984	576.75
299.214	590.75
299.445	574.75
299.675	568.75
299.905	565.75
300.136	568.75
300.366	558.75
300.597	569.75
300.827	571.75
301.057	564.75
301.288	568.75
301.518	590.75
301.748	600.75
301.979	586.75
302.209	590.75
302.439	599.75
302.669	586.75
302.9	596.75
303.13	589.75
303.36	623.75
303.59	603.75
303.82	618.75
304.051	596.75
304.281	614.75
304.511	579.75
304.741	582.75
304.971	600.75
305.201	611.75
305.431	630.75
305.661	621.75
305.891	600.75
306.121	585.75
306.352	600.75
306.582	602.75
306.812	580.75
307.042	614.75
307.272	587.75
307.502	596.75
307.731	582.75
307.961	584.75
308.191	572.75
308.421	580.75
308.651	600.75
308.881	614.75
309.111	593.75
309.341	595.75
309.571	612.75
309.8	598.75
310.03	583.75
310.26	625.75
310.49	642.75
310.72	607.75
310.949	606.75
311.179	605.75
311.409	606.75
311.639	622.75
311.868	600.75
312.098	602.75
312.328	619.75
312.557	619.75
312.787	615.75
313.017	631.75
313.246	646.75
313.476	647.75
313.706	640.75
313.935	634.75
314.165	617.75
314.394	642.75
314.624	614.75
314.853	611.75
315.083	642.75
315.312	640.75
315.542	652.75
315.771	626.75
316.001	651.75
316.23	650.75
316.46	628.75
316.689	661.75
316.919	646.75
317.148	633.75
317.377	664.75
317.607	652.75
317.836	624.75
318.065	652.75
318.295	658.75
318.524	638.75
318.753	648.75
318.983	638.75
319.212	623.75
319.441	638.75
319.67	634.75
319.9	667.75
320.129	682.75
320.358	656.75
320.587	659.75
320.816	672.75
321.046	651.75
321.275	654.75
321.504	659.75
321.733	660.75
321.962	665.75
322.191	678.75
322.42	668.75
322.649	666.75
322.878	687.75
323.108	679.75
323.337	695.75
323.566	668.75
323.795	683.75
324.024	678.75
324.253	678.75
324.482	687.75
324.71	672.75
324.939	693.75
325.168	712.75
325.397	712.75
325.626	677.75
325.855	706.75
326.084	721.75
326.313	719.75
326.542	730.75
326.77	736.75
326.999	705.75
327.228	704.75
327.457	706.75
327.686	716.75
327.914	717.75
328.143	724.75
328.372	728.75
328.6	716.75
328.829	725.75
329.058	721.75
329.287	710.75
329.515	715.75
329.744	733.75
329.972	743.75
330.201	741.75
330.43	744.75
330.658	729.75
330.887	729.75
331.115	729.75
331.344	775.75
331.572	758.75
331.801	763.75
332.03	808.75
332.258	788.75
332.486	775.75
332.715	792.75
332.943	812.75
333.172	830.75
333.4	846.75
333.629	842.75
333.857	889.75
334.085	902.75
334.314	891.75
334.542	893.75
334.771	888.75
334.999	886.75
335.227	883.75
335.455	878.75
335.684	868.75
335.912	860.75
336.14	871.75
336.369	850.75
336.597	841.75
336.825	841.75
337.053	836.75
337.281	832.75
337.51	848.75
337.738	832.75
337.966	830.75
338.194	847.75
338.422	820.75
338.65	810.75
338.878	784.75
339.106	804.75
339.334	815.75
339.562	809.75
339.79	768.75
340.018	770.75
340.246	756.75
340.474	759.75
340.702	779.75
340.93	764.75
341.158	789.75
341.386	787.75
341.614	803.75
341.842	798.75
342.07	784.75
342.298	753.75
342.526	797.75
342.754	756.75
342.981	770.75
343.209	778.75
343.437	804.75
343.665	816.75
343.893	884.75
344.12	863.75
344.348	852.75
344.576	850.75
344.804	842.75
345.031	794.75
345.259	797.75
345.487	772.75
345.714	773.75
345.942	778.75
346.17	793.75
346.397	777.75
346.625	767.75
346.853	715.75
347.08	737.75
347.308	727.75
347.535	746.75
347.763	770.75
347.99	736.75
348.218	743.75
348.445	766.75
348.673	737.75
348.9	734.75
349.128	731.75
349.355	761.75
349.583	770.75
349.81	710.75
350.037	725.75
350.265	736.75
350.492	750.75
350.72	714.75
350.947	699.75
351.174	744.75
351.402	747.75
351.629	757.75
351.856	733.75
352.083	732.75
352.311	726.75
352.538	736.75
352.765	739.75
352.992	728.75
353.22	722.75
353.447	693.75
353.674	697.75
353.901	704.75
354.128	704.75
354.355	727.75
354.583	712.75
354.81	718.75
355.037	724.75
355.264	714.75
355.491	714.75
355.718	714.75
355.945	709.75
356.172	706.75
356.399	707.75
356.626	733.75
356.853	740.75
357.08	721.75
357.307	756.75
357.534	720.75
357.761	747.75
357.988	746.75
358.215	718.75
358.441	739.75
358.668	737.75
358.895	703.75
359.122	720.75
359.349	678.75
359.576	726.75
359.802	736.75
360.029	723.75
360.256	728.75
360.483	708.75
360.709	743.75
360.936	732.75
361.163	718.75
361.39	732.75
361.616	739.75
361.843	738.75
362.07	761.75
362.296	750.75
362.523	737.75
362.749	742.75
362.976	740.75
363.203	720.75
363.429	710.75
363.656	702.75
363.882	717.75
364.109	719.75
364.335	743.75
364.562	724.75
364.788	708.75
365.015	726.75
365.241	711.75
365.468	730.75
365.694	741.75
365.92	739.75
366.147	716.75
366.373	725.75
366.599	716.75
366.826	728.75
367.052	737.75
367.278	726.75
367.505	734.75
367.731	727.75
367.957	724.75
368.184	754.75
368.41	762.75
368.636	756.75
368.862	746.75
369.089	741.75
369.315	728.75
369.541	756.75
369.767	743.75
369.993	766.75
370.219	743.75
370.445	778.75
370.672	759.75
370.898	760.75
371.124	795.75
371.35	778.75
371.576	780.75
371.802	789.75
372.028	788.75
372.254	790.75
372.48	808.75
372.706	828.75
372.932	809.75
373.158	786.75
373.384	784.75
373.61	802.75
373.835	791.75
374.061	810.75
374.287	794.75
374.513	816.75
374.739	847.75
374.965	829.75
375.191	831.75
375.416	827.75
375.642	818.75
375.868	793.75
376.094	814.75
376.319	800.75
376.545	796.75
376.771	795.75
376.997	773.75
377.222	779.75
377.448	763.75
377.674	764.75
377.899	777.75
378.125	781.75
378.35	757.75
378.576	776.75
378.802	747.75
379.027	774.75
379.253	786.75
379.478	737.75
379.704	784.75
379.929	796.75
380.155	770.75
380.38	779.75
380.606	779.75
380.831	779.75
381.057	773.75
381.282	774.75
381.507	790.75
381.733	791.75
381.958	793.75
382.184	794.75
382.409	804.75
382.634	826.75
382.86	790.75
383.085	814.75
383.31	826.75
383.535	832.75
383.761	827.75
383.986	817.75
384.211	859.75
384.436	823.75
384.662	858.75
384.887	873.75
385.112	874.75
385.337	901.75
385.562	896.75
385.787	906.75
386.013	940.75
386.238	884.75
386.463	916.75
386.688	909.75
386.913	900.75
387.138	917.75
387.363	902.75
387.588	892.75
387.813	907.75
388.038	896.75
388.263	894.75
388.488	905.75
388.713	897.75
388.938	905.75
389.163	894.75
389.387	886.75
389.612	883.75
389.837	903.75
390.062	892.75
390.287	898.75
390.512	912.75
390.736	929.75
390.961	926.75
391.186	935.75
391.411	922.75
391.636	948.75
391.86	970.75
392.085	987.75
392.31	976.75
392.534	952.75
392.759	978.75
392.984	929.75
393.208	949.75
393.433	958.75
393.658	962.75
393.882	971.75
394.107	934.75
394.331	942.75
394.556	935.75
394.78	944.75
395.005	965.75
395.229	963.75
395.454	988.75
395.678	1012.75
395.903	978.75
396.127	967.75
396.352	996.75
396.576	967.75
396.801	990.75
397.025	974.75
397.249	996.75
397.474	1002.75
397.698	1024.75
397.922	1046.75
398.147	1012.75
398.371	1042.75
398.595	1076.75
398.82	1096.75
399.044	1150.75
399.268	1204.75
399.492	1287.75
399.717	1374.75
399.941	1398.75
400.165	1337.75
400.389	1292.75
400.613	1211.75
400.837	1198.75
401.062	1141.75
401.286	1164.75
401.51	1112.75
401.734	1105.75
401.958	1112.75
402.182	1137.75
402.406	1082.75
402.63	1121.75
402.854	1128.75
403.078	1100.75
403.302	1160.75
403.526	1136.75
403.75	1145.75
403.974	1173.75
404.198	1135.75
404.422	1176.75
404.645	1178.75
404.869	1155.75
405.093	1159.75
405.317	1170.75
405.541	1158.75
405.765	1165.75
405.988	1195.75
406.212	1208.75
406.436	1215.75
406.66	1230.75
406.883	1212.75
407.107	1261.75
407.331	1299.75
407.555	1324.75
407.778	1308.75
408.002	1301.75
408.226	1284.75
408.449	1300.75
408.673	1262.75
408.896	1238.75
409.12	1209.75
409.344	1252.75
409.567	1204.75
409.791	1202.75
410.014	1220.75
410.238	1179.75
410.461	1168.75
410.685	1170.75
410.908	1224.75
411.132	1180.75
411.355	1146.75
411.578	1170.75
411.802	1135.75
412.025	1150.75
412.249	1192.75
412.472	1168.75
412.695	1152.75
412.919	1125.75
413.142	1132.75
413.365	1111.75
413.589	1137.75
413.812	1111.75
414.035	1110.75
414.258	1125.75
414.482	1095.75
414.705	1121.75
414.928	1113.75
415.151	1096.75
415.374	1110.75
415.597	1108.75
415.821	1094.75
416.044	1071.75
416.267	1070.75
416.49	1057.75
416.713	1052.75
416.936	1071.75
417.159	1065.75
417.382	1033.75
417.605	1026.75
417.828	1068.75
418.051	1067.75
418.274	1083.75
418.497	1064.75
418.72	1109.75
418.943	1080.75
419.166	1119.75
419.389	1212.75
419.611	1174.75
419.834	1127.75
420.057	1110.75
420.28	1093.75
420.503	1081.75
420.726	1055.75
420.948	1060.75
421.171	1020.75
421.394	1073.75
421.617	1080.75
421.839	1070.75
422.062	1096.75
422.285	1079.75
422.507	1061.75
422.73	1061.75
422.953	1081.75
423.175	1073.75
423.398	1086.75
423.621	1090.75
423.843	1079.75
424.066	1113.75
424.288	1098.75
424.511	1082.75
424.733	1088.75
424.956	1041.75
425.178	1078.75
425.401	1065.75
425.623	1051.75
425.846	1071.75
426.068	1044.75
426.291	1043.75
426.513	1019.75
426.735	1038.75
426.958	1035.75
427.18	1035.75
427.402	1044.75
427.625	996.75
427.847	992.75
428.069	992.75
428.292	1029.75
428.514	995.75
428.736	988.75
428.958	991.75
429.181	973.75
429.403	1026.75
429.625	1002.75
429.847	973.75
430.069	995.75
430.292	962.75
430.514	979.75
430.736	997.75
430.958	980.75
431.18	983.75
431.402	972.75
431.624	986.75
431.846	1003.75
432.068	1002.75
432.29	1013.75
432.512	1004.75
432.734	998.75
432.956	999.75
433.178	1031.75
433.4	1038.75
433.622	1024.75
433.844	1034.75
434.066	1012.75
434.287	1027.75
434.509	1050.75
434.731	1091.75
434.953	1063.75
435.175	1095.75
435.397	1081.75
435.618	1046.75
435.84	1045.75
436.062	1011.75
436.284	1024.75
436.505	1009.75
436.727	993.75
436.949	1004.75
437.17	990.75
437.392	987.75
437.614	1001.75
437.835	965.75
438.057	990.75
438.278	967.75
438.5	944.75
438.721	958.75
438.943	991.75
439.165	941.75
439.386	998.75
439.608	1008.75
439.829	999.75
440.05	980.75
440.272	1003.75
440.493	971.75
440.715	1036.75
440.936	1057.75
441.158	1018.75
441.379	1038.75
441.6	1068.75
441.822	1072.75
442.043	1066.75
442.264	1053.75
442.486	1035.75
442.707	1028.75
442.928	1039.75
443.149	1053.75
443.371	1062.75
443.592	1109.75
443.813	1089.75
444.034	1111.75
444.255	1104.75
444.476	1146.75
444.698	1163.75
444.919	1157.75
445.14	1262.75
445.361	1194.75
445.582	1110.75
445.803	1077.75
446.024	1029.75
446.245	1042.75
446.466	1040.75
446.687	994.75
446.908	1008.75
447.129	979.75
447.35	989.75
447.571	949.75
447.792	951.75
448.013	951.75
448.234	935.75
448.455	930.75
448.675	946.75
448.896	918.75
449.117	924.75
449.338	919.75
449.559	908.75
449.779	916.75
450	908.75
450.221	911.75
450.442	880.75
450.662	917.75
450.883	926.75
451.104	939.75
451.324	923.75
451.545	939.75
451.766	898.75
451.986	910.75
452.207	932.75
452.428	912.75
452.648	895.75
452.869	890.75
453.089	874.75
453.31	905.75
453.53	894.75
453.751	885.75
453.971	865.75
454.192	888.75
454.412	882.75
454.633	865.75
454.853	867.75
455.073	862.75
455.294	878.75
455.514	883.75
455.734	848.75
455.955	864.75
456.175	869.75
456.395	855.75
456.616	844.75
456.836	876.75
457.056	863.75
457.276	864.75
457.497	868.75
457.717	874.75
457.937	896.75
458.157	902.75
458.377	894.75
458.598	903.75
458.818	927.75
459.038	926.75
459.258	959.75
459.478	999.75
459.698	1031.75
459.918	1064.75
460.138	1065.75
460.358	1099.75
460.578	1066.75
460.798	1124.75
461.018	1142.75
461.238	1102.75
461.458	1098.75
461.678	1084.75
461.898	1122.75
462.118	1134.75
462.338	1178.75
462.558	1206.75
462.777	1215.75
462.997	1310.75
463.217	1313.75
463.437	1361.75
463.657	1314.75
463.876	1265.75
464.096	1250.75
464.316	1255.75
464.536	1218.75
464.755	1223.75
464.975	1185.75
465.195	1145.75
465.414	1074.75
465.634	1030.75
465.854	996.75
466.073	999.75
466.293	1006.75
466.512	959.75
466.732	948.75
466.951	955.75
467.171	972.75
467.391	943.75
467.61	969.75
467.829	954.75
468.049	952.75
468.268	944.75
468.488	919.75
468.707	922.75
468.927	918.75
469.146	932.75
469.365	962.75
469.585	950.75
469.804	970.75
470.023	964.75
470.243	936.75
470.462	963.75
470.681	977.75
470.901	965.75
471.12	974.75
471.339	967.75
471.558	946.75
471.777	960.75
471.997	945.75
472.216	942.75
472.435	967.75
472.654	933.75
472.873	898.75
473.092	924.75
473.311	906.75
473.53	894.75
473.749	898.75
473.968	913.75
474.187	920.75
474.406	913.75
474.625	904.75
474.844	920.75
475.063	926.75
475.282	960.75
475.501	952.75
475.72	946.75
475.939	952.75
476.158	951.75
476.377	968.75
476.596	936.75
476.814	969.75
477.033	987.75
477.252	973.75
477.471	994.75
477.69	1018.75
477.908	1029.75
478.127	1074.75
478.346	1065.75
478.564	1095.75
478.783	1101.75
479.002	1125.75
479.22	1136.75
479.439	1114.75
479.658	1100.75
479.876	1120.75
480.095	1120.75
480.313	1127.75
480.532	1131.75
480.751	1148.75
480.969	1118.75
481.188	1124.75
481.406	1075.75
481.624	1085.75
481.843	1056.75
482.061	1072.75
482.28	1082.75
482.498	1050.75
482.717	1079.75
482.935	1060.75
483.153	1082.75
483.372	1085.75
483.59	1103.75
483.808	1083.75
484.027	1084.75
484.245	1109.75
484.463	1076.75
484.681	1123.75
484.9	1100.75
485.118	1115.75
485.336	1087.75
485.554	1090.75
485.772	1092.75
485.99	1094.75
486.209	1136.75
486.427	1118.75
486.645	1106.75
486.863	1131.75
487.081	1154.75
487.299	1104.75
487.517	1136.75
487.735	1134.75
487.953	1138.75
488.171	1120.75
488.389	1109.75
488.607	1102.75
488.825	1102.75
489.043	1078.75
489.261	1093.75
489.479	1099.75
489.696	1099.75
489.914	1099.75
490.132	1110.75
490.35	1106.75
490.568	1105.75
490.786	1121.75
491.003	1110.75
491.221	1128.75
491.439	1137.75
491.657	1115.75
491.874	1128.75
492.092	1141.75
492.31	1138.75
492.527	1107.75
492.745	1129.75
492.963	1170.75
493.18	1160.75
493.398	1156.75
493.615	1160.75
493.833	1162.75
494.05	1129.75
494.268	1121.75
494.485	1138.75
494.703	1182.75
494.92	1178.75
495.138	1185.75
495.355	1172.75
495.573	1202.75
495.79	1166.75
496.008	1190.75
496.225	1215.75
496.442	1195.75
496.66	1232.75
496.877	1233.75
497.094	1282.75
497.312	1263.75
497.529	1290.75
497.746	1315.75
497.963	1377.75
498.181	1441.75
498.398	1442.75
498.615	1479.75
498.832	1562.75
499.049	1664.75
499.267	1787.75
499.484	1845.75
499.701	1957.75
499.918	2089.75
500.135	2230.75
500.352	2422.75
500.569	2434.75
500.786	2390.75
501.003	2397.75
501.22	2230.75
501.437	2098.75
501.654	1936.75
501.871	1782.75
502.088	1740.75
502.305	1691.75
502.522	1564.75
502.739	1494.75
502.956	1448.75
503.172	1417.75
503.389	1362.75
503.606	1341.75
503.823	1302.75
504.04	1311.75
504.256	1257.75
504.473	1266.75
504.69	1296.75
504.907	1253.75
505.123	1191.75
505.34	1179.75
505.557	1135.75
505.773	1124.75
505.99	1123.75
506.207	1050.75
506.423	1055.75
506.64	1054.75
506.856	1049.75
507.073	1060.75
507.289	1030.75
507.506	1020.75
507.722	1030.75
507.939	1000.75
508.155	993.75
508.372	984.75
508.588	968.75
508.805	984.75
509.021	978.75
509.238	972.75
509.454	963.75
509.67	934.75
509.887	950.75
510.103	952.75
510.319	936.75
510.536	926.75
510.752	899.75
510.968	903.75
511.184	909.75
511.401	913.75
511.617	928.75
511.833	928.75
512.049	891.75
512.265	956.75
512.481	936.75
512.698	932.75
512.914	934.75
513.13	923.75
513.346	927.75
513.562	919.75
513.778	933.75
513.994	939.75
514.21	948.75
514.426	957.75
514.642	922.75
514.858	931.75
515.074	948.75
515.29	950.75
515.506	971.75
515.721	970.75
515.937	1011.75
516.153	999.75
516.369	1039.75
516.585	1040.75
516.801	1033.75
517.016	1082.75
517.232	1099.75
517.448	1103.75
517.664	1117.75
517.879	1109.75
518.095	1139.75
518.311	1107.75
518.527	1075.75
518.742	1050.75
518.958	1040.75
519.173	994.75
519.389	1002.75
519.605	958.75
519.82	976.75
520.036	967.75
520.251	942.75
520.467	955.75
520.682	912.75
520.898	902.75
521.113	920.75
521.329	886.75
521.544	903.75
521.76	882.75
521.975	852.75
522.19	855.75
522.406	890.75
522.621	852.75
522.836	860.75
523.052	856.75
523.267	848.75
523.482	864.75
523.698	829.75
523.913	862.75
524.128	842.75
524.343	853.75
524.559	844.75
524.774	859.75
524.989	845.75
525.204	856.75
525.419	849.75
525.634	831.75
525.849	825.75
526.064	844.75
526.28	839.75
526.495	842.75
526.71	828.75
526.925	827.75
527.14	822.75
527.355	840.75
527.57	826.75
527.785	844.75
527.999	805.75
528.214	810.75
528.429	815.75
528.644	823.75
528.859	837.75
529.074	826.75
529.289	815.75
529.503	814.75
529.718	818.75
529.933	803.75
530.148	816.75
530.363	806.75
530.577	807.75
530.792	811.75
531.007	807.75
531.221	828.75
531.436	807.75
531.651	793.75
531.865	797.75
532.08	794.75
532.295	811.75
532.509	779.75
532.724	788.75
532.938	824.75
533.153	819.75
533.367	799.75
533.582	800.75
533.796	800.75
534.011	803.75
534.225	792.75
534.44	781.75
534.654	801.75
534.868	807.75
535.083	797.75
535.297	778.75
535.511	760.75
535.726	780.75
535.94	772.75
536.154	766.75
536.369	762.75
536.583	744.75
536.797	754.75
537.011	756.75
537.225	751.75
537.44	770.75
537.654	743.75
537.868	719.75
538.082	780.75
538.296	726.75
538.51	741.75
538.724	746.75
538.938	735.75
539.153	744.75
539.367	754.75
539.581	747.75
539.795	744.75
540.009	738.75
540.222	722.75
540.436	735.75
540.65	730.75
540.864	714.75
541.078	737.75
541.292	717.75
541.506	713.75
541.72	704.75
541.934	733.75
542.147	730.75
542.361	732.75
542.575	724.75
542.789	721.75
543.002	706.75
543.216	718.75
543.43	730.75
543.644	709.75
543.857	712.75
544.071	710.75
544.285	736.75
544.498	742.75
544.712	742.75
544.925	704.75
545.139	770.75
545.352	708.75
545.566	722.75
545.779	727.75
545.993	718.75
546.206	742.75
546.42	722.75
546.633	755.75
546.847	729.75
547.06	740.75
547.274	725.75
547.487	740.75
547.7	727.75
547.914	739.75
548.127	750.75
548.34	758.75
548.554	731.75
548.767	724.75
548.98	721.75
549.193	738.75
549.407	725.75
549.62	762.75
549.833	736.75
550.046	717.75
550.259	722.75
550.473	735.75
550.686	714.75
550.899	721.75
551.112	742.75
551.325	711.75
551.538	738.75
551.751	726.75
551.964	708.75
552.177	723.75
552.39	734.75
552.603	736.75
552.816	729.75
553.029	733.75
553.242	753.75
553.455	761.75
553.667	779.75
553.88	760.75
554.093	726.75
554.306	720.75
554.519	725.75
554.732	707.75
554.944	701.75
555.157	694.75
555.37	691.75
555.583	672.75
555.795	676.75
556.008	671.75
556.221	653.75
556.433	672.75
556.646	650.75
556.859	632.75
557.071	634.75
557.284	624.75
557.496	633.75
557.709	617.75
557.921	640.75
558.134	648.75
558.346	606.75
558.559	624.75
558.771	608.75
558.984	622.75
559.196	634.75
559.409	622.75
559.621	603.75
559.833	603.75
560.046	609.75
560.258	603.75
560.47	630.75
560.683	594.75
560.895	615.75
561.107	619.75
561.32	615.75
561.532	594.75
561.744	608.75
561.956	624.75
562.168	623.75
562.381	603.75
562.593	610.75
562.805	625.75
563.017	588.75
563.229	601.75
563.441	646.75
563.653	643.75
563.865	634.75
564.077	648.75
564.289	636.75
564.501	639.75
564.713	679.75
564.925	652.75
565.137	690.75
565.349	671.75
565.561	701.75
565.773	698.75
565.985	727.75
566.197	737.75
566.408	787.75
566.62	800.75
566.832	855.75
567.044	857.75
567.255	844.75
567.467	884.75
567.679	902.75
567.891	908.75
568.102	890.75
568.314	881.75
568.526	829.75
568.737	790.75
568.949	764.75
569.161	704.75
569.372	690.75
569.584	660.75
569.795	647.75
570.007	622.75
570.218	639.75
570.43	618.75
570.641	589.75
570.853	619.75
571.064	597.75
571.276	582.75
571.487	580.75
571.698	566.75
571.91	572.75
572.121	536.75
572.333	529.75
572.544	550.75
572.755	526.75
572.966	526.75
573.178	528.75
573.389	526.75
573.6	517.75
573.811	502.75
574.023	497.75
574.234	503.75
574.445	499.75
574.656	489.75
574.867	517.75
575.078	490.75
575.289	499.75
575.501	478.75
575.712	499.75
575.923	477.75
576.134	482.75
576.345	459.75
576.556	474.75
576.767	482.75
576.978	471.75
577.188	476.75
577.399	458.75
577.61	480.75
577.821	450.75
578.032	448.75
578.243	446.75
578.454	442.75
578.665	479.75
578.875	466.75
579.086	451.75
579.297	470.75
579.508	454.75
579.718	439.75
579.929	456.75
580.14	438.75
580.35	406.75
580.561	431.75
580.772	433.75
580.982	432.75
581.193	430.75
581.403	414.75
581.614	438.75
581.825	421.75
582.035	423.75
582.246	409.75
582.456	427.75
582.667	407.75
582.877	407.75
583.087	430.75
583.298	432.75
583.508	398.75
583.719	426.75
583.929	412.75
584.139	427.75
584.35	418.75
584.56	404.75
584.77	410.75
584.981	408.75
585.191	419.75
585.401	426.75
585.611	398.75
585.821	422.75
586.032	395.75
586.242	401.75
586.452	411.75
586.662	409.75
586.872	403.75
587.082	393.75
587.292	404.75
587.502	418.75
587.713	407.75
587.923	391.75
588.133	401.75
588.343	406.75
588.553	395.75
588.762	410.75
588.972	416.75
589.182	435.75
589.392	427.75
589.602	403.75
589.812	422.75
590.022	423.75
590.232	396.75
590.441	404.75
590.651	395.75
590.861	404.75
591.071	391.75
591.281	416.75
591.49	423.75
591.7	405.75
591.91	410.75
592.119	414.75
592.329	440.75
592.539	443.75
592.748	416.75
592.958	441.75
593.167	435.75
593.377	430.75
593.587	448.75
593.796	454.75
594.006	461.75
594.215	438.75
594.424	449.75
594.634	453.75
594.843	431.75
595.053	423.75
595.262	439.75
595.472	415.75
595.681	402.75
595.89	390.75
596.1	394.75
596.309	394.75
596.518	387.75
596.727	371.75
596.937	374.75
597.146	367.75
597.355	384.75
597.564	362.75
597.774	355.75
597.983	357.75
598.192	355.75
598.401	348.75
598.61	362.75
598.819	366.75
599.028	357.75
599.237	354.75
599.446	338.75
599.655	344.75
599.864	345.75
600.073	321.75
600.282	334.75
600.491	324.75
600.7	347.75
600.909	353.75
601.118	337.75
601.327	327.75
601.536	331.75
601.745	336.75
601.953	349.75
602.162	323.75
602.371	328.75
602.58	315.75
602.789	335.75
602.997	350.75
603.206	330.75
603.415	342.75
603.623	316.75
603.832	334.75
604.041	324.75
604.249	319.75
604.458	299.75
604.666	299.75
604.875	312.75
605.084	332.75
605.292	331.75
605.501	325.75
605.709	321.75
605.918	314.75
606.126	307.75
606.334	299.75
606.543	297.75
606.751	312.75
606.96	308.75
607.168	298.75
607.376	312.75
607.585	313.75
607.793	310.75
608.001	294.75
608.21	313.75
608.418	307.75
608.626	307.75
608.834	307.75
609.043	308.75
609.251	290.75
609.459	293.75
609.667	298.75
609.875	289.75
610.083	290.75
610.291	268.75
610.499	288.75
610.707	300.75
610.916	267.75
611.124	307.75
611.332	321.75
611.54	288.75
611.748	304.75
611.955	282.75
612.163	276.75
612.371	299.75
612.579	289.75
612.787	289.75
612.995	289.75
613.203	300.75
613.411	278.75
613.618	304.75
613.826	284.75
614.034	295.75
614.242	290.75
614.449	293.75
614.657	288.75
614.865	293.75
615.072	294.75
615.28	274.75
615.488	276.75
615.695	303.75
615.903	275.75
616.111	261.75
616.318	302.75
616.526	281.75
616.733	298.75
616.941	280.75
617.148	291.75
617.356	275.75
617.563	275.75
617.771	299.75
617.978	269.75
618.185	278.75
618.393	274.75
618.6	305.75
618.807	282.75
619.015	277.75
619.222	263.75
619.429	281.75
619.637	269.75
619.844	282.75
620.051	279.75
620.258	268.75
620.466	268.75
620.673	238.75
620.88	252.75
621.087	266.75
621.294	278.75
621.501	268.75
621.708	254.75
621.915	291.75
622.122	263.75
622.329	270.75
622.536	261.75
622.743	243.75
622.95	272.75
623.157	256.75
623.364	273.75
623.571	254.75
623.778	280.75
623.985	249.75
624.192	240.75
624.399	258.75
624.606	256.75
624.812	262.75
625.019	257.75
625.226	262.75
625.433	272.75
625.639	242.75
625.846	246.75
626.053	258.75
626.259	245.75
626.466	252.75
626.673	252.75
626.879	249.75
627.086	252.75
627.293	241.75
627.499	258.75
627.706	231.75
627.912	231.75
628.119	240.75
628.325	254.75
628.532	236.75
628.738	216.75
628.945	249.75
629.151	231.75
629.357	243.75
629.564	236.75
629.77	232.75
629.976	232.75
630.183	234.75
630.389	231.75
630.595	239.75
630.802	240.75
631.008	227.75
631.214	220.75
631.42	229.75
631.627	238.75
631.833	250.75
632.039	231.75
632.245	234.75
632.451	235.75
632.657	220.75
632.863	219.75
633.069	239.75
633.275	230.75
633.481	248.75
633.688	234.75
633.893	227.75
634.099	222.75
634.305	242.75
634.511	212.75
634.717	207.75
634.923	217.75
635.129	214.75
635.335	220.75
635.541	228.75
635.747	215.75
635.952	209.75
636.158	213.75
636.364	217.75
636.57	215.75
636.775	223.75
636.981	219.75
637.187	224.75
637.392	215.75
637.598	229.75
637.804	208.75
638.009	223.75
638.215	206.75
638.421	211.75
638.626	216.75
638.832	211.75
639.037	212.75
639.243	194.75
639.448	203.75
639.654	217.75
639.859	204.75
640.065	213.75
640.27	205.75
640.475	218.75
640.681	199.75
640.886	196.75
641.091	194.75
641.297	203.75
641.502	201.75
641.707	207.75
641.913	217.75
642.118	199.75
642.323	204.75
642.528	196.75
642.733	200.75
642.939	213.75
643.144	222.75
643.349	200.75
643.554	205.75
643.759	188.75
643.964	177.75
644.169	202.75
644.374	210.75
644.579	215.75
644.784	208.75
644.989	207.75
645.194	214.75
645.399	230.75
645.604	213.75
645.809	209.75
646.014	212.75
646.219	206.75
646.423	212.75
646.628	198.75
646.833	215.75
647.038	204.75
647.243	187.75
647.447	210.75
647.652	211.75
647.857	213.75
648.062	218.75
648.266	210.75
648.471	219.75
648.676	219.75
648.88	224.75
649.085	211.75
649.289	226.75
649.494	216.75
649.698	208.75
649.903	195.75
650.107	216.75
650.312	218.75
650.516	200.75
650.721	188.75
650.925	185.75
651.13	189.75
651.334	190.75
651.539	197.75
651.743	209.75
651.947	189.75
652.152	188.75
652.356	200.75
652.56	197.75
652.764	183.75
652.969	189.75
653.173	196.75
653.377	191.75
653.581	192.75
653.785	184.75
653.99	181.75
654.194	185.75
654.398	170.75
654.602	178.75
654.806	171.75
655.01	196.75
655.214	194.75
655.418	188.75
655.622	182.75
655.826	182.75
656.03	191.75
656.234	188.75
656.438	192.75
656.642	194.75
656.846	184.75
657.049	176.75
657.253	178.75
657.457	152.75
657.661	161.75
657.865	150.75
658.068	136.75
658.272	151.75
658.476	138.75
658.68	124.75
658.883	130.75
659.087	114.75
659.291	119.75
659.494	117.75
659.698	127.75
659.901	104.75
660.105	107.75
660.309	115.75
660.512	116.75
660.716	98.75
660.919	107.75
661.123	99.75
661.326	105.75
661.53	97.75
661.733	102.75
661.936	97.75
662.14	90.75
662.343	84.75
662.546	81.75
662.75	85.75
662.953	94.75
663.156	89.75
663.36	84.75
663.563	83.75
663.766	90.75
663.969	84.75
664.173	75.75
664.376	73.75
664.579	67.75
664.782	94.75
664.985	90.75
665.188	88.75
665.391	79.75
665.594	74.75
665.797	82.75
666	87.75
666.203	83.75
666.406	73.75
666.609	76.75
666.812	70.75
667.015	79.75
667.218	86.75
667.421	75.75
667.624	79.75
667.827	82.75
668.03	73.75
668.232	101.75
668.435	80.75
668.638	66.75
668.841	78.75
669.043	68.75
669.246	82.75
669.449	70.75
669.651	81.75
669.854	94.75
670.057	85.75
670.259	83.75
670.462	78.75
670.665	72.75
670.867	81.75
671.07	82.75
671.272	89.75
671.475	88.75
671.677	79.75
671.88	76.75
672.082	62.75
672.284	65.75
672.487	64.75
672.689	77.75
672.892	88.75
