Data from Ni(NO3)2@0.5M.TitratingCurve.Agarose3%dH2O.NegLispCup.LampEnergy10.LIBS07252019_HRD10591_17-57-41-563.txt Node
Date: Thu Jul 25 17:57:41 EDT 2019
User: cochatt
Spectrometer: HR+D1059
Trigger mode: 1
Integration Time (sec): 1.000000E-1
Scans to average: 1
Electric dark correction enabled: true
Nonlinearity correction enabled: false
Boxcar width: 0
XAxis mode: Wavelengths
Number of Pixels in Spectrum: 2048
>>>>>Begin Spectral Data<<<<<
223.165	-12.5
223.4	-12.5
223.635	-12.5
223.869	-18.5
224.104	-11.5
224.338	-17.5
224.573	-25.5
224.808	-13.5
225.042	-3.5
225.277	-0.5
225.511	7.5
225.746	-3.5
225.98	14.5
226.215	-6.5
226.449	10.5
226.683	21.5
226.918	30.5
227.152	28.5
227.387	35.5
227.621	47.5
227.856	62.5
228.09	45.5
228.324	47.5
228.559	54.5
228.793	81.5
229.027	124.5
229.262	136.5
229.496	151.5
229.73	155.5
229.964	177.5
230.199	182.5
230.433	203.5
230.667	204.5
230.901	186.5
231.136	161.5
231.37	181.5
231.604	184.5
231.838	209.5
232.072	213.5
232.306	200.5
232.541	201.5
232.775	175.5
233.009	190.5
233.243	173.5
233.477	184.5
233.711	186.5
233.945	187.5
234.179	190.5
234.413	176.5
234.647	196.5
234.881	183.5
235.115	185.5
235.349	188.5
235.583	177.5
235.817	169.5
236.051	196.5
236.285	195.5
236.519	185.5
236.753	200.5
236.987	193.5
237.221	188.5
237.455	188.5
237.689	196.5
237.922	201.5
238.156	202.5
238.39	193.5
238.624	197.5
238.858	206.5
239.091	210.5
239.325	216.5
239.559	226.5
239.793	240.5
240.027	262.5
240.26	219.5
240.494	222.5
240.728	213.5
240.961	230.5
241.195	227.5
241.429	243.5
241.662	246.5
241.896	251.5
242.13	262.5
242.363	227.5
242.597	250.5
242.83	243.5
243.064	230.5
243.298	234.5
243.531	250.5
243.765	256.5
243.998	267.5
244.232	289.5
244.465	273.5
244.699	255.5
244.932	263.5
245.166	266.5
245.399	275.5
245.633	257.5
245.866	287.5
246.099	301.5
246.333	283.5
246.566	309.5
246.8	281.5
247.033	288.5
247.266	311.5
247.5	292.5
247.733	301.5
247.966	296.5
248.2	319.5
248.433	308.5
248.666	326.5
248.899	338.5
249.133	333.5
249.366	329.5
249.599	332.5
249.832	327.5
250.066	329.5
250.299	349.5
250.532	354.5
250.765	352.5
250.998	371.5
251.231	380.5
251.465	371.5
251.698	368.5
251.931	370.5
252.164	384.5
252.397	376.5
252.63	380.5
252.863	372.5
253.096	385.5
253.329	388.5
253.562	381.5
253.795	397.5
254.028	405.5
254.261	410.5
254.494	426.5
254.727	435.5
254.96	427.5
255.193	429.5
255.426	414.5
255.659	440.5
255.892	432.5
256.124	419.5
256.357	424.5
256.59	442.5
256.823	445.5
257.056	458.5
257.289	437.5
257.521	438.5
257.754	453.5
257.987	475.5
258.22	456.5
258.452	465.5
258.685	481.5
258.918	467.5
259.151	478.5
259.383	470.5
259.616	483.5
259.849	474.5
260.081	488.5
260.314	480.5
260.547	473.5
260.779	466.5
261.012	487.5
261.244	504.5
261.477	514.5
261.71	512.5
261.942	505.5
262.175	520.5
262.407	500.5
262.64	515.5
262.872	519.5
263.105	512.5
263.337	530.5
263.57	517.5
263.802	527.5
264.035	537.5
264.267	511.5
264.499	534.5
264.732	556.5
264.964	538.5
265.197	536.5
265.429	540.5
265.661	527.5
265.894	539.5
266.126	565.5
266.358	556.5
266.591	555.5
266.823	561.5
267.055	556.5
267.287	570.5
267.52	549.5
267.752	574.5
267.984	566.5
268.216	562.5
268.448	583.5
268.681	576.5
268.913	568.5
269.145	568.5
269.377	586.5
269.609	594.5
269.841	589.5
270.073	590.5
270.306	575.5
270.538	563.5
270.77	588.5
271.002	598.5
271.234	602.5
271.466	611.5
271.698	594.5
271.93	608.5
272.162	613.5
272.394	609.5
272.626	634.5
272.858	621.5
273.09	608.5
273.322	622.5
273.553	630.5
273.785	644.5
274.017	628.5
274.249	607.5
274.481	635.5
274.713	628.5
274.945	645.5
275.176	649.5
275.408	631.5
275.64	652.5
275.872	640.5
276.104	658.5
276.335	657.5
276.567	659.5
276.799	665.5
277.031	686.5
277.262	650.5
277.494	654.5
277.726	650.5
277.957	677.5
278.189	675.5
278.421	673.5
278.652	681.5
278.884	677.5
279.115	697.5
279.347	680.5
279.579	682.5
279.81	695.5
280.042	668.5
280.273	653.5
280.505	707.5
280.736	695.5
280.968	694.5
281.199	682.5
281.431	707.5
281.662	733.5
281.894	697.5
282.125	695.5
282.356	717.5
282.588	715.5
282.819	710.5
283.051	704.5
283.282	713.5
283.513	692.5
283.745	714.5
283.976	706.5
284.207	716.5
284.439	705.5
284.67	715.5
284.901	734.5
285.132	720.5
285.364	721.5
285.595	737.5
285.826	726.5
286.057	734.5
286.288	721.5
286.52	733.5
286.751	746.5
286.982	743.5
287.213	742.5
287.444	741.5
287.675	724.5
287.906	722.5
288.138	768.5
288.369	741.5
288.6	774.5
288.831	754.5
289.062	752.5
289.293	758.5
289.524	756.5
289.755	746.5
289.986	747.5
290.217	749.5
290.448	742.5
290.679	766.5
290.91	775.5
291.141	794.5
291.371	764.5
291.602	787.5
291.833	754.5
292.064	754.5
292.295	773.5
292.526	737.5
292.757	736.5
292.987	758.5
293.218	760.5
293.449	766.5
293.68	786.5
293.91	782.5
294.141	771.5
294.372	757.5
294.603	760.5
294.833	764.5
295.064	746.5
295.295	748.5
295.525	755.5
295.756	780.5
295.987	793.5
296.217	790.5
296.448	798.5
296.679	792.5
296.909	771.5
297.14	757.5
297.37	774.5
297.601	788.5
297.831	805.5
298.062	789.5
298.292	813.5
298.523	812.5
298.753	806.5
298.984	820.5
299.214	800.5
299.445	811.5
299.675	810.5
299.905	840.5
300.136	842.5
300.366	838.5
300.597	864.5
300.827	841.5
301.057	835.5
301.288	858.5
301.518	840.5
301.748	828.5
301.979	854.5
302.209	852.5
302.439	859.5
302.669	852.5
302.9	842.5
303.13	843.5
303.36	859.5
303.59	845.5
303.82	844.5
304.051	872.5
304.281	873.5
304.511	850.5
304.741	870.5
304.971	873.5
305.201	901.5
305.431	920.5
305.661	898.5
305.891	884.5
306.121	874.5
306.352	880.5
306.582	874.5
306.812	881.5
307.042	873.5
307.272	878.5
307.502	851.5
307.731	897.5
307.961	868.5
308.191	896.5
308.421	900.5
308.651	891.5
308.881	880.5
309.111	885.5
309.341	907.5
309.571	915.5
309.8	911.5
310.03	932.5
310.26	972.5
310.49	964.5
310.72	953.5
310.949	929.5
311.179	922.5
311.409	938.5
311.639	954.5
311.868	955.5
312.098	949.5
312.328	977.5
312.557	944.5
312.787	947.5
313.017	961.5
313.246	980.5
313.476	990.5
313.706	1000.5
313.935	998.5
314.165	969.5
314.394	983.5
314.624	980.5
314.853	974.5
315.083	1000.5
315.312	1024.5
315.542	1000.5
315.771	998.5
316.001	1013.5
316.23	1010.5
316.46	1029.5
316.689	1017.5
316.919	1030.5
317.148	1040.5
317.377	1014.5
317.607	1028.5
317.836	1014.5
318.065	1024.5
318.295	1040.5
318.524	1028.5
318.753	1072.5
318.983	1027.5
319.212	1073.5
319.441	1064.5
319.67	1065.5
319.9	1054.5
320.129	1079.5
320.358	1091.5
320.587	1102.5
320.816	1093.5
321.046	1097.5
321.275	1063.5
321.504	1077.5
321.733	1110.5
321.962	1090.5
322.191	1106.5
322.42	1126.5
322.649	1097.5
322.878	1101.5
323.108	1107.5
323.337	1132.5
323.566	1108.5
323.795	1129.5
324.024	1136.5
324.253	1160.5
324.482	1179.5
324.71	1154.5
324.939	1152.5
325.168	1151.5
325.397	1141.5
325.626	1159.5
325.855	1189.5
326.084	1162.5
326.313	1169.5
326.542	1163.5
326.77	1177.5
326.999	1187.5
327.228	1162.5
327.457	1197.5
327.686	1175.5
327.914	1218.5
328.143	1218.5
328.372	1190.5
328.6	1227.5
328.829	1228.5
329.058	1212.5
329.287	1203.5
329.515	1191.5
329.744	1189.5
329.972	1220.5
330.201	1242.5
330.43	1236.5
330.658	1210.5
330.887	1200.5
331.115	1254.5
331.344	1250.5
331.572	1272.5
331.801	1248.5
332.03	1250.5
332.258	1250.5
332.486	1300.5
332.715	1254.5
332.943	1267.5
333.172	1285.5
333.4	1244.5
333.629	1270.5
333.857	1309.5
334.085	1291.5
334.314	1275.5
334.542	1306.5
334.771	1328.5
334.999	1289.5
335.227	1335.5
335.455	1326.5
335.684	1336.5
335.912	1316.5
336.14	1348.5
336.369	1346.5
336.597	1336.5
336.825	1332.5
337.053	1386.5
337.281	1358.5
337.51	1344.5
337.738	1348.5
337.966	1315.5
338.194	1336.5
338.422	1367.5
338.65	1344.5
338.878	1300.5
339.106	1350.5
339.334	1353.5
339.562	1356.5
339.79	1320.5
340.018	1308.5
340.246	1332.5
340.474	1308.5
340.702	1332.5
340.93	1293.5
341.158	1322.5
341.386	1366.5
341.614	1394.5
341.842	1354.5
342.07	1284.5
342.298	1314.5
342.526	1304.5
342.754	1302.5
342.981	1306.5
343.209	1322.5
343.437	1352.5
343.665	1322.5
343.893	1356.5
344.12	1353.5
344.348	1297.5
344.576	1331.5
344.804	1345.5
345.031	1358.5
345.259	1313.5
345.487	1330.5
345.714	1333.5
345.942	1346.5
346.17	1368.5
346.397	1369.5
346.625	1347.5
346.853	1301.5
347.08	1300.5
347.308	1300.5
347.535	1285.5
347.763	1297.5
347.99	1284.5
348.218	1261.5
348.445	1280.5
348.673	1273.5
348.9	1266.5
349.128	1306.5
349.355	1325.5
349.583	1316.5
349.81	1299.5
350.037	1280.5
350.265	1282.5
350.492	1260.5
350.72	1261.5
350.947	1276.5
351.174	1313.5
351.402	1308.5
351.629	1325.5
351.856	1336.5
352.083	1288.5
352.311	1330.5
352.538	1366.5
352.765	1314.5
352.992	1255.5
353.22	1241.5
353.447	1244.5
353.674	1273.5
353.901	1243.5
354.128	1300.5
354.355	1254.5
354.583	1256.5
354.81	1256.5
355.037	1253.5
355.264	1254.5
355.491	1230.5
355.718	1237.5
355.945	1248.5
356.172	1286.5
356.399	1284.5
356.626	1292.5
356.853	1320.5
357.08	1301.5
357.307	1270.5
357.534	1293.5
357.761	1248.5
357.988	1257.5
358.215	1263.5
358.441	1223.5
358.668	1234.5
358.895	1235.5
359.122	1224.5
359.349	1260.5
359.576	1227.5
359.802	1292.5
360.029	1254.5
360.256	1249.5
360.483	1236.5
360.709	1257.5
360.936	1255.5
361.163	1253.5
361.39	1272.5
361.616	1259.5
361.843	1319.5
362.07	1329.5
362.296	1304.5
362.523	1266.5
362.749	1287.5
362.976	1234.5
363.203	1282.5
363.429	1234.5
363.656	1251.5
363.882	1248.5
364.109	1266.5
364.335	1243.5
364.562	1259.5
364.788	1273.5
365.015	1289.5
365.241	1244.5
365.468	1261.5
365.694	1256.5
365.92	1243.5
366.147	1245.5
366.373	1252.5
366.599	1282.5
366.826	1258.5
367.052	1267.5
367.278	1274.5
367.505	1280.5
367.731	1292.5
367.957	1271.5
368.184	1297.5
368.41	1276.5
368.636	1270.5
368.862	1251.5
369.089	1288.5
369.315	1287.5
369.541	1269.5
369.767	1268.5
369.993	1280.5
370.219	1272.5
370.445	1284.5
370.672	1272.5
370.898	1298.5
371.124	1249.5
371.35	1309.5
371.576	1309.5
371.802	1274.5
372.028	1294.5
372.254	1273.5
372.48	1294.5
372.706	1304.5
372.932	1290.5
373.158	1261.5
373.384	1258.5
373.61	1257.5
373.835	1254.5
374.061	1314.5
374.287	1307.5
374.513	1285.5
374.739	1300.5
374.965	1290.5
375.191	1275.5
375.416	1301.5
375.642	1269.5
375.868	1282.5
376.094	1292.5
376.319	1269.5
376.545	1266.5
376.771	1258.5
376.997	1279.5
377.222	1271.5
377.448	1264.5
377.674	1252.5
377.899	1208.5
378.125	1241.5
378.35	1271.5
378.576	1248.5
378.802	1251.5
379.027	1239.5
379.253	1250.5
379.478	1251.5
379.704	1224.5
379.929	1214.5
380.155	1240.5
380.38	1233.5
380.606	1234.5
380.831	1187.5
381.057	1242.5
381.282	1223.5
381.507	1196.5
381.733	1240.5
381.958	1262.5
382.184	1250.5
382.409	1229.5
382.634	1264.5
382.86	1230.5
383.085	1244.5
383.31	1271.5
383.535	1238.5
383.761	1282.5
383.986	1269.5
384.211	1279.5
384.436	1263.5
384.662	1284.5
384.887	1272.5
385.112	1293.5
385.337	1277.5
385.562	1309.5
385.787	1285.5
386.013	1310.5
386.238	1306.5
386.463	1318.5
386.688	1324.5
386.913	1308.5
387.138	1305.5
387.363	1336.5
387.588	1323.5
387.813	1347.5
388.038	1288.5
388.263	1336.5
388.488	1352.5
388.713	1308.5
388.938	1293.5
389.163	1316.5
389.387	1316.5
389.612	1299.5
389.837	1312.5
390.062	1322.5
390.287	1329.5
390.512	1320.5
390.736	1306.5
390.961	1329.5
391.186	1350.5
391.411	1314.5
391.636	1314.5
391.86	1354.5
392.085	1353.5
392.31	1331.5
392.534	1314.5
392.759	1354.5
392.984	1321.5
393.208	1321.5
393.433	1317.5
393.658	1318.5
393.882	1307.5
394.107	1330.5
394.331	1333.5
394.556	1350.5
394.78	1336.5
395.005	1317.5
395.229	1318.5
395.454	1336.5
395.678	1331.5
395.903	1324.5
396.127	1339.5
396.352	1338.5
396.576	1338.5
396.801	1349.5
397.025	1337.5
397.249	1357.5
397.474	1347.5
397.698	1366.5
397.922	1393.5
398.147	1347.5
398.371	1371.5
398.595	1357.5
398.82	1405.5
399.044	1423.5
399.268	1421.5
399.492	1429.5
399.717	1422.5
399.941	1461.5
400.165	1454.5
400.389	1460.5
400.613	1430.5
400.837	1412.5
401.062	1435.5
401.286	1401.5
401.51	1418.5
401.734	1397.5
401.958	1402.5
402.182	1404.5
402.406	1377.5
402.63	1403.5
402.854	1414.5
403.078	1446.5
403.302	1429.5
403.526	1400.5
403.75	1394.5
403.974	1393.5
404.198	1385.5
404.422	1426.5
404.645	1396.5
404.869	1380.5
405.093	1424.5
405.317	1448.5
405.541	1465.5
405.765	1421.5
405.988	1441.5
406.212	1474.5
406.436	1418.5
406.66	1465.5
406.883	1464.5
407.107	1464.5
407.331	1460.5
407.555	1512.5
407.778	1463.5
408.002	1480.5
408.226	1509.5
408.449	1493.5
408.673	1501.5
408.896	1462.5
409.12	1462.5
409.344	1481.5
409.567	1448.5
409.791	1478.5
410.014	1430.5
410.238	1482.5
410.461	1459.5
410.685	1455.5
410.908	1435.5
411.132	1474.5
411.355	1434.5
411.578	1469.5
411.802	1453.5
412.025	1395.5
412.249	1462.5
412.472	1413.5
412.695	1437.5
412.919	1470.5
413.142	1400.5
413.365	1396.5
413.589	1398.5
413.812	1418.5
414.035	1388.5
414.258	1409.5
414.482	1403.5
414.705	1402.5
414.928	1396.5
415.151	1433.5
415.374	1398.5
415.597	1409.5
415.821	1379.5
416.044	1393.5
416.267	1419.5
416.49	1383.5
416.713	1352.5
416.936	1351.5
417.159	1397.5
417.382	1365.5
417.605	1347.5
417.828	1361.5
418.051	1362.5
418.274	1367.5
418.497	1321.5
418.72	1358.5
418.943	1337.5
419.166	1404.5
419.389	1474.5
419.611	1459.5
419.834	1438.5
420.057	1404.5
420.28	1392.5
420.503	1330.5
420.726	1360.5
420.948	1372.5
421.171	1335.5
421.394	1378.5
421.617	1345.5
421.839	1356.5
422.062	1373.5
422.285	1339.5
422.507	1333.5
422.73	1387.5
422.953	1388.5
423.175	1365.5
423.398	1366.5
423.621	1360.5
423.843	1385.5
424.066	1385.5
424.288	1334.5
424.511	1354.5
424.733	1372.5
424.956	1371.5
425.178	1388.5
425.401	1393.5
425.623	1362.5
425.846	1307.5
426.068	1371.5
426.291	1349.5
426.513	1334.5
426.735	1350.5
426.958	1378.5
427.18	1366.5
427.402	1371.5
427.625	1346.5
427.847	1386.5
428.069	1325.5
428.292	1365.5
428.514	1340.5
428.736	1346.5
428.958	1394.5
429.181	1368.5
429.403	1389.5
429.625	1376.5
429.847	1389.5
430.069	1349.5
430.292	1341.5
430.514	1356.5
430.736	1368.5
430.958	1370.5
431.18	1370.5
431.402	1373.5
431.624	1312.5
431.846	1329.5
432.068	1332.5
432.29	1356.5
432.512	1358.5
432.734	1369.5
432.956	1379.5
433.178	1369.5
433.4	1444.5
433.622	1416.5
433.844	1403.5
434.066	1358.5
434.287	1378.5
434.509	1381.5
434.731	1354.5
434.953	1395.5
435.175	1458.5
435.397	1422.5
435.618	1396.5
435.84	1395.5
436.062	1332.5
436.284	1380.5
436.505	1373.5
436.727	1390.5
436.949	1390.5
437.17	1345.5
437.392	1390.5
437.614	1362.5
437.835	1306.5
438.057	1333.5
438.278	1328.5
438.5	1345.5
438.721	1348.5
438.943	1374.5
439.165	1372.5
439.386	1325.5
439.608	1364.5
439.829	1310.5
440.05	1358.5
440.272	1351.5
440.493	1346.5
440.715	1352.5
440.936	1350.5
441.158	1332.5
441.379	1338.5
441.6	1373.5
441.822	1434.5
442.043	1400.5
442.264	1362.5
442.486	1364.5
442.707	1396.5
442.928	1370.5
443.149	1388.5
443.371	1400.5
443.592	1452.5
443.813	1428.5
444.034	1373.5
444.255	1419.5
444.476	1362.5
444.698	1410.5
444.919	1383.5
445.14	1532.5
445.361	1458.5
445.582	1396.5
445.803	1401.5
446.024	1332.5
446.245	1389.5
446.466	1357.5
446.687	1330.5
446.908	1332.5
447.129	1316.5
447.35	1318.5
447.571	1327.5
447.792	1291.5
448.013	1283.5
448.234	1268.5
448.455	1288.5
448.675	1262.5
448.896	1264.5
449.117	1257.5
449.338	1288.5
449.559	1275.5
449.779	1273.5
450	1245.5
450.221	1250.5
450.442	1292.5
450.662	1239.5
450.883	1243.5
451.104	1283.5
451.324	1289.5
451.545	1267.5
451.766	1251.5
451.986	1260.5
452.207	1256.5
452.428	1244.5
452.648	1266.5
452.869	1230.5
453.089	1226.5
453.31	1248.5
453.53	1238.5
453.751	1233.5
453.971	1211.5
454.192	1249.5
454.412	1250.5
454.633	1223.5
454.853	1230.5
455.073	1215.5
455.294	1232.5
455.514	1234.5
455.734	1241.5
455.955	1226.5
456.175	1237.5
456.395	1230.5
456.616	1224.5
456.836	1210.5
457.056	1243.5
457.276	1220.5
457.497	1281.5
457.717	1232.5
457.937	1245.5
458.157	1233.5
458.377	1222.5
458.598	1265.5
458.818	1217.5
459.038	1239.5
459.258	1254.5
459.478	1341.5
459.698	1369.5
459.918	1371.5
460.138	1352.5
460.358	1362.5
460.578	1341.5
460.798	1380.5
461.018	1370.5
461.238	1315.5
461.458	1326.5
461.678	1315.5
461.898	1376.5
462.118	1318.5
462.338	1366.5
462.558	1371.5
462.777	1416.5
462.997	1422.5
463.217	1422.5
463.437	1481.5
463.657	1457.5
463.876	1438.5
464.096	1420.5
464.316	1415.5
464.536	1381.5
464.755	1334.5
464.975	1336.5
465.195	1348.5
465.414	1352.5
465.634	1325.5
465.854	1309.5
466.073	1294.5
466.293	1314.5
466.512	1316.5
466.732	1309.5
466.951	1330.5
467.171	1364.5
467.391	1319.5
467.61	1303.5
467.829	1322.5
468.049	1293.5
468.268	1310.5
468.488	1305.5
468.707	1260.5
468.927	1288.5
469.146	1323.5
469.365	1312.5
469.585	1298.5
469.804	1340.5
470.023	1306.5
470.243	1317.5
470.462	1331.5
470.681	1284.5
470.901	1273.5
471.12	1322.5
471.339	1318.5
471.558	1321.5
471.777	1346.5
471.997	1328.5
472.216	1346.5
472.435	1358.5
472.654	1302.5
472.873	1350.5
473.092	1331.5
473.311	1316.5
473.53	1351.5
473.749	1354.5
473.968	1350.5
474.187	1337.5
474.406	1363.5
474.625	1382.5
474.844	1349.5
475.063	1386.5
475.282	1379.5
475.501	1401.5
475.72	1388.5
475.939	1376.5
476.158	1412.5
476.377	1400.5
476.596	1414.5
476.814	1470.5
477.033	1420.5
477.252	1425.5
477.471	1484.5
477.69	1498.5
477.908	1451.5
478.127	1486.5
478.346	1491.5
478.564	1518.5
478.783	1540.5
479.002	1582.5
479.22	1619.5
479.439	1543.5
479.658	1529.5
479.876	1573.5
480.095	1561.5
480.313	1592.5
480.532	1586.5
480.751	1581.5
480.969	1541.5
481.188	1572.5
481.406	1560.5
481.624	1612.5
481.843	1566.5
482.061	1582.5
482.28	1586.5
482.498	1590.5
482.717	1609.5
482.935	1636.5
483.153	1672.5
483.372	1664.5
483.59	1673.5
483.808	1639.5
484.027	1612.5
484.245	1649.5
484.463	1664.5
484.681	1681.5
484.9	1650.5
485.118	1645.5
485.336	1655.5
485.554	1656.5
485.772	1604.5
485.99	1660.5
486.209	1620.5
486.427	1644.5
486.645	1644.5
486.863	1696.5
487.081	1692.5
487.299	1688.5
487.517	1686.5
487.735	1739.5
487.953	1732.5
488.171	1704.5
488.389	1688.5
488.607	1670.5
488.825	1676.5
489.043	1648.5
489.261	1696.5
489.479	1678.5
489.696	1689.5
489.914	1648.5
490.132	1670.5
490.35	1668.5
490.568	1656.5
490.786	1748.5
491.003	1672.5
491.221	1725.5
491.439	1698.5
491.657	1738.5
491.874	1730.5
492.092	1742.5
492.31	1755.5
492.527	1732.5
492.745	1726.5
492.963	1728.5
493.18	1732.5
493.398	1754.5
493.615	1725.5
493.833	1697.5
494.05	1715.5
494.268	1702.5
494.485	1720.5
494.703	1692.5
494.92	1731.5
495.138	1750.5
495.355	1739.5
495.573	1747.5
495.79	1723.5
496.008	1780.5
496.225	1745.5
496.442	1777.5
496.66	1773.5
496.877	1806.5
497.094	1780.5
497.312	1784.5
497.529	1798.5
497.746	1786.5
497.963	1809.5
498.181	1799.5
498.398	1834.5
498.615	1853.5
498.832	1851.5
499.049	1860.5
499.267	1923.5
499.484	1898.5
499.701	1928.5
499.918	1969.5
500.135	1970.5
500.352	2028.5
500.569	2035.5
500.786	2014.5
501.003	2023.5
501.22	1983.5
501.437	1960.5
501.654	1908.5
501.871	1942.5
502.088	1917.5
502.305	1892.5
502.522	1854.5
502.739	1825.5
502.956	1763.5
503.172	1771.5
503.389	1726.5
503.606	1762.5
503.823	1738.5
504.04	1709.5
504.256	1705.5
504.473	1706.5
504.69	1664.5
504.907	1643.5
505.123	1676.5
505.34	1636.5
505.557	1586.5
505.773	1606.5
505.99	1635.5
506.207	1562.5
506.423	1552.5
506.64	1566.5
506.856	1534.5
507.073	1555.5
507.289	1539.5
507.506	1539.5
507.722	1538.5
507.939	1492.5
508.155	1542.5
508.372	1499.5
508.588	1491.5
508.805	1479.5
509.021	1486.5
509.238	1501.5
509.454	1447.5
509.67	1462.5
509.887	1449.5
510.103	1446.5
510.319	1435.5
510.536	1412.5
510.752	1401.5
510.968	1413.5
511.184	1404.5
511.401	1387.5
511.617	1410.5
511.833	1438.5
512.049	1413.5
512.265	1377.5
512.481	1410.5
512.698	1416.5
512.914	1414.5
513.13	1420.5
513.346	1373.5
513.562	1442.5
513.778	1398.5
513.994	1387.5
514.21	1432.5
514.426	1446.5
514.642	1403.5
514.858	1444.5
515.074	1437.5
515.29	1406.5
515.506	1386.5
515.721	1371.5
515.937	1416.5
516.153	1425.5
516.369	1398.5
516.585	1442.5
516.801	1394.5
517.016	1425.5
517.232	1406.5
517.448	1408.5
517.664	1396.5
517.879	1429.5
518.095	1432.5
518.311	1413.5
518.527	1395.5
518.742	1370.5
518.958	1335.5
519.173	1376.5
519.389	1370.5
519.605	1362.5
519.82	1394.5
520.036	1386.5
520.251	1366.5
520.467	1387.5
520.682	1332.5
520.898	1310.5
521.113	1364.5
521.329	1301.5
521.544	1312.5
521.76	1380.5
521.975	1330.5
522.19	1335.5
522.406	1348.5
522.621	1313.5
522.836	1325.5
523.052	1323.5
523.267	1290.5
523.482	1300.5
523.698	1287.5
523.913	1274.5
524.128	1291.5
524.343	1283.5
524.559	1299.5
524.774	1281.5
524.989	1258.5
525.204	1292.5
525.419	1284.5
525.634	1285.5
525.849	1274.5
526.064	1288.5
526.28	1269.5
526.495	1240.5
526.71	1242.5
526.925	1236.5
527.14	1239.5
527.355	1236.5
527.57	1230.5
527.785	1228.5
527.999	1246.5
528.214	1254.5
528.429	1232.5
528.644	1219.5
528.859	1273.5
529.074	1224.5
529.289	1251.5
529.503	1258.5
529.718	1242.5
529.933	1250.5
530.148	1219.5
530.363	1208.5
530.577	1213.5
530.792	1223.5
531.007	1214.5
531.221	1166.5
531.436	1205.5
531.651	1212.5
531.865	1195.5
532.08	1190.5
532.295	1226.5
532.509	1218.5
532.724	1165.5
532.938	1192.5
533.153	1176.5
533.367	1183.5
533.582	1176.5
533.796	1211.5
534.011	1161.5
534.225	1162.5
534.44	1152.5
534.654	1145.5
534.868	1182.5
535.083	1166.5
535.297	1148.5
535.511	1129.5
535.726	1163.5
535.94	1156.5
536.154	1142.5
536.369	1129.5
536.583	1142.5
536.797	1136.5
537.011	1112.5
537.225	1107.5
537.44	1143.5
537.654	1120.5
537.868	1144.5
538.082	1098.5
538.296	1114.5
538.51	1114.5
538.724	1127.5
538.938	1110.5
539.153	1096.5
539.367	1111.5
539.581	1102.5
539.795	1062.5
540.009	1092.5
540.222	1086.5
540.436	1100.5
540.65	1092.5
540.864	1113.5
541.078	1116.5
541.292	1098.5
541.506	1108.5
541.72	1120.5
541.934	1107.5
542.147	1084.5
542.361	1120.5
542.575	1115.5
542.789	1092.5
543.002	1066.5
543.216	1067.5
543.43	1043.5
543.644	1058.5
543.857	1081.5
544.071	1058.5
544.285	1068.5
544.498	1092.5
544.712	1088.5
544.925	1073.5
545.139	1038.5
545.352	1077.5
545.566	1064.5
545.779	1072.5
545.993	1060.5
546.206	1060.5
546.42	1072.5
546.633	1051.5
546.847	1053.5
547.06	1061.5
547.274	1051.5
547.487	1064.5
547.7	1051.5
547.914	1053.5
548.127	1085.5
548.34	1030.5
548.554	1058.5
548.767	1039.5
548.98	1049.5
549.193	1026.5
549.407	1050.5
549.62	1022.5
549.833	1028.5
550.046	1044.5
550.259	1020.5
550.473	1025.5
550.686	1048.5
550.899	1037.5
551.112	1004.5
551.325	1015.5
551.538	1036.5
551.751	997.5
551.964	980.5
552.177	1016.5
552.39	994.5
552.603	981.5
552.816	1009.5
553.029	996.5
553.242	1020.5
553.455	1034.5
553.667	997.5
553.88	1020.5
554.093	996.5
554.306	985.5
554.519	990.5
554.732	993.5
554.944	932.5
555.157	961.5
555.37	980.5
555.583	970.5
555.795	939.5
556.008	956.5
556.221	956.5
556.433	939.5
556.646	917.5
556.859	936.5
557.071	915.5
557.284	944.5
557.496	907.5
557.709	939.5
557.921	923.5
558.134	901.5
558.346	905.5
558.559	919.5
558.771	910.5
558.984	897.5
559.196	856.5
559.409	894.5
559.621	890.5
559.833	893.5
560.046	879.5
560.258	902.5
560.47	880.5
560.683	893.5
560.895	881.5
561.107	860.5
561.32	868.5
561.532	863.5
561.744	882.5
561.956	892.5
562.168	871.5
562.381	874.5
562.593	876.5
562.805	870.5
563.017	864.5
563.229	880.5
563.441	857.5
563.653	882.5
563.865	885.5
564.077	872.5
564.289	852.5
564.501	902.5
564.713	859.5
564.925	874.5
565.137	864.5
565.349	870.5
565.561	871.5
565.773	885.5
565.985	894.5
566.197	888.5
566.408	846.5
566.62	856.5
566.832	908.5
567.044	873.5
567.255	884.5
567.467	886.5
567.679	881.5
567.891	879.5
568.102	841.5
568.314	841.5
568.526	825.5
568.737	845.5
568.949	842.5
569.161	826.5
569.372	808.5
569.584	827.5
569.795	808.5
570.007	793.5
570.218	766.5
570.43	792.5
570.641	786.5
570.853	755.5
571.064	765.5
571.276	794.5
571.487	772.5
571.698	757.5
571.91	772.5
572.121	742.5
572.333	768.5
572.544	723.5
572.755	738.5
572.966	725.5
573.178	725.5
573.389	703.5
573.6	702.5
573.811	689.5
574.023	707.5
574.234	715.5
574.445	677.5
574.656	680.5
574.867	647.5
575.078	689.5
575.289	669.5
575.501	673.5
575.712	652.5
575.923	649.5
576.134	676.5
576.345	693.5
576.556	663.5
576.767	645.5
576.978	658.5
577.188	653.5
577.399	636.5
577.61	651.5
577.821	627.5
578.032	658.5
578.243	629.5
578.454	621.5
578.665	636.5
578.875	630.5
579.086	615.5
579.297	634.5
579.508	624.5
579.718	621.5
579.929	594.5
580.14	603.5
580.35	604.5
580.561	614.5
580.772	640.5
580.982	612.5
581.193	605.5
581.403	611.5
581.614	594.5
581.825	581.5
582.035	604.5
582.246	606.5
582.456	592.5
582.667	600.5
582.877	579.5
583.087	595.5
583.298	570.5
583.508	579.5
583.719	581.5
583.929	605.5
584.139	567.5
584.35	565.5
584.56	576.5
584.77	554.5
584.981	564.5
585.191	589.5
585.401	585.5
585.611	576.5
585.821	571.5
586.032	581.5
586.242	561.5
586.452	584.5
586.662	561.5
586.872	538.5
587.082	549.5
587.292	569.5
587.502	560.5
587.713	552.5
587.923	556.5
588.133	551.5
588.343	529.5
588.553	540.5
588.762	558.5
588.972	566.5
589.182	597.5
589.392	553.5
589.602	539.5
589.812	583.5
590.022	562.5
590.232	548.5
590.441	530.5
590.651	519.5
590.861	532.5
591.071	524.5
591.281	525.5
591.49	515.5
591.7	530.5
591.91	534.5
592.119	538.5
592.329	511.5
592.539	537.5
592.748	504.5
592.958	540.5
593.167	520.5
593.377	523.5
593.587	538.5
593.796	538.5
594.006	530.5
594.215	506.5
594.424	523.5
594.634	495.5
594.843	538.5
595.053	493.5
595.262	518.5
595.472	515.5
595.681	482.5
595.89	506.5
596.1	474.5
596.309	492.5
596.518	500.5
596.727	496.5
596.937	511.5
597.146	505.5
597.355	485.5
597.564	474.5
597.774	491.5
597.983	475.5
598.192	469.5
598.401	477.5
598.61	455.5
598.819	449.5
599.028	476.5
599.237	452.5
599.446	453.5
599.655	475.5
599.864	481.5
600.073	457.5
600.282	449.5
600.491	472.5
600.7	468.5
600.909	462.5
601.118	438.5
601.327	459.5
601.536	432.5
601.745	450.5
601.953	443.5
602.162	444.5
602.371	450.5
602.58	439.5
602.789	437.5
602.997	427.5
603.206	444.5
603.415	440.5
603.623	428.5
603.832	441.5
604.041	430.5
604.249	419.5
604.458	422.5
604.666	418.5
604.875	437.5
605.084	426.5
605.292	426.5
605.501	416.5
605.709	416.5
605.918	417.5
606.126	423.5
606.334	427.5
606.543	437.5
606.751	427.5
606.96	436.5
607.168	428.5
607.376	435.5
607.585	406.5
607.793	418.5
608.001	413.5
608.21	410.5
608.418	417.5
608.626	419.5
608.834	422.5
609.043	403.5
609.251	404.5
609.459	401.5
609.667	418.5
609.875	392.5
610.083	392.5
610.291	409.5
610.499	406.5
610.707	398.5
610.916	391.5
611.124	398.5
611.332	396.5
611.54	393.5
611.748	409.5
611.955	393.5
612.163	401.5
612.371	390.5
612.579	410.5
612.787	382.5
612.995	389.5
613.203	401.5
613.411	401.5
613.618	388.5
613.826	382.5
614.034	406.5
614.242	411.5
614.449	385.5
614.657	400.5
614.865	374.5
615.072	393.5
615.28	402.5
615.488	374.5
615.695	388.5
615.903	369.5
616.111	383.5
616.318	380.5
616.526	383.5
616.733	362.5
616.941	392.5
617.148	365.5
617.356	386.5
617.563	386.5
617.771	370.5
617.978	361.5
618.185	375.5
618.393	355.5
618.6	358.5
618.807	352.5
619.015	377.5
619.222	367.5
619.429	363.5
619.637	356.5
619.844	362.5
620.051	357.5
620.258	360.5
620.466	355.5
620.673	358.5
620.88	361.5
621.087	361.5
621.294	344.5
621.501	355.5
621.708	341.5
621.915	352.5
622.122	321.5
622.329	361.5
622.536	346.5
622.743	334.5
622.95	363.5
623.157	332.5
623.364	348.5
623.571	338.5
623.778	340.5
623.985	360.5
624.192	364.5
624.399	338.5
624.606	354.5
624.812	342.5
625.019	339.5
625.226	347.5
625.433	320.5
625.639	335.5
625.846	317.5
626.053	311.5
626.259	310.5
626.466	329.5
626.673	324.5
626.879	334.5
627.086	318.5
627.293	321.5
627.499	338.5
627.706	314.5
627.912	323.5
628.119	326.5
628.325	325.5
628.532	291.5
628.738	337.5
628.945	327.5
629.151	320.5
629.357	313.5
629.564	295.5
629.77	311.5
629.976	318.5
630.183	301.5
630.389	317.5
630.595	317.5
630.802	314.5
631.008	325.5
631.214	297.5
631.42	298.5
631.627	290.5
631.833	303.5
632.039	292.5
632.245	308.5
632.451	320.5
632.657	314.5
632.863	291.5
633.069	296.5
633.275	298.5
633.481	264.5
633.688	292.5
633.893	291.5
634.099	306.5
634.305	296.5
634.511	290.5
634.717	296.5
634.923	297.5
635.129	278.5
635.335	297.5
635.541	294.5
635.747	274.5
635.952	283.5
636.158	291.5
636.364	289.5
636.57	263.5
636.775	286.5
636.981	290.5
637.187	299.5
637.392	282.5
637.598	280.5
637.804	295.5
638.009	306.5
638.215	280.5
638.421	296.5
638.626	267.5
638.832	273.5
639.037	278.5
639.243	275.5
639.448	282.5
639.654	278.5
639.859	286.5
640.065	278.5
640.27	265.5
640.475	262.5
640.681	267.5
640.886	271.5
641.091	261.5
641.297	273.5
641.502	261.5
641.707	284.5
641.913	274.5
642.118	247.5
642.323	264.5
642.528	271.5
642.733	272.5
642.939	279.5
643.144	279.5
643.349	264.5
643.554	268.5
643.759	270.5
643.964	267.5
644.169	273.5
644.374	258.5
644.579	273.5
644.784	280.5
644.989	268.5
645.194	277.5
645.399	269.5
645.604	261.5
645.809	246.5
646.014	273.5
646.219	279.5
646.423	279.5
646.628	262.5
646.833	260.5
647.038	265.5
647.243	265.5
647.447	259.5
647.652	275.5
647.857	266.5
648.062	281.5
648.266	276.5
648.471	285.5
648.676	277.5
648.88	273.5
649.085	276.5
649.289	270.5
649.494	269.5
649.698	285.5
649.903	273.5
650.107	284.5
650.312	277.5
650.516	276.5
650.721	265.5
650.925	280.5
651.13	285.5
651.334	263.5
651.539	266.5
651.743	264.5
651.947	267.5
652.152	269.5
652.356	269.5
652.56	260.5
652.764	258.5
652.969	248.5
653.173	236.5
653.377	250.5
653.581	247.5
653.785	247.5
653.99	260.5
654.194	262.5
654.398	242.5
654.602	257.5
654.806	245.5
655.01	243.5
655.214	240.5
655.418	248.5
655.622	230.5
655.826	261.5
656.03	248.5
656.234	268.5
656.438	273.5
656.642	270.5
656.846	235.5
657.049	248.5
657.253	228.5
657.457	227.5
657.661	211.5
657.865	197.5
658.068	196.5
658.272	184.5
658.476	185.5
658.68	161.5
658.883	171.5
659.087	167.5
659.291	156.5
659.494	150.5
659.698	141.5
659.901	153.5
660.105	138.5
660.309	131.5
660.512	118.5
660.716	110.5
660.919	106.5
661.123	108.5
661.326	113.5
661.53	118.5
661.733	101.5
661.936	107.5
662.14	100.5
662.343	93.5
662.546	93.5
662.75	110.5
662.953	99.5
663.156	82.5
663.36	107.5
663.563	90.5
663.766	89.5
663.969	83.5
664.173	99.5
664.376	75.5
664.579	84.5
664.782	68.5
664.985	76.5
665.188	93.5
665.391	84.5
665.594	82.5
665.797	81.5
666	99.5
666.203	80.5
666.406	89.5
666.609	84.5
666.812	85.5
667.015	95.5
667.218	83.5
667.421	96.5
667.624	82.5
667.827	75.5
668.03	82.5
668.232	84.5
668.435	93.5
668.638	86.5
668.841	88.5
669.043	77.5
669.246	83.5
669.449	85.5
669.651	93.5
669.854	78.5
670.057	92.5
670.259	63.5
670.462	78.5
670.665	72.5
670.867	76.5
671.07	75.5
671.272	77.5
671.475	73.5
671.677	83.5
671.88	89.5
672.082	57.5
672.284	78.5
672.487	67.5
672.689	85.5
672.892	69.5
