Data from Ni(NO3)2@0.0625M.TitratingCurve.Agarose3%dH2O.NegLispCup.LampEnergy10.LIBS07252019_HRD10591_18-15-21-570.txt Node
Date: Thu Jul 25 18:15:21 EDT 2019
User: cochatt
Spectrometer: HR+D1059
Trigger mode: 1
Integration Time (sec): 1.000000E-1
Scans to average: 1
Electric dark correction enabled: true
Nonlinearity correction enabled: false
Boxcar width: 0
XAxis mode: Wavelengths
Number of Pixels in Spectrum: 2048
>>>>>Begin Spectral Data<<<<<
223.165	-17.56
223.4	-17.56
223.635	-17.56
223.869	-6.56
224.104	-16.56
224.338	-13.56
224.573	-22.56
224.808	-16.56
225.042	-21.56
225.277	-4.56
225.511	1.44
225.746	1.44
225.98	3.44
226.215	25.44
226.449	7.44
226.683	21.44
226.918	35.44
227.152	23.44
227.387	24.44
227.621	36.44
227.856	35.44
228.09	27.44
228.324	35.44
228.559	42.44
228.793	56.44
229.027	86.44
229.262	93.44
229.496	97.44
229.73	104.44
229.964	134.44
230.199	126.44
230.433	133.44
230.667	133.44
230.901	125.44
231.136	118.44
231.37	139.44
231.604	129.44
231.838	153.44
232.072	128.44
232.306	122.44
232.541	144.44
232.775	145.44
233.009	135.44
233.243	151.44
233.477	141.44
233.711	147.44
233.945	124.44
234.179	145.44
234.413	143.44
234.647	150.44
234.881	143.44
235.115	148.44
235.349	132.44
235.583	138.44
235.817	157.44
236.051	151.44
236.285	146.44
236.519	155.44
236.753	130.44
236.987	151.44
237.221	141.44
237.455	145.44
237.689	160.44
237.922	146.44
238.156	161.44
238.39	151.44
238.624	158.44
238.858	153.44
239.091	153.44
239.325	162.44
239.559	173.44
239.793	161.44
240.027	177.44
240.26	167.44
240.494	185.44
240.728	175.44
240.961	193.44
241.195	171.44
241.429	198.44
241.662	189.44
241.896	181.44
242.13	168.44
242.363	184.44
242.597	170.44
242.83	187.44
243.064	197.44
243.298	192.44
243.531	189.44
243.765	198.44
243.998	201.44
244.232	210.44
244.465	199.44
244.699	197.44
244.932	202.44
245.166	202.44
245.399	210.44
245.633	217.44
245.866	197.44
246.099	226.44
246.333	190.44
246.566	214.44
246.8	223.44
247.033	208.44
247.266	219.44
247.5	219.44
247.733	213.44
247.966	221.44
248.2	238.44
248.433	238.44
248.666	211.44
248.899	233.44
249.133	233.44
249.366	225.44
249.599	234.44
249.832	231.44
250.066	252.44
250.299	241.44
250.532	237.44
250.765	239.44
250.998	228.44
251.231	255.44
251.465	242.44
251.698	244.44
251.931	244.44
252.164	250.44
252.397	271.44
252.63	241.44
252.863	251.44
253.096	273.44
253.329	252.44
253.562	232.44
253.795	265.44
254.028	267.44
254.261	258.44
254.494	280.44
254.727	268.44
254.96	274.44
255.193	281.44
255.426	261.44
255.659	274.44
255.892	276.44
256.124	273.44
256.357	280.44
256.59	284.44
256.823	286.44
257.056	288.44
257.289	297.44
257.521	285.44
257.754	290.44
257.987	294.44
258.22	288.44
258.452	288.44
258.685	295.44
258.918	288.44
259.151	332.44
259.383	312.44
259.616	305.44
259.849	304.44
260.081	312.44
260.314	294.44
260.547	303.44
260.779	312.44
261.012	287.44
261.244	288.44
261.477	308.44
261.71	301.44
261.942	308.44
262.175	296.44
262.407	327.44
262.64	310.44
262.872	331.44
263.105	312.44
263.337	331.44
263.57	304.44
263.802	309.44
264.035	344.44
264.267	333.44
264.499	343.44
264.732	334.44
264.964	338.44
265.197	333.44
265.429	330.44
265.661	345.44
265.894	340.44
266.126	339.44
266.358	350.44
266.591	337.44
266.823	355.44
267.055	355.44
267.287	337.44
267.52	358.44
267.752	340.44
267.984	345.44
268.216	348.44
268.448	354.44
268.681	365.44
268.913	360.44
269.145	357.44
269.377	359.44
269.609	341.44
269.841	365.44
270.073	349.44
270.306	351.44
270.538	357.44
270.77	355.44
271.002	366.44
271.234	368.44
271.466	366.44
271.698	370.44
271.93	372.44
272.162	361.44
272.394	377.44
272.626	388.44
272.858	376.44
273.09	379.44
273.322	386.44
273.553	384.44
273.785	371.44
274.017	366.44
274.249	385.44
274.481	385.44
274.713	379.44
274.945	394.44
275.176	390.44
275.408	400.44
275.64	406.44
275.872	393.44
276.104	412.44
276.335	387.44
276.567	376.44
276.799	400.44
277.031	414.44
277.262	393.44
277.494	393.44
277.726	400.44
277.957	406.44
278.189	394.44
278.421	395.44
278.652	395.44
278.884	414.44
279.115	409.44
279.347	422.44
279.579	420.44
279.81	410.44
280.042	420.44
280.273	426.44
280.505	408.44
280.736	425.44
280.968	428.44
281.199	425.44
281.431	403.44
281.662	439.44
281.894	439.44
282.125	445.44
282.356	457.44
282.588	448.44
282.819	465.44
283.051	447.44
283.282	455.44
283.513	430.44
283.745	441.44
283.976	449.44
284.207	461.44
284.439	456.44
284.67	451.44
284.901	470.44
285.132	482.44
285.364	484.44
285.595	469.44
285.826	468.44
286.057	480.44
286.288	454.44
286.52	497.44
286.751	460.44
286.982	476.44
287.213	478.44
287.444	473.44
287.675	487.44
287.906	475.44
288.138	490.44
288.369	480.44
288.6	483.44
288.831	487.44
289.062	493.44
289.293	480.44
289.524	498.44
289.755	482.44
289.986	509.44
290.217	489.44
290.448	520.44
290.679	486.44
290.91	505.44
291.141	499.44
291.371	509.44
291.602	521.44
291.833	506.44
292.064	490.44
292.295	510.44
292.526	504.44
292.757	505.44
292.987	511.44
293.218	490.44
293.449	521.44
293.68	497.44
293.91	511.44
294.141	509.44
294.372	490.44
294.603	494.44
294.833	519.44
295.064	521.44
295.295	505.44
295.525	508.44
295.756	533.44
295.987	530.44
296.217	527.44
296.448	518.44
296.679	533.44
296.909	497.44
297.14	537.44
297.37	537.44
297.601	559.44
297.831	551.44
298.062	559.44
298.292	554.44
298.523	580.44
298.753	560.44
298.984	561.44
299.214	556.44
299.445	582.44
299.675	553.44
299.905	543.44
300.136	529.44
300.366	553.44
300.597	571.44
300.827	571.44
301.057	565.44
301.288	588.44
301.518	613.44
301.748	587.44
301.979	609.44
302.209	584.44
302.439	593.44
302.669	591.44
302.9	557.44
303.13	568.44
303.36	570.44
303.59	563.44
303.82	559.44
304.051	560.44
304.281	563.44
304.511	561.44
304.741	579.44
304.971	567.44
305.201	584.44
305.431	541.44
305.661	569.44
305.891	558.44
306.121	545.44
306.352	554.44
306.582	542.44
306.812	550.44
307.042	553.44
307.272	549.44
307.502	530.44
307.731	548.44
307.961	545.44
308.191	555.44
308.421	530.44
308.651	555.44
308.881	535.44
309.111	547.44
309.341	557.44
309.571	539.44
309.8	555.44
310.03	566.44
310.26	557.44
310.49	563.44
310.72	580.44
310.949	570.44
311.179	566.44
311.409	574.44
311.639	547.44
311.868	551.44
312.098	577.44
312.328	587.44
312.557	569.44
312.787	571.44
313.017	578.44
313.246	597.44
313.476	601.44
313.706	601.44
313.935	603.44
314.165	613.44
314.394	581.44
314.624	581.44
314.853	587.44
315.083	597.44
315.312	591.44
315.542	598.44
315.771	591.44
316.001	589.44
316.23	570.44
316.46	586.44
316.689	582.44
316.919	579.44
317.148	618.44
317.377	613.44
317.607	600.44
317.836	554.44
318.065	596.44
318.295	557.44
318.524	600.44
318.753	580.44
318.983	595.44
319.212	585.44
319.441	571.44
319.67	587.44
319.9	571.44
320.129	566.44
320.358	570.44
320.587	583.44
320.816	594.44
321.046	589.44
321.275	574.44
321.504	589.44
321.733	615.44
321.962	597.44
322.191	591.44
322.42	578.44
322.649	588.44
322.878	578.44
323.108	591.44
323.337	600.44
323.566	603.44
323.795	613.44
324.024	591.44
324.253	631.44
324.482	597.44
324.71	587.44
324.939	602.44
325.168	602.44
325.397	597.44
325.626	621.44
325.855	619.44
326.084	623.44
326.313	632.44
326.542	622.44
326.77	642.44
326.999	653.44
327.228	634.44
327.457	633.44
327.686	608.44
327.914	629.44
328.143	621.44
328.372	641.44
328.6	648.44
328.829	630.44
329.058	635.44
329.287	671.44
329.515	651.44
329.744	655.44
329.972	645.44
330.201	637.44
330.43	629.44
330.658	656.44
330.887	655.44
331.115	690.44
331.344	659.44
331.572	671.44
331.801	691.44
332.03	722.44
332.258	705.44
332.486	733.44
332.715	732.44
332.943	787.44
333.172	862.44
333.4	864.44
333.629	874.44
333.857	877.44
334.085	887.44
334.314	854.44
334.542	835.44
334.771	819.44
334.999	826.44
335.227	792.44
335.455	794.44
335.684	770.44
335.912	782.44
336.14	773.44
336.369	797.44
336.597	784.44
336.825	782.44
337.053	768.44
337.281	755.44
337.51	753.44
337.738	721.44
337.966	742.44
338.194	719.44
338.422	669.44
338.65	690.44
338.878	681.44
339.106	675.44
339.334	694.44
339.562	684.44
339.79	684.44
340.018	658.44
340.246	669.44
340.474	672.44
340.702	678.44
340.93	675.44
341.158	689.44
341.386	680.44
341.614	664.44
341.842	680.44
342.07	650.44
342.298	636.44
342.526	652.44
342.754	659.44
342.981	658.44
343.209	655.44
343.437	703.44
343.665	743.44
343.893	819.44
344.12	834.44
344.348	810.44
344.576	745.44
344.804	736.44
345.031	718.44
345.259	696.44
345.487	671.44
345.714	678.44
345.942	646.44
346.17	661.44
346.397	648.44
346.625	653.44
346.853	662.44
347.08	638.44
347.308	652.44
347.535	677.44
347.763	672.44
347.99	655.44
348.218	656.44
348.445	664.44
348.673	645.44
348.9	650.44
349.128	635.44
349.355	665.44
349.583	648.44
349.81	643.44
350.037	632.44
350.265	623.44
350.492	637.44
350.72	644.44
350.947	613.44
351.174	610.44
351.402	629.44
351.629	617.44
351.856	630.44
352.083	640.44
352.311	613.44
352.538	607.44
352.765	623.44
352.992	627.44
353.22	607.44
353.447	581.44
353.674	618.44
353.901	638.44
354.128	635.44
354.355	623.44
354.583	597.44
354.81	615.44
355.037	633.44
355.264	629.44
355.491	655.44
355.718	647.44
355.945	628.44
356.172	634.44
356.399	627.44
356.626	626.44
356.853	618.44
357.08	619.44
357.307	619.44
357.534	609.44
357.761	633.44
357.988	634.44
358.215	614.44
358.441	600.44
358.668	626.44
358.895	624.44
359.122	612.44
359.349	611.44
359.576	631.44
359.802	606.44
360.029	589.44
360.256	633.44
360.483	615.44
360.709	635.44
360.936	613.44
361.163	616.44
361.39	634.44
361.616	612.44
361.843	634.44
362.07	631.44
362.296	632.44
362.523	627.44
362.749	631.44
362.976	609.44
363.203	611.44
363.429	628.44
363.656	623.44
363.882	626.44
364.109	589.44
364.335	612.44
364.562	617.44
364.788	616.44
365.015	630.44
365.241	613.44
365.468	623.44
365.694	621.44
365.92	605.44
366.147	625.44
366.373	639.44
366.599	646.44
366.826	633.44
367.052	622.44
367.278	635.44
367.505	601.44
367.731	611.44
367.957	638.44
368.184	608.44
368.41	627.44
368.636	618.44
368.862	657.44
369.089	659.44
369.315	658.44
369.541	644.44
369.767	670.44
369.993	636.44
370.219	642.44
370.445	671.44
370.672	650.44
370.898	671.44
371.124	645.44
371.35	671.44
371.576	703.44
371.802	704.44
372.028	665.44
372.254	681.44
372.48	662.44
372.706	662.44
372.932	719.44
373.158	706.44
373.384	705.44
373.61	703.44
373.835	672.44
374.061	671.44
374.287	680.44
374.513	711.44
374.739	721.44
374.965	746.44
375.191	771.44
375.416	770.44
375.642	743.44
375.868	729.44
376.094	707.44
376.319	696.44
376.545	678.44
376.771	681.44
376.997	664.44
377.222	692.44
377.448	670.44
377.674	683.44
377.899	686.44
378.125	675.44
378.35	665.44
378.576	675.44
378.802	680.44
379.027	677.44
379.253	653.44
379.478	686.44
379.704	699.44
379.929	690.44
380.155	682.44
380.38	664.44
380.606	692.44
380.831	669.44
381.057	670.44
381.282	671.44
381.507	705.44
381.733	705.44
381.958	707.44
382.184	701.44
382.409	694.44
382.634	729.44
382.86	735.44
383.085	709.44
383.31	741.44
383.535	763.44
383.761	777.44
383.986	793.44
384.211	792.44
384.436	826.44
384.662	839.44
384.887	843.44
385.112	829.44
385.337	856.44
385.562	853.44
385.787	818.44
386.013	826.44
386.238	848.44
386.463	841.44
386.688	856.44
386.913	814.44
387.138	819.44
387.363	830.44
387.588	805.44
387.813	815.44
388.038	823.44
388.263	826.44
388.488	811.44
388.713	796.44
388.938	792.44
389.163	775.44
389.387	813.44
389.612	775.44
389.837	815.44
390.062	810.44
390.287	795.44
390.512	797.44
390.736	815.44
390.961	828.44
391.186	823.44
391.411	874.44
391.636	886.44
391.86	905.44
392.085	952.44
392.31	930.44
392.534	899.44
392.759	902.44
392.984	867.44
393.208	863.44
393.433	864.44
393.658	852.44
393.882	869.44
394.107	897.44
394.331	890.44
394.556	869.44
394.78	892.44
395.005	898.44
395.229	877.44
395.454	941.44
395.678	939.44
395.903	927.44
396.127	935.44
396.352	882.44
396.576	864.44
396.801	856.44
397.025	879.44
397.249	890.44
397.474	939.44
397.698	931.44
397.922	926.44
398.147	926.44
398.371	915.44
398.595	925.44
398.82	996.44
399.044	1036.44
399.268	1235.44
399.492	1410.44
399.717	1626.44
399.941	1640.44
400.165	1412.44
400.389	1239.44
400.613	1140.44
400.837	1083.44
401.062	1056.44
401.286	1050.44
401.51	1024.44
401.734	1017.44
401.958	1019.44
402.182	1099.44
402.406	1096.44
402.63	1083.44
402.854	1109.44
403.078	1130.44
403.302	1178.44
403.526	1163.44
403.75	1203.44
403.974	1210.44
404.198	1241.44
404.422	1231.44
404.645	1226.44
404.869	1189.44
405.093	1203.44
405.317	1162.44
405.541	1144.44
405.765	1170.44
405.988	1128.44
406.212	1113.44
406.436	1126.44
406.66	1175.44
406.883	1173.44
407.107	1245.44
407.331	1303.44
407.555	1398.44
407.778	1353.44
408.002	1315.44
408.226	1274.44
408.449	1249.44
408.673	1204.44
408.896	1193.44
409.12	1200.44
409.344	1198.44
409.567	1170.44
409.791	1213.44
410.014	1223.44
410.238	1191.44
410.461	1168.44
410.685	1156.44
410.908	1125.44
411.132	1119.44
411.355	1078.44
411.578	1090.44
411.802	1053.44
412.025	1082.44
412.249	1104.44
412.472	1127.44
412.695	1075.44
412.919	1026.44
413.142	1037.44
413.365	1049.44
413.589	1037.44
413.812	1020.44
414.035	1033.44
414.258	991.44
414.482	1037.44
414.705	1072.44
414.928	1071.44
415.151	1076.44
415.374	1055.44
415.597	1043.44
415.821	1046.44
416.044	1010.44
416.267	1007.44
416.49	967.44
416.713	997.44
416.936	1023.44
417.159	1029.44
417.382	1001.44
417.605	1046.44
417.828	1010.44
418.051	1051.44
418.274	1007.44
418.497	1017.44
418.72	1073.44
418.943	1071.44
419.166	1140.44
419.389	1202.44
419.611	1177.44
419.834	1115.44
420.057	1090.44
420.28	1013.44
420.503	1045.44
420.726	1023.44
420.948	1034.44
421.171	1033.44
421.394	1014.44
421.617	1001.44
421.839	1040.44
422.062	1039.44
422.285	1017.44
422.507	1031.44
422.73	1029.44
422.953	1070.44
423.175	1108.44
423.398	1087.44
423.621	1121.44
423.843	1129.44
424.066	1098.44
424.288	1126.44
424.511	1127.44
424.733	1107.44
424.956	1073.44
425.178	1071.44
425.401	1026.44
425.623	1040.44
425.846	1001.44
426.068	980.44
426.291	974.44
426.513	989.44
426.735	953.44
426.958	953.44
427.18	911.44
427.402	939.44
427.625	945.44
427.847	905.44
428.069	946.44
428.292	915.44
428.514	903.44
428.736	913.44
428.958	935.44
429.181	880.44
429.403	893.44
429.625	887.44
429.847	898.44
430.069	887.44
430.292	912.44
430.514	869.44
430.736	890.44
430.958	897.44
431.18	875.44
431.402	907.44
431.624	880.44
431.846	926.44
432.068	924.44
432.29	939.44
432.512	927.44
432.734	921.44
432.956	921.44
433.178	915.44
433.4	934.44
433.622	938.44
433.844	935.44
434.066	916.44
434.287	951.44
434.509	978.44
434.731	1006.44
434.953	1048.44
435.175	1061.44
435.397	1071.44
435.618	983.44
435.84	982.44
436.062	951.44
436.284	918.44
436.505	905.44
436.727	930.44
436.949	908.44
437.17	938.44
437.392	884.44
437.614	874.44
437.835	885.44
438.057	899.44
438.278	869.44
438.5	831.44
438.721	890.44
438.943	905.44
439.165	870.44
439.386	897.44
439.608	919.44
439.829	895.44
440.05	930.44
440.272	896.44
440.493	913.44
440.715	921.44
440.936	945.44
441.158	943.44
441.379	1006.44
441.6	1031.44
441.822	1069.44
442.043	1080.44
442.264	1030.44
442.486	1013.44
442.707	1055.44
442.928	997.44
443.149	1021.44
443.371	1020.44
443.592	1019.44
443.813	1031.44
444.034	1062.44
444.255	1101.44
444.476	1127.44
444.698	1214.44
444.919	1279.44
445.14	1349.44
445.361	1190.44
445.582	1094.44
445.803	998.44
446.024	992.44
446.245	947.44
446.466	958.44
446.687	933.44
446.908	922.44
447.129	906.44
447.35	875.44
447.571	889.44
447.792	869.44
448.013	858.44
448.234	845.44
448.455	833.44
448.675	865.44
448.896	877.44
449.117	845.44
449.338	856.44
449.559	851.44
449.779	849.44
450	836.44
450.221	845.44
450.442	843.44
450.662	854.44
450.883	854.44
451.104	881.44
451.324	883.44
451.545	859.44
451.766	856.44
451.986	847.44
452.207	866.44
452.428	851.44
452.648	854.44
452.869	867.44
453.089	833.44
453.31	849.44
453.53	847.44
453.751	813.44
453.971	854.44
454.192	818.44
454.412	833.44
454.633	825.44
454.853	816.44
455.073	834.44
455.294	821.44
455.514	804.44
455.734	836.44
455.955	787.44
456.175	791.44
456.395	803.44
456.616	792.44
456.836	793.44
457.056	766.44
457.276	772.44
457.497	793.44
457.717	791.44
457.937	792.44
458.157	804.44
458.377	815.44
458.598	841.44
458.818	846.44
459.038	888.44
459.258	902.44
459.478	908.44
459.698	965.44
459.918	977.44
460.138	992.44
460.358	1080.44
460.578	1123.44
460.798	1107.44
461.018	1104.44
461.238	1101.44
461.458	1087.44
461.678	1085.44
461.898	1118.44
462.118	1112.44
462.338	1143.44
462.558	1188.44
462.777	1234.44
462.997	1347.44
463.217	1543.44
463.437	1545.44
463.657	1401.44
463.876	1278.44
464.096	1301.44
464.316	1268.44
464.536	1341.44
464.755	1237.44
464.975	1187.44
465.195	1145.44
465.414	1089.44
465.634	1006.44
465.854	998.44
466.073	968.44
466.293	942.44
466.512	925.44
466.732	901.44
466.951	917.44
467.171	904.44
467.391	899.44
467.61	890.44
467.829	882.44
468.049	877.44
468.268	873.44
468.488	833.44
468.707	859.44
468.927	871.44
469.146	843.44
469.365	893.44
469.585	890.44
469.804	863.44
470.023	933.44
470.243	883.44
470.462	918.44
470.681	929.44
470.901	911.44
471.12	889.44
471.339	899.44
471.558	861.44
471.777	858.44
471.997	847.44
472.216	871.44
472.435	865.44
472.654	838.44
472.873	835.44
473.092	787.44
473.311	833.44
473.53	817.44
473.749	808.44
473.968	817.44
474.187	837.44
474.406	811.44
474.625	810.44
474.844	807.44
475.063	820.44
475.282	858.44
475.501	852.44
475.72	831.44
475.939	826.44
476.158	859.44
476.377	867.44
476.596	869.44
476.814	857.44
477.033	849.44
477.252	862.44
477.471	925.44
477.69	949.44
477.908	969.44
478.127	992.44
478.346	994.44
478.564	1018.44
478.783	1008.44
479.002	1047.44
479.22	1026.44
479.439	1051.44
479.658	1046.44
479.876	1009.44
480.095	1032.44
480.313	1099.44
480.532	1131.44
480.751	1135.44
480.969	1082.44
481.188	1003.44
481.406	1000.44
481.624	963.44
481.843	990.44
482.061	977.44
482.28	968.44
482.498	957.44
482.717	963.44
482.935	903.44
483.153	966.44
483.372	934.44
483.59	945.44
483.808	956.44
484.027	952.44
484.245	960.44
484.463	972.44
484.681	995.44
484.9	1000.44
485.118	973.44
485.336	993.44
485.554	992.44
485.772	1000.44
485.99	1002.44
486.209	1008.44
486.427	1031.44
486.645	1014.44
486.863	1020.44
487.081	1013.44
487.299	995.44
487.517	1021.44
487.735	1026.44
487.953	999.44
488.171	985.44
488.389	1007.44
488.607	985.44
488.825	996.44
489.043	968.44
489.261	998.44
489.479	981.44
489.696	989.44
489.914	1005.44
490.132	1007.44
490.35	1035.44
490.568	981.44
490.786	1013.44
491.003	1000.44
491.221	1046.44
491.439	1021.44
491.657	1009.44
491.874	1032.44
492.092	1001.44
492.31	1005.44
492.527	998.44
492.745	1029.44
492.963	1005.44
493.18	1040.44
493.398	1027.44
493.615	1052.44
493.833	1049.44
494.05	1040.44
494.268	1055.44
494.485	1066.44
494.703	1035.44
494.92	1057.44
495.138	1058.44
495.355	1042.44
495.573	1064.44
495.79	1065.44
496.008	1064.44
496.225	1034.44
496.442	1072.44
496.66	1079.44
496.877	1133.44
497.094	1112.44
497.312	1145.44
497.529	1160.44
497.746	1167.44
497.963	1227.44
498.181	1275.44
498.398	1308.44
498.615	1387.44
498.832	1524.44
499.049	1625.44
499.267	1752.44
499.484	1975.44
499.701	2173.44
499.918	2438.44
500.135	2703.44
500.352	3245.44
500.569	3426.44
500.786	3377.44
501.003	3101.44
501.22	2751.44
501.437	2398.44
501.654	2068.44
501.871	1842.44
502.088	1731.44
502.305	1578.44
502.522	1495.44
502.739	1455.44
502.956	1382.44
503.172	1304.44
503.389	1285.44
503.606	1226.44
503.823	1192.44
504.04	1201.44
504.256	1225.44
504.473	1255.44
504.69	1318.44
504.907	1263.44
505.123	1167.44
505.34	1105.44
505.557	1047.44
505.773	1038.44
505.99	1003.44
506.207	1007.44
506.423	967.44
506.64	961.44
506.856	971.44
507.073	942.44
507.289	928.44
507.506	949.44
507.722	953.44
507.939	909.44
508.155	927.44
508.372	895.44
508.588	885.44
508.805	889.44
509.021	887.44
509.238	915.44
509.454	876.44
509.67	874.44
509.887	867.44
510.103	868.44
510.319	866.44
510.536	842.44
510.752	830.44
510.968	866.44
511.184	832.44
511.401	871.44
511.617	854.44
511.833	840.44
512.049	883.44
512.265	859.44
512.481	865.44
512.698	859.44
512.914	846.44
513.13	856.44
513.346	863.44
513.562	867.44
513.778	868.44
513.994	866.44
514.21	867.44
514.426	882.44
514.642	883.44
514.858	871.44
515.074	865.44
515.29	901.44
515.506	864.44
515.721	897.44
515.937	928.44
516.153	936.44
516.369	973.44
516.585	991.44
516.801	1012.44
517.016	1027.44
517.232	1113.44
517.448	1165.44
517.664	1211.44
517.879	1203.44
518.095	1222.44
518.311	1234.44
518.527	1147.44
518.742	1075.44
518.958	1044.44
519.173	978.44
519.389	967.44
519.605	958.44
519.82	905.44
520.036	912.44
520.251	902.44
520.467	909.44
520.682	846.44
520.898	893.44
521.113	859.44
521.329	842.44
521.544	854.44
521.76	839.44
521.975	817.44
522.19	819.44
522.406	834.44
522.621	806.44
522.836	790.44
523.052	793.44
523.267	805.44
523.482	830.44
523.698	802.44
523.913	794.44
524.128	817.44
524.343	787.44
524.559	811.44
524.774	775.44
524.989	791.44
525.204	803.44
525.419	793.44
525.634	789.44
525.849	765.44
526.064	765.44
526.28	792.44
526.495	798.44
526.71	790.44
526.925	780.44
527.14	781.44
527.355	787.44
527.57	791.44
527.785	769.44
527.999	767.44
528.214	771.44
528.429	808.44
528.644	781.44
528.859	780.44
529.074	794.44
529.289	776.44
529.503	783.44
529.718	803.44
529.933	781.44
530.148	790.44
530.363	791.44
530.577	756.44
530.792	779.44
531.007	756.44
531.221	794.44
531.436	776.44
531.651	788.44
531.865	785.44
532.08	783.44
532.295	792.44
532.509	790.44
532.724	794.44
532.938	806.44
533.153	773.44
533.367	768.44
533.582	802.44
533.796	777.44
534.011	765.44
534.225	780.44
534.44	768.44
534.654	753.44
534.868	771.44
535.083	777.44
535.297	775.44
535.511	774.44
535.726	751.44
535.94	755.44
536.154	764.44
536.369	755.44
536.583	724.44
536.797	723.44
537.011	739.44
537.225	742.44
537.44	703.44
537.654	716.44
537.868	725.44
538.082	706.44
538.296	712.44
538.51	733.44
538.724	744.44
538.938	702.44
539.153	690.44
539.367	678.44
539.581	718.44
539.795	707.44
540.009	701.44
540.222	720.44
540.436	672.44
540.65	690.44
540.864	717.44
541.078	698.44
541.292	687.44
541.506	693.44
541.72	699.44
541.934	689.44
542.147	701.44
542.361	715.44
542.575	702.44
542.789	686.44
543.002	690.44
543.216	697.44
543.43	677.44
543.644	689.44
543.857	693.44
544.071	678.44
544.285	692.44
544.498	667.44
544.712	675.44
544.925	678.44
545.139	709.44
545.352	699.44
545.566	717.44
545.779	705.44
545.993	723.44
546.206	676.44
546.42	721.44
546.633	711.44
546.847	701.44
547.06	708.44
547.274	690.44
547.487	707.44
547.7	693.44
547.914	682.44
548.127	721.44
548.34	722.44
548.554	719.44
548.767	707.44
548.98	718.44
549.193	712.44
549.407	730.44
549.62	736.44
549.833	741.44
550.046	744.44
550.259	700.44
550.473	701.44
550.686	717.44
550.899	672.44
551.112	662.44
551.325	665.44
551.538	697.44
551.751	719.44
551.964	724.44
552.177	676.44
552.39	705.44
552.603	736.44
552.816	739.44
553.029	776.44
553.242	788.44
553.455	808.44
553.667	789.44
553.88	783.44
554.093	735.44
554.306	735.44
554.519	733.44
554.732	749.44
554.944	693.44
555.157	697.44
555.37	683.44
555.583	677.44
555.795	652.44
556.008	661.44
556.221	639.44
556.433	655.44
556.646	624.44
556.859	612.44
557.071	625.44
557.284	604.44
557.496	613.44
557.709	621.44
557.921	599.44
558.134	598.44
558.346	604.44
558.559	584.44
558.771	610.44
558.984	601.44
559.196	601.44
559.409	591.44
559.621	603.44
559.833	607.44
560.046	600.44
560.258	592.44
560.47	584.44
560.683	584.44
560.895	596.44
561.107	595.44
561.32	590.44
561.532	583.44
561.744	562.44
561.956	575.44
562.168	601.44
562.381	597.44
562.593	590.44
562.805	615.44
563.017	584.44
563.229	584.44
563.441	590.44
563.653	585.44
563.865	599.44
564.077	621.44
564.289	608.44
564.501	621.44
564.713	642.44
564.925	634.44
565.137	639.44
565.349	646.44
565.561	653.44
565.773	697.44
565.985	726.44
566.197	786.44
566.408	794.44
566.62	893.44
566.832	973.44
567.044	983.44
567.255	970.44
567.467	983.44
567.679	1107.44
567.891	1159.44
568.102	1242.44
568.314	1181.44
568.526	1041.44
568.737	927.44
568.949	866.44
569.161	781.44
569.372	727.44
569.584	688.44
569.795	665.44
570.007	619.44
570.218	604.44
570.43	607.44
570.641	615.44
570.853	599.44
571.064	640.44
571.276	653.44
571.487	600.44
571.698	587.44
571.91	577.44
572.121	534.44
572.333	543.44
572.544	521.44
572.755	517.44
572.966	494.44
573.178	520.44
573.389	507.44
573.6	486.44
573.811	496.44
574.023	487.44
574.234	495.44
574.445	502.44
574.656	481.44
574.867	487.44
575.078	482.44
575.289	480.44
575.501	480.44
575.712	460.44
575.923	470.44
576.134	473.44
576.345	455.44
576.556	488.44
576.767	454.44
576.978	441.44
577.188	457.44
577.399	474.44
577.61	461.44
577.821	448.44
578.032	447.44
578.243	446.44
578.454	457.44
578.665	445.44
578.875	435.44
579.086	429.44
579.297	442.44
579.508	465.44
579.718	437.44
579.929	430.44
580.14	448.44
580.35	418.44
580.561	437.44
580.772	429.44
580.982	432.44
581.193	452.44
581.403	428.44
581.614	430.44
581.825	418.44
582.035	434.44
582.246	413.44
582.456	419.44
582.667	424.44
582.877	413.44
583.087	415.44
583.298	405.44
583.508	419.44
583.719	404.44
583.929	392.44
584.139	413.44
584.35	411.44
584.56	417.44
584.77	403.44
584.981	413.44
585.191	416.44
585.401	396.44
585.611	404.44
585.821	394.44
586.032	391.44
586.242	403.44
586.452	407.44
586.662	413.44
586.872	405.44
587.082	406.44
587.292	402.44
587.502	408.44
587.713	385.44
587.923	420.44
588.133	392.44
588.343	387.44
588.553	395.44
588.762	391.44
588.972	403.44
589.182	370.44
589.392	383.44
589.602	409.44
589.812	415.44
590.022	411.44
590.232	387.44
590.441	409.44
590.651	414.44
590.861	393.44
591.071	421.44
591.281	410.44
591.49	407.44
591.7	401.44
591.91	432.44
592.119	432.44
592.329	438.44
592.539	459.44
592.748	464.44
592.958	493.44
593.167	504.44
593.377	517.44
593.587	523.44
593.796	520.44
594.006	522.44
594.215	535.44
594.424	527.44
594.634	499.44
594.843	471.44
595.053	469.44
595.262	434.44
595.472	423.44
595.681	428.44
595.89	408.44
596.1	418.44
596.309	395.44
596.518	413.44
596.727	385.44
596.937	366.44
597.146	379.44
597.355	378.44
597.564	351.44
597.774	343.44
597.983	361.44
598.192	345.44
598.401	354.44
598.61	347.44
598.819	340.44
599.028	353.44
599.237	352.44
599.446	337.44
599.655	348.44
599.864	333.44
600.073	337.44
600.282	332.44
600.491	316.44
600.7	330.44
600.909	332.44
601.118	325.44
601.327	320.44
601.536	339.44
601.745	328.44
601.953	322.44
602.162	359.44
602.371	330.44
602.58	329.44
602.789	323.44
602.997	322.44
603.206	335.44
603.415	319.44
603.623	335.44
603.832	326.44
604.041	316.44
604.249	311.44
604.458	313.44
604.666	322.44
604.875	304.44
605.084	318.44
605.292	311.44
605.501	293.44
605.709	314.44
605.918	303.44
606.126	316.44
606.334	309.44
606.543	306.44
606.751	324.44
606.96	324.44
607.168	310.44
607.376	306.44
607.585	311.44
607.793	322.44
608.001	275.44
608.21	301.44
608.418	284.44
608.626	295.44
608.834	312.44
609.043	292.44
609.251	296.44
609.459	296.44
609.667	318.44
609.875	308.44
610.083	319.44
610.291	298.44
610.499	298.44
610.707	307.44
610.916	276.44
611.124	285.44
611.332	294.44
611.54	310.44
611.748	281.44
611.955	305.44
612.163	317.44
612.371	294.44
612.579	276.44
612.787	289.44
612.995	309.44
613.203	276.44
613.411	283.44
613.618	281.44
613.826	298.44
614.034	282.44
614.242	289.44
614.449	294.44
614.657	286.44
614.865	290.44
615.072	305.44
615.28	297.44
615.488	264.44
615.695	296.44
615.903	299.44
616.111	291.44
616.318	294.44
616.526	288.44
616.733	284.44
616.941	302.44
617.148	303.44
617.356	307.44
617.563	297.44
617.771	289.44
617.978	275.44
618.185	313.44
618.393	297.44
618.6	291.44
618.807	285.44
619.015	294.44
619.222	297.44
619.429	282.44
619.637	285.44
619.844	289.44
620.051	285.44
620.258	280.44
620.466	275.44
620.673	264.44
620.88	279.44
621.087	279.44
621.294	268.44
621.501	289.44
621.708	265.44
621.915	272.44
622.122	274.44
622.329	262.44
622.536	272.44
622.743	259.44
622.95	279.44
623.157	253.44
623.364	271.44
623.571	267.44
623.778	272.44
623.985	260.44
624.192	240.44
624.399	245.44
624.606	256.44
624.812	240.44
625.019	254.44
625.226	261.44
625.433	256.44
625.639	238.44
625.846	241.44
626.053	245.44
626.259	243.44
626.466	241.44
626.673	241.44
626.879	231.44
627.086	242.44
627.293	256.44
627.499	248.44
627.706	253.44
627.912	245.44
628.119	238.44
628.325	223.44
628.532	231.44
628.738	249.44
628.945	237.44
629.151	230.44
629.357	222.44
629.564	241.44
629.77	228.44
629.976	226.44
630.183	224.44
630.389	213.44
630.595	220.44
630.802	217.44
631.008	241.44
631.214	209.44
631.42	232.44
631.627	215.44
631.833	192.44
632.039	219.44
632.245	198.44
632.451	218.44
632.657	208.44
632.863	224.44
633.069	204.44
633.275	210.44
633.481	191.44
633.688	197.44
633.893	214.44
634.099	202.44
634.305	216.44
634.511	230.44
634.717	230.44
634.923	220.44
635.129	216.44
635.335	212.44
635.541	204.44
635.747	199.44
635.952	198.44
636.158	193.44
636.364	207.44
636.57	203.44
636.775	233.44
636.981	205.44
637.187	205.44
637.392	206.44
637.598	199.44
637.804	208.44
638.009	229.44
638.215	213.44
638.421	209.44
638.626	211.44
638.832	213.44
639.037	210.44
639.243	200.44
639.448	197.44
639.654	210.44
639.859	195.44
640.065	198.44
640.27	198.44
640.475	186.44
640.681	196.44
640.886	210.44
641.091	207.44
641.297	200.44
641.502	203.44
641.707	201.44
641.913	191.44
642.118	193.44
642.323	186.44
642.528	194.44
642.733	205.44
642.939	185.44
643.144	190.44
643.349	186.44
643.554	178.44
643.759	173.44
643.964	201.44
644.169	187.44
644.374	188.44
644.579	194.44
644.784	175.44
644.989	185.44
645.194	187.44
645.399	190.44
645.604	192.44
645.809	201.44
646.014	183.44
646.219	196.44
646.423	215.44
646.628	200.44
646.833	183.44
647.038	183.44
647.243	187.44
647.447	198.44
647.652	205.44
647.857	197.44
648.062	184.44
648.266	206.44
648.471	214.44
648.676	212.44
648.88	202.44
649.085	202.44
649.289	185.44
649.494	178.44
649.698	185.44
649.903	192.44
650.107	202.44
650.312	179.44
650.516	181.44
650.721	185.44
650.925	180.44
651.13	168.44
651.334	167.44
651.539	171.44
651.743	166.44
651.947	190.44
652.152	158.44
652.356	161.44
652.56	170.44
652.764	153.44
652.969	152.44
653.173	158.44
653.377	158.44
653.581	143.44
653.785	151.44
653.99	146.44
654.194	153.44
654.398	149.44
654.602	127.44
654.806	150.44
655.01	145.44
655.214	145.44
655.418	142.44
655.622	140.44
655.826	137.44
656.03	143.44
656.234	142.44
656.438	125.44
656.642	136.44
656.846	134.44
657.049	152.44
657.253	145.44
657.457	128.44
657.661	111.44
657.865	103.44
658.068	109.44
658.272	111.44
658.476	104.44
658.68	107.44
658.883	110.44
659.087	99.44
659.291	109.44
659.494	105.44
659.698	109.44
659.901	94.44
660.105	98.44
660.309	88.44
660.512	99.44
660.716	100.44
660.919	96.44
661.123	83.44
661.326	85.44
661.53	82.44
661.733	92.44
661.936	86.44
662.14	82.44
662.343	91.44
662.546	86.44
662.75	66.44
662.953	74.44
663.156	84.44
663.36	65.44
663.563	86.44
663.766	68.44
663.969	80.44
664.173	71.44
664.376	93.44
664.579	68.44
664.782	79.44
664.985	94.44
665.188	80.44
665.391	77.44
665.594	68.44
665.797	85.44
666	74.44
666.203	69.44
666.406	83.44
666.609	88.44
666.812	79.44
667.015	80.44
667.218	93.44
667.421	73.44
667.624	80.44
667.827	78.44
668.03	69.44
668.232	69.44
668.435	70.44
668.638	79.44
668.841	82.44
669.043	84.44
669.246	79.44
669.449	75.44
669.651	71.44
669.854	64.44
670.057	74.44
670.259	68.44
670.462	80.44
670.665	55.44
670.867	81.44
671.07	58.44
671.272	79.44
671.475	85.44
671.677	86.44
671.88	91.44
672.082	75.44
672.284	79.44
672.487	86.44
672.689	83.44
672.892	82.44
