Data from Ni(NO3)2@0.25M.TitratingCurve.Agarose3%dH2O.NegLispCup.LampEnergy10.LIBS07252019_HRD10591_18-05-35-566.txt Node
Date: Thu Jul 25 18:05:35 EDT 2019
User: cochatt
Spectrometer: HR+D1059
Trigger mode: 1
Integration Time (sec): 1.000000E-1
Scans to average: 1
Electric dark correction enabled: true
Nonlinearity correction enabled: false
Boxcar width: 0
XAxis mode: Wavelengths
Number of Pixels in Spectrum: 2048
>>>>>Begin Spectral Data<<<<<
223.165	-18.31
223.4	-18.31
223.635	-18.31
223.869	-9.31
224.104	-4.31
224.338	-25.31
224.573	-24.31
224.808	-11.31
225.042	-8.31
225.277	-3.31
225.511	-0.31
225.746	-3.31
225.98	0.69
226.215	4.69
226.449	21.69
226.683	39.69
226.918	17.69
227.152	23.69
227.387	18.69
227.621	39.69
227.856	34.69
228.09	54.69
228.324	48.69
228.559	50.69
228.793	67.69
229.027	99.69
229.262	96.69
229.496	89.69
229.73	103.69
229.964	112.69
230.199	124.69
230.433	118.69
230.667	119.69
230.901	116.69
231.136	137.69
231.37	119.69
231.604	122.69
231.838	136.69
232.072	125.69
232.306	125.69
232.541	126.69
232.775	134.69
233.009	125.69
233.243	134.69
233.477	129.69
233.711	129.69
233.945	142.69
234.179	132.69
234.413	135.69
234.647	137.69
234.881	139.69
235.115	150.69
235.349	142.69
235.583	136.69
235.817	136.69
236.051	155.69
236.285	139.69
236.519	137.69
236.753	136.69
236.987	140.69
237.221	135.69
237.455	134.69
237.689	138.69
237.922	141.69
238.156	147.69
238.39	142.69
238.624	123.69
238.858	154.69
239.091	156.69
239.325	153.69
239.559	142.69
239.793	160.69
240.027	149.69
240.26	149.69
240.494	163.69
240.728	173.69
240.961	173.69
241.195	171.69
241.429	177.69
241.662	173.69
241.896	157.69
242.13	179.69
242.363	168.69
242.597	163.69
242.83	170.69
243.064	166.69
243.298	180.69
243.531	160.69
243.765	178.69
243.998	185.69
244.232	169.69
244.465	180.69
244.699	180.69
244.932	190.69
245.166	178.69
245.399	181.69
245.633	198.69
245.866	155.69
246.099	186.69
246.333	190.69
246.566	204.69
246.8	204.69
247.033	202.69
247.266	196.69
247.5	187.69
247.733	215.69
247.966	194.69
248.2	220.69
248.433	202.69
248.666	213.69
248.899	204.69
249.133	218.69
249.366	214.69
249.599	210.69
249.832	214.69
250.066	194.69
250.299	220.69
250.532	207.69
250.765	226.69
250.998	239.69
251.231	229.69
251.465	225.69
251.698	220.69
251.931	226.69
252.164	233.69
252.397	246.69
252.63	235.69
252.863	236.69
253.096	243.69
253.329	247.69
253.562	260.69
253.795	238.69
254.028	254.69
254.261	265.69
254.494	243.69
254.727	256.69
254.96	243.69
255.193	273.69
255.426	261.69
255.659	271.69
255.892	272.69
256.124	263.69
256.357	258.69
256.59	256.69
256.823	260.69
257.056	270.69
257.289	258.69
257.521	271.69
257.754	280.69
257.987	285.69
258.22	288.69
258.452	295.69
258.685	276.69
258.918	269.69
259.151	291.69
259.383	282.69
259.616	288.69
259.849	289.69
260.081	292.69
260.314	278.69
260.547	272.69
260.779	304.69
261.012	300.69
261.244	301.69
261.477	304.69
261.71	304.69
261.942	315.69
262.175	297.69
262.407	326.69
262.64	308.69
262.872	296.69
263.105	305.69
263.337	320.69
263.57	310.69
263.802	312.69
264.035	307.69
264.267	309.69
264.499	319.69
264.732	312.69
264.964	322.69
265.197	311.69
265.429	310.69
265.661	319.69
265.894	309.69
266.126	326.69
266.358	330.69
266.591	304.69
266.823	337.69
267.055	321.69
267.287	340.69
267.52	328.69
267.752	330.69
267.984	340.69
268.216	320.69
268.448	314.69
268.681	326.69
268.913	336.69
269.145	327.69
269.377	328.69
269.609	332.69
269.841	339.69
270.073	345.69
270.306	347.69
270.538	364.69
270.77	344.69
271.002	325.69
271.234	341.69
271.466	354.69
271.698	351.69
271.93	341.69
272.162	342.69
272.394	377.69
272.626	357.69
272.858	365.69
273.09	329.69
273.322	362.69
273.553	348.69
273.785	345.69
274.017	370.69
274.249	359.69
274.481	376.69
274.713	370.69
274.945	372.69
275.176	378.69
275.408	380.69
275.64	395.69
275.872	385.69
276.104	385.69
276.335	371.69
276.567	380.69
276.799	374.69
277.031	373.69
277.262	381.69
277.494	374.69
277.726	375.69
277.957	361.69
278.189	376.69
278.421	388.69
278.652	393.69
278.884	401.69
279.115	402.69
279.347	398.69
279.579	385.69
279.81	406.69
280.042	373.69
280.273	390.69
280.505	409.69
280.736	401.69
280.968	409.69
281.199	425.69
281.431	404.69
281.662	400.69
281.894	397.69
282.125	434.69
282.356	427.69
282.588	402.69
282.819	417.69
283.051	424.69
283.282	420.69
283.513	411.69
283.745	403.69
283.976	415.69
284.207	420.69
284.439	413.69
284.67	434.69
284.901	413.69
285.132	429.69
285.364	425.69
285.595	440.69
285.826	440.69
286.057	458.69
286.288	461.69
286.52	450.69
286.751	432.69
286.982	442.69
287.213	430.69
287.444	460.69
287.675	436.69
287.906	443.69
288.138	443.69
288.369	438.69
288.6	446.69
288.831	473.69
289.062	462.69
289.293	450.69
289.524	461.69
289.755	456.69
289.986	445.69
290.217	469.69
290.448	488.69
290.679	459.69
290.91	467.69
291.141	457.69
291.371	463.69
291.602	458.69
291.833	471.69
292.064	452.69
292.295	473.69
292.526	448.69
292.757	462.69
292.987	450.69
293.218	458.69
293.449	447.69
293.68	477.69
293.91	466.69
294.141	480.69
294.372	474.69
294.603	480.69
294.833	477.69
295.064	448.69
295.295	457.69
295.525	472.69
295.756	472.69
295.987	465.69
296.217	476.69
296.448	462.69
296.679	481.69
296.909	476.69
297.14	502.69
297.37	476.69
297.601	497.69
297.831	509.69
298.062	478.69
298.292	491.69
298.523	502.69
298.753	510.69
298.984	484.69
299.214	484.69
299.445	505.69
299.675	500.69
299.905	522.69
300.136	530.69
300.366	514.69
300.597	521.69
300.827	536.69
301.057	536.69
301.288	529.69
301.518	541.69
301.748	537.69
301.979	537.69
302.209	532.69
302.439	527.69
302.669	528.69
302.9	522.69
303.13	513.69
303.36	521.69
303.59	545.69
303.82	527.69
304.051	530.69
304.281	541.69
304.511	531.69
304.741	516.69
304.971	537.69
305.201	535.69
305.431	547.69
305.661	523.69
305.891	530.69
306.121	524.69
306.352	531.69
306.582	523.69
306.812	505.69
307.042	523.69
307.272	522.69
307.502	518.69
307.731	544.69
307.961	524.69
308.191	513.69
308.421	524.69
308.651	534.69
308.881	483.69
309.111	512.69
309.341	525.69
309.571	512.69
309.8	533.69
310.03	526.69
310.26	549.69
310.49	538.69
310.72	543.69
310.949	532.69
311.179	543.69
311.409	516.69
311.639	530.69
311.868	523.69
312.098	527.69
312.328	560.69
312.557	556.69
312.787	566.69
313.017	562.69
313.246	557.69
313.476	571.69
313.706	562.69
313.935	560.69
314.165	557.69
314.394	584.69
314.624	568.69
314.853	579.69
315.083	560.69
315.312	587.69
315.542	594.69
315.771	560.69
316.001	579.69
316.23	574.69
316.46	567.69
316.689	562.69
316.919	579.69
317.148	581.69
317.377	566.69
317.607	582.69
317.836	572.69
318.065	556.69
318.295	577.69
318.524	567.69
318.753	581.69
318.983	533.69
319.212	567.69
319.441	563.69
319.67	566.69
319.9	576.69
320.129	573.69
320.358	574.69
320.587	585.69
320.816	581.69
321.046	572.69
321.275	574.69
321.504	586.69
321.733	595.69
321.962	560.69
322.191	581.69
322.42	606.69
322.649	600.69
322.878	601.69
323.108	589.69
323.337	615.69
323.566	603.69
323.795	613.69
324.024	590.69
324.253	610.69
324.482	600.69
324.71	610.69
324.939	614.69
325.168	618.69
325.397	606.69
325.626	632.69
325.855	631.69
326.084	636.69
326.313	650.69
326.542	637.69
326.77	649.69
326.999	660.69
327.228	643.69
327.457	662.69
327.686	664.69
327.914	647.69
328.143	675.69
328.372	642.69
328.6	676.69
328.829	670.69
329.058	648.69
329.287	664.69
329.515	675.69
329.744	670.69
329.972	678.69
330.201	652.69
330.43	666.69
330.658	684.69
330.887	694.69
331.115	676.69
331.344	713.69
331.572	692.69
331.801	726.69
332.03	727.69
332.258	745.69
332.486	749.69
332.715	775.69
332.943	818.69
333.172	835.69
333.4	851.69
333.629	885.69
333.857	896.69
334.085	885.69
334.314	893.69
334.542	884.69
334.771	877.69
334.999	850.69
335.227	830.69
335.455	860.69
335.684	831.69
335.912	832.69
336.14	845.69
336.369	825.69
336.597	828.69
336.825	821.69
337.053	822.69
337.281	794.69
337.51	811.69
337.738	779.69
337.966	770.69
338.194	779.69
338.422	772.69
338.65	739.69
338.878	749.69
339.106	742.69
339.334	747.69
339.562	756.69
339.79	715.69
340.018	699.69
340.246	722.69
340.474	714.69
340.702	700.69
340.93	725.69
341.158	726.69
341.386	745.69
341.614	746.69
341.842	706.69
342.07	698.69
342.298	700.69
342.526	717.69
342.754	714.69
342.981	722.69
343.209	736.69
343.437	747.69
343.665	813.69
343.893	870.69
344.12	855.69
344.348	854.69
344.576	802.69
344.804	793.69
345.031	741.69
345.259	733.69
345.487	739.69
345.714	724.69
345.942	731.69
346.17	726.69
346.397	734.69
346.625	709.69
346.853	677.69
347.08	685.69
347.308	700.69
347.535	680.69
347.763	707.69
347.99	711.69
348.218	705.69
348.445	679.69
348.673	660.69
348.9	705.69
349.128	706.69
349.355	699.69
349.583	696.69
349.81	681.69
350.037	680.69
350.265	662.69
350.492	672.69
350.72	687.69
350.947	665.69
351.174	686.69
351.402	688.69
351.629	682.69
351.856	672.69
352.083	662.69
352.311	660.69
352.538	679.69
352.765	698.69
352.992	655.69
353.22	648.69
353.447	664.69
353.674	630.69
353.901	661.69
354.128	660.69
354.355	654.69
354.583	656.69
354.81	662.69
355.037	662.69
355.264	666.69
355.491	649.69
355.718	650.69
355.945	648.69
356.172	656.69
356.399	672.69
356.626	678.69
356.853	677.69
357.08	657.69
357.307	676.69
357.534	673.69
357.761	666.69
357.988	673.69
358.215	689.69
358.441	663.69
358.668	665.69
358.895	665.69
359.122	653.69
359.349	649.69
359.576	673.69
359.802	657.69
360.029	675.69
360.256	661.69
360.483	681.69
360.709	653.69
360.936	661.69
361.163	660.69
361.39	670.69
361.616	673.69
361.843	683.69
362.07	679.69
362.296	669.69
362.523	654.69
362.749	678.69
362.976	666.69
363.203	655.69
363.429	645.69
363.656	650.69
363.882	667.69
364.109	636.69
364.335	657.69
364.562	645.69
364.788	645.69
365.015	671.69
365.241	654.69
365.468	652.69
365.694	656.69
365.92	636.69
366.147	650.69
366.373	673.69
366.599	679.69
366.826	655.69
367.052	661.69
367.278	656.69
367.505	651.69
367.731	688.69
367.957	669.69
368.184	655.69
368.41	681.69
368.636	676.69
368.862	680.69
369.089	678.69
369.315	665.69
369.541	652.69
369.767	690.69
369.993	684.69
370.219	695.69
370.445	678.69
370.672	696.69
370.898	713.69
371.124	700.69
371.35	688.69
371.576	672.69
371.802	709.69
372.028	724.69
372.254	727.69
372.48	721.69
372.706	730.69
372.932	747.69
373.158	725.69
373.384	712.69
373.61	702.69
373.835	722.69
374.061	730.69
374.287	723.69
374.513	707.69
374.739	767.69
374.965	757.69
375.191	788.69
375.416	788.69
375.642	744.69
375.868	714.69
376.094	715.69
376.319	709.69
376.545	705.69
376.771	698.69
376.997	715.69
377.222	718.69
377.448	709.69
377.674	726.69
377.899	706.69
378.125	684.69
378.35	724.69
378.576	710.69
378.802	700.69
379.027	708.69
379.253	689.69
379.478	667.69
379.704	721.69
379.929	676.69
380.155	708.69
380.38	701.69
380.606	683.69
380.831	697.69
381.057	701.69
381.282	709.69
381.507	702.69
381.733	706.69
381.958	716.69
382.184	731.69
382.409	721.69
382.634	746.69
382.86	710.69
383.085	736.69
383.31	753.69
383.535	749.69
383.761	756.69
383.986	779.69
384.211	794.69
384.436	782.69
384.662	816.69
384.887	833.69
385.112	809.69
385.337	830.69
385.562	845.69
385.787	830.69
386.013	849.69
386.238	851.69
386.463	869.69
386.688	861.69
386.913	836.69
387.138	848.69
387.363	808.69
387.588	809.69
387.813	843.69
388.038	826.69
388.263	800.69
388.488	863.69
388.713	827.69
388.938	834.69
389.163	834.69
389.387	817.69
389.612	806.69
389.837	827.69
390.062	825.69
390.287	833.69
390.512	803.69
390.736	801.69
390.961	856.69
391.186	865.69
391.411	883.69
391.636	892.69
391.86	900.69
392.085	944.69
392.31	951.69
392.534	944.69
392.759	897.69
392.984	898.69
393.208	897.69
393.433	888.69
393.658	883.69
393.882	870.69
394.107	875.69
394.331	908.69
394.556	892.69
394.78	892.69
395.005	901.69
395.229	922.69
395.454	907.69
395.678	940.69
395.903	953.69
396.127	941.69
396.352	919.69
396.576	916.69
396.801	897.69
397.025	894.69
397.249	938.69
397.474	930.69
397.698	920.69
397.922	969.69
398.147	984.69
398.371	958.69
398.595	976.69
398.82	1080.69
399.044	1136.69
399.268	1276.69
399.492	1388.69
399.717	1507.69
399.941	1536.69
400.165	1381.69
400.389	1274.69
400.613	1198.69
400.837	1145.69
401.062	1108.69
401.286	1108.69
401.51	1080.69
401.734	1068.69
401.958	1052.69
402.182	1089.69
402.406	1075.69
402.63	1108.69
402.854	1130.69
403.078	1121.69
403.302	1130.69
403.526	1178.69
403.75	1176.69
403.974	1182.69
404.198	1193.69
404.422	1213.69
404.645	1194.69
404.869	1185.69
405.093	1178.69
405.317	1172.69
405.541	1174.69
405.765	1194.69
405.988	1164.69
406.212	1167.69
406.436	1170.69
406.66	1200.69
406.883	1187.69
407.107	1314.69
407.331	1339.69
407.555	1363.69
407.778	1387.69
408.002	1316.69
408.226	1284.69
408.449	1275.69
408.673	1250.69
408.896	1211.69
409.12	1184.69
409.344	1236.69
409.567	1198.69
409.791	1195.69
410.014	1183.69
410.238	1186.69
410.461	1158.69
410.685	1180.69
410.908	1147.69
411.132	1121.69
411.355	1072.69
411.578	1106.69
411.802	1124.69
412.025	1132.69
412.249	1150.69
412.472	1117.69
412.695	1106.69
412.919	1104.69
413.142	1061.69
413.365	1080.69
413.589	1096.69
413.812	1054.69
414.035	1063.69
414.258	1084.69
414.482	1097.69
414.705	1111.69
414.928	1093.69
415.151	1090.69
415.374	1088.69
415.597	1088.69
415.821	1065.69
416.044	1037.69
416.267	1045.69
416.49	1065.69
416.713	1022.69
416.936	1047.69
417.159	1038.69
417.382	1068.69
417.605	1059.69
417.828	1067.69
418.051	1078.69
418.274	1058.69
418.497	1071.69
418.72	1101.69
418.943	1106.69
419.166	1143.69
419.389	1234.69
419.611	1175.69
419.834	1177.69
420.057	1093.69
420.28	1075.69
420.503	1076.69
420.726	1073.69
420.948	1069.69
421.171	1059.69
421.394	1033.69
421.617	1059.69
421.839	1062.69
422.062	1097.69
422.285	1052.69
422.507	1099.69
422.73	1085.69
422.953	1130.69
423.175	1100.69
423.398	1103.69
423.621	1100.69
423.843	1103.69
424.066	1124.69
424.288	1121.69
424.511	1092.69
424.733	1119.69
424.956	1125.69
425.178	1074.69
425.401	1082.69
425.623	1069.69
425.846	1037.69
426.068	1031.69
426.291	1017.69
426.513	1022.69
426.735	1044.69
426.958	1012.69
427.18	1001.69
427.402	989.69
427.625	987.69
427.847	957.69
428.069	982.69
428.292	990.69
428.514	967.69
428.736	976.69
428.958	982.69
429.181	953.69
429.403	947.69
429.625	945.69
429.847	953.69
430.069	929.69
430.292	941.69
430.514	958.69
430.736	936.69
430.958	959.69
431.18	933.69
431.402	965.69
431.624	962.69
431.846	957.69
432.068	960.69
432.29	989.69
432.512	952.69
432.734	972.69
432.956	957.69
433.178	989.69
433.4	978.69
433.622	980.69
433.844	977.69
434.066	991.69
434.287	962.69
434.509	1025.69
434.731	1034.69
434.953	1046.69
435.175	1106.69
435.397	1070.69
435.618	1058.69
435.84	979.69
436.062	964.69
436.284	977.69
436.505	980.69
436.727	968.69
436.949	1010.69
437.17	970.69
437.392	980.69
437.614	943.69
437.835	927.69
438.057	935.69
438.278	903.69
438.5	929.69
438.721	954.69
438.943	969.69
439.165	948.69
439.386	957.69
439.608	963.69
439.829	964.69
440.05	992.69
440.272	983.69
440.493	1001.69
440.715	991.69
440.936	1009.69
441.158	1038.69
441.379	1074.69
441.6	1134.69
441.822	1110.69
442.043	1134.69
442.264	1082.69
442.486	1048.69
442.707	1090.69
442.928	1081.69
443.149	1051.69
443.371	1066.69
443.592	1085.69
443.813	1112.69
444.034	1115.69
444.255	1162.69
444.476	1185.69
444.698	1238.69
444.919	1290.69
445.14	1388.69
445.361	1234.69
445.582	1105.69
445.803	1089.69
446.024	1080.69
446.245	1047.69
446.466	1000.69
446.687	987.69
446.908	1034.69
447.129	979.69
447.35	948.69
447.571	995.69
447.792	937.69
448.013	924.69
448.234	924.69
448.455	910.69
448.675	914.69
448.896	913.69
449.117	909.69
449.338	896.69
449.559	889.69
449.779	876.69
450	876.69
450.221	901.69
450.442	939.69
450.662	923.69
450.883	910.69
451.104	917.69
451.324	916.69
451.545	911.69
451.766	900.69
451.986	887.69
452.207	866.69
452.428	869.69
452.648	889.69
452.869	854.69
453.089	865.69
453.31	841.69
453.53	827.69
453.751	868.69
453.971	839.69
454.192	873.69
454.412	872.69
454.633	850.69
454.853	860.69
455.073	841.69
455.294	843.69
455.514	833.69
455.734	866.69
455.955	830.69
456.175	836.69
456.395	838.69
456.616	828.69
456.836	866.69
457.056	824.69
457.276	796.69
457.497	809.69
457.717	845.69
457.937	847.69
458.157	867.69
458.377	853.69
458.598	873.69
458.818	886.69
459.038	910.69
459.258	940.69
459.478	973.69
459.698	1013.69
459.918	1031.69
460.138	1064.69
460.358	1122.69
460.578	1127.69
460.798	1137.69
461.018	1143.69
461.238	1130.69
461.458	1160.69
461.678	1137.69
461.898	1176.69
462.118	1181.69
462.338	1244.69
462.558	1248.69
462.777	1294.69
462.997	1396.69
463.217	1486.69
463.437	1493.69
463.657	1412.69
463.876	1356.69
464.096	1339.69
464.316	1324.69
464.536	1342.69
464.755	1315.69
464.975	1256.69
465.195	1176.69
465.414	1133.69
465.634	1060.69
465.854	1028.69
466.073	1012.69
466.293	981.69
466.512	978.69
466.732	934.69
466.951	962.69
467.171	925.69
467.391	984.69
467.61	937.69
467.829	928.69
468.049	938.69
468.268	896.69
468.488	902.69
468.707	906.69
468.927	923.69
469.146	892.69
469.365	930.69
469.585	915.69
469.804	964.69
470.023	944.69
470.243	981.69
470.462	939.69
470.681	983.69
470.901	974.69
471.12	937.69
471.339	967.69
471.558	957.69
471.777	923.69
471.997	920.69
472.216	898.69
472.435	901.69
472.654	878.69
472.873	859.69
473.092	865.69
473.311	885.69
473.53	860.69
473.749	889.69
473.968	859.69
474.187	867.69
474.406	858.69
474.625	911.69
474.844	886.69
475.063	933.69
475.282	917.69
475.501	906.69
475.72	896.69
475.939	888.69
476.158	916.69
476.377	925.69
476.596	899.69
476.814	918.69
477.033	925.69
477.252	944.69
477.471	942.69
477.69	989.69
477.908	1012.69
478.127	1052.69
478.346	1048.69
478.564	1050.69
478.783	1090.69
479.002	1099.69
479.22	1099.69
479.439	1074.69
479.658	1080.69
479.876	1084.69
480.095	1092.69
480.313	1124.69
480.532	1113.69
480.751	1128.69
480.969	1088.69
481.188	1064.69
481.406	1093.69
481.624	1032.69
481.843	1020.69
482.061	1002.69
482.28	998.69
482.498	971.69
482.717	985.69
482.935	997.69
483.153	1007.69
483.372	983.69
483.59	1008.69
483.808	1013.69
484.027	1002.69
484.245	1001.69
484.463	1044.69
484.681	999.69
484.9	1032.69
485.118	1043.69
485.336	1012.69
485.554	1059.69
485.772	1041.69
485.99	1026.69
486.209	1033.69
486.427	1008.69
486.645	1045.69
486.863	1068.69
487.081	1040.69
487.299	1037.69
487.517	1047.69
487.735	1036.69
487.953	1053.69
488.171	1062.69
488.389	1028.69
488.607	1058.69
488.825	1022.69
489.043	1024.69
489.261	1024.69
489.479	1031.69
489.696	1067.69
489.914	1057.69
490.132	1045.69
490.35	1032.69
490.568	1050.69
490.786	1062.69
491.003	1071.69
491.221	1064.69
491.439	1080.69
491.657	1064.69
491.874	1066.69
492.092	1078.69
492.31	1082.69
492.527	1085.69
492.745	1114.69
492.963	1069.69
493.18	1075.69
493.398	1077.69
493.615	1106.69
493.833	1082.69
494.05	1098.69
494.268	1145.69
494.485	1111.69
494.703	1109.69
494.92	1129.69
495.138	1126.69
495.355	1132.69
495.573	1113.69
495.79	1127.69
496.008	1146.69
496.225	1131.69
496.442	1172.69
496.66	1188.69
496.877	1172.69
497.094	1220.69
497.312	1221.69
497.529	1276.69
497.746	1285.69
497.963	1326.69
498.181	1368.69
498.398	1442.69
498.615	1517.69
498.832	1641.69
499.049	1772.69
499.267	1868.69
499.484	2054.69
499.701	2234.69
499.918	2507.69
500.135	2804.69
500.352	3046.69
500.569	3199.69
500.786	3120.69
501.003	2942.69
501.22	2723.69
501.437	2436.69
501.654	2175.69
501.871	1979.69
502.088	1867.69
502.305	1719.69
502.522	1661.69
502.739	1578.69
502.956	1480.69
503.172	1429.69
503.389	1418.69
503.606	1318.69
503.823	1327.69
504.04	1309.69
504.256	1290.69
504.473	1299.69
504.69	1338.69
504.907	1284.69
505.123	1253.69
505.34	1188.69
505.557	1137.69
505.773	1108.69
505.99	1046.69
506.207	1026.69
506.423	1069.69
506.64	1028.69
506.856	1002.69
507.073	1000.69
507.289	1029.69
507.506	987.69
507.722	979.69
507.939	980.69
508.155	955.69
508.372	968.69
508.588	973.69
508.805	959.69
509.021	929.69
509.238	911.69
509.454	922.69
509.67	951.69
509.887	925.69
510.103	924.69
510.319	922.69
510.536	922.69
510.752	905.69
510.968	912.69
511.184	885.69
511.401	867.69
511.617	888.69
511.833	900.69
512.049	890.69
512.265	893.69
512.481	910.69
512.698	906.69
512.914	889.69
513.13	901.69
513.346	874.69
513.562	868.69
513.778	903.69
513.994	882.69
514.21	898.69
514.426	922.69
514.642	924.69
514.858	913.69
515.074	923.69
515.29	969.69
515.506	960.69
515.721	965.69
515.937	970.69
516.153	994.69
516.369	974.69
516.585	1047.69
516.801	1060.69
517.016	1128.69
517.232	1144.69
517.448	1210.69
517.664	1215.69
517.879	1213.69
518.095	1256.69
518.311	1229.69
518.527	1195.69
518.742	1138.69
518.958	1076.69
519.173	1060.69
519.389	1044.69
519.605	985.69
519.82	935.69
520.036	965.69
520.251	937.69
520.467	928.69
520.682	890.69
520.898	910.69
521.113	890.69
521.329	867.69
521.544	866.69
521.76	854.69
521.975	876.69
522.19	881.69
522.406	859.69
522.621	848.69
522.836	829.69
523.052	834.69
523.267	824.69
523.482	859.69
523.698	835.69
523.913	832.69
524.128	845.69
524.343	845.69
524.559	844.69
524.774	836.69
524.989	817.69
525.204	836.69
525.419	845.69
525.634	827.69
525.849	825.69
526.064	800.69
526.28	802.69
526.495	820.69
526.71	798.69
526.925	792.69
527.14	811.69
527.355	787.69
527.57	818.69
527.785	798.69
527.999	792.69
528.214	777.69
528.429	803.69
528.644	827.69
528.859	794.69
529.074	788.69
529.289	839.69
529.503	822.69
529.718	843.69
529.933	829.69
530.148	814.69
530.363	800.69
530.577	800.69
530.792	817.69
531.007	816.69
531.221	811.69
531.436	811.69
531.651	789.69
531.865	802.69
532.08	808.69
532.295	825.69
532.509	782.69
532.724	786.69
532.938	812.69
533.153	806.69
533.367	785.69
533.582	790.69
533.796	804.69
534.011	792.69
534.225	784.69
534.44	796.69
534.654	776.69
534.868	806.69
535.083	807.69
535.297	803.69
535.511	801.69
535.726	769.69
535.94	760.69
536.154	769.69
536.369	738.69
536.583	752.69
536.797	761.69
537.011	755.69
537.225	761.69
537.44	762.69
537.654	772.69
537.868	739.69
538.082	714.69
538.296	745.69
538.51	714.69
538.724	734.69
538.938	718.69
539.153	749.69
539.367	728.69
539.581	720.69
539.795	718.69
540.009	745.69
540.222	737.69
540.436	719.69
540.65	717.69
540.864	725.69
541.078	724.69
541.292	750.69
541.506	740.69
541.72	749.69
541.934	776.69
542.147	753.69
542.361	729.69
542.575	754.69
542.789	742.69
543.002	707.69
543.216	724.69
543.43	731.69
543.644	723.69
543.857	723.69
544.071	728.69
544.285	738.69
544.498	736.69
544.712	729.69
544.925	746.69
545.139	741.69
545.352	772.69
545.566	753.69
545.779	731.69
545.993	748.69
546.206	753.69
546.42	747.69
546.633	746.69
546.847	742.69
547.06	744.69
547.274	748.69
547.487	743.69
547.7	765.69
547.914	784.69
548.127	772.69
548.34	775.69
548.554	764.69
548.767	765.69
548.98	764.69
549.193	771.69
549.407	733.69
549.62	764.69
549.833	763.69
550.046	769.69
550.259	734.69
550.473	758.69
550.686	757.69
550.899	744.69
551.112	730.69
551.325	729.69
551.538	737.69
551.751	728.69
551.964	728.69
552.177	748.69
552.39	766.69
552.603	762.69
552.816	797.69
553.029	823.69
553.242	785.69
553.455	836.69
553.667	830.69
553.88	806.69
554.093	807.69
554.306	783.69
554.519	764.69
554.732	764.69
554.944	735.69
555.157	706.69
555.37	699.69
555.583	700.69
555.795	695.69
556.008	694.69
556.221	667.69
556.433	682.69
556.646	634.69
556.859	671.69
557.071	660.69
557.284	640.69
557.496	627.69
557.709	636.69
557.921	659.69
558.134	641.69
558.346	638.69
558.559	658.69
558.771	637.69
558.984	647.69
559.196	637.69
559.409	640.69
559.621	629.69
559.833	625.69
560.046	630.69
560.258	610.69
560.47	587.69
560.683	624.69
560.895	650.69
561.107	630.69
561.32	623.69
561.532	646.69
561.744	640.69
561.956	639.69
562.168	619.69
562.381	605.69
562.593	642.69
562.805	621.69
563.017	605.69
563.229	625.69
563.441	635.69
563.653	636.69
563.865	655.69
564.077	653.69
564.289	638.69
564.501	662.69
564.713	677.69
564.925	713.69
565.137	675.69
565.349	692.69
565.561	710.69
565.773	737.69
565.985	774.69
566.197	808.69
566.408	865.69
566.62	904.69
566.832	1003.69
567.044	960.69
567.255	1011.69
567.467	1054.69
567.679	1083.69
567.891	1116.69
568.102	1113.69
568.314	1055.69
568.526	959.69
568.737	941.69
568.949	837.69
569.161	776.69
569.372	732.69
569.584	707.69
569.795	669.69
570.007	667.69
570.218	653.69
570.43	636.69
570.641	626.69
570.853	609.69
571.064	614.69
571.276	642.69
571.487	619.69
571.698	589.69
571.91	585.69
572.121	565.69
572.333	553.69
572.544	505.69
572.755	552.69
572.966	548.69
573.178	534.69
573.389	512.69
573.6	536.69
573.811	520.69
574.023	502.69
574.234	519.69
574.445	502.69
574.656	516.69
574.867	509.69
575.078	523.69
575.289	510.69
575.501	511.69
575.712	481.69
575.923	499.69
576.134	485.69
576.345	503.69
576.556	490.69
576.767	468.69
576.978	468.69
577.188	450.69
577.399	481.69
577.61	464.69
577.821	463.69
578.032	473.69
578.243	474.69
578.454	453.69
578.665	446.69
578.875	450.69
579.086	458.69
579.297	442.69
579.508	437.69
579.718	448.69
579.929	447.69
580.14	438.69
580.35	452.69
580.561	435.69
580.772	447.69
580.982	428.69
581.193	418.69
581.403	439.69
581.614	436.69
581.825	447.69
582.035	441.69
582.246	441.69
582.456	432.69
582.667	433.69
582.877	420.69
583.087	416.69
583.298	422.69
583.508	443.69
583.719	435.69
583.929	437.69
584.139	420.69
584.35	423.69
584.56	424.69
584.77	419.69
584.981	418.69
585.191	411.69
585.401	418.69
585.611	407.69
585.821	417.69
586.032	406.69
586.242	411.69
586.452	414.69
586.662	424.69
586.872	405.69
587.082	421.69
587.292	408.69
587.502	402.69
587.713	425.69
587.923	412.69
588.133	411.69
588.343	398.69
588.553	402.69
588.762	395.69
588.972	414.69
589.182	406.69
589.392	421.69
589.602	412.69
589.812	418.69
590.022	436.69
590.232	432.69
590.441	428.69
590.651	412.69
590.861	398.69
591.071	421.69
591.281	412.69
591.49	430.69
591.7	433.69
591.91	450.69
592.119	441.69
592.329	453.69
592.539	462.69
592.748	467.69
592.958	475.69
593.167	489.69
593.377	501.69
593.587	511.69
593.796	499.69
594.006	503.69
594.215	516.69
594.424	493.69
594.634	483.69
594.843	465.69
595.053	444.69
595.262	464.69
595.472	457.69
595.681	439.69
595.89	434.69
596.1	422.69
596.309	404.69
596.518	388.69
596.727	411.69
596.937	374.69
597.146	379.69
597.355	385.69
597.564	371.69
597.774	366.69
597.983	361.69
598.192	373.69
598.401	379.69
598.61	357.69
598.819	353.69
599.028	328.69
599.237	344.69
599.446	348.69
599.655	345.69
599.864	342.69
600.073	335.69
600.282	344.69
600.491	334.69
600.7	354.69
600.909	345.69
601.118	337.69
601.327	340.69
601.536	325.69
601.745	329.69
601.953	328.69
602.162	337.69
602.371	340.69
602.58	320.69
602.789	344.69
602.997	350.69
603.206	338.69
603.415	321.69
603.623	332.69
603.832	331.69
604.041	312.69
604.249	330.69
604.458	324.69
604.666	304.69
604.875	344.69
605.084	326.69
605.292	333.69
605.501	320.69
605.709	320.69
605.918	321.69
606.126	330.69
606.334	324.69
606.543	334.69
606.751	325.69
606.96	317.69
607.168	323.69
607.376	318.69
607.585	320.69
607.793	315.69
608.001	313.69
608.21	320.69
608.418	310.69
608.626	319.69
608.834	314.69
609.043	330.69
609.251	298.69
609.459	311.69
609.667	299.69
609.875	302.69
610.083	284.69
610.291	295.69
610.499	305.69
610.707	292.69
610.916	313.69
611.124	294.69
611.332	304.69
611.54	298.69
611.748	292.69
611.955	296.69
612.163	285.69
612.371	277.69
612.579	307.69
612.787	298.69
612.995	320.69
613.203	285.69
613.411	319.69
613.618	316.69
613.826	289.69
614.034	313.69
614.242	283.69
614.449	297.69
614.657	298.69
614.865	291.69
615.072	313.69
615.28	284.69
615.488	290.69
615.695	306.69
615.903	305.69
616.111	282.69
616.318	297.69
616.526	295.69
616.733	296.69
616.941	318.69
617.148	304.69
617.356	286.69
617.563	284.69
617.771	300.69
617.978	299.69
618.185	295.69
618.393	294.69
618.6	275.69
618.807	295.69
619.015	299.69
619.222	287.69
619.429	270.69
619.637	281.69
619.844	293.69
620.051	276.69
620.258	275.69
620.466	282.69
620.673	273.69
620.88	269.69
621.087	285.69
621.294	258.69
621.501	260.69
621.708	273.69
621.915	277.69
622.122	269.69
622.329	264.69
622.536	282.69
622.743	250.69
622.95	265.69
623.157	268.69
623.364	247.69
623.571	267.69
623.778	267.69
623.985	274.69
624.192	264.69
624.399	260.69
624.606	260.69
624.812	270.69
625.019	263.69
625.226	258.69
625.433	269.69
625.639	251.69
625.846	250.69
626.053	242.69
626.259	268.69
626.466	267.69
626.673	229.69
626.879	270.69
627.086	243.69
627.293	242.69
627.499	254.69
627.706	240.69
627.912	256.69
628.119	240.69
628.325	236.69
628.532	236.69
628.738	236.69
628.945	228.69
629.151	229.69
629.357	244.69
629.564	235.69
629.77	237.69
629.976	236.69
630.183	227.69
630.389	233.69
630.595	240.69
630.802	233.69
631.008	226.69
631.214	231.69
631.42	229.69
631.627	213.69
631.833	228.69
632.039	232.69
632.245	233.69
632.451	232.69
632.657	215.69
632.863	241.69
633.069	226.69
633.275	212.69
633.481	228.69
633.688	217.69
633.893	226.69
634.099	233.69
634.305	232.69
634.511	226.69
634.717	212.69
634.923	207.69
635.129	215.69
635.335	219.69
635.541	222.69
635.747	207.69
635.952	216.69
636.158	201.69
636.364	220.69
636.57	205.69
636.775	222.69
636.981	220.69
637.187	225.69
637.392	203.69
637.598	214.69
637.804	228.69
638.009	207.69
638.215	217.69
638.421	201.69
638.626	219.69
638.832	217.69
639.037	208.69
639.243	211.69
639.448	208.69
639.654	212.69
639.859	200.69
640.065	187.69
640.27	193.69
640.475	188.69
640.681	195.69
640.886	216.69
641.091	205.69
641.297	197.69
641.502	192.69
641.707	189.69
641.913	205.69
642.118	198.69
642.323	201.69
642.528	192.69
642.733	210.69
642.939	192.69
643.144	197.69
643.349	190.69
643.554	199.69
643.759	187.69
643.964	194.69
644.169	182.69
644.374	209.69
644.579	212.69
644.784	195.69
644.989	210.69
645.194	193.69
645.399	201.69
645.604	190.69
645.809	185.69
646.014	198.69
646.219	200.69
646.423	199.69
646.628	181.69
646.833	193.69
647.038	186.69
647.243	190.69
647.447	200.69
647.652	195.69
647.857	194.69
648.062	209.69
648.266	190.69
648.471	206.69
648.676	217.69
648.88	187.69
649.085	197.69
649.289	197.69
649.494	195.69
649.698	186.69
649.903	171.69
650.107	183.69
650.312	188.69
650.516	174.69
650.721	167.69
650.925	164.69
651.13	171.69
651.334	153.69
651.539	173.69
651.743	170.69
651.947	170.69
652.152	157.69
652.356	159.69
652.56	168.69
652.764	142.69
652.969	157.69
653.173	160.69
653.377	138.69
653.581	153.69
653.785	157.69
653.99	123.69
654.194	163.69
654.398	149.69
654.602	142.69
654.806	151.69
655.01	140.69
655.214	158.69
655.418	154.69
655.622	127.69
655.826	123.69
656.03	147.69
656.234	146.69
656.438	140.69
656.642	131.69
656.846	133.69
657.049	149.69
657.253	128.69
657.457	123.69
657.661	132.69
657.865	123.69
658.068	107.69
658.272	125.69
658.476	112.69
658.68	123.69
658.883	110.69
659.087	109.69
659.291	113.69
659.494	115.69
659.698	106.69
659.901	93.69
660.105	92.69
660.309	104.69
660.512	96.69
660.716	108.69
660.919	114.69
661.123	100.69
661.326	90.69
661.53	99.69
661.733	90.69
661.936	84.69
662.14	98.69
662.343	89.69
662.546	85.69
662.75	86.69
662.953	85.69
663.156	93.69
663.36	77.69
663.563	83.69
663.766	82.69
663.969	82.69
664.173	88.69
664.376	90.69
664.579	98.69
664.782	86.69
664.985	75.69
665.188	59.69
665.391	81.69
665.594	78.69
665.797	82.69
666	86.69
666.203	78.69
666.406	77.69
666.609	88.69
666.812	74.69
667.015	86.69
667.218	72.69
667.421	75.69
667.624	88.69
667.827	77.69
668.03	82.69
668.232	76.69
668.435	80.69
668.638	71.69
668.841	75.69
669.043	76.69
669.246	84.69
669.449	88.69
669.651	74.69
669.854	92.69
670.057	77.69
670.259	83.69
670.462	84.69
670.665	86.69
670.867	94.69
671.07	95.69
671.272	94.69
671.475	84.69
671.677	66.69
671.88	88.69
672.082	78.69
672.284	84.69
672.487	78.69
672.689	78.69
672.892	91.69
