Data from Ni(NO3)2@0.5M.TitratingCurve.Agarose3%dH2O.NegLispCup.LampEnergy10.LIBS07252019_HRD10591_17-59-36-564.txt Node
Date: Thu Jul 25 17:59:36 EDT 2019
User: cochatt
Spectrometer: HR+D1059
Trigger mode: 1
Integration Time (sec): 1.000000E-1
Scans to average: 1
Electric dark correction enabled: true
Nonlinearity correction enabled: false
Boxcar width: 0
XAxis mode: Wavelengths
Number of Pixels in Spectrum: 2048
>>>>>Begin Spectral Data<<<<<
223.165	-17.12
223.4	-17.12
223.635	-17.12
223.869	-19.12
224.104	-19.12
224.338	-13.12
224.573	-20.12
224.808	-15.12
225.042	-10.12
225.277	4.88
225.511	-7.12
225.746	12.88
225.98	6.88
226.215	7.88
226.449	8.88
226.683	16.88
226.918	29.88
227.152	32.88
227.387	40.88
227.621	41.88
227.856	51.88
228.09	51.88
228.324	66.88
228.559	67.88
228.793	69.88
229.027	90.88
229.262	106.88
229.496	101.88
229.73	111.88
229.964	119.88
230.199	140.88
230.433	125.88
230.667	125.88
230.901	111.88
231.136	122.88
231.37	123.88
231.604	126.88
231.838	133.88
232.072	140.88
232.306	135.88
232.541	107.88
232.775	108.88
233.009	120.88
233.243	124.88
233.477	109.88
233.711	123.88
233.945	128.88
234.179	131.88
234.413	123.88
234.647	114.88
234.881	126.88
235.115	117.88
235.349	117.88
235.583	114.88
235.817	121.88
236.051	111.88
236.285	118.88
236.519	99.88
236.753	118.88
236.987	121.88
237.221	118.88
237.455	121.88
237.689	112.88
237.922	118.88
238.156	124.88
238.39	131.88
238.624	133.88
238.858	123.88
239.091	130.88
239.325	146.88
239.559	140.88
239.793	142.88
240.027	140.88
240.26	127.88
240.494	114.88
240.728	120.88
240.961	103.88
241.195	133.88
241.429	138.88
241.662	137.88
241.896	145.88
242.13	137.88
242.363	135.88
242.597	127.88
242.83	134.88
243.064	144.88
243.298	135.88
243.531	140.88
243.765	136.88
243.998	140.88
244.232	128.88
244.465	141.88
244.699	147.88
244.932	147.88
245.166	144.88
245.399	138.88
245.633	144.88
245.866	139.88
246.099	146.88
246.333	155.88
246.566	158.88
246.8	142.88
247.033	140.88
247.266	158.88
247.5	150.88
247.733	152.88
247.966	158.88
248.2	162.88
248.433	163.88
248.666	149.88
248.899	165.88
249.133	168.88
249.366	162.88
249.599	165.88
249.832	158.88
250.066	165.88
250.299	156.88
250.532	158.88
250.765	163.88
250.998	176.88
251.231	170.88
251.465	166.88
251.698	185.88
251.931	178.88
252.164	184.88
252.397	168.88
252.63	175.88
252.863	171.88
253.096	179.88
253.329	174.88
253.562	190.88
253.795	175.88
254.028	175.88
254.261	180.88
254.494	186.88
254.727	184.88
254.96	181.88
255.193	192.88
255.426	179.88
255.659	178.88
255.892	178.88
256.124	190.88
256.357	178.88
256.59	186.88
256.823	171.88
257.056	168.88
257.289	183.88
257.521	170.88
257.754	203.88
257.987	201.88
258.22	188.88
258.452	186.88
258.685	189.88
258.918	178.88
259.151	196.88
259.383	186.88
259.616	206.88
259.849	190.88
260.081	193.88
260.314	194.88
260.547	205.88
260.779	188.88
261.012	196.88
261.244	203.88
261.477	206.88
261.71	200.88
261.942	205.88
262.175	203.88
262.407	220.88
262.64	205.88
262.872	198.88
263.105	197.88
263.337	218.88
263.57	215.88
263.802	230.88
264.035	205.88
264.267	220.88
264.499	199.88
264.732	234.88
264.964	220.88
265.197	189.88
265.429	211.88
265.661	213.88
265.894	213.88
266.126	203.88
266.358	238.88
266.591	223.88
266.823	216.88
267.055	215.88
267.287	220.88
267.52	224.88
267.752	239.88
267.984	226.88
268.216	226.88
268.448	242.88
268.681	234.88
268.913	224.88
269.145	222.88
269.377	243.88
269.609	258.88
269.841	229.88
270.073	218.88
270.306	220.88
270.538	243.88
270.77	241.88
271.002	242.88
271.234	248.88
271.466	227.88
271.698	237.88
271.93	242.88
272.162	233.88
272.394	248.88
272.626	248.88
272.858	233.88
273.09	222.88
273.322	239.88
273.553	235.88
273.785	232.88
274.017	236.88
274.249	228.88
274.481	245.88
274.713	250.88
274.945	233.88
275.176	249.88
275.408	262.88
275.64	231.88
275.872	237.88
276.104	282.88
276.335	255.88
276.567	244.88
276.799	266.88
277.031	252.88
277.262	254.88
277.494	257.88
277.726	268.88
277.957	266.88
278.189	259.88
278.421	262.88
278.652	254.88
278.884	272.88
279.115	252.88
279.347	268.88
279.579	273.88
279.81	262.88
280.042	255.88
280.273	282.88
280.505	273.88
280.736	270.88
280.968	264.88
281.199	286.88
281.431	264.88
281.662	263.88
281.894	279.88
282.125	277.88
282.356	271.88
282.588	286.88
282.819	274.88
283.051	280.88
283.282	285.88
283.513	284.88
283.745	280.88
283.976	276.88
284.207	286.88
284.439	291.88
284.67	287.88
284.901	298.88
285.132	272.88
285.364	276.88
285.595	287.88
285.826	283.88
286.057	301.88
286.288	287.88
286.52	301.88
286.751	302.88
286.982	288.88
287.213	286.88
287.444	290.88
287.675	302.88
287.906	304.88
288.138	285.88
288.369	283.88
288.6	308.88
288.831	293.88
289.062	299.88
289.293	313.88
289.524	308.88
289.755	287.88
289.986	310.88
290.217	302.88
290.448	293.88
290.679	296.88
290.91	312.88
291.141	317.88
291.371	296.88
291.602	296.88
291.833	308.88
292.064	309.88
292.295	286.88
292.526	287.88
292.757	294.88
292.987	303.88
293.218	306.88
293.449	308.88
293.68	315.88
293.91	287.88
294.141	297.88
294.372	312.88
294.603	308.88
294.833	306.88
295.064	291.88
295.295	310.88
295.525	306.88
295.756	301.88
295.987	306.88
296.217	294.88
296.448	308.88
296.679	333.88
296.909	327.88
297.14	325.88
297.37	341.88
297.601	318.88
297.831	325.88
298.062	330.88
298.292	351.88
298.523	334.88
298.753	341.88
298.984	325.88
299.214	324.88
299.445	318.88
299.675	308.88
299.905	349.88
300.136	324.88
300.366	349.88
300.597	359.88
300.827	349.88
301.057	347.88
301.288	352.88
301.518	336.88
301.748	334.88
301.979	352.88
302.209	364.88
302.439	352.88
302.669	332.88
302.9	335.88
303.13	326.88
303.36	341.88
303.59	350.88
303.82	355.88
304.051	353.88
304.281	358.88
304.511	334.88
304.741	342.88
304.971	371.88
305.201	376.88
305.431	374.88
305.661	358.88
305.891	362.88
306.121	344.88
306.352	331.88
306.582	322.88
306.812	334.88
307.042	354.88
307.272	345.88
307.502	347.88
307.731	345.88
307.961	348.88
308.191	345.88
308.421	355.88
308.651	361.88
308.881	348.88
309.111	351.88
309.341	350.88
309.571	362.88
309.8	350.88
310.03	359.88
310.26	377.88
310.49	378.88
310.72	361.88
310.949	367.88
311.179	363.88
311.409	353.88
311.639	350.88
311.868	364.88
312.098	365.88
312.328	371.88
312.557	378.88
312.787	380.88
313.017	364.88
313.246	378.88
313.476	378.88
313.706	377.88
313.935	381.88
314.165	386.88
314.394	378.88
314.624	365.88
314.853	352.88
315.083	374.88
315.312	360.88
315.542	375.88
315.771	373.88
316.001	383.88
316.23	363.88
316.46	364.88
316.689	382.88
316.919	376.88
317.148	383.88
317.377	395.88
317.607	382.88
317.836	370.88
318.065	390.88
318.295	357.88
318.524	394.88
318.753	382.88
318.983	371.88
319.212	363.88
319.441	386.88
319.67	398.88
319.9	372.88
320.129	400.88
320.358	388.88
320.587	404.88
320.816	407.88
321.046	387.88
321.275	388.88
321.504	397.88
321.733	391.88
321.962	390.88
322.191	391.88
322.42	399.88
322.649	394.88
322.878	394.88
323.108	398.88
323.337	406.88
323.566	406.88
323.795	410.88
324.024	419.88
324.253	394.88
324.482	406.88
324.71	424.88
324.939	398.88
325.168	414.88
325.397	407.88
325.626	404.88
325.855	393.88
326.084	423.88
326.313	431.88
326.542	406.88
326.77	409.88
326.999	417.88
327.228	426.88
327.457	431.88
327.686	436.88
327.914	416.88
328.143	419.88
328.372	429.88
328.6	418.88
328.829	413.88
329.058	420.88
329.287	408.88
329.515	414.88
329.744	428.88
329.972	426.88
330.201	416.88
330.43	427.88
330.658	422.88
330.887	422.88
331.115	448.88
331.344	452.88
331.572	460.88
331.801	442.88
332.03	447.88
332.258	455.88
332.486	466.88
332.715	456.88
332.943	467.88
333.172	476.88
333.4	506.88
333.629	479.88
333.857	493.88
334.085	479.88
334.314	480.88
334.542	510.88
334.771	511.88
334.999	505.88
335.227	481.88
335.455	484.88
335.684	476.88
335.912	469.88
336.14	476.88
336.369	496.88
336.597	500.88
336.825	524.88
337.053	499.88
337.281	519.88
337.51	493.88
337.738	500.88
337.966	480.88
338.194	494.88
338.422	479.88
338.65	483.88
338.878	483.88
339.106	464.88
339.334	500.88
339.562	464.88
339.79	467.88
340.018	466.88
340.246	459.88
340.474	450.88
340.702	459.88
340.93	452.88
341.158	449.88
341.386	461.88
341.614	502.88
341.842	475.88
342.07	453.88
342.298	456.88
342.526	472.88
342.754	459.88
342.981	471.88
343.209	460.88
343.437	473.88
343.665	509.88
343.893	506.88
344.12	508.88
344.348	508.88
344.576	475.88
344.804	480.88
345.031	480.88
345.259	457.88
345.487	454.88
345.714	478.88
345.942	484.88
346.17	492.88
346.397	461.88
346.625	452.88
346.853	436.88
347.08	451.88
347.308	449.88
347.535	457.88
347.763	443.88
347.99	422.88
348.218	434.88
348.445	422.88
348.673	438.88
348.9	459.88
349.128	447.88
349.355	460.88
349.583	445.88
349.81	420.88
350.037	438.88
350.265	464.88
350.492	445.88
350.72	437.88
350.947	439.88
351.174	454.88
351.402	445.88
351.629	455.88
351.856	464.88
352.083	451.88
352.311	458.88
352.538	472.88
352.765	460.88
352.992	439.88
353.22	425.88
353.447	419.88
353.674	440.88
353.901	413.88
354.128	431.88
354.355	423.88
354.583	434.88
354.81	428.88
355.037	440.88
355.264	437.88
355.491	436.88
355.718	434.88
355.945	413.88
356.172	419.88
356.399	431.88
356.626	456.88
356.853	438.88
357.08	444.88
357.307	446.88
357.534	420.88
357.761	431.88
357.988	417.88
358.215	425.88
358.441	418.88
358.668	422.88
358.895	447.88
359.122	422.88
359.349	423.88
359.576	446.88
359.802	442.88
360.029	453.88
360.256	436.88
360.483	436.88
360.709	424.88
360.936	458.88
361.163	451.88
361.39	441.88
361.616	437.88
361.843	442.88
362.07	479.88
362.296	455.88
362.523	428.88
362.749	443.88
362.976	442.88
363.203	430.88
363.429	431.88
363.656	433.88
363.882	427.88
364.109	442.88
364.335	442.88
364.562	439.88
364.788	440.88
365.015	425.88
365.241	436.88
365.468	452.88
365.694	431.88
365.92	421.88
366.147	458.88
366.373	434.88
366.599	449.88
366.826	421.88
367.052	429.88
367.278	428.88
367.505	434.88
367.731	425.88
367.957	426.88
368.184	432.88
368.41	428.88
368.636	428.88
368.862	439.88
369.089	454.88
369.315	442.88
369.541	467.88
369.767	441.88
369.993	464.88
370.219	427.88
370.445	450.88
370.672	423.88
370.898	469.88
371.124	456.88
371.35	459.88
371.576	461.88
371.802	484.88
372.028	490.88
372.254	475.88
372.48	472.88
372.706	489.88
372.932	477.88
373.158	469.88
373.384	465.88
373.61	475.88
373.835	477.88
374.061	460.88
374.287	468.88
374.513	468.88
374.739	472.88
374.965	487.88
375.191	485.88
375.416	499.88
375.642	471.88
375.868	476.88
376.094	475.88
376.319	466.88
376.545	476.88
376.771	464.88
376.997	443.88
377.222	455.88
377.448	455.88
377.674	482.88
377.899	461.88
378.125	458.88
378.35	463.88
378.576	445.88
378.802	454.88
379.027	444.88
379.253	471.88
379.478	455.88
379.704	464.88
379.929	470.88
380.155	445.88
380.38	456.88
380.606	486.88
380.831	499.88
381.057	477.88
381.282	463.88
381.507	462.88
381.733	465.88
381.958	472.88
382.184	469.88
382.409	474.88
382.634	462.88
382.86	465.88
383.085	486.88
383.31	471.88
383.535	485.88
383.761	501.88
383.986	479.88
384.211	496.88
384.436	484.88
384.662	504.88
384.887	512.88
385.112	515.88
385.337	520.88
385.562	501.88
385.787	543.88
386.013	543.88
386.238	518.88
386.463	532.88
386.688	546.88
386.913	526.88
387.138	529.88
387.363	505.88
387.588	520.88
387.813	520.88
388.038	523.88
388.263	530.88
388.488	536.88
388.713	544.88
388.938	545.88
389.163	539.88
389.387	498.88
389.612	508.88
389.837	534.88
390.062	527.88
390.287	536.88
390.512	509.88
390.736	544.88
390.961	544.88
391.186	551.88
391.411	535.88
391.636	562.88
391.86	551.88
392.085	556.88
392.31	558.88
392.534	557.88
392.759	570.88
392.984	548.88
393.208	553.88
393.433	567.88
393.658	535.88
393.882	548.88
394.107	550.88
394.331	557.88
394.556	549.88
394.78	546.88
395.005	569.88
395.229	553.88
395.454	570.88
395.678	600.88
395.903	583.88
396.127	566.88
396.352	547.88
396.576	540.88
396.801	558.88
397.025	584.88
397.249	572.88
397.474	603.88
397.698	585.88
397.922	615.88
398.147	592.88
398.371	574.88
398.595	616.88
398.82	631.88
399.044	636.88
399.268	690.88
399.492	751.88
399.717	718.88
399.941	767.88
400.165	739.88
400.389	695.88
400.613	669.88
400.837	639.88
401.062	658.88
401.286	614.88
401.51	637.88
401.734	635.88
401.958	620.88
402.182	632.88
402.406	620.88
402.63	635.88
402.854	655.88
403.078	642.88
403.302	637.88
403.526	637.88
403.75	664.88
403.974	639.88
404.198	634.88
404.422	670.88
404.645	667.88
404.869	620.88
405.093	657.88
405.317	639.88
405.541	649.88
405.765	664.88
405.988	652.88
406.212	672.88
406.436	673.88
406.66	670.88
406.883	680.88
407.107	708.88
407.331	760.88
407.555	723.88
407.778	720.88
408.002	751.88
408.226	715.88
408.449	723.88
408.673	694.88
408.896	705.88
409.12	701.88
409.344	664.88
409.567	691.88
409.791	667.88
410.014	693.88
410.238	674.88
410.461	656.88
410.685	662.88
410.908	638.88
411.132	656.88
411.355	652.88
411.578	651.88
411.802	666.88
412.025	653.88
412.249	664.88
412.472	637.88
412.695	636.88
412.919	647.88
413.142	643.88
413.365	623.88
413.589	636.88
413.812	643.88
414.035	626.88
414.258	630.88
414.482	642.88
414.705	635.88
414.928	640.88
415.151	661.88
415.374	630.88
415.597	638.88
415.821	621.88
416.044	622.88
416.267	597.88
416.49	604.88
416.713	613.88
416.936	629.88
417.159	616.88
417.382	628.88
417.605	610.88
417.828	604.88
418.051	625.88
418.274	605.88
418.497	619.88
418.72	634.88
418.943	612.88
419.166	639.88
419.389	681.88
419.611	673.88
419.834	662.88
420.057	630.88
420.28	628.88
420.503	596.88
420.726	603.88
420.948	612.88
421.171	624.88
421.394	612.88
421.617	597.88
421.839	638.88
422.062	618.88
422.285	600.88
422.507	606.88
422.73	621.88
422.953	622.88
423.175	639.88
423.398	630.88
423.621	627.88
423.843	631.88
424.066	618.88
424.288	610.88
424.511	639.88
424.733	621.88
424.956	598.88
425.178	640.88
425.401	628.88
425.623	603.88
425.846	600.88
426.068	627.88
426.291	582.88
426.513	628.88
426.735	601.88
426.958	595.88
427.18	569.88
427.402	582.88
427.625	598.88
427.847	585.88
428.069	582.88
428.292	600.88
428.514	568.88
428.736	551.88
428.958	602.88
429.181	584.88
429.403	593.88
429.625	579.88
429.847	589.88
430.069	579.88
430.292	592.88
430.514	589.88
430.736	575.88
430.958	578.88
431.18	588.88
431.402	574.88
431.624	580.88
431.846	603.88
432.068	580.88
432.29	581.88
432.512	570.88
432.734	595.88
432.956	573.88
433.178	590.88
433.4	612.88
433.622	607.88
433.844	599.88
434.066	619.88
434.287	606.88
434.509	607.88
434.731	613.88
434.953	615.88
435.175	647.88
435.397	633.88
435.618	613.88
435.84	604.88
436.062	582.88
436.284	600.88
436.505	590.88
436.727	605.88
436.949	587.88
437.17	588.88
437.392	587.88
437.614	583.88
437.835	564.88
438.057	565.88
438.278	560.88
438.5	564.88
438.721	578.88
438.943	564.88
439.165	576.88
439.386	574.88
439.608	597.88
439.829	598.88
440.05	587.88
440.272	598.88
440.493	607.88
440.715	602.88
440.936	605.88
441.158	608.88
441.379	619.88
441.6	642.88
441.822	623.88
442.043	632.88
442.264	622.88
442.486	608.88
442.707	604.88
442.928	620.88
443.149	613.88
443.371	635.88
443.592	681.88
443.813	643.88
444.034	622.88
444.255	644.88
444.476	662.88
444.698	668.88
444.919	691.88
445.14	764.88
445.361	709.88
445.582	660.88
445.803	636.88
446.024	628.88
446.245	617.88
446.466	628.88
446.687	586.88
446.908	578.88
447.129	589.88
447.35	583.88
447.571	590.88
447.792	542.88
448.013	537.88
448.234	558.88
448.455	556.88
448.675	550.88
448.896	546.88
449.117	559.88
449.338	534.88
449.559	543.88
449.779	529.88
450	533.88
450.221	526.88
450.442	569.88
450.662	559.88
450.883	553.88
451.104	543.88
451.324	532.88
451.545	558.88
451.766	532.88
451.986	536.88
452.207	526.88
452.428	542.88
452.648	524.88
452.869	530.88
453.089	516.88
453.31	538.88
453.53	525.88
453.751	513.88
453.971	513.88
454.192	531.88
454.412	563.88
454.633	511.88
454.853	518.88
455.073	511.88
455.294	526.88
455.514	522.88
455.734	521.88
455.955	520.88
456.175	538.88
456.395	486.88
456.616	491.88
456.836	498.88
457.056	502.88
457.276	488.88
457.497	523.88
457.717	522.88
457.937	540.88
458.157	547.88
458.377	522.88
458.598	512.88
458.818	543.88
459.038	534.88
459.258	559.88
459.478	596.88
459.698	637.88
459.918	652.88
460.138	644.88
460.358	644.88
460.578	640.88
460.798	657.88
461.018	678.88
461.238	638.88
461.458	641.88
461.678	663.88
461.898	630.88
462.118	638.88
462.338	673.88
462.558	696.88
462.777	709.88
462.997	760.88
463.217	752.88
463.437	766.88
463.657	742.88
463.876	699.88
464.096	683.88
464.316	713.88
464.536	684.88
464.755	694.88
464.975	648.88
465.195	652.88
465.414	635.88
465.634	616.88
465.854	606.88
466.073	575.88
466.293	581.88
466.512	556.88
466.732	574.88
466.951	564.88
467.171	573.88
467.391	578.88
467.61	574.88
467.829	564.88
468.049	566.88
468.268	571.88
468.488	569.88
468.707	541.88
468.927	578.88
469.146	549.88
469.365	563.88
469.585	554.88
469.804	553.88
470.023	556.88
470.243	559.88
470.462	572.88
470.681	571.88
470.901	560.88
471.12	572.88
471.339	568.88
471.558	573.88
471.777	562.88
471.997	550.88
472.216	571.88
472.435	556.88
472.654	552.88
472.873	534.88
473.092	544.88
473.311	571.88
473.53	545.88
473.749	548.88
473.968	551.88
474.187	545.88
474.406	546.88
474.625	568.88
474.844	554.88
475.063	557.88
475.282	566.88
475.501	544.88
475.72	566.88
475.939	570.88
476.158	576.88
476.377	566.88
476.596	576.88
476.814	565.88
477.033	573.88
477.252	601.88
477.471	613.88
477.69	587.88
477.908	602.88
478.127	604.88
478.346	637.88
478.564	642.88
478.783	631.88
479.002	661.88
479.22	688.88
479.439	665.88
479.658	638.88
479.876	648.88
480.095	668.88
480.313	659.88
480.532	701.88
480.751	667.88
480.969	678.88
481.188	658.88
481.406	651.88
481.624	640.88
481.843	654.88
482.061	666.88
482.28	648.88
482.498	644.88
482.717	636.88
482.935	656.88
483.153	661.88
483.372	707.88
483.59	712.88
483.808	684.88
484.027	684.88
484.245	650.88
484.463	657.88
484.681	682.88
484.9	676.88
485.118	643.88
485.336	684.88
485.554	671.88
485.772	682.88
485.99	662.88
486.209	656.88
486.427	663.88
486.645	660.88
486.863	681.88
487.081	674.88
487.299	661.88
487.517	660.88
487.735	677.88
487.953	667.88
488.171	730.88
488.389	684.88
488.607	676.88
488.825	656.88
489.043	664.88
489.261	650.88
489.479	658.88
489.696	656.88
489.914	670.88
490.132	678.88
490.35	695.88
490.568	679.88
490.786	689.88
491.003	671.88
491.221	679.88
491.439	718.88
491.657	695.88
491.874	679.88
492.092	702.88
492.31	703.88
492.527	677.88
492.745	712.88
492.963	695.88
493.18	675.88
493.398	698.88
493.615	683.88
493.833	698.88
494.05	694.88
494.268	702.88
494.485	711.88
494.703	712.88
494.92	701.88
495.138	722.88
495.355	690.88
495.573	709.88
495.79	711.88
496.008	704.88
496.225	714.88
496.442	718.88
496.66	719.88
496.877	738.88
497.094	736.88
497.312	750.88
497.529	742.88
497.746	780.88
497.963	803.88
498.181	819.88
498.398	838.88
498.615	834.88
498.832	873.88
499.049	903.88
499.267	942.88
499.484	999.88
499.701	1071.88
499.918	1140.88
500.135	1209.88
500.352	1311.88
500.569	1302.88
500.786	1322.88
501.003	1263.88
501.22	1188.88
501.437	1115.88
501.654	1021.88
501.871	1006.88
502.088	949.88
502.305	930.88
502.522	916.88
502.739	848.88
502.956	816.88
503.172	798.88
503.389	806.88
503.606	761.88
503.823	758.88
504.04	751.88
504.256	747.88
504.473	739.88
504.69	749.88
504.907	703.88
505.123	692.88
505.34	697.88
505.557	667.88
505.773	689.88
505.99	635.88
506.207	637.88
506.423	617.88
506.64	598.88
506.856	621.88
507.073	632.88
507.289	596.88
507.506	609.88
507.722	608.88
507.939	614.88
508.155	598.88
508.372	598.88
508.588	579.88
508.805	594.88
509.021	569.88
509.238	559.88
509.454	555.88
509.67	544.88
509.887	542.88
510.103	554.88
510.319	558.88
510.536	559.88
510.752	573.88
510.968	583.88
511.184	565.88
511.401	546.88
511.617	565.88
511.833	558.88
512.049	555.88
512.265	578.88
512.481	560.88
512.698	531.88
512.914	564.88
513.13	562.88
513.346	530.88
513.562	527.88
513.778	540.88
513.994	556.88
514.21	556.88
514.426	535.88
514.642	547.88
514.858	556.88
515.074	555.88
515.29	573.88
515.506	562.88
515.721	574.88
515.937	564.88
516.153	596.88
516.369	597.88
516.585	594.88
516.801	612.88
517.016	601.88
517.232	609.88
517.448	637.88
517.664	661.88
517.879	630.88
518.095	660.88
518.311	639.88
518.527	607.88
518.742	613.88
518.958	598.88
519.173	580.88
519.389	560.88
519.605	557.88
519.82	584.88
520.036	580.88
520.251	555.88
520.467	543.88
520.682	538.88
520.898	547.88
521.113	527.88
521.329	548.88
521.544	523.88
521.76	533.88
521.975	520.88
522.19	513.88
522.406	526.88
522.621	516.88
522.836	518.88
523.052	534.88
523.267	516.88
523.482	493.88
523.698	495.88
523.913	484.88
524.128	503.88
524.343	506.88
524.559	501.88
524.774	493.88
524.989	526.88
525.204	522.88
525.419	508.88
525.634	474.88
525.849	507.88
526.064	522.88
526.28	479.88
526.495	456.88
526.71	500.88
526.925	489.88
527.14	486.88
527.355	473.88
527.57	505.88
527.785	509.88
527.999	499.88
528.214	496.88
528.429	492.88
528.644	487.88
528.859	476.88
529.074	494.88
529.289	491.88
529.503	492.88
529.718	495.88
529.933	494.88
530.148	482.88
530.363	493.88
530.577	476.88
530.792	476.88
531.007	475.88
531.221	476.88
531.436	476.88
531.651	469.88
531.865	480.88
532.08	478.88
532.295	488.88
532.509	467.88
532.724	460.88
532.938	464.88
533.153	462.88
533.367	462.88
533.582	476.88
533.796	478.88
534.011	457.88
534.225	451.88
534.44	463.88
534.654	452.88
534.868	460.88
535.083	469.88
535.297	463.88
535.511	449.88
535.726	454.88
535.94	455.88
536.154	443.88
536.369	456.88
536.583	455.88
536.797	465.88
537.011	436.88
537.225	443.88
537.44	437.88
537.654	461.88
537.868	462.88
538.082	434.88
538.296	430.88
538.51	459.88
538.724	438.88
538.938	432.88
539.153	456.88
539.367	447.88
539.581	436.88
539.795	452.88
540.009	441.88
540.222	426.88
540.436	418.88
540.65	436.88
540.864	435.88
541.078	429.88
541.292	430.88
541.506	450.88
541.72	455.88
541.934	440.88
542.147	455.88
542.361	447.88
542.575	448.88
542.789	455.88
543.002	443.88
543.216	438.88
543.43	431.88
543.644	426.88
543.857	431.88
544.071	459.88
544.285	447.88
544.498	469.88
544.712	442.88
544.925	444.88
545.139	456.88
545.352	437.88
545.566	443.88
545.779	450.88
545.993	461.88
546.206	471.88
546.42	442.88
546.633	454.88
546.847	454.88
547.06	442.88
547.274	441.88
547.487	446.88
547.7	444.88
547.914	457.88
548.127	448.88
548.34	434.88
548.554	450.88
548.767	425.88
548.98	450.88
549.193	446.88
549.407	450.88
549.62	445.88
549.833	439.88
550.046	451.88
550.259	460.88
550.473	434.88
550.686	434.88
550.899	434.88
551.112	424.88
551.325	431.88
551.538	439.88
551.751	428.88
551.964	440.88
552.177	436.88
552.39	444.88
552.603	445.88
552.816	453.88
553.029	455.88
553.242	458.88
553.455	447.88
553.667	455.88
553.88	443.88
554.093	452.88
554.306	468.88
554.519	432.88
554.732	401.88
554.944	432.88
555.157	413.88
555.37	405.88
555.583	439.88
555.795	404.88
556.008	412.88
556.221	402.88
556.433	406.88
556.646	390.88
556.859	379.88
557.071	402.88
557.284	390.88
557.496	407.88
557.709	407.88
557.921	382.88
558.134	389.88
558.346	410.88
558.559	382.88
558.771	373.88
558.984	376.88
559.196	360.88
559.409	390.88
559.621	372.88
559.833	383.88
560.046	380.88
560.258	390.88
560.47	376.88
560.683	356.88
560.895	358.88
561.107	374.88
561.32	366.88
561.532	368.88
561.744	370.88
561.956	372.88
562.168	367.88
562.381	368.88
562.593	355.88
562.805	370.88
563.017	388.88
563.229	366.88
563.441	383.88
563.653	404.88
563.865	405.88
564.077	393.88
564.289	404.88
564.501	385.88
564.713	403.88
564.925	404.88
565.137	407.88
565.349	412.88
565.561	443.88
565.773	406.88
565.985	452.88
566.197	447.88
566.408	448.88
566.62	471.88
566.832	486.88
567.044	486.88
567.255	512.88
567.467	495.88
567.679	510.88
567.891	522.88
568.102	520.88
568.314	528.88
568.526	480.88
568.737	455.88
568.949	431.88
569.161	411.88
569.372	400.88
569.584	402.88
569.795	392.88
570.007	372.88
570.218	370.88
570.43	386.88
570.641	345.88
570.853	369.88
571.064	353.88
571.276	348.88
571.487	344.88
571.698	345.88
571.91	322.88
572.121	334.88
572.333	343.88
572.544	339.88
572.755	321.88
572.966	333.88
573.178	322.88
573.389	324.88
573.6	322.88
573.811	329.88
574.023	314.88
574.234	304.88
574.445	303.88
574.656	313.88
574.867	322.88
575.078	316.88
575.289	308.88
575.501	314.88
575.712	306.88
575.923	294.88
576.134	313.88
576.345	326.88
576.556	294.88
576.767	294.88
576.978	286.88
577.188	293.88
577.399	309.88
577.61	298.88
577.821	282.88
578.032	278.88
578.243	284.88
578.454	303.88
578.665	292.88
578.875	286.88
579.086	276.88
579.297	265.88
579.508	274.88
579.718	262.88
579.929	295.88
580.14	294.88
580.35	283.88
580.561	277.88
580.772	280.88
580.982	271.88
581.193	262.88
581.403	276.88
581.614	277.88
581.825	280.88
582.035	263.88
582.246	283.88
582.456	264.88
582.667	247.88
582.877	274.88
583.087	269.88
583.298	264.88
583.508	260.88
583.719	261.88
583.929	283.88
584.139	260.88
584.35	266.88
584.56	270.88
584.77	251.88
584.981	262.88
585.191	276.88
585.401	266.88
585.611	269.88
585.821	260.88
586.032	266.88
586.242	254.88
586.452	270.88
586.662	247.88
586.872	264.88
587.082	255.88
587.292	261.88
587.502	263.88
587.713	253.88
587.923	267.88
588.133	256.88
588.343	266.88
588.553	260.88
588.762	263.88
588.972	259.88
589.182	296.88
589.392	269.88
589.602	261.88
589.812	266.88
590.022	260.88
590.232	260.88
590.441	254.88
590.651	267.88
590.861	270.88
591.071	262.88
591.281	277.88
591.49	255.88
591.7	260.88
591.91	277.88
592.119	272.88
592.329	272.88
592.539	266.88
592.748	260.88
592.958	285.88
593.167	290.88
593.377	273.88
593.587	310.88
593.796	292.88
594.006	294.88
594.215	293.88
594.424	293.88
594.634	277.88
594.843	273.88
595.053	253.88
595.262	276.88
595.472	264.88
595.681	257.88
595.89	251.88
596.1	260.88
596.309	236.88
596.518	254.88
596.727	245.88
596.937	261.88
597.146	245.88
597.355	235.88
597.564	253.88
597.774	242.88
597.983	249.88
598.192	224.88
598.401	237.88
598.61	234.88
598.819	228.88
599.028	239.88
599.237	234.88
599.446	236.88
599.655	226.88
599.864	221.88
600.073	217.88
600.282	228.88
600.491	229.88
600.7	231.88
600.909	223.88
601.118	233.88
601.327	227.88
601.536	228.88
601.745	231.88
601.953	222.88
602.162	226.88
602.371	216.88
602.58	217.88
602.789	227.88
602.997	223.88
603.206	215.88
603.415	218.88
603.623	200.88
603.832	207.88
604.041	205.88
604.249	203.88
604.458	217.88
604.666	209.88
604.875	211.88
605.084	208.88
605.292	212.88
605.501	213.88
605.709	221.88
605.918	212.88
606.126	208.88
606.334	219.88
606.543	222.88
606.751	219.88
606.96	215.88
607.168	196.88
607.376	204.88
607.585	210.88
607.793	220.88
608.001	210.88
608.21	211.88
608.418	199.88
608.626	216.88
608.834	222.88
609.043	197.88
609.251	207.88
609.459	221.88
609.667	210.88
609.875	194.88
610.083	229.88
610.291	202.88
610.499	212.88
610.707	218.88
610.916	206.88
611.124	198.88
611.332	198.88
611.54	198.88
611.748	207.88
611.955	204.88
612.163	213.88
612.371	222.88
612.579	199.88
612.787	199.88
612.995	194.88
613.203	217.88
613.411	195.88
613.618	192.88
613.826	199.88
614.034	207.88
614.242	211.88
614.449	192.88
614.657	198.88
614.865	170.88
615.072	203.88
615.28	194.88
615.488	194.88
615.695	199.88
615.903	198.88
616.111	195.88
616.318	208.88
616.526	207.88
616.733	209.88
616.941	199.88
617.148	195.88
617.356	205.88
617.563	195.88
617.771	203.88
617.978	204.88
618.185	197.88
618.393	204.88
618.6	177.88
618.807	196.88
619.015	197.88
619.222	198.88
619.429	206.88
619.637	197.88
619.844	188.88
620.051	207.88
620.258	188.88
620.466	198.88
620.673	188.88
620.88	185.88
621.087	191.88
621.294	197.88
621.501	197.88
621.708	191.88
621.915	200.88
622.122	185.88
622.329	189.88
622.536	194.88
622.743	186.88
622.95	194.88
623.157	196.88
623.364	181.88
623.571	171.88
623.778	193.88
623.985	182.88
624.192	189.88
624.399	194.88
624.606	188.88
624.812	183.88
625.019	190.88
625.226	164.88
625.433	182.88
625.639	188.88
625.846	181.88
626.053	180.88
626.259	182.88
626.466	181.88
626.673	171.88
626.879	179.88
627.086	172.88
627.293	185.88
627.499	181.88
627.706	167.88
627.912	180.88
628.119	188.88
628.325	160.88
628.532	161.88
628.738	170.88
628.945	161.88
629.151	163.88
629.357	170.88
629.564	162.88
629.77	151.88
629.976	171.88
630.183	182.88
630.389	173.88
630.595	180.88
630.802	161.88
631.008	164.88
631.214	179.88
631.42	175.88
631.627	174.88
631.833	168.88
632.039	151.88
632.245	174.88
632.451	166.88
632.657	166.88
632.863	152.88
633.069	172.88
633.275	168.88
633.481	153.88
633.688	158.88
633.893	185.88
634.099	162.88
634.305	158.88
634.511	166.88
634.717	166.88
634.923	171.88
635.129	170.88
635.335	169.88
635.541	159.88
635.747	154.88
635.952	162.88
636.158	156.88
636.364	174.88
636.57	164.88
636.775	178.88
636.981	151.88
637.187	155.88
637.392	152.88
637.598	156.88
637.804	143.88
638.009	159.88
638.215	174.88
638.421	150.88
638.626	159.88
638.832	142.88
639.037	160.88
639.243	151.88
639.448	155.88
639.654	151.88
639.859	159.88
640.065	155.88
640.27	169.88
640.475	157.88
640.681	155.88
640.886	157.88
641.091	157.88
641.297	165.88
641.502	157.88
641.707	156.88
641.913	167.88
642.118	150.88
642.323	159.88
642.528	170.88
642.733	160.88
642.939	145.88
643.144	175.88
643.349	166.88
643.554	156.88
643.759	163.88
643.964	142.88
644.169	157.88
644.374	150.88
644.579	169.88
644.784	149.88
644.989	156.88
645.194	159.88
645.399	169.88
645.604	156.88
645.809	159.88
646.014	151.88
646.219	155.88
646.423	162.88
646.628	156.88
646.833	151.88
647.038	165.88
647.243	148.88
647.447	166.88
647.652	174.88
647.857	173.88
648.062	153.88
648.266	165.88
648.471	158.88
648.676	151.88
648.88	159.88
649.085	166.88
649.289	167.88
649.494	173.88
649.698	171.88
649.903	159.88
650.107	149.88
650.312	171.88
650.516	178.88
650.721	150.88
650.925	166.88
651.13	149.88
651.334	161.88
651.539	168.88
651.743	152.88
651.947	170.88
652.152	145.88
652.356	151.88
652.56	160.88
652.764	174.88
652.969	162.88
653.173	151.88
653.377	158.88
653.581	158.88
653.785	160.88
653.99	155.88
654.194	149.88
654.398	150.88
654.602	143.88
654.806	169.88
655.01	176.88
655.214	154.88
655.418	175.88
655.622	171.88
655.826	183.88
656.03	191.88
656.234	170.88
656.438	169.88
656.642	166.88
656.846	167.88
657.049	162.88
657.253	179.88
657.457	159.88
657.661	147.88
657.865	130.88
658.068	124.88
658.272	130.88
658.476	137.88
658.68	126.88
658.883	131.88
659.087	125.88
659.291	110.88
659.494	116.88
659.698	102.88
659.901	120.88
660.105	99.88
660.309	92.88
660.512	96.88
660.716	99.88
660.919	101.88
661.123	104.88
661.326	90.88
661.53	98.88
661.733	85.88
661.936	87.88
662.14	90.88
662.343	97.88
662.546	86.88
662.75	95.88
662.953	100.88
663.156	86.88
663.36	88.88
663.563	80.88
663.766	93.88
663.969	90.88
664.173	86.88
664.376	88.88
664.579	86.88
664.782	83.88
664.985	76.88
665.188	86.88
665.391	78.88
665.594	79.88
665.797	77.88
666	71.88
666.203	86.88
666.406	78.88
666.609	88.88
666.812	88.88
667.015	69.88
667.218	87.88
667.421	81.88
667.624	87.88
667.827	89.88
668.03	87.88
668.232	84.88
668.435	88.88
668.638	83.88
668.841	86.88
669.043	84.88
669.246	72.88
669.449	70.88
669.651	88.88
669.854	85.88
670.057	87.88
670.259	84.88
670.462	67.88
670.665	70.88
670.867	92.88
671.07	95.88
671.272	87.88
671.475	86.88
671.677	81.88
671.88	76.88
672.082	79.88
672.284	90.88
672.487	82.88
672.689	76.88
672.892	77.88
