Data from Ni(NO3)2@0.125M.TitratingCurve.Agarose3%dH2O.NegLispCup.LampEnergy10.LIBS07252019_HRD10591_18-08-34-567.txt Node
Date: Thu Jul 25 18:08:34 EDT 2019
User: cochatt
Spectrometer: HR+D1059
Trigger mode: 1
Integration Time (sec): 1.000000E-1
Scans to average: 1
Electric dark correction enabled: true
Nonlinearity correction enabled: false
Boxcar width: 0
XAxis mode: Wavelengths
Number of Pixels in Spectrum: 2048
>>>>>Begin Spectral Data<<<<<
223.165	-16.75
223.4	-16.75
223.635	-16.75
223.869	-21.75
224.104	-10.75
224.338	-12.75
224.573	-1.75
224.808	-18.75
225.042	-21.75
225.277	0.25
225.511	-5.75
225.746	6.25
225.98	10.25
226.215	-2.75
226.449	12.25
226.683	26.25
226.918	25.25
227.152	32.25
227.387	38.25
227.621	32.25
227.856	40.25
228.09	46.25
228.324	29.25
228.559	56.25
228.793	74.25
229.027	109.25
229.262	109.25
229.496	129.25
229.73	126.25
229.964	125.25
230.199	135.25
230.433	137.25
230.667	135.25
230.901	134.25
231.136	134.25
231.37	148.25
231.604	159.25
231.838	162.25
232.072	147.25
232.306	154.25
232.541	158.25
232.775	159.25
233.009	159.25
233.243	163.25
233.477	158.25
233.711	168.25
233.945	165.25
234.179	156.25
234.413	160.25
234.647	136.25
234.881	157.25
235.115	157.25
235.349	174.25
235.583	169.25
235.817	154.25
236.051	173.25
236.285	163.25
236.519	155.25
236.753	166.25
236.987	173.25
237.221	161.25
237.455	167.25
237.689	182.25
237.922	190.25
238.156	179.25
238.39	196.25
238.624	198.25
238.858	169.25
239.091	193.25
239.325	197.25
239.559	192.25
239.793	189.25
240.027	183.25
240.26	195.25
240.494	192.25
240.728	192.25
240.961	199.25
241.195	193.25
241.429	198.25
241.662	193.25
241.896	214.25
242.13	219.25
242.363	218.25
242.597	217.25
242.83	223.25
243.064	208.25
243.298	217.25
243.531	243.25
243.765	232.25
243.998	253.25
244.232	216.25
244.465	237.25
244.699	256.25
244.932	259.25
245.166	244.25
245.399	234.25
245.633	223.25
245.866	238.25
246.099	233.25
246.333	243.25
246.566	261.25
246.8	268.25
247.033	270.25
247.266	266.25
247.5	255.25
247.733	239.25
247.966	285.25
248.2	279.25
248.433	264.25
248.666	268.25
248.899	279.25
249.133	287.25
249.366	271.25
249.599	296.25
249.832	299.25
250.066	270.25
250.299	287.25
250.532	285.25
250.765	292.25
250.998	282.25
251.231	289.25
251.465	301.25
251.698	287.25
251.931	307.25
252.164	328.25
252.397	313.25
252.63	326.25
252.863	313.25
253.096	335.25
253.329	334.25
253.562	328.25
253.795	302.25
254.028	315.25
254.261	310.25
254.494	311.25
254.727	315.25
254.96	319.25
255.193	335.25
255.426	347.25
255.659	321.25
255.892	337.25
256.124	326.25
256.357	344.25
256.59	332.25
256.823	345.25
257.056	328.25
257.289	351.25
257.521	344.25
257.754	353.25
257.987	341.25
258.22	337.25
258.452	363.25
258.685	362.25
258.918	367.25
259.151	358.25
259.383	375.25
259.616	349.25
259.849	366.25
260.081	367.25
260.314	379.25
260.547	367.25
260.779	380.25
261.012	390.25
261.244	381.25
261.477	389.25
261.71	402.25
261.942	386.25
262.175	393.25
262.407	401.25
262.64	385.25
262.872	386.25
263.105	387.25
263.337	402.25
263.57	402.25
263.802	399.25
264.035	405.25
264.267	395.25
264.499	396.25
264.732	396.25
264.964	421.25
265.197	418.25
265.429	422.25
265.661	416.25
265.894	420.25
266.126	417.25
266.358	425.25
266.591	430.25
266.823	425.25
267.055	426.25
267.287	421.25
267.52	422.25
267.752	425.25
267.984	421.25
268.216	454.25
268.448	467.25
268.681	454.25
268.913	436.25
269.145	438.25
269.377	451.25
269.609	447.25
269.841	436.25
270.073	452.25
270.306	440.25
270.538	438.25
270.77	450.25
271.002	463.25
271.234	465.25
271.466	467.25
271.698	453.25
271.93	477.25
272.162	461.25
272.394	470.25
272.626	451.25
272.858	446.25
273.09	470.25
273.322	495.25
273.553	482.25
273.785	476.25
274.017	488.25
274.249	495.25
274.481	488.25
274.713	497.25
274.945	503.25
275.176	493.25
275.408	488.25
275.64	496.25
275.872	484.25
276.104	488.25
276.335	511.25
276.567	479.25
276.799	496.25
277.031	509.25
277.262	505.25
277.494	502.25
277.726	486.25
277.957	512.25
278.189	515.25
278.421	509.25
278.652	514.25
278.884	517.25
279.115	525.25
279.347	529.25
279.579	497.25
279.81	542.25
280.042	541.25
280.273	527.25
280.505	537.25
280.736	565.25
280.968	525.25
281.199	541.25
281.431	530.25
281.662	537.25
281.894	534.25
282.125	534.25
282.356	567.25
282.588	572.25
282.819	550.25
283.051	554.25
283.282	553.25
283.513	576.25
283.745	557.25
283.976	560.25
284.207	577.25
284.439	579.25
284.67	557.25
284.901	585.25
285.132	577.25
285.364	569.25
285.595	590.25
285.826	575.25
286.057	588.25
286.288	587.25
286.52	603.25
286.751	592.25
286.982	609.25
287.213	577.25
287.444	615.25
287.675	606.25
287.906	608.25
288.138	604.25
288.369	608.25
288.6	610.25
288.831	621.25
289.062	635.25
289.293	608.25
289.524	626.25
289.755	625.25
289.986	627.25
290.217	616.25
290.448	623.25
290.679	621.25
290.91	599.25
291.141	608.25
291.371	628.25
291.602	615.25
291.833	614.25
292.064	637.25
292.295	621.25
292.526	635.25
292.757	628.25
292.987	647.25
293.218	625.25
293.449	649.25
293.68	617.25
293.91	627.25
294.141	610.25
294.372	607.25
294.603	646.25
294.833	622.25
295.064	635.25
295.295	624.25
295.525	626.25
295.756	647.25
295.987	633.25
296.217	666.25
296.448	657.25
296.679	635.25
296.909	630.25
297.14	659.25
297.37	681.25
297.601	679.25
297.831	659.25
298.062	657.25
298.292	683.25
298.523	667.25
298.753	695.25
298.984	694.25
299.214	677.25
299.445	668.25
299.675	658.25
299.905	696.25
300.136	671.25
300.366	703.25
300.597	698.25
300.827	713.25
301.057	715.25
301.288	712.25
301.518	708.25
301.748	727.25
301.979	723.25
302.209	713.25
302.439	735.25
302.669	727.25
302.9	719.25
303.13	706.25
303.36	723.25
303.59	707.25
303.82	688.25
304.051	721.25
304.281	717.25
304.511	721.25
304.741	709.25
304.971	719.25
305.201	705.25
305.431	691.25
305.661	699.25
305.891	690.25
306.121	730.25
306.352	697.25
306.582	718.25
306.812	680.25
307.042	713.25
307.272	674.25
307.502	663.25
307.731	713.25
307.961	678.25
308.191	676.25
308.421	718.25
308.651	676.25
308.881	670.25
309.111	689.25
309.341	677.25
309.571	718.25
309.8	705.25
310.03	683.25
310.26	694.25
310.49	721.25
310.72	712.25
310.949	692.25
311.179	719.25
311.409	704.25
311.639	731.25
311.868	708.25
312.098	746.25
312.328	732.25
312.557	750.25
312.787	747.25
313.017	731.25
313.246	747.25
313.476	749.25
313.706	769.25
313.935	753.25
314.165	777.25
314.394	787.25
314.624	751.25
314.853	755.25
315.083	756.25
315.312	772.25
315.542	739.25
315.771	768.25
316.001	753.25
316.23	736.25
316.46	752.25
316.689	719.25
316.919	746.25
317.148	751.25
317.377	775.25
317.607	744.25
317.836	733.25
318.065	753.25
318.295	738.25
318.524	721.25
318.753	746.25
318.983	727.25
319.212	755.25
319.441	753.25
319.67	768.25
319.9	737.25
320.129	747.25
320.358	763.25
320.587	735.25
320.816	761.25
321.046	763.25
321.275	735.25
321.504	770.25
321.733	776.25
321.962	770.25
322.191	753.25
322.42	770.25
322.649	772.25
322.878	765.25
323.108	751.25
323.337	786.25
323.566	781.25
323.795	781.25
324.024	787.25
324.253	792.25
324.482	782.25
324.71	784.25
324.939	801.25
325.168	793.25
325.397	815.25
325.626	805.25
325.855	809.25
326.084	814.25
326.313	822.25
326.542	835.25
326.77	843.25
326.999	866.25
327.228	820.25
327.457	817.25
327.686	832.25
327.914	828.25
328.143	855.25
328.372	851.25
328.6	841.25
328.829	835.25
329.058	825.25
329.287	850.25
329.515	867.25
329.744	865.25
329.972	870.25
330.201	857.25
330.43	854.25
330.658	871.25
330.887	875.25
331.115	880.25
331.344	905.25
331.572	896.25
331.801	917.25
332.03	939.25
332.258	969.25
332.486	994.25
332.715	1017.25
332.943	1075.25
333.172	1106.25
333.4	1187.25
333.629	1159.25
333.857	1182.25
334.085	1186.25
334.314	1109.25
334.542	1106.25
334.771	1103.25
334.999	1075.25
335.227	1099.25
335.455	1077.25
335.684	1079.25
335.912	1038.25
336.14	1060.25
336.369	1006.25
336.597	1041.25
336.825	999.25
337.053	1025.25
337.281	996.25
337.51	994.25
337.738	960.25
337.966	971.25
338.194	949.25
338.422	961.25
338.65	936.25
338.878	943.25
339.106	962.25
339.334	933.25
339.562	943.25
339.79	909.25
340.018	873.25
340.246	916.25
340.474	890.25
340.702	883.25
340.93	890.25
341.158	899.25
341.386	925.25
341.614	897.25
341.842	913.25
342.07	888.25
342.298	889.25
342.526	895.25
342.754	900.25
342.981	906.25
343.209	913.25
343.437	989.25
343.665	1022.25
343.893	1107.25
344.12	1163.25
344.348	1088.25
344.576	1002.25
344.804	947.25
345.031	937.25
345.259	908.25
345.487	901.25
345.714	900.25
345.942	887.25
346.17	877.25
346.397	874.25
346.625	860.25
346.853	861.25
347.08	865.25
347.308	840.25
347.535	870.25
347.763	886.25
347.99	888.25
348.218	901.25
348.445	872.25
348.673	886.25
348.9	865.25
349.128	903.25
349.355	851.25
349.583	852.25
349.81	840.25
350.037	839.25
350.265	815.25
350.492	852.25
350.72	836.25
350.947	857.25
351.174	856.25
351.402	829.25
351.629	845.25
351.856	840.25
352.083	840.25
352.311	836.25
352.538	836.25
352.765	816.25
352.992	841.25
353.22	809.25
353.447	790.25
353.674	816.25
353.901	822.25
354.128	847.25
354.355	835.25
354.583	821.25
354.81	837.25
355.037	856.25
355.264	803.25
355.491	842.25
355.718	839.25
355.945	839.25
356.172	851.25
356.399	829.25
356.626	843.25
356.853	867.25
357.08	822.25
357.307	865.25
357.534	831.25
357.761	846.25
357.988	834.25
358.215	831.25
358.441	823.25
358.668	803.25
358.895	821.25
359.122	840.25
359.349	848.25
359.576	855.25
359.802	836.25
360.029	835.25
360.256	826.25
360.483	820.25
360.709	848.25
360.936	858.25
361.163	811.25
361.39	841.25
361.616	873.25
361.843	848.25
362.07	847.25
362.296	832.25
362.523	810.25
362.749	817.25
362.976	841.25
363.203	834.25
363.429	808.25
363.656	805.25
363.882	849.25
364.109	821.25
364.335	829.25
364.562	829.25
364.788	828.25
365.015	805.25
365.241	833.25
365.468	842.25
365.694	854.25
365.92	841.25
366.147	826.25
366.373	837.25
366.599	819.25
366.826	821.25
367.052	830.25
367.278	822.25
367.505	839.25
367.731	819.25
367.957	826.25
368.184	820.25
368.41	811.25
368.636	837.25
368.862	839.25
369.089	851.25
369.315	847.25
369.541	850.25
369.767	880.25
369.993	841.25
370.219	844.25
370.445	843.25
370.672	863.25
370.898	870.25
371.124	896.25
371.35	899.25
371.576	883.25
371.802	896.25
372.028	896.25
372.254	866.25
372.48	911.25
372.706	919.25
372.932	935.25
373.158	922.25
373.384	904.25
373.61	894.25
373.835	890.25
374.061	884.25
374.287	917.25
374.513	918.25
374.739	972.25
374.965	976.25
375.191	1014.25
375.416	1003.25
375.642	976.25
375.868	961.25
376.094	923.25
376.319	924.25
376.545	933.25
376.771	882.25
376.997	913.25
377.222	870.25
377.448	879.25
377.674	893.25
377.899	905.25
378.125	879.25
378.35	887.25
378.576	863.25
378.802	866.25
379.027	855.25
379.253	883.25
379.478	883.25
379.704	870.25
379.929	886.25
380.155	885.25
380.38	888.25
380.606	886.25
380.831	871.25
381.057	873.25
381.282	871.25
381.507	871.25
381.733	914.25
381.958	907.25
382.184	900.25
382.409	934.25
382.634	913.25
382.86	926.25
383.085	948.25
383.31	960.25
383.535	1000.25
383.761	977.25
383.986	1002.25
384.211	1023.25
384.436	1023.25
384.662	1064.25
384.887	1066.25
385.112	1075.25
385.337	1073.25
385.562	1099.25
385.787	1087.25
386.013	1082.25
386.238	1094.25
386.463	1074.25
386.688	1069.25
386.913	1085.25
387.138	1074.25
387.363	1037.25
387.588	1055.25
387.813	1065.25
388.038	1033.25
388.263	1047.25
388.488	1066.25
388.713	1035.25
388.938	1029.25
389.163	1022.25
389.387	1021.25
389.612	1045.25
389.837	1047.25
390.062	1017.25
390.287	1039.25
390.512	1047.25
390.736	1038.25
390.961	1059.25
391.186	1105.25
391.411	1131.25
391.636	1169.25
391.86	1187.25
392.085	1225.25
392.31	1233.25
392.534	1153.25
392.759	1135.25
392.984	1117.25
393.208	1125.25
393.433	1111.25
393.658	1140.25
393.882	1135.25
394.107	1129.25
394.331	1137.25
394.556	1165.25
394.78	1145.25
395.005	1165.25
395.229	1159.25
395.454	1166.25
395.678	1241.25
395.903	1225.25
396.127	1185.25
396.352	1155.25
396.576	1117.25
396.801	1127.25
397.025	1136.25
397.249	1177.25
397.474	1178.25
397.698	1173.25
397.922	1216.25
398.147	1204.25
398.371	1224.25
398.595	1270.25
398.82	1321.25
399.044	1401.25
399.268	1552.25
399.492	1855.25
399.717	2144.25
399.941	2086.25
400.165	1811.25
400.389	1598.25
400.613	1492.25
400.837	1399.25
401.062	1376.25
401.286	1352.25
401.51	1355.25
401.734	1308.25
401.958	1383.25
402.182	1358.25
402.406	1390.25
402.63	1405.25
402.854	1462.25
403.078	1474.25
403.302	1467.25
403.526	1540.25
403.75	1553.25
403.974	1602.25
404.198	1617.25
404.422	1638.25
404.645	1557.25
404.869	1556.25
405.093	1509.25
405.317	1505.25
405.541	1491.25
405.765	1467.25
405.988	1477.25
406.212	1485.25
406.436	1457.25
406.66	1541.25
406.883	1531.25
407.107	1610.25
407.331	1714.25
407.555	1762.25
407.778	1755.25
408.002	1710.25
408.226	1655.25
408.449	1629.25
408.673	1587.25
408.896	1561.25
409.12	1519.25
409.344	1563.25
409.567	1506.25
409.791	1499.25
410.014	1513.25
410.238	1531.25
410.461	1521.25
410.685	1497.25
410.908	1439.25
411.132	1462.25
411.355	1407.25
411.578	1373.25
411.802	1399.25
412.025	1409.25
412.249	1445.25
412.472	1437.25
412.695	1360.25
412.919	1358.25
413.142	1349.25
413.365	1355.25
413.589	1363.25
413.812	1314.25
414.035	1306.25
414.258	1319.25
414.482	1343.25
414.705	1374.25
414.928	1390.25
415.151	1335.25
415.374	1325.25
415.597	1350.25
415.821	1331.25
416.044	1322.25
416.267	1305.25
416.49	1322.25
416.713	1322.25
416.936	1341.25
417.159	1322.25
417.382	1361.25
417.605	1317.25
417.828	1343.25
418.051	1348.25
418.274	1378.25
418.497	1322.25
418.72	1403.25
418.943	1391.25
419.166	1458.25
419.389	1559.25
419.611	1484.25
419.834	1463.25
420.057	1418.25
420.28	1352.25
420.503	1337.25
420.726	1343.25
420.948	1321.25
421.171	1359.25
421.394	1314.25
421.617	1325.25
421.839	1355.25
422.062	1345.25
422.285	1298.25
422.507	1395.25
422.73	1368.25
422.953	1395.25
423.175	1417.25
423.398	1408.25
423.621	1463.25
423.843	1441.25
424.066	1457.25
424.288	1420.25
424.511	1454.25
424.733	1384.25
424.956	1399.25
425.178	1381.25
425.401	1399.25
425.623	1319.25
425.846	1325.25
426.068	1320.25
426.291	1253.25
426.513	1235.25
426.735	1274.25
426.958	1254.25
427.18	1207.25
427.402	1208.25
427.625	1231.25
427.847	1214.25
428.069	1183.25
428.292	1219.25
428.514	1182.25
428.736	1164.25
428.958	1193.25
429.181	1163.25
429.403	1167.25
429.625	1139.25
429.847	1153.25
430.069	1162.25
430.292	1153.25
430.514	1154.25
430.736	1205.25
430.958	1189.25
431.18	1171.25
431.402	1180.25
431.624	1142.25
431.846	1184.25
432.068	1223.25
432.29	1225.25
432.512	1156.25
432.734	1184.25
432.956	1195.25
433.178	1203.25
433.4	1207.25
433.622	1198.25
433.844	1208.25
434.066	1194.25
434.287	1230.25
434.509	1234.25
434.731	1335.25
434.953	1339.25
435.175	1376.25
435.397	1352.25
435.618	1249.25
435.84	1238.25
436.062	1183.25
436.284	1201.25
436.505	1183.25
436.727	1209.25
436.949	1199.25
437.17	1206.25
437.392	1206.25
437.614	1167.25
437.835	1143.25
438.057	1161.25
438.278	1095.25
438.5	1149.25
438.721	1149.25
438.943	1148.25
439.165	1152.25
439.386	1162.25
439.608	1192.25
439.829	1217.25
440.05	1183.25
440.272	1217.25
440.493	1193.25
440.715	1242.25
440.936	1264.25
441.158	1281.25
441.379	1306.25
441.6	1376.25
441.822	1389.25
442.043	1381.25
442.264	1357.25
442.486	1317.25
442.707	1360.25
442.928	1337.25
443.149	1355.25
443.371	1364.25
443.592	1383.25
443.813	1377.25
444.034	1378.25
444.255	1417.25
444.476	1496.25
444.698	1611.25
444.919	1675.25
445.14	1729.25
445.361	1537.25
445.582	1410.25
445.803	1320.25
446.024	1294.25
446.245	1293.25
446.466	1242.25
446.687	1206.25
446.908	1203.25
447.129	1170.25
447.35	1171.25
447.571	1152.25
447.792	1132.25
448.013	1112.25
448.234	1129.25
448.455	1106.25
448.675	1095.25
448.896	1133.25
449.117	1102.25
449.338	1096.25
449.559	1071.25
449.779	1071.25
450	1071.25
450.221	1106.25
450.442	1105.25
450.662	1125.25
450.883	1123.25
451.104	1125.25
451.324	1124.25
451.545	1137.25
451.766	1126.25
451.986	1138.25
452.207	1122.25
452.428	1107.25
452.648	1096.25
452.869	1074.25
453.089	1072.25
453.31	1092.25
453.53	1075.25
453.751	1087.25
453.971	1050.25
454.192	1054.25
454.412	1046.25
454.633	1055.25
454.853	1043.25
455.073	1027.25
455.294	1055.25
455.514	1021.25
455.734	1017.25
455.955	1009.25
456.175	1008.25
456.395	978.25
456.616	1017.25
456.836	1008.25
457.056	1030.25
457.276	1026.25
457.497	1012.25
457.717	985.25
457.937	1021.25
458.157	1029.25
458.377	1066.25
458.598	1048.25
458.818	1092.25
459.038	1121.25
459.258	1155.25
459.478	1218.25
459.698	1234.25
459.918	1289.25
460.138	1313.25
460.358	1409.25
460.578	1421.25
460.798	1437.25
461.018	1458.25
461.238	1425.25
461.458	1403.25
461.678	1412.25
461.898	1396.25
462.118	1455.25
462.338	1546.25
462.558	1560.25
462.777	1604.25
462.997	1786.25
463.217	2022.25
463.437	1960.25
463.657	1807.25
463.876	1661.25
464.096	1676.25
464.316	1636.25
464.536	1689.25
464.755	1620.25
464.975	1540.25
465.195	1483.25
465.414	1398.25
465.634	1280.25
465.854	1257.25
466.073	1225.25
466.293	1240.25
466.512	1160.25
466.732	1164.25
466.951	1176.25
467.171	1154.25
467.391	1159.25
467.61	1175.25
467.829	1163.25
468.049	1150.25
468.268	1097.25
468.488	1076.25
468.707	1090.25
468.927	1078.25
469.146	1118.25
469.365	1135.25
469.585	1101.25
469.804	1155.25
470.023	1195.25
470.243	1198.25
470.462	1191.25
470.681	1173.25
470.901	1240.25
471.12	1180.25
471.339	1156.25
471.558	1122.25
471.777	1106.25
471.997	1113.25
472.216	1106.25
472.435	1097.25
472.654	1081.25
472.873	1057.25
473.092	1055.25
473.311	1081.25
473.53	1041.25
473.749	1053.25
473.968	1066.25
474.187	1077.25
474.406	1051.25
474.625	1083.25
474.844	1049.25
475.063	1063.25
475.282	1081.25
475.501	1082.25
475.72	1112.25
475.939	1098.25
476.158	1115.25
476.377	1133.25
476.596	1122.25
476.814	1107.25
477.033	1129.25
477.252	1151.25
477.471	1177.25
477.69	1188.25
477.908	1225.25
478.127	1309.25
478.346	1297.25
478.564	1321.25
478.783	1348.25
479.002	1367.25
479.22	1348.25
479.439	1333.25
479.658	1309.25
479.876	1365.25
480.095	1333.25
480.313	1383.25
480.532	1490.25
480.751	1461.25
480.969	1367.25
481.188	1330.25
481.406	1293.25
481.624	1250.25
481.843	1248.25
482.061	1212.25
482.28	1228.25
482.498	1202.25
482.717	1210.25
482.935	1200.25
483.153	1201.25
483.372	1219.25
483.59	1212.25
483.808	1242.25
484.027	1231.25
484.245	1242.25
484.463	1242.25
484.681	1226.25
484.9	1240.25
485.118	1237.25
485.336	1241.25
485.554	1300.25
485.772	1279.25
485.99	1271.25
486.209	1286.25
486.427	1277.25
486.645	1303.25
486.863	1265.25
487.081	1315.25
487.299	1277.25
487.517	1283.25
487.735	1272.25
487.953	1270.25
488.171	1271.25
488.389	1262.25
488.607	1239.25
488.825	1261.25
489.043	1235.25
489.261	1249.25
489.479	1256.25
489.696	1314.25
489.914	1295.25
490.132	1325.25
490.35	1269.25
490.568	1315.25
490.786	1314.25
491.003	1292.25
491.221	1323.25
491.439	1272.25
491.657	1301.25
491.874	1310.25
492.092	1327.25
492.31	1375.25
492.527	1336.25
492.745	1305.25
492.963	1338.25
493.18	1342.25
493.398	1327.25
493.615	1342.25
493.833	1362.25
494.05	1339.25
494.268	1382.25
494.485	1364.25
494.703	1379.25
494.92	1366.25
495.138	1366.25
495.355	1344.25
495.573	1381.25
495.79	1357.25
496.008	1391.25
496.225	1368.25
496.442	1425.25
496.66	1418.25
496.877	1414.25
497.094	1450.25
497.312	1502.25
497.529	1538.25
497.746	1570.25
497.963	1604.25
498.181	1638.25
498.398	1687.25
498.615	1832.25
498.832	1984.25
499.049	2181.25
499.267	2291.25
499.484	2536.25
499.701	2831.25
499.918	3133.25
500.135	3673.25
500.352	4231.25
500.569	4495.25
500.786	4334.25
501.003	4017.25
501.22	3509.25
501.437	3084.25
501.654	2681.25
501.871	2441.25
502.088	2223.25
502.305	2131.25
502.522	1935.25
502.739	1880.25
502.956	1813.25
503.172	1714.25
503.389	1633.25
503.606	1579.25
503.823	1542.25
504.04	1556.25
504.256	1584.25
504.473	1606.25
504.69	1696.25
504.907	1672.25
505.123	1519.25
505.34	1462.25
505.557	1374.25
505.773	1349.25
505.99	1289.25
506.207	1261.25
506.423	1269.25
506.64	1264.25
506.856	1217.25
507.073	1205.25
507.289	1231.25
507.506	1194.25
507.722	1217.25
507.939	1175.25
508.155	1185.25
508.372	1162.25
508.588	1149.25
508.805	1141.25
509.021	1122.25
509.238	1131.25
509.454	1124.25
509.67	1133.25
509.887	1119.25
510.103	1124.25
510.319	1103.25
510.536	1098.25
510.752	1073.25
510.968	1075.25
511.184	1091.25
511.401	1081.25
511.617	1099.25
511.833	1105.25
512.049	1083.25
512.265	1074.25
512.481	1091.25
512.698	1093.25
512.914	1095.25
513.13	1069.25
513.346	1083.25
513.562	1071.25
513.778	1067.25
513.994	1126.25
514.21	1090.25
514.426	1130.25
514.642	1112.25
514.858	1085.25
515.074	1119.25
515.29	1163.25
515.506	1151.25
515.721	1171.25
515.937	1187.25
516.153	1188.25
516.369	1227.25
516.585	1298.25
516.801	1288.25
517.016	1343.25
517.232	1439.25
517.448	1500.25
517.664	1553.25
517.879	1524.25
518.095	1581.25
518.311	1560.25
518.527	1439.25
518.742	1385.25
518.958	1344.25
519.173	1310.25
519.389	1253.25
519.605	1234.25
519.82	1175.25
520.036	1207.25
520.251	1130.25
520.467	1122.25
520.682	1102.25
520.898	1121.25
521.113	1101.25
521.329	1082.25
521.544	1022.25
521.76	1054.25
521.975	1066.25
522.19	1061.25
522.406	1057.25
522.621	1044.25
522.836	975.25
523.052	1004.25
523.267	1017.25
523.482	1039.25
523.698	1008.25
523.913	1008.25
524.128	998.25
524.343	1021.25
524.559	1011.25
524.774	1016.25
524.989	983.25
525.204	993.25
525.419	973.25
525.634	981.25
525.849	1008.25
526.064	983.25
526.28	995.25
526.495	978.25
526.71	997.25
526.925	968.25
527.14	979.25
527.355	953.25
527.57	994.25
527.785	973.25
527.999	1007.25
528.214	967.25
528.429	970.25
528.644	1003.25
528.859	986.25
529.074	982.25
529.289	1000.25
529.503	985.25
529.718	1001.25
529.933	984.25
530.148	985.25
530.363	970.25
530.577	971.25
530.792	951.25
531.007	962.25
531.221	1000.25
531.436	980.25
531.651	967.25
531.865	993.25
532.08	994.25
532.295	971.25
532.509	993.25
532.724	993.25
532.938	958.25
533.153	964.25
533.367	975.25
533.582	991.25
533.796	1007.25
534.011	992.25
534.225	971.25
534.44	978.25
534.654	963.25
534.868	959.25
535.083	951.25
535.297	970.25
535.511	941.25
535.726	947.25
535.94	969.25
536.154	955.25
536.369	944.25
536.583	915.25
536.797	936.25
537.011	898.25
537.225	901.25
537.44	911.25
537.654	910.25
537.868	904.25
538.082	920.25
538.296	878.25
538.51	922.25
538.724	887.25
538.938	891.25
539.153	917.25
539.367	896.25
539.581	871.25
539.795	874.25
540.009	862.25
540.222	870.25
540.436	861.25
540.65	851.25
540.864	879.25
541.078	887.25
541.292	901.25
541.506	927.25
541.72	862.25
541.934	907.25
542.147	875.25
542.361	885.25
542.575	887.25
542.789	892.25
543.002	837.25
543.216	879.25
543.43	870.25
543.644	872.25
543.857	861.25
544.071	855.25
544.285	910.25
544.498	903.25
544.712	892.25
544.925	900.25
545.139	900.25
545.352	905.25
545.566	913.25
545.779	921.25
545.993	923.25
546.206	930.25
546.42	922.25
546.633	896.25
546.847	899.25
547.06	873.25
547.274	923.25
547.487	927.25
547.7	880.25
547.914	900.25
548.127	910.25
548.34	927.25
548.554	911.25
548.767	928.25
548.98	948.25
549.193	925.25
549.407	928.25
549.62	940.25
549.833	908.25
550.046	933.25
550.259	926.25
550.473	894.25
550.686	918.25
550.899	853.25
551.112	875.25
551.325	897.25
551.538	863.25
551.751	898.25
551.964	879.25
552.177	903.25
552.39	878.25
552.603	932.25
552.816	953.25
553.029	961.25
553.242	980.25
553.455	1023.25
553.667	1032.25
553.88	989.25
554.093	982.25
554.306	937.25
554.519	917.25
554.732	896.25
554.944	895.25
555.157	883.25
555.37	875.25
555.583	854.25
555.795	839.25
556.008	816.25
556.221	797.25
556.433	782.25
556.646	804.25
556.859	781.25
557.071	764.25
557.284	782.25
557.496	754.25
557.709	782.25
557.921	761.25
558.134	769.25
558.346	756.25
558.559	759.25
558.771	744.25
558.984	773.25
559.196	740.25
559.409	751.25
559.621	747.25
559.833	731.25
560.046	749.25
560.258	742.25
560.47	754.25
560.683	742.25
560.895	747.25
561.107	702.25
561.32	719.25
561.532	749.25
561.744	748.25
561.956	725.25
562.168	749.25
562.381	747.25
562.593	729.25
562.805	738.25
563.017	730.25
563.229	749.25
563.441	732.25
563.653	756.25
563.865	744.25
564.077	767.25
564.289	767.25
564.501	779.25
564.713	790.25
564.925	811.25
565.137	839.25
565.349	832.25
565.561	866.25
565.773	878.25
565.985	921.25
566.197	984.25
566.408	1043.25
566.62	1147.25
566.832	1246.25
567.044	1270.25
567.255	1259.25
567.467	1273.25
567.679	1379.25
567.891	1473.25
568.102	1543.25
568.314	1464.25
568.526	1287.25
568.737	1173.25
568.949	1055.25
569.161	916.25
569.372	891.25
569.584	835.25
569.795	813.25
570.007	778.25
570.218	768.25
570.43	778.25
570.641	736.25
570.853	782.25
571.064	728.25
571.276	781.25
571.487	751.25
571.698	725.25
571.91	675.25
572.121	658.25
572.333	642.25
572.544	672.25
572.755	633.25
572.966	618.25
573.178	614.25
573.389	627.25
573.6	635.25
573.811	626.25
574.023	627.25
574.234	616.25
574.445	586.25
574.656	612.25
574.867	612.25
575.078	614.25
575.289	604.25
575.501	605.25
575.712	571.25
575.923	560.25
576.134	569.25
576.345	568.25
576.556	574.25
576.767	567.25
576.978	565.25
577.188	583.25
577.399	572.25
577.61	538.25
577.821	564.25
578.032	558.25
578.243	542.25
578.454	538.25
578.665	518.25
578.875	519.25
579.086	524.25
579.297	528.25
579.508	540.25
579.718	520.25
579.929	511.25
580.14	522.25
580.35	534.25
580.561	529.25
580.772	519.25
580.982	525.25
581.193	497.25
581.403	524.25
581.614	509.25
581.825	500.25
582.035	498.25
582.246	493.25
582.456	509.25
582.667	517.25
582.877	485.25
583.087	509.25
583.298	504.25
583.508	494.25
583.719	495.25
583.929	505.25
584.139	499.25
584.35	487.25
584.56	505.25
584.77	484.25
584.981	496.25
585.191	474.25
585.401	478.25
585.611	501.25
585.821	465.25
586.032	497.25
586.242	503.25
586.452	461.25
586.662	443.25
586.872	470.25
587.082	480.25
587.292	471.25
587.502	451.25
587.713	474.25
587.923	489.25
588.133	471.25
588.343	495.25
588.553	477.25
588.762	497.25
588.972	476.25
589.182	494.25
589.392	481.25
589.602	485.25
589.812	490.25
590.022	480.25
590.232	473.25
590.441	488.25
590.651	480.25
590.861	483.25
591.071	498.25
591.281	494.25
591.49	498.25
591.7	515.25
591.91	524.25
592.119	532.25
592.329	546.25
592.539	548.25
592.748	563.25
592.958	592.25
593.167	599.25
593.377	609.25
593.587	638.25
593.796	614.25
594.006	641.25
594.215	648.25
594.424	651.25
594.634	610.25
594.843	609.25
595.053	546.25
595.262	547.25
595.472	514.25
595.681	481.25
595.89	490.25
596.1	477.25
596.309	474.25
596.518	466.25
596.727	458.25
596.937	481.25
597.146	460.25
597.355	457.25
597.564	451.25
597.774	423.25
597.983	433.25
598.192	427.25
598.401	420.25
598.61	424.25
598.819	414.25
599.028	408.25
599.237	425.25
599.446	414.25
599.655	394.25
599.864	392.25
600.073	421.25
600.282	389.25
600.491	391.25
600.7	403.25
600.909	387.25
601.118	393.25
601.327	389.25
601.536	393.25
601.745	402.25
601.953	403.25
602.162	390.25
602.371	395.25
602.58	369.25
602.789	372.25
602.997	379.25
603.206	394.25
603.415	380.25
603.623	386.25
603.832	372.25
604.041	373.25
604.249	358.25
604.458	369.25
604.666	358.25
604.875	370.25
605.084	366.25
605.292	366.25
605.501	372.25
605.709	360.25
605.918	381.25
606.126	378.25
606.334	381.25
606.543	367.25
606.751	372.25
606.96	373.25
607.168	338.25
607.376	351.25
607.585	370.25
607.793	346.25
608.001	374.25
608.21	368.25
608.418	357.25
608.626	357.25
608.834	375.25
609.043	372.25
609.251	363.25
609.459	349.25
609.667	373.25
609.875	343.25
610.083	365.25
610.291	345.25
610.499	337.25
610.707	349.25
610.916	343.25
611.124	345.25
611.332	348.25
611.54	355.25
611.748	334.25
611.955	344.25
612.163	340.25
612.371	347.25
612.579	359.25
612.787	337.25
612.995	341.25
613.203	354.25
613.411	340.25
613.618	336.25
613.826	336.25
614.034	348.25
614.242	345.25
614.449	340.25
614.657	333.25
614.865	339.25
615.072	328.25
615.28	335.25
615.488	336.25
615.695	353.25
615.903	347.25
616.111	341.25
616.318	362.25
616.526	337.25
616.733	340.25
616.941	355.25
617.148	335.25
617.356	330.25
617.563	350.25
617.771	334.25
617.978	338.25
618.185	336.25
618.393	354.25
618.6	346.25
618.807	343.25
619.015	329.25
619.222	336.25
619.429	328.25
619.637	336.25
619.844	329.25
620.051	322.25
620.258	334.25
620.466	305.25
620.673	307.25
620.88	318.25
621.087	309.25
621.294	324.25
621.501	326.25
621.708	315.25
621.915	320.25
622.122	324.25
622.329	324.25
622.536	312.25
622.743	302.25
622.95	307.25
623.157	305.25
623.364	307.25
623.571	311.25
623.778	292.25
623.985	304.25
624.192	295.25
624.399	294.25
624.606	288.25
624.812	296.25
625.019	298.25
625.226	292.25
625.433	296.25
625.639	291.25
625.846	297.25
626.053	287.25
626.259	291.25
626.466	268.25
626.673	298.25
626.879	281.25
627.086	285.25
627.293	282.25
627.499	280.25
627.706	264.25
627.912	277.25
628.119	271.25
628.325	250.25
628.532	287.25
628.738	278.25
628.945	278.25
629.151	273.25
629.357	257.25
629.564	257.25
629.77	279.25
629.976	270.25
630.183	280.25
630.389	263.25
630.595	265.25
630.802	255.25
631.008	247.25
631.214	244.25
631.42	275.25
631.627	274.25
631.833	251.25
632.039	264.25
632.245	255.25
632.451	257.25
632.657	271.25
632.863	251.25
633.069	262.25
633.275	247.25
633.481	237.25
633.688	245.25
633.893	249.25
634.099	239.25
634.305	253.25
634.511	243.25
634.717	245.25
634.923	253.25
635.129	237.25
635.335	256.25
635.541	241.25
635.747	261.25
635.952	232.25
636.158	239.25
636.364	249.25
636.57	241.25
636.775	243.25
636.981	248.25
637.187	237.25
637.392	245.25
637.598	242.25
637.804	240.25
638.009	240.25
638.215	251.25
638.421	231.25
638.626	229.25
638.832	221.25
639.037	225.25
639.243	213.25
639.448	231.25
639.654	235.25
639.859	225.25
640.065	233.25
640.27	232.25
640.475	220.25
640.681	210.25
640.886	219.25
641.091	227.25
641.297	210.25
641.502	209.25
641.707	222.25
641.913	208.25
642.118	227.25
642.323	210.25
642.528	217.25
642.733	216.25
642.939	211.25
643.144	211.25
643.349	206.25
643.554	209.25
643.759	230.25
643.964	215.25
644.169	226.25
644.374	234.25
644.579	219.25
644.784	207.25
644.989	224.25
645.194	207.25
645.399	219.25
645.604	202.25
645.809	208.25
646.014	210.25
646.219	212.25
646.423	202.25
646.628	211.25
646.833	221.25
647.038	210.25
647.243	236.25
647.447	215.25
647.652	221.25
647.857	214.25
648.062	218.25
648.266	224.25
648.471	217.25
648.676	210.25
648.88	213.25
649.085	232.25
649.289	224.25
649.494	229.25
649.698	211.25
649.903	209.25
650.107	201.25
650.312	205.25
650.516	203.25
650.721	199.25
650.925	188.25
651.13	198.25
651.334	193.25
651.539	189.25
651.743	187.25
651.947	185.25
652.152	165.25
652.356	179.25
652.56	180.25
652.764	173.25
652.969	164.25
653.173	157.25
653.377	162.25
653.581	150.25
653.785	171.25
653.99	151.25
654.194	181.25
654.398	156.25
654.602	164.25
654.806	149.25
655.01	166.25
655.214	139.25
655.418	148.25
655.622	151.25
655.826	152.25
656.03	159.25
656.234	130.25
656.438	150.25
656.642	143.25
656.846	123.25
657.049	151.25
657.253	140.25
657.457	132.25
657.661	126.25
657.865	120.25
658.068	134.25
658.272	113.25
658.476	106.25
658.68	135.25
658.883	98.25
659.087	104.25
659.291	120.25
659.494	109.25
659.698	118.25
659.901	100.25
660.105	98.25
660.309	107.25
660.512	98.25
660.716	94.25
660.919	88.25
661.123	96.25
661.326	89.25
661.53	84.25
661.733	99.25
661.936	98.25
662.14	83.25
662.343	80.25
662.546	77.25
662.75	98.25
662.953	86.25
663.156	82.25
663.36	71.25
663.563	78.25
663.766	65.25
663.969	90.25
664.173	90.25
664.376	82.25
664.579	79.25
664.782	75.25
664.985	74.25
665.188	78.25
665.391	77.25
665.594	67.25
665.797	73.25
666	76.25
666.203	72.25
666.406	79.25
666.609	78.25
666.812	73.25
667.015	79.25
667.218	72.25
667.421	86.25
667.624	93.25
667.827	83.25
668.03	78.25
668.232	76.25
668.435	88.25
668.638	75.25
668.841	85.25
669.043	90.25
669.246	75.25
669.449	75.25
669.651	87.25
669.854	72.25
670.057	85.25
670.259	74.25
670.462	71.25
670.665	75.25
670.867	77.25
671.07	83.25
671.272	79.25
671.475	89.25
671.677	70.25
671.88	89.25
672.082	78.25
672.284	87.25
672.487	83.25
672.689	78.25
672.892	74.25
