Data from Ni(NO3)2@0.25M.TitratingCurve.Agarose3%dH2O.NegLispCup.LampEnergy10.LIBS07252019_HRD10591_18-02-47-565.txt Node
Date: Thu Jul 25 18:02:47 EDT 2019
User: cochatt
Spectrometer: HR+D1059
Trigger mode: 1
Integration Time (sec): 1.000000E-1
Scans to average: 1
Electric dark correction enabled: true
Nonlinearity correction enabled: false
Boxcar width: 0
XAxis mode: Wavelengths
Number of Pixels in Spectrum: 2048
>>>>>Begin Spectral Data<<<<<
223.165	-12.38
223.4	-12.38
223.635	-12.38
223.869	-14.38
224.104	-27.38
224.338	-13.38
224.573	-4.38
224.808	-28.38
225.042	-16.38
225.277	3.62
225.511	-1.38
225.746	-7.38
225.98	3.62
226.215	6.62
226.449	9.62
226.683	24.62
226.918	24.62
227.152	52.62
227.387	32.62
227.621	47.62
227.856	43.62
228.09	42.62
228.324	55.62
228.559	65.62
228.793	70.62
229.027	97.62
229.262	102.62
229.496	98.62
229.73	113.62
229.964	119.62
230.199	127.62
230.433	130.62
230.667	119.62
230.901	123.62
231.136	107.62
231.37	117.62
231.604	121.62
231.838	120.62
232.072	145.62
232.306	131.62
232.541	133.62
232.775	123.62
233.009	121.62
233.243	119.62
233.477	138.62
233.711	145.62
233.945	129.62
234.179	121.62
234.413	134.62
234.647	127.62
234.881	143.62
235.115	136.62
235.349	136.62
235.583	125.62
235.817	123.62
236.051	124.62
236.285	109.62
236.519	129.62
236.753	125.62
236.987	128.62
237.221	131.62
237.455	132.62
237.689	123.62
237.922	127.62
238.156	136.62
238.39	136.62
238.624	120.62
238.858	133.62
239.091	138.62
239.325	138.62
239.559	147.62
239.793	155.62
240.027	167.62
240.26	139.62
240.494	131.62
240.728	131.62
240.961	140.62
241.195	142.62
241.429	139.62
241.662	147.62
241.896	167.62
242.13	170.62
242.363	156.62
242.597	153.62
242.83	147.62
243.064	149.62
243.298	170.62
243.531	142.62
243.765	151.62
243.998	177.62
244.232	163.62
244.465	169.62
244.699	152.62
244.932	148.62
245.166	148.62
245.399	166.62
245.633	181.62
245.866	167.62
246.099	178.62
246.333	159.62
246.566	175.62
246.8	169.62
247.033	183.62
247.266	175.62
247.5	186.62
247.733	177.62
247.966	181.62
248.2	186.62
248.433	184.62
248.666	187.62
248.899	191.62
249.133	189.62
249.366	211.62
249.599	208.62
249.832	196.62
250.066	210.62
250.299	209.62
250.532	210.62
250.765	215.62
250.998	241.62
251.231	231.62
251.465	255.62
251.698	225.62
251.931	230.62
252.164	234.62
252.397	226.62
252.63	213.62
252.863	244.62
253.096	241.62
253.329	237.62
253.562	253.62
253.795	264.62
254.028	243.62
254.261	248.62
254.494	249.62
254.727	269.62
254.96	265.62
255.193	294.62
255.426	287.62
255.659	280.62
255.892	290.62
256.124	287.62
256.357	278.62
256.59	301.62
256.823	285.62
257.056	301.62
257.289	298.62
257.521	296.62
257.754	304.62
257.987	309.62
258.22	309.62
258.452	305.62
258.685	291.62
258.918	315.62
259.151	318.62
259.383	314.62
259.616	332.62
259.849	321.62
260.081	330.62
260.314	334.62
260.547	340.62
260.779	327.62
261.012	319.62
261.244	328.62
261.477	343.62
261.71	333.62
261.942	345.62
262.175	345.62
262.407	356.62
262.64	349.62
262.872	346.62
263.105	345.62
263.337	359.62
263.57	352.62
263.802	364.62
264.035	353.62
264.267	343.62
264.499	357.62
264.732	376.62
264.964	347.62
265.197	363.62
265.429	369.62
265.661	369.62
265.894	363.62
266.126	373.62
266.358	377.62
266.591	378.62
266.823	372.62
267.055	385.62
267.287	371.62
267.52	355.62
267.752	374.62
267.984	385.62
268.216	381.62
268.448	377.62
268.681	402.62
268.913	412.62
269.145	385.62
269.377	389.62
269.609	400.62
269.841	397.62
270.073	395.62
270.306	381.62
270.538	372.62
270.77	410.62
271.002	391.62
271.234	404.62
271.466	385.62
271.698	382.62
271.93	387.62
272.162	404.62
272.394	393.62
272.626	394.62
272.858	405.62
273.09	391.62
273.322	394.62
273.553	420.62
273.785	405.62
274.017	389.62
274.249	409.62
274.481	417.62
274.713	394.62
274.945	421.62
275.176	417.62
275.408	417.62
275.64	422.62
275.872	440.62
276.104	424.62
276.335	424.62
276.567	418.62
276.799	419.62
277.031	438.62
277.262	425.62
277.494	421.62
277.726	432.62
277.957	431.62
278.189	410.62
278.421	418.62
278.652	436.62
278.884	427.62
279.115	424.62
279.347	417.62
279.579	433.62
279.81	427.62
280.042	438.62
280.273	425.62
280.505	421.62
280.736	441.62
280.968	427.62
281.199	437.62
281.431	439.62
281.662	430.62
281.894	450.62
282.125	435.62
282.356	454.62
282.588	451.62
282.819	431.62
283.051	441.62
283.282	426.62
283.513	443.62
283.745	422.62
283.976	438.62
284.207	428.62
284.439	439.62
284.67	437.62
284.901	443.62
285.132	425.62
285.364	439.62
285.595	463.62
285.826	452.62
286.057	442.62
286.288	452.62
286.52	449.62
286.751	440.62
286.982	446.62
287.213	428.62
287.444	459.62
287.675	437.62
287.906	465.62
288.138	457.62
288.369	459.62
288.6	450.62
288.831	474.62
289.062	448.62
289.293	464.62
289.524	451.62
289.755	444.62
289.986	450.62
290.217	459.62
290.448	490.62
290.679	439.62
290.91	446.62
291.141	459.62
291.371	453.62
291.602	461.62
291.833	449.62
292.064	440.62
292.295	461.62
292.526	452.62
292.757	445.62
292.987	461.62
293.218	446.62
293.449	463.62
293.68	439.62
293.91	448.62
294.141	433.62
294.372	436.62
294.603	452.62
294.833	461.62
295.064	453.62
295.295	450.62
295.525	439.62
295.756	471.62
295.987	453.62
296.217	472.62
296.448	474.62
296.679	449.62
296.909	470.62
297.14	468.62
297.37	486.62
297.601	459.62
297.831	467.62
298.062	480.62
298.292	493.62
298.523	493.62
298.753	470.62
298.984	492.62
299.214	469.62
299.445	470.62
299.675	476.62
299.905	489.62
300.136	487.62
300.366	490.62
300.597	498.62
300.827	476.62
301.057	482.62
301.288	505.62
301.518	493.62
301.748	484.62
301.979	487.62
302.209	495.62
302.439	513.62
302.669	500.62
302.9	516.62
303.13	507.62
303.36	522.62
303.59	501.62
303.82	514.62
304.051	535.62
304.281	531.62
304.511	501.62
304.741	509.62
304.971	507.62
305.201	524.62
305.431	515.62
305.661	523.62
305.891	530.62
306.121	506.62
306.352	491.62
306.582	516.62
306.812	543.62
307.042	531.62
307.272	528.62
307.502	533.62
307.731	536.62
307.961	520.62
308.191	530.62
308.421	531.62
308.651	522.62
308.881	534.62
309.111	539.62
309.341	529.62
309.571	550.62
309.8	525.62
310.03	565.62
310.26	565.62
310.49	577.62
310.72	568.62
310.949	586.62
311.179	551.62
311.409	571.62
311.639	565.62
311.868	587.62
312.098	575.62
312.328	571.62
312.557	598.62
312.787	596.62
313.017	595.62
313.246	590.62
313.476	597.62
313.706	592.62
313.935	602.62
314.165	598.62
314.394	595.62
314.624	612.62
314.853	618.62
315.083	617.62
315.312	602.62
315.542	610.62
315.771	614.62
316.001	623.62
316.23	637.62
316.46	636.62
316.689	632.62
316.919	635.62
317.148	634.62
317.377	679.62
317.607	638.62
317.836	678.62
318.065	644.62
318.295	647.62
318.524	667.62
318.753	693.62
318.983	672.62
319.212	680.62
319.441	680.62
319.67	688.62
319.9	703.62
320.129	701.62
320.358	699.62
320.587	705.62
320.816	707.62
321.046	717.62
321.275	716.62
321.504	726.62
321.733	726.62
321.962	746.62
322.191	731.62
322.42	757.62
322.649	745.62
322.878	745.62
323.108	751.62
323.337	771.62
323.566	762.62
323.795	773.62
324.024	760.62
324.253	791.62
324.482	763.62
324.71	792.62
324.939	781.62
325.168	799.62
325.397	797.62
325.626	807.62
325.855	827.62
326.084	836.62
326.313	825.62
326.542	809.62
326.77	841.62
326.999	829.62
327.228	823.62
327.457	833.62
327.686	858.62
327.914	860.62
328.143	845.62
328.372	845.62
328.6	859.62
328.829	865.62
329.058	876.62
329.287	869.62
329.515	903.62
329.744	869.62
329.972	913.62
330.201	916.62
330.43	890.62
330.658	885.62
330.887	887.62
331.115	909.62
331.344	891.62
331.572	914.62
331.801	891.62
332.03	935.62
332.258	915.62
332.486	949.62
332.715	933.62
332.943	924.62
333.172	952.62
333.4	970.62
333.629	964.62
333.857	973.62
334.085	967.62
334.314	996.62
334.542	1013.62
334.771	979.62
334.999	1002.62
335.227	979.62
335.455	993.62
335.684	1027.62
335.912	975.62
336.14	989.62
336.369	1007.62
336.597	1011.62
336.825	1013.62
337.053	1005.62
337.281	1038.62
337.51	1027.62
337.738	1030.62
337.966	1024.62
338.194	1010.62
338.422	982.62
338.65	962.62
338.878	997.62
339.106	989.62
339.334	994.62
339.562	1001.62
339.79	966.62
340.018	980.62
340.246	988.62
340.474	978.62
340.702	989.62
340.93	992.62
341.158	978.62
341.386	1004.62
341.614	992.62
341.842	964.62
342.07	963.62
342.298	1004.62
342.526	991.62
342.754	996.62
342.981	992.62
343.209	991.62
343.437	978.62
343.665	980.62
343.893	993.62
344.12	1013.62
344.348	1012.62
344.576	991.62
344.804	995.62
345.031	961.62
345.259	1008.62
345.487	1029.62
345.714	1001.62
345.942	996.62
346.17	1023.62
346.397	986.62
346.625	972.62
346.853	971.62
347.08	971.62
347.308	964.62
347.535	948.62
347.763	975.62
347.99	968.62
348.218	965.62
348.445	964.62
348.673	952.62
348.9	956.62
349.128	947.62
349.355	972.62
349.583	955.62
349.81	950.62
350.037	954.62
350.265	956.62
350.492	941.62
350.72	895.62
350.947	938.62
351.174	954.62
351.402	956.62
351.629	970.62
351.856	957.62
352.083	935.62
352.311	961.62
352.538	967.62
352.765	952.62
352.992	917.62
353.22	935.62
353.447	935.62
353.674	924.62
353.901	935.62
354.128	943.62
354.355	946.62
354.583	937.62
354.81	939.62
355.037	932.62
355.264	938.62
355.491	946.62
355.718	935.62
355.945	922.62
356.172	922.62
356.399	934.62
356.626	969.62
356.853	944.62
357.08	918.62
357.307	958.62
357.534	927.62
357.761	930.62
357.988	949.62
358.215	969.62
358.441	907.62
358.668	932.62
358.895	960.62
359.122	937.62
359.349	940.62
359.576	941.62
359.802	926.62
360.029	947.62
360.256	947.62
360.483	944.62
360.709	951.62
360.936	934.62
361.163	954.62
361.39	921.62
361.616	929.62
361.843	956.62
362.07	977.62
362.296	930.62
362.523	921.62
362.749	932.62
362.976	936.62
363.203	933.62
363.429	899.62
363.656	955.62
363.882	903.62
364.109	924.62
364.335	936.62
364.562	924.62
364.788	916.62
365.015	935.62
365.241	941.62
365.468	935.62
365.694	918.62
365.92	931.62
366.147	907.62
366.373	937.62
366.599	950.62
366.826	931.62
367.052	918.62
367.278	941.62
367.505	946.62
367.731	925.62
367.957	884.62
368.184	957.62
368.41	922.62
368.636	955.62
368.862	957.62
369.089	948.62
369.315	953.62
369.541	923.62
369.767	945.62
369.993	951.62
370.219	952.62
370.445	930.62
370.672	951.62
370.898	947.62
371.124	938.62
371.35	905.62
371.576	941.62
371.802	943.62
372.028	917.62
372.254	921.62
372.48	940.62
372.706	941.62
372.932	920.62
373.158	966.62
373.384	977.62
373.61	891.62
373.835	932.62
374.061	927.62
374.287	934.62
374.513	917.62
374.739	920.62
374.965	940.62
375.191	932.62
375.416	928.62
375.642	915.62
375.868	925.62
376.094	928.62
376.319	908.62
376.545	925.62
376.771	916.62
376.997	893.62
377.222	922.62
377.448	892.62
377.674	916.62
377.899	896.62
378.125	876.62
378.35	890.62
378.576	895.62
378.802	891.62
379.027	884.62
379.253	877.62
379.478	889.62
379.704	872.62
379.929	887.62
380.155	873.62
380.38	889.62
380.606	879.62
380.831	855.62
381.057	888.62
381.282	895.62
381.507	881.62
381.733	891.62
381.958	887.62
382.184	888.62
382.409	901.62
382.634	927.62
382.86	925.62
383.085	887.62
383.31	879.62
383.535	911.62
383.761	906.62
383.986	921.62
384.211	931.62
384.436	951.62
384.662	927.62
384.887	925.62
385.112	934.62
385.337	931.62
385.562	953.62
385.787	934.62
386.013	951.62
386.238	951.62
386.463	949.62
386.688	924.62
386.913	933.62
387.138	896.62
387.363	967.62
387.588	953.62
387.813	971.62
388.038	956.62
388.263	929.62
388.488	938.62
388.713	915.62
388.938	956.62
389.163	938.62
389.387	961.62
389.612	942.62
389.837	963.62
390.062	931.62
390.287	972.62
390.512	955.62
390.736	933.62
390.961	966.62
391.186	929.62
391.411	953.62
391.636	954.62
391.86	943.62
392.085	945.62
392.31	975.62
392.534	953.62
392.759	984.62
392.984	957.62
393.208	956.62
393.433	958.62
393.658	939.62
393.882	964.62
394.107	950.62
394.331	939.62
394.556	957.62
394.78	976.62
395.005	953.62
395.229	953.62
395.454	989.62
395.678	979.62
395.903	977.62
396.127	1004.62
396.352	989.62
396.576	966.62
396.801	963.62
397.025	1005.62
397.249	1025.62
397.474	995.62
397.698	997.62
397.922	1032.62
398.147	1017.62
398.371	1004.62
398.595	1038.62
398.82	1038.62
399.044	1084.62
399.268	1078.62
399.492	1103.62
399.717	1115.62
399.941	1156.62
400.165	1137.62
400.389	1137.62
400.613	1109.62
400.837	1072.62
401.062	1075.62
401.286	1067.62
401.51	1041.62
401.734	1045.62
401.958	1080.62
402.182	1053.62
402.406	1057.62
402.63	1093.62
402.854	1068.62
403.078	1045.62
403.302	1085.62
403.526	1106.62
403.75	1072.62
403.974	1120.62
404.198	1062.62
404.422	1075.62
404.645	1044.62
404.869	1060.62
405.093	1084.62
405.317	1089.62
405.541	1098.62
405.765	1096.62
405.988	1084.62
406.212	1077.62
406.436	1084.62
406.66	1142.62
406.883	1118.62
407.107	1135.62
407.331	1143.62
407.555	1137.62
407.778	1179.62
408.002	1123.62
408.226	1135.62
408.449	1155.62
408.673	1172.62
408.896	1124.62
409.12	1135.62
409.344	1134.62
409.567	1115.62
409.791	1126.62
410.014	1152.62
410.238	1119.62
410.461	1151.62
410.685	1122.62
410.908	1103.62
411.132	1133.62
411.355	1089.62
411.578	1099.62
411.802	1104.62
412.025	1093.62
412.249	1127.62
412.472	1113.62
412.695	1105.62
412.919	1108.62
413.142	1091.62
413.365	1107.62
413.589	1102.62
413.812	1102.62
414.035	1096.62
414.258	1076.62
414.482	1069.62
414.705	1107.62
414.928	1071.62
415.151	1068.62
415.374	1068.62
415.597	1120.62
415.821	1074.62
416.044	1081.62
416.267	1071.62
416.49	1073.62
416.713	1059.62
416.936	1071.62
417.159	1097.62
417.382	1099.62
417.605	1046.62
417.828	1071.62
418.051	1090.62
418.274	1092.62
418.497	1068.62
418.72	1085.62
418.943	1091.62
419.166	1125.62
419.389	1202.62
419.611	1171.62
419.834	1135.62
420.057	1116.62
420.28	1111.62
420.503	1063.62
420.726	1092.62
420.948	1065.62
421.171	1054.62
421.394	1061.62
421.617	1058.62
421.839	1090.62
422.062	1083.62
422.285	1052.62
422.507	1096.62
422.73	1082.62
422.953	1073.62
423.175	1089.62
423.398	1076.62
423.621	1083.62
423.843	1099.62
424.066	1109.62
424.288	1090.62
424.511	1088.62
424.733	1093.62
424.956	1072.62
425.178	1102.62
425.401	1075.62
425.623	1114.62
425.846	1120.62
426.068	1108.62
426.291	1089.62
426.513	1086.62
426.735	1087.62
426.958	1111.62
427.18	1075.62
427.402	1096.62
427.625	1105.62
427.847	1101.62
428.069	1078.62
428.292	1086.62
428.514	1097.62
428.736	1084.62
428.958	1127.62
429.181	1105.62
429.403	1093.62
429.625	1108.62
429.847	1076.62
430.069	1088.62
430.292	1090.62
430.514	1103.62
430.736	1078.62
430.958	1091.62
431.18	1077.62
431.402	1118.62
431.624	1108.62
431.846	1093.62
432.068	1078.62
432.29	1103.62
432.512	1075.62
432.734	1124.62
432.956	1110.62
433.178	1120.62
433.4	1114.62
433.622	1139.62
433.844	1141.62
434.066	1143.62
434.287	1133.62
434.509	1094.62
434.731	1153.62
434.953	1139.62
435.175	1139.62
435.397	1148.62
435.618	1125.62
435.84	1136.62
436.062	1101.62
436.284	1100.62
436.505	1092.62
436.727	1101.62
436.949	1101.62
437.17	1108.62
437.392	1078.62
437.614	1100.62
437.835	1073.62
438.057	1079.62
438.278	1066.62
438.5	1063.62
438.721	1108.62
438.943	1101.62
439.165	1104.62
439.386	1097.62
439.608	1112.62
439.829	1091.62
440.05	1090.62
440.272	1105.62
440.493	1104.62
440.715	1107.62
440.936	1091.62
441.158	1110.62
441.379	1121.62
441.6	1155.62
441.822	1137.62
442.043	1148.62
442.264	1137.62
442.486	1161.62
442.707	1151.62
442.928	1111.62
443.149	1145.62
443.371	1173.62
443.592	1187.62
443.813	1148.62
444.034	1177.62
444.255	1162.62
444.476	1153.62
444.698	1163.62
444.919	1202.62
445.14	1310.62
445.361	1203.62
445.582	1174.62
445.803	1115.62
446.024	1112.62
446.245	1090.62
446.466	1080.62
446.687	1089.62
446.908	1088.62
447.129	1085.62
447.35	1096.62
447.571	1114.62
447.792	1075.62
448.013	1061.62
448.234	1052.62
448.455	1043.62
448.675	1047.62
448.896	1063.62
449.117	1043.62
449.338	1075.62
449.559	1026.62
449.779	1033.62
450	1031.62
450.221	1042.62
450.442	1012.62
450.662	1045.62
450.883	1043.62
451.104	1029.62
451.324	1045.62
451.545	1051.62
451.766	1032.62
451.986	1031.62
452.207	1000.62
452.428	1023.62
452.648	1031.62
452.869	1021.62
453.089	1004.62
453.31	1018.62
453.53	988.62
453.751	1010.62
453.971	1004.62
454.192	972.62
454.412	1008.62
454.633	996.62
454.853	986.62
455.073	988.62
455.294	1002.62
455.514	1007.62
455.734	999.62
455.955	1008.62
456.175	1006.62
456.395	978.62
456.616	993.62
456.836	975.62
457.056	993.62
457.276	989.62
457.497	1008.62
457.717	975.62
457.937	1003.62
458.157	1020.62
458.377	996.62
458.598	1007.62
458.818	1027.62
459.038	1058.62
459.258	1042.62
459.478	1086.62
459.698	1093.62
459.918	1112.62
460.138	1095.62
460.358	1101.62
460.578	1115.62
460.798	1159.62
461.018	1137.62
461.238	1124.62
461.458	1112.62
461.678	1134.62
461.898	1138.62
462.118	1126.62
462.338	1183.62
462.558	1146.62
462.777	1219.62
462.997	1232.62
463.217	1220.62
463.437	1260.62
463.657	1221.62
463.876	1219.62
464.096	1209.62
464.316	1208.62
464.536	1180.62
464.755	1183.62
464.975	1171.62
465.195	1132.62
465.414	1130.62
465.634	1110.62
465.854	1083.62
466.073	1084.62
466.293	1087.62
466.512	1074.62
466.732	1117.62
466.951	1094.62
467.171	1093.62
467.391	1100.62
467.61	1069.62
467.829	1088.62
468.049	1081.62
468.268	1106.62
468.488	1067.62
468.707	1069.62
468.927	1085.62
469.146	1080.62
469.365	1099.62
469.585	1073.62
469.804	1091.62
470.023	1088.62
470.243	1073.62
470.462	1090.62
470.681	1101.62
470.901	1097.62
471.12	1090.62
471.339	1097.62
471.558	1058.62
471.777	1121.62
471.997	1085.62
472.216	1072.62
472.435	1097.62
472.654	1081.62
472.873	1103.62
473.092	1100.62
473.311	1114.62
473.53	1084.62
473.749	1113.62
473.968	1110.62
474.187	1097.62
474.406	1089.62
474.625	1115.62
474.844	1135.62
475.063	1152.62
475.282	1119.62
475.501	1155.62
475.72	1109.62
475.939	1123.62
476.158	1147.62
476.377	1173.62
476.596	1151.62
476.814	1153.62
477.033	1125.62
477.252	1180.62
477.471	1203.62
477.69	1199.62
477.908	1218.62
478.127	1251.62
478.346	1240.62
478.564	1270.62
478.783	1249.62
479.002	1292.62
479.22	1321.62
479.439	1280.62
479.658	1316.62
479.876	1265.62
480.095	1297.62
480.313	1280.62
480.532	1326.62
480.751	1313.62
480.969	1291.62
481.188	1270.62
481.406	1267.62
481.624	1227.62
481.843	1297.62
482.061	1287.62
482.28	1292.62
482.498	1287.62
482.717	1305.62
482.935	1299.62
483.153	1276.62
483.372	1343.62
483.59	1312.62
483.808	1300.62
484.027	1305.62
484.245	1313.62
484.463	1336.62
484.681	1362.62
484.9	1308.62
485.118	1336.62
485.336	1315.62
485.554	1323.62
485.772	1319.62
485.99	1329.62
486.209	1316.62
486.427	1328.62
486.645	1323.62
486.863	1336.62
487.081	1349.62
487.299	1357.62
487.517	1357.62
487.735	1411.62
487.953	1416.62
488.171	1373.62
488.389	1381.62
488.607	1360.62
488.825	1363.62
489.043	1374.62
489.261	1338.62
489.479	1344.62
489.696	1342.62
489.914	1362.62
490.132	1365.62
490.35	1387.62
490.568	1401.62
490.786	1403.62
491.003	1372.62
491.221	1443.62
491.439	1403.62
491.657	1435.62
491.874	1408.62
492.092	1419.62
492.31	1459.62
492.527	1423.62
492.745	1424.62
492.963	1425.62
493.18	1432.62
493.398	1432.62
493.615	1424.62
493.833	1484.62
494.05	1471.62
494.268	1409.62
494.485	1455.62
494.703	1440.62
494.92	1457.62
495.138	1479.62
495.355	1442.62
495.573	1451.62
495.79	1468.62
496.008	1477.62
496.225	1451.62
496.442	1503.62
496.66	1516.62
496.877	1501.62
497.094	1511.62
497.312	1510.62
497.529	1511.62
497.746	1544.62
497.963	1569.62
498.181	1576.62
498.398	1616.62
498.615	1598.62
498.832	1644.62
499.049	1646.62
499.267	1653.62
499.484	1715.62
499.701	1785.62
499.918	1809.62
500.135	1908.62
500.352	1931.62
500.569	1945.62
500.786	1895.62
501.003	1910.62
501.22	1879.62
501.437	1869.62
501.654	1762.62
501.871	1711.62
502.088	1712.62
502.305	1662.62
502.522	1631.62
502.739	1655.62
502.956	1540.62
503.172	1578.62
503.389	1505.62
503.606	1560.62
503.823	1541.62
504.04	1465.62
504.256	1465.62
504.473	1475.62
504.69	1420.62
504.907	1449.62
505.123	1425.62
505.34	1395.62
505.557	1394.62
505.773	1369.62
505.99	1374.62
506.207	1333.62
506.423	1361.62
506.64	1324.62
506.856	1315.62
507.073	1303.62
507.289	1305.62
507.506	1276.62
507.722	1305.62
507.939	1287.62
508.155	1254.62
508.372	1307.62
508.588	1265.62
508.805	1255.62
509.021	1226.62
509.238	1250.62
509.454	1237.62
509.67	1243.62
509.887	1230.62
510.103	1233.62
510.319	1216.62
510.536	1207.62
510.752	1221.62
510.968	1212.62
511.184	1179.62
511.401	1142.62
511.617	1211.62
511.833	1187.62
512.049	1173.62
512.265	1186.62
512.481	1189.62
512.698	1203.62
512.914	1166.62
513.13	1195.62
513.346	1204.62
513.562	1189.62
513.778	1192.62
513.994	1215.62
514.21	1187.62
514.426	1201.62
514.642	1177.62
514.858	1185.62
515.074	1192.62
515.29	1192.62
515.506	1194.62
515.721	1195.62
515.937	1180.62
516.153	1177.62
516.369	1203.62
516.585	1215.62
516.801	1202.62
517.016	1268.62
517.232	1203.62
517.448	1215.62
517.664	1234.62
517.879	1226.62
518.095	1224.62
518.311	1219.62
518.527	1225.62
518.742	1221.62
518.958	1187.62
519.173	1219.62
519.389	1196.62
519.605	1192.62
519.82	1156.62
520.036	1176.62
520.251	1128.62
520.467	1124.62
520.682	1153.62
520.898	1151.62
521.113	1141.62
521.329	1127.62
521.544	1169.62
521.76	1112.62
521.975	1109.62
522.19	1120.62
522.406	1130.62
522.621	1096.62
522.836	1111.62
523.052	1102.62
523.267	1129.62
523.482	1140.62
523.698	1114.62
523.913	1107.62
524.128	1085.62
524.343	1087.62
524.559	1100.62
524.774	1100.62
524.989	1142.62
525.204	1086.62
525.419	1078.62
525.634	1091.62
525.849	1088.62
526.064	1087.62
526.28	1059.62
526.495	1077.62
526.71	1082.62
526.925	1059.62
527.14	1064.62
527.355	1051.62
527.57	1055.62
527.785	1076.62
527.999	1059.62
528.214	1079.62
528.429	1081.62
528.644	1049.62
528.859	1069.62
529.074	1103.62
529.289	1084.62
529.503	1101.62
529.718	1072.62
529.933	1038.62
530.148	1011.62
530.363	1069.62
530.577	1039.62
530.792	1043.62
531.007	1058.62
531.221	1043.62
531.436	1066.62
531.651	1020.62
531.865	1022.62
532.08	1029.62
532.295	1002.62
532.509	1016.62
532.724	1010.62
532.938	1038.62
533.153	1022.62
533.367	1029.62
533.582	1031.62
533.796	999.62
534.011	1022.62
534.225	1007.62
534.44	993.62
534.654	1004.62
534.868	1005.62
535.083	1013.62
535.297	993.62
535.511	998.62
535.726	991.62
535.94	1002.62
536.154	987.62
536.369	974.62
536.583	983.62
536.797	992.62
537.011	983.62
537.225	976.62
537.44	967.62
537.654	966.62
537.868	949.62
538.082	961.62
538.296	973.62
538.51	960.62
538.724	973.62
538.938	944.62
539.153	931.62
539.367	970.62
539.581	955.62
539.795	948.62
540.009	945.62
540.222	956.62
540.436	957.62
540.65	926.62
540.864	947.62
541.078	955.62
541.292	957.62
541.506	973.62
541.72	975.62
541.934	966.62
542.147	993.62
542.361	978.62
542.575	980.62
542.789	951.62
543.002	944.62
543.216	961.62
543.43	933.62
543.644	928.62
543.857	921.62
544.071	961.62
544.285	924.62
544.498	957.62
544.712	953.62
544.925	936.62
545.139	962.62
545.352	937.62
545.566	937.62
545.779	927.62
545.993	954.62
546.206	949.62
546.42	985.62
546.633	951.62
546.847	945.62
547.06	922.62
547.274	943.62
547.487	968.62
547.7	917.62
547.914	931.62
548.127	937.62
548.34	926.62
548.554	908.62
548.767	925.62
548.98	931.62
549.193	891.62
549.407	928.62
549.62	929.62
549.833	884.62
550.046	919.62
550.259	905.62
550.473	875.62
550.686	885.62
550.899	921.62
551.112	907.62
551.325	877.62
551.538	895.62
551.751	883.62
551.964	887.62
552.177	870.62
552.39	876.62
552.603	884.62
552.816	908.62
553.029	908.62
553.242	894.62
553.455	895.62
553.667	900.62
553.88	895.62
554.093	884.62
554.306	867.62
554.519	861.62
554.732	881.62
554.944	880.62
555.157	855.62
555.37	861.62
555.583	866.62
555.795	832.62
556.008	834.62
556.221	845.62
556.433	846.62
556.646	834.62
556.859	834.62
557.071	792.62
557.284	817.62
557.496	814.62
557.709	831.62
557.921	808.62
558.134	799.62
558.346	800.62
558.559	812.62
558.771	795.62
558.984	791.62
559.196	808.62
559.409	787.62
559.621	770.62
559.833	771.62
560.046	769.62
560.258	781.62
560.47	765.62
560.683	787.62
560.895	785.62
561.107	759.62
561.32	772.62
561.532	785.62
561.744	753.62
561.956	777.62
562.168	748.62
562.381	771.62
562.593	747.62
562.805	779.62
563.017	752.62
563.229	752.62
563.441	777.62
563.653	788.62
563.865	775.62
564.077	754.62
564.289	769.62
564.501	763.62
564.713	780.62
564.925	779.62
565.137	772.62
565.349	780.62
565.561	781.62
565.773	816.62
565.985	798.62
566.197	802.62
566.408	834.62
566.62	826.62
566.832	847.62
567.044	858.62
567.255	832.62
567.467	821.62
567.679	823.62
567.891	849.62
568.102	816.62
568.314	817.62
568.526	788.62
568.737	805.62
568.949	763.62
569.161	732.62
569.372	722.62
569.584	711.62
569.795	731.62
570.007	696.62
570.218	682.62
570.43	685.62
570.641	683.62
570.853	701.62
571.064	673.62
571.276	682.62
571.487	709.62
571.698	674.62
571.91	658.62
572.121	668.62
572.333	652.62
572.544	650.62
572.755	640.62
572.966	627.62
573.178	633.62
573.389	625.62
573.6	619.62
573.811	599.62
574.023	618.62
574.234	613.62
574.445	624.62
574.656	625.62
574.867	603.62
575.078	602.62
575.289	609.62
575.501	560.62
575.712	587.62
575.923	588.62
576.134	572.62
576.345	568.62
576.556	592.62
576.767	602.62
576.978	570.62
577.188	577.62
577.399	554.62
577.61	552.62
577.821	564.62
578.032	571.62
578.243	565.62
578.454	554.62
578.665	548.62
578.875	555.62
579.086	561.62
579.297	536.62
579.508	545.62
579.718	544.62
579.929	540.62
580.14	532.62
580.35	528.62
580.561	536.62
580.772	538.62
580.982	502.62
581.193	527.62
581.403	515.62
581.614	531.62
581.825	541.62
582.035	528.62
582.246	528.62
582.456	516.62
582.667	512.62
582.877	497.62
583.087	495.62
583.298	497.62
583.508	523.62
583.719	515.62
583.929	507.62
584.139	487.62
584.35	486.62
584.56	523.62
584.77	484.62
584.981	511.62
585.191	499.62
585.401	497.62
585.611	516.62
585.821	514.62
586.032	511.62
586.242	507.62
586.452	501.62
586.662	477.62
586.872	490.62
587.082	478.62
587.292	514.62
587.502	491.62
587.713	488.62
587.923	489.62
588.133	459.62
588.343	467.62
588.553	482.62
588.762	501.62
588.972	473.62
589.182	515.62
589.392	487.62
589.602	472.62
589.812	499.62
590.022	472.62
590.232	457.62
590.441	486.62
590.651	473.62
590.861	474.62
591.071	461.62
591.281	454.62
591.49	479.62
591.7	468.62
591.91	489.62
592.119	475.62
592.329	493.62
592.539	470.62
592.748	507.62
592.958	461.62
593.167	469.62
593.377	476.62
593.587	491.62
593.796	472.62
594.006	471.62
594.215	468.62
594.424	451.62
594.634	449.62
594.843	461.62
595.053	468.62
595.262	467.62
595.472	460.62
595.681	440.62
595.89	452.62
596.1	431.62
596.309	451.62
596.518	447.62
596.727	429.62
596.937	424.62
597.146	435.62
597.355	449.62
597.564	444.62
597.774	413.62
597.983	423.62
598.192	431.62
598.401	402.62
598.61	416.62
598.819	426.62
599.028	401.62
599.237	388.62
599.446	401.62
599.655	407.62
599.864	402.62
600.073	406.62
600.282	394.62
600.491	407.62
600.7	404.62
600.909	417.62
601.118	414.62
601.327	392.62
601.536	394.62
601.745	401.62
601.953	391.62
602.162	393.62
602.371	387.62
602.58	379.62
602.789	392.62
602.997	377.62
603.206	392.62
603.415	381.62
603.623	406.62
603.832	385.62
604.041	402.62
604.249	385.62
604.458	385.62
604.666	372.62
604.875	372.62
605.084	369.62
605.292	371.62
605.501	380.62
605.709	367.62
605.918	372.62
606.126	373.62
606.334	367.62
606.543	378.62
606.751	382.62
606.96	377.62
607.168	364.62
607.376	357.62
607.585	361.62
607.793	393.62
608.001	371.62
608.21	349.62
608.418	359.62
608.626	374.62
608.834	357.62
609.043	364.62
609.251	379.62
609.459	375.62
609.667	371.62
609.875	358.62
610.083	357.62
610.291	372.62
610.499	350.62
610.707	367.62
610.916	353.62
611.124	355.62
611.332	337.62
611.54	341.62
611.748	349.62
611.955	372.62
612.163	363.62
612.371	348.62
612.579	345.62
612.787	344.62
612.995	365.62
613.203	352.62
613.411	332.62
613.618	355.62
613.826	355.62
614.034	345.62
614.242	341.62
614.449	343.62
614.657	336.62
614.865	343.62
615.072	335.62
615.28	356.62
615.488	335.62
615.695	356.62
615.903	347.62
616.111	332.62
616.318	339.62
616.526	316.62
616.733	328.62
616.941	347.62
617.148	327.62
617.356	341.62
617.563	348.62
617.771	326.62
617.978	313.62
618.185	348.62
618.393	327.62
618.6	316.62
618.807	325.62
619.015	326.62
619.222	332.62
619.429	332.62
619.637	321.62
619.844	307.62
620.051	297.62
620.258	310.62
620.466	321.62
620.673	311.62
620.88	298.62
621.087	296.62
621.294	298.62
621.501	301.62
621.708	301.62
621.915	311.62
622.122	321.62
622.329	313.62
622.536	342.62
622.743	314.62
622.95	292.62
623.157	293.62
623.364	304.62
623.571	295.62
623.778	309.62
623.985	303.62
624.192	293.62
624.399	290.62
624.606	304.62
624.812	311.62
625.019	308.62
625.226	309.62
625.433	308.62
625.639	284.62
625.846	289.62
626.053	302.62
626.259	273.62
626.466	301.62
626.673	272.62
626.879	291.62
627.086	276.62
627.293	290.62
627.499	277.62
627.706	291.62
627.912	288.62
628.119	263.62
628.325	287.62
628.532	270.62
628.738	281.62
628.945	289.62
629.151	276.62
629.357	273.62
629.564	284.62
629.77	257.62
629.976	270.62
630.183	284.62
630.389	274.62
630.595	273.62
630.802	273.62
631.008	269.62
631.214	260.62
631.42	266.62
631.627	262.62
631.833	264.62
632.039	287.62
632.245	249.62
632.451	256.62
632.657	261.62
632.863	257.62
633.069	271.62
633.275	250.62
633.481	261.62
633.688	256.62
633.893	264.62
634.099	256.62
634.305	258.62
634.511	257.62
634.717	265.62
634.923	254.62
635.129	239.62
635.335	274.62
635.541	259.62
635.747	248.62
635.952	257.62
636.158	244.62
636.364	276.62
636.57	241.62
636.775	244.62
636.981	241.62
637.187	228.62
637.392	224.62
637.598	255.62
637.804	263.62
638.009	244.62
638.215	243.62
638.421	241.62
638.626	253.62
638.832	256.62
639.037	265.62
639.243	217.62
639.448	243.62
639.654	232.62
639.859	226.62
640.065	241.62
640.27	245.62
640.475	237.62
640.681	236.62
640.886	244.62
641.091	234.62
641.297	242.62
641.502	242.62
641.707	226.62
641.913	231.62
642.118	230.62
642.323	211.62
642.528	224.62
642.733	238.62
642.939	241.62
643.144	227.62
643.349	224.62
643.554	225.62
643.759	230.62
643.964	232.62
644.169	236.62
644.374	231.62
644.579	219.62
644.784	224.62
644.989	233.62
645.194	217.62
645.399	230.62
645.604	216.62
645.809	221.62
646.014	243.62
646.219	229.62
646.423	225.62
646.628	248.62
646.833	222.62
647.038	221.62
647.243	240.62
647.447	221.62
647.652	226.62
647.857	237.62
648.062	226.62
648.266	225.62
648.471	218.62
648.676	229.62
648.88	230.62
649.085	211.62
649.289	239.62
649.494	225.62
649.698	229.62
649.903	236.62
650.107	220.62
650.312	223.62
650.516	225.62
650.721	207.62
650.925	210.62
651.13	219.62
651.334	203.62
651.539	220.62
651.743	223.62
651.947	222.62
652.152	211.62
652.356	219.62
652.56	223.62
652.764	220.62
652.969	204.62
653.173	187.62
653.377	200.62
653.581	194.62
653.785	189.62
653.99	208.62
654.194	194.62
654.398	188.62
654.602	186.62
654.806	166.62
655.01	169.62
655.214	183.62
655.418	179.62
655.622	168.62
655.826	192.62
656.03	184.62
656.234	172.62
656.438	167.62
656.642	167.62
656.846	164.62
657.049	156.62
657.253	157.62
657.457	160.62
657.661	148.62
657.865	142.62
658.068	163.62
658.272	143.62
658.476	140.62
658.68	136.62
658.883	135.62
659.087	126.62
659.291	126.62
659.494	116.62
659.698	116.62
659.901	116.62
660.105	121.62
660.309	113.62
660.512	101.62
660.716	100.62
660.919	99.62
661.123	93.62
661.326	116.62
661.53	106.62
661.733	100.62
661.936	100.62
662.14	92.62
662.343	86.62
662.546	86.62
662.75	92.62
662.953	90.62
663.156	89.62
663.36	81.62
663.563	84.62
663.766	73.62
663.969	77.62
664.173	80.62
664.376	86.62
664.579	80.62
664.782	86.62
664.985	75.62
665.188	85.62
665.391	77.62
665.594	76.62
665.797	72.62
666	87.62
666.203	76.62
666.406	84.62
666.609	88.62
666.812	86.62
667.015	64.62
667.218	70.62
667.421	76.62
667.624	79.62
667.827	78.62
668.03	84.62
668.232	77.62
668.435	73.62
668.638	91.62
668.841	76.62
669.043	76.62
669.246	81.62
669.449	87.62
669.651	70.62
669.854	77.62
670.057	85.62
670.259	72.62
670.462	72.62
670.665	84.62
670.867	90.62
671.07	75.62
671.272	79.62
671.475	80.62
671.677	68.62
671.88	84.62
672.082	93.62
672.284	88.62
672.487	70.62
672.689	89.62
672.892	71.62
