Data from Ni(NO3)2@0.0625M.TitratingCurve.Agarose3%dH2O.NegLispCup.LampEnergy10.LIBS07252019_HRD10591_18-13-01-569.txt Node
Date: Thu Jul 25 18:13:01 EDT 2019
User: cochatt
Spectrometer: HR+D1059
Trigger mode: 1
Integration Time (sec): 1.000000E-1
Scans to average: 1
Electric dark correction enabled: true
Nonlinearity correction enabled: false
Boxcar width: 0
XAxis mode: Wavelengths
Number of Pixels in Spectrum: 2048
>>>>>Begin Spectral Data<<<<<
223.165	-15.94
223.4	-15.94
223.635	-15.94
223.869	-9.94
224.104	-30.94
224.338	-2.94
224.573	-23.94
224.808	-10.94
225.042	-0.94
225.277	5.06
225.511	-10.94
225.746	4.06
225.98	8.06
226.215	12.06
226.449	5.06
226.683	17.06
226.918	16.06
227.152	39.06
227.387	35.06
227.621	37.06
227.856	39.06
228.09	50.06
228.324	43.06
228.559	45.06
228.793	81.06
229.027	112.06
229.262	109.06
229.496	105.06
229.73	109.06
229.964	124.06
230.199	113.06
230.433	131.06
230.667	115.06
230.901	120.06
231.136	123.06
231.37	132.06
231.604	155.06
231.838	135.06
232.072	129.06
232.306	137.06
232.541	124.06
232.775	141.06
233.009	145.06
233.243	143.06
233.477	139.06
233.711	151.06
233.945	142.06
234.179	154.06
234.413	141.06
234.647	154.06
234.881	159.06
235.115	155.06
235.349	141.06
235.583	150.06
235.817	151.06
236.051	133.06
236.285	137.06
236.519	140.06
236.753	151.06
236.987	151.06
237.221	152.06
237.455	148.06
237.689	149.06
237.922	173.06
238.156	172.06
238.39	153.06
238.624	157.06
238.858	150.06
239.091	148.06
239.325	168.06
239.559	170.06
239.793	170.06
240.027	180.06
240.26	155.06
240.494	170.06
240.728	170.06
240.961	173.06
241.195	175.06
241.429	177.06
241.662	167.06
241.896	191.06
242.13	184.06
242.363	169.06
242.597	192.06
242.83	179.06
243.064	212.06
243.298	197.06
243.531	194.06
243.765	200.06
243.998	194.06
244.232	177.06
244.465	211.06
244.699	197.06
244.932	209.06
245.166	211.06
245.399	201.06
245.633	198.06
245.866	208.06
246.099	211.06
246.333	213.06
246.566	217.06
246.8	214.06
247.033	212.06
247.266	217.06
247.5	211.06
247.733	215.06
247.966	207.06
248.2	216.06
248.433	228.06
248.666	241.06
248.899	225.06
249.133	224.06
249.366	218.06
249.599	239.06
249.832	234.06
250.066	251.06
250.299	233.06
250.532	216.06
250.765	232.06
250.998	238.06
251.231	251.06
251.465	242.06
251.698	264.06
251.931	260.06
252.164	262.06
252.397	251.06
252.63	250.06
252.863	263.06
253.096	255.06
253.329	263.06
253.562	256.06
253.795	237.06
254.028	261.06
254.261	274.06
254.494	275.06
254.727	269.06
254.96	280.06
255.193	245.06
255.426	255.06
255.659	269.06
255.892	264.06
256.124	252.06
256.357	258.06
256.59	287.06
256.823	281.06
257.056	287.06
257.289	295.06
257.521	287.06
257.754	263.06
257.987	282.06
258.22	288.06
258.452	275.06
258.685	294.06
258.918	267.06
259.151	298.06
259.383	297.06
259.616	283.06
259.849	304.06
260.081	290.06
260.314	293.06
260.547	331.06
260.779	283.06
261.012	296.06
261.244	282.06
261.477	304.06
261.71	311.06
261.942	296.06
262.175	303.06
262.407	336.06
262.64	309.06
262.872	324.06
263.105	324.06
263.337	295.06
263.57	316.06
263.802	325.06
264.035	317.06
264.267	326.06
264.499	325.06
264.732	313.06
264.964	319.06
265.197	325.06
265.429	326.06
265.661	316.06
265.894	338.06
266.126	325.06
266.358	323.06
266.591	329.06
266.823	334.06
267.055	342.06
267.287	336.06
267.52	352.06
267.752	352.06
267.984	331.06
268.216	349.06
268.448	355.06
268.681	342.06
268.913	358.06
269.145	363.06
269.377	351.06
269.609	347.06
269.841	357.06
270.073	361.06
270.306	344.06
270.538	352.06
270.77	358.06
271.002	356.06
271.234	357.06
271.466	367.06
271.698	362.06
271.93	360.06
272.162	359.06
272.394	379.06
272.626	363.06
272.858	374.06
273.09	383.06
273.322	370.06
273.553	369.06
273.785	381.06
274.017	372.06
274.249	374.06
274.481	376.06
274.713	367.06
274.945	409.06
275.176	354.06
275.408	377.06
275.64	391.06
275.872	387.06
276.104	372.06
276.335	389.06
276.567	386.06
276.799	401.06
277.031	409.06
277.262	384.06
277.494	397.06
277.726	399.06
277.957	411.06
278.189	407.06
278.421	397.06
278.652	387.06
278.884	400.06
279.115	410.06
279.347	408.06
279.579	398.06
279.81	400.06
280.042	417.06
280.273	434.06
280.505	419.06
280.736	418.06
280.968	416.06
281.199	420.06
281.431	452.06
281.662	435.06
281.894	433.06
282.125	437.06
282.356	434.06
282.588	441.06
282.819	440.06
283.051	440.06
283.282	430.06
283.513	440.06
283.745	438.06
283.976	443.06
284.207	442.06
284.439	449.06
284.67	450.06
284.901	460.06
285.132	472.06
285.364	449.06
285.595	474.06
285.826	453.06
286.057	467.06
286.288	444.06
286.52	481.06
286.751	452.06
286.982	471.06
287.213	476.06
287.444	450.06
287.675	481.06
287.906	472.06
288.138	478.06
288.369	469.06
288.6	482.06
288.831	476.06
289.062	480.06
289.293	486.06
289.524	483.06
289.755	491.06
289.986	482.06
290.217	499.06
290.448	459.06
290.679	501.06
290.91	497.06
291.141	467.06
291.371	483.06
291.602	487.06
291.833	498.06
292.064	507.06
292.295	495.06
292.526	497.06
292.757	476.06
292.987	487.06
293.218	501.06
293.449	498.06
293.68	498.06
293.91	504.06
294.141	465.06
294.372	499.06
294.603	499.06
294.833	509.06
295.064	496.06
295.295	485.06
295.525	477.06
295.756	495.06
295.987	511.06
296.217	520.06
296.448	507.06
296.679	524.06
296.909	519.06
297.14	523.06
297.37	525.06
297.601	532.06
297.831	526.06
298.062	553.06
298.292	561.06
298.523	560.06
298.753	556.06
298.984	553.06
299.214	532.06
299.445	532.06
299.675	542.06
299.905	551.06
300.136	524.06
300.366	545.06
300.597	549.06
300.827	576.06
301.057	575.06
301.288	576.06
301.518	559.06
301.748	561.06
301.979	578.06
302.209	562.06
302.439	544.06
302.669	588.06
302.9	553.06
303.13	553.06
303.36	556.06
303.59	556.06
303.82	539.06
304.051	566.06
304.281	564.06
304.511	540.06
304.741	571.06
304.971	567.06
305.201	566.06
305.431	564.06
305.661	569.06
305.891	555.06
306.121	547.06
306.352	549.06
306.582	549.06
306.812	549.06
307.042	557.06
307.272	573.06
307.502	533.06
307.731	550.06
307.961	545.06
308.191	551.06
308.421	522.06
308.651	546.06
308.881	546.06
309.111	560.06
309.341	569.06
309.571	541.06
309.8	552.06
310.03	555.06
310.26	547.06
310.49	540.06
310.72	540.06
310.949	556.06
311.179	551.06
311.409	553.06
311.639	548.06
311.868	574.06
312.098	585.06
312.328	578.06
312.557	603.06
312.787	565.06
313.017	566.06
313.246	594.06
313.476	606.06
313.706	605.06
313.935	585.06
314.165	604.06
314.394	597.06
314.624	580.06
314.853	592.06
315.083	582.06
315.312	588.06
315.542	588.06
315.771	580.06
316.001	592.06
316.23	590.06
316.46	601.06
316.689	560.06
316.919	591.06
317.148	595.06
317.377	607.06
317.607	582.06
317.836	584.06
318.065	580.06
318.295	590.06
318.524	598.06
318.753	575.06
318.983	588.06
319.212	555.06
319.441	565.06
319.67	577.06
319.9	599.06
320.129	581.06
320.358	591.06
320.587	595.06
320.816	575.06
321.046	586.06
321.275	597.06
321.504	591.06
321.733	602.06
321.962	596.06
322.191	609.06
322.42	579.06
322.649	575.06
322.878	576.06
323.108	591.06
323.337	592.06
323.566	595.06
323.795	598.06
324.024	627.06
324.253	578.06
324.482	615.06
324.71	606.06
324.939	607.06
325.168	593.06
325.397	605.06
325.626	608.06
325.855	636.06
326.084	631.06
326.313	665.06
326.542	635.06
326.77	663.06
326.999	657.06
327.228	635.06
327.457	631.06
327.686	615.06
327.914	641.06
328.143	655.06
328.372	647.06
328.6	640.06
328.829	632.06
329.058	664.06
329.287	644.06
329.515	647.06
329.744	661.06
329.972	653.06
330.201	658.06
330.43	680.06
330.658	666.06
330.887	694.06
331.115	667.06
331.344	662.06
331.572	704.06
331.801	680.06
332.03	695.06
332.258	733.06
332.486	758.06
332.715	767.06
332.943	819.06
333.172	851.06
333.4	893.06
333.629	881.06
333.857	886.06
334.085	887.06
334.314	838.06
334.542	821.06
334.771	801.06
334.999	815.06
335.227	815.06
335.455	802.06
335.684	829.06
335.912	797.06
336.14	795.06
336.369	789.06
336.597	798.06
336.825	808.06
337.053	796.06
337.281	755.06
337.51	773.06
337.738	780.06
337.966	729.06
338.194	733.06
338.422	703.06
338.65	713.06
338.878	681.06
339.106	696.06
339.334	702.06
339.562	687.06
339.79	659.06
340.018	684.06
340.246	665.06
340.474	676.06
340.702	666.06
340.93	684.06
341.158	692.06
341.386	671.06
341.614	669.06
341.842	667.06
342.07	684.06
342.298	674.06
342.526	666.06
342.754	683.06
342.981	665.06
343.209	712.06
343.437	751.06
343.665	740.06
343.893	832.06
344.12	854.06
344.348	839.06
344.576	746.06
344.804	742.06
345.031	706.06
345.259	709.06
345.487	678.06
345.714	689.06
345.942	675.06
346.17	655.06
346.397	658.06
346.625	665.06
346.853	655.06
347.08	639.06
347.308	662.06
347.535	679.06
347.763	666.06
347.99	693.06
348.218	666.06
348.445	679.06
348.673	654.06
348.9	664.06
349.128	661.06
349.355	649.06
349.583	650.06
349.81	629.06
350.037	633.06
350.265	631.06
350.492	616.06
350.72	643.06
350.947	629.06
351.174	661.06
351.402	637.06
351.629	632.06
351.856	631.06
352.083	634.06
352.311	619.06
352.538	634.06
352.765	631.06
352.992	631.06
353.22	635.06
353.447	593.06
353.674	625.06
353.901	644.06
354.128	627.06
354.355	641.06
354.583	625.06
354.81	632.06
355.037	623.06
355.264	639.06
355.491	623.06
355.718	630.06
355.945	617.06
356.172	631.06
356.399	633.06
356.626	644.06
356.853	644.06
357.08	646.06
357.307	633.06
357.534	648.06
357.761	640.06
357.988	653.06
358.215	629.06
358.441	636.06
358.668	628.06
358.895	611.06
359.122	656.06
359.349	647.06
359.576	641.06
359.802	632.06
360.029	646.06
360.256	637.06
360.483	621.06
360.709	627.06
360.936	633.06
361.163	640.06
361.39	644.06
361.616	631.06
361.843	641.06
362.07	637.06
362.296	613.06
362.523	630.06
362.749	624.06
362.976	633.06
363.203	660.06
363.429	623.06
363.656	642.06
363.882	647.06
364.109	648.06
364.335	628.06
364.562	629.06
364.788	631.06
365.015	632.06
365.241	639.06
365.468	613.06
365.694	622.06
365.92	623.06
366.147	612.06
366.373	635.06
366.599	639.06
366.826	618.06
367.052	601.06
367.278	633.06
367.505	639.06
367.731	658.06
367.957	634.06
368.184	604.06
368.41	633.06
368.636	631.06
368.862	647.06
369.089	643.06
369.315	626.06
369.541	659.06
369.767	661.06
369.993	647.06
370.219	665.06
370.445	691.06
370.672	681.06
370.898	637.06
371.124	675.06
371.35	685.06
371.576	695.06
371.802	701.06
372.028	714.06
372.254	685.06
372.48	681.06
372.706	693.06
372.932	715.06
373.158	726.06
373.384	709.06
373.61	711.06
373.835	708.06
374.061	709.06
374.287	702.06
374.513	702.06
374.739	731.06
374.965	751.06
375.191	805.06
375.416	783.06
375.642	741.06
375.868	769.06
376.094	722.06
376.319	695.06
376.545	684.06
376.771	704.06
376.997	682.06
377.222	687.06
377.448	676.06
377.674	693.06
377.899	701.06
378.125	677.06
378.35	689.06
378.576	666.06
378.802	681.06
379.027	709.06
379.253	694.06
379.478	671.06
379.704	672.06
379.929	687.06
380.155	708.06
380.38	697.06
380.606	686.06
380.831	666.06
381.057	678.06
381.282	678.06
381.507	699.06
381.733	689.06
381.958	691.06
382.184	714.06
382.409	722.06
382.634	724.06
382.86	715.06
383.085	734.06
383.31	751.06
383.535	755.06
383.761	778.06
383.986	773.06
384.211	775.06
384.436	793.06
384.662	797.06
384.887	832.06
385.112	819.06
385.337	829.06
385.562	833.06
385.787	841.06
386.013	859.06
386.238	827.06
386.463	835.06
386.688	856.06
386.913	838.06
387.138	827.06
387.363	823.06
387.588	812.06
387.813	820.06
388.038	799.06
388.263	821.06
388.488	826.06
388.713	817.06
388.938	807.06
389.163	811.06
389.387	809.06
389.612	791.06
389.837	811.06
390.062	801.06
390.287	816.06
390.512	821.06
390.736	813.06
390.961	848.06
391.186	864.06
391.411	898.06
391.636	885.06
391.86	914.06
392.085	952.06
392.31	967.06
392.534	923.06
392.759	882.06
392.984	884.06
393.208	870.06
393.433	860.06
393.658	872.06
393.882	868.06
394.107	891.06
394.331	912.06
394.556	875.06
394.78	899.06
395.005	900.06
395.229	899.06
395.454	896.06
395.678	931.06
395.903	929.06
396.127	926.06
396.352	869.06
396.576	881.06
396.801	895.06
397.025	869.06
397.249	890.06
397.474	925.06
397.698	935.06
397.922	925.06
398.147	897.06
398.371	940.06
398.595	955.06
398.82	1001.06
399.044	1049.06
399.268	1209.06
399.492	1419.06
399.717	1614.06
399.941	1582.06
400.165	1396.06
400.389	1221.06
400.613	1132.06
400.837	1081.06
401.062	1042.06
401.286	1025.06
401.51	1032.06
401.734	1018.06
401.958	1032.06
402.182	1049.06
402.406	1062.06
402.63	1079.06
402.854	1114.06
403.078	1122.06
403.302	1153.06
403.526	1220.06
403.75	1219.06
403.974	1251.06
404.198	1235.06
404.422	1221.06
404.645	1202.06
404.869	1228.06
405.093	1169.06
405.317	1159.06
405.541	1176.06
405.765	1127.06
405.988	1136.06
406.212	1132.06
406.436	1144.06
406.66	1182.06
406.883	1191.06
407.107	1273.06
407.331	1312.06
407.555	1377.06
407.778	1345.06
408.002	1330.06
408.226	1273.06
408.449	1222.06
408.673	1211.06
408.896	1179.06
409.12	1185.06
409.344	1189.06
409.567	1204.06
409.791	1214.06
410.014	1189.06
410.238	1174.06
410.461	1163.06
410.685	1153.06
410.908	1144.06
411.132	1109.06
411.355	1059.06
411.578	1076.06
411.802	1077.06
412.025	1087.06
412.249	1127.06
412.472	1084.06
412.695	1055.06
412.919	1053.06
413.142	1038.06
413.365	1031.06
413.589	1030.06
413.812	1051.06
414.035	1004.06
414.258	1021.06
414.482	1037.06
414.705	1063.06
414.928	1031.06
415.151	1028.06
415.374	1031.06
415.597	1049.06
415.821	1028.06
416.044	1041.06
416.267	1007.06
416.49	996.06
416.713	999.06
416.936	1039.06
417.159	1020.06
417.382	1000.06
417.605	1012.06
417.828	1007.06
418.051	1009.06
418.274	1023.06
418.497	1037.06
418.72	1061.06
418.943	1057.06
419.166	1117.06
419.389	1175.06
419.611	1151.06
419.834	1131.06
420.057	1065.06
420.28	1049.06
420.503	1040.06
420.726	1028.06
420.948	1043.06
421.171	1060.06
421.394	1026.06
421.617	1019.06
421.839	1043.06
422.062	1038.06
422.285	1010.06
422.507	1051.06
422.73	1052.06
422.953	1067.06
423.175	1075.06
423.398	1087.06
423.621	1116.06
423.843	1106.06
424.066	1114.06
424.288	1122.06
424.511	1082.06
424.733	1078.06
424.956	1076.06
425.178	1059.06
425.401	1030.06
425.623	1029.06
425.846	996.06
426.068	1016.06
426.291	1001.06
426.513	969.06
426.735	968.06
426.958	936.06
427.18	948.06
427.402	947.06
427.625	923.06
427.847	935.06
428.069	911.06
428.292	936.06
428.514	890.06
428.736	895.06
428.958	932.06
429.181	907.06
429.403	885.06
429.625	908.06
429.847	858.06
430.069	861.06
430.292	910.06
430.514	893.06
430.736	879.06
430.958	877.06
431.18	911.06
431.402	899.06
431.624	890.06
431.846	888.06
432.068	929.06
432.29	938.06
432.512	913.06
432.734	909.06
432.956	899.06
433.178	896.06
433.4	929.06
433.622	941.06
433.844	936.06
434.066	939.06
434.287	937.06
434.509	983.06
434.731	1008.06
434.953	1043.06
435.175	1029.06
435.397	1040.06
435.618	968.06
435.84	963.06
436.062	944.06
436.284	911.06
436.505	919.06
436.727	919.06
436.949	938.06
437.17	908.06
437.392	908.06
437.614	888.06
437.835	893.06
438.057	895.06
438.278	887.06
438.5	873.06
438.721	867.06
438.943	919.06
439.165	895.06
439.386	915.06
439.608	909.06
439.829	899.06
440.05	917.06
440.272	919.06
440.493	912.06
440.715	924.06
440.936	958.06
441.158	977.06
441.379	971.06
441.6	1045.06
441.822	1060.06
442.043	1050.06
442.264	1045.06
442.486	1015.06
442.707	1025.06
442.928	1019.06
443.149	1027.06
443.371	1035.06
443.592	1045.06
443.813	1043.06
444.034	1034.06
444.255	1067.06
444.476	1122.06
444.698	1184.06
444.919	1245.06
445.14	1326.06
445.361	1181.06
445.582	1064.06
445.803	1006.06
446.024	967.06
446.245	965.06
446.466	934.06
446.687	919.06
446.908	971.06
447.129	885.06
447.35	893.06
447.571	889.06
447.792	867.06
448.013	877.06
448.234	836.06
448.455	852.06
448.675	834.06
448.896	832.06
449.117	825.06
449.338	868.06
449.559	843.06
449.779	861.06
450	832.06
450.221	819.06
450.442	826.06
450.662	853.06
450.883	859.06
451.104	858.06
451.324	884.06
451.545	852.06
451.766	842.06
451.986	855.06
452.207	853.06
452.428	844.06
452.648	836.06
452.869	835.06
453.089	824.06
453.31	844.06
453.53	829.06
453.751	820.06
453.971	825.06
454.192	848.06
454.412	795.06
454.633	795.06
454.853	805.06
455.073	778.06
455.294	781.06
455.514	777.06
455.734	804.06
455.955	770.06
456.175	771.06
456.395	793.06
456.616	789.06
456.836	777.06
457.056	768.06
457.276	769.06
457.497	760.06
457.717	775.06
457.937	807.06
458.157	781.06
458.377	803.06
458.598	840.06
458.818	846.06
459.038	833.06
459.258	906.06
459.478	939.06
459.698	921.06
459.918	982.06
460.138	1004.06
460.358	1079.06
460.578	1056.06
460.798	1100.06
461.018	1117.06
461.238	1087.06
461.458	1101.06
461.678	1053.06
461.898	1102.06
462.118	1071.06
462.338	1177.06
462.558	1209.06
462.777	1197.06
462.997	1355.06
463.217	1514.06
463.437	1496.06
463.657	1336.06
463.876	1251.06
464.096	1258.06
464.316	1291.06
464.536	1286.06
464.755	1251.06
464.975	1185.06
465.195	1130.06
465.414	1063.06
465.634	1009.06
465.854	948.06
466.073	963.06
466.293	923.06
466.512	928.06
466.732	887.06
466.951	897.06
467.171	879.06
467.391	888.06
467.61	891.06
467.829	907.06
468.049	855.06
468.268	841.06
468.488	820.06
468.707	811.06
468.927	837.06
469.146	850.06
469.365	872.06
469.585	848.06
469.804	880.06
470.023	887.06
470.243	897.06
470.462	901.06
470.681	921.06
470.901	914.06
471.12	923.06
471.339	899.06
471.558	872.06
471.777	857.06
471.997	824.06
472.216	834.06
472.435	812.06
472.654	819.06
472.873	816.06
473.092	810.06
473.311	828.06
473.53	833.06
473.749	811.06
473.968	812.06
474.187	812.06
474.406	796.06
474.625	812.06
474.844	816.06
475.063	817.06
475.282	849.06
475.501	847.06
475.72	822.06
475.939	858.06
476.158	824.06
476.377	870.06
476.596	865.06
476.814	863.06
477.033	873.06
477.252	853.06
477.471	888.06
477.69	917.06
477.908	937.06
478.127	965.06
478.346	1016.06
478.564	1007.06
478.783	1011.06
479.002	1071.06
479.22	1035.06
479.439	1028.06
479.658	1003.06
479.876	976.06
480.095	1032.06
480.313	1054.06
480.532	1084.06
480.751	1102.06
480.969	1061.06
481.188	1020.06
481.406	981.06
481.624	929.06
481.843	959.06
482.061	915.06
482.28	935.06
482.498	945.06
482.717	931.06
482.935	934.06
483.153	942.06
483.372	916.06
483.59	917.06
483.808	923.06
484.027	953.06
484.245	977.06
484.463	959.06
484.681	979.06
484.9	955.06
485.118	992.06
485.336	968.06
485.554	975.06
485.772	995.06
485.99	998.06
486.209	984.06
486.427	1001.06
486.645	1005.06
486.863	1000.06
487.081	962.06
487.299	965.06
487.517	985.06
487.735	987.06
487.953	974.06
488.171	986.06
488.389	975.06
488.607	952.06
488.825	967.06
489.043	958.06
489.261	959.06
489.479	969.06
489.696	982.06
489.914	984.06
490.132	972.06
490.35	959.06
490.568	951.06
490.786	1007.06
491.003	987.06
491.221	972.06
491.439	965.06
491.657	973.06
491.874	989.06
492.092	995.06
492.31	1001.06
492.527	1038.06
492.745	991.06
492.963	996.06
493.18	997.06
493.398	1010.06
493.615	1056.06
493.833	1021.06
494.05	1045.06
494.268	1021.06
494.485	1038.06
494.703	1037.06
494.92	1041.06
495.138	1016.06
495.355	1055.06
495.573	1013.06
495.79	1050.06
496.008	1028.06
496.225	1043.06
496.442	1055.06
496.66	1056.06
496.877	1088.06
497.094	1097.06
497.312	1119.06
497.529	1122.06
497.746	1153.06
497.963	1207.06
498.181	1242.06
498.398	1297.06
498.615	1381.06
498.832	1481.06
499.049	1595.06
499.267	1719.06
499.484	1894.06
499.701	2145.06
499.918	2321.06
500.135	2715.06
500.352	3172.06
500.569	3367.06
500.786	3351.06
501.003	2975.06
501.22	2679.06
501.437	2245.06
501.654	1975.06
501.871	1805.06
502.088	1663.06
502.305	1558.06
502.522	1492.06
502.739	1427.06
502.956	1367.06
503.172	1287.06
503.389	1208.06
503.606	1224.06
503.823	1192.06
504.04	1152.06
504.256	1192.06
504.473	1196.06
504.69	1258.06
504.907	1253.06
505.123	1155.06
505.34	1039.06
505.557	1037.06
505.773	996.06
505.99	976.06
506.207	964.06
506.423	953.06
506.64	951.06
506.856	962.06
507.073	935.06
507.289	924.06
507.506	935.06
507.722	922.06
507.939	895.06
508.155	896.06
508.372	910.06
508.588	870.06
508.805	838.06
509.021	884.06
509.238	882.06
509.454	844.06
509.67	866.06
509.887	877.06
510.103	838.06
510.319	819.06
510.536	862.06
510.752	861.06
510.968	836.06
511.184	820.06
511.401	845.06
511.617	843.06
511.833	835.06
512.049	841.06
512.265	822.06
512.481	832.06
512.698	830.06
512.914	835.06
513.13	841.06
513.346	851.06
513.562	811.06
513.778	822.06
513.994	817.06
514.21	835.06
514.426	851.06
514.642	855.06
514.858	852.06
515.074	874.06
515.29	855.06
515.506	868.06
515.721	892.06
515.937	901.06
516.153	897.06
516.369	944.06
516.585	973.06
516.801	1028.06
517.016	1058.06
517.232	1091.06
517.448	1165.06
517.664	1153.06
517.879	1184.06
518.095	1170.06
518.311	1173.06
518.527	1120.06
518.742	1041.06
518.958	1043.06
519.173	972.06
519.389	917.06
519.605	910.06
519.82	874.06
520.036	901.06
520.251	855.06
520.467	883.06
520.682	844.06
520.898	852.06
521.113	834.06
521.329	841.06
521.544	804.06
521.76	812.06
521.975	825.06
522.19	803.06
522.406	806.06
522.621	793.06
522.836	804.06
523.052	803.06
523.267	796.06
523.482	776.06
523.698	800.06
523.913	753.06
524.128	779.06
524.343	771.06
524.559	773.06
524.774	768.06
524.989	772.06
525.204	788.06
525.419	784.06
525.634	761.06
525.849	753.06
526.064	750.06
526.28	769.06
526.495	745.06
526.71	754.06
526.925	763.06
527.14	765.06
527.355	752.06
527.57	757.06
527.785	772.06
527.999	769.06
528.214	753.06
528.429	745.06
528.644	745.06
528.859	760.06
529.074	759.06
529.289	768.06
529.503	778.06
529.718	793.06
529.933	779.06
530.148	744.06
530.363	758.06
530.577	741.06
530.792	757.06
531.007	775.06
531.221	777.06
531.436	748.06
531.651	761.06
531.865	764.06
532.08	770.06
532.295	772.06
532.509	737.06
532.724	744.06
532.938	757.06
533.153	731.06
533.367	731.06
533.582	753.06
533.796	756.06
534.011	755.06
534.225	763.06
534.44	744.06
534.654	747.06
534.868	741.06
535.083	718.06
535.297	765.06
535.511	714.06
535.726	725.06
535.94	760.06
536.154	705.06
536.369	704.06
536.583	704.06
536.797	707.06
537.011	705.06
537.225	708.06
537.44	707.06
537.654	692.06
537.868	677.06
538.082	697.06
538.296	721.06
538.51	687.06
538.724	677.06
538.938	699.06
539.153	683.06
539.367	676.06
539.581	691.06
539.795	694.06
540.009	688.06
540.222	681.06
540.436	690.06
540.65	683.06
540.864	671.06
541.078	676.06
541.292	677.06
541.506	672.06
541.72	682.06
541.934	661.06
542.147	673.06
542.361	687.06
542.575	666.06
542.789	665.06
543.002	657.06
543.216	672.06
543.43	671.06
543.644	657.06
543.857	665.06
544.071	689.06
544.285	670.06
544.498	674.06
544.712	671.06
544.925	697.06
545.139	675.06
545.352	706.06
545.566	697.06
545.779	710.06
545.993	692.06
546.206	692.06
546.42	681.06
546.633	681.06
546.847	688.06
547.06	678.06
547.274	673.06
547.487	688.06
547.7	694.06
547.914	691.06
548.127	711.06
548.34	687.06
548.554	703.06
548.767	689.06
548.98	690.06
549.193	679.06
549.407	698.06
549.62	706.06
549.833	707.06
550.046	671.06
550.259	684.06
550.473	691.06
550.686	656.06
550.899	654.06
551.112	667.06
551.325	663.06
551.538	675.06
551.751	661.06
551.964	668.06
552.177	687.06
552.39	706.06
552.603	713.06
552.816	721.06
553.029	712.06
553.242	771.06
553.455	787.06
553.667	761.06
553.88	741.06
554.093	745.06
554.306	710.06
554.519	699.06
554.732	687.06
554.944	672.06
555.157	651.06
555.37	676.06
555.583	669.06
555.795	618.06
556.008	621.06
556.221	620.06
556.433	590.06
556.646	613.06
556.859	587.06
557.071	620.06
557.284	615.06
557.496	606.06
557.709	604.06
557.921	607.06
558.134	592.06
558.346	569.06
558.559	578.06
558.771	595.06
558.984	583.06
559.196	581.06
559.409	584.06
559.621	567.06
559.833	578.06
560.046	549.06
560.258	593.06
560.47	582.06
560.683	575.06
560.895	557.06
561.107	570.06
561.32	563.06
561.532	584.06
561.744	565.06
561.956	573.06
562.168	549.06
562.381	572.06
562.593	601.06
562.805	570.06
563.017	561.06
563.229	588.06
563.441	590.06
563.653	598.06
563.865	588.06
564.077	569.06
564.289	552.06
564.501	601.06
564.713	601.06
564.925	616.06
565.137	628.06
565.349	651.06
565.561	657.06
565.773	647.06
565.985	684.06
566.197	752.06
566.408	821.06
566.62	875.06
566.832	953.06
567.044	982.06
567.255	937.06
567.467	985.06
567.679	1041.06
567.891	1149.06
568.102	1175.06
568.314	1102.06
568.526	977.06
568.737	912.06
568.949	826.06
569.161	754.06
569.372	661.06
569.584	652.06
569.795	607.06
570.007	610.06
570.218	602.06
570.43	595.06
570.641	564.06
570.853	582.06
571.064	607.06
571.276	614.06
571.487	592.06
571.698	585.06
571.91	528.06
572.121	521.06
572.333	516.06
572.544	518.06
572.755	506.06
572.966	498.06
573.178	480.06
573.389	481.06
573.6	477.06
573.811	474.06
574.023	469.06
574.234	456.06
574.445	454.06
574.656	481.06
574.867	475.06
575.078	468.06
575.289	465.06
575.501	476.06
575.712	466.06
575.923	465.06
576.134	464.06
576.345	441.06
576.556	448.06
576.767	448.06
576.978	445.06
577.188	449.06
577.399	458.06
577.61	434.06
577.821	434.06
578.032	424.06
578.243	430.06
578.454	418.06
578.665	418.06
578.875	412.06
579.086	429.06
579.297	416.06
579.508	431.06
579.718	410.06
579.929	410.06
580.14	407.06
580.35	412.06
580.561	395.06
580.772	407.06
580.982	401.06
581.193	423.06
581.403	394.06
581.614	416.06
581.825	408.06
582.035	402.06
582.246	398.06
582.456	397.06
582.667	403.06
582.877	402.06
583.087	385.06
583.298	395.06
583.508	395.06
583.719	395.06
583.929	400.06
584.139	375.06
584.35	363.06
584.56	403.06
584.77	397.06
584.981	396.06
585.191	398.06
585.401	394.06
585.611	378.06
585.821	363.06
586.032	398.06
586.242	378.06
586.452	380.06
586.662	379.06
586.872	375.06
587.082	379.06
587.292	378.06
587.502	361.06
587.713	377.06
587.923	379.06
588.133	359.06
588.343	371.06
588.553	405.06
588.762	368.06
588.972	376.06
589.182	393.06
589.392	383.06
589.602	382.06
589.812	368.06
590.022	382.06
590.232	374.06
590.441	368.06
590.651	397.06
590.861	403.06
591.071	383.06
591.281	393.06
591.49	373.06
591.7	412.06
591.91	413.06
592.119	429.06
592.329	413.06
592.539	434.06
592.748	444.06
592.958	440.06
593.167	477.06
593.377	474.06
593.587	495.06
593.796	486.06
594.006	498.06
594.215	512.06
594.424	519.06
594.634	491.06
594.843	463.06
595.053	445.06
595.262	452.06
595.472	425.06
595.681	397.06
595.89	383.06
596.1	394.06
596.309	370.06
596.518	377.06
596.727	364.06
596.937	381.06
597.146	368.06
597.355	373.06
597.564	352.06
597.774	337.06
597.983	332.06
598.192	328.06
598.401	341.06
598.61	323.06
598.819	331.06
599.028	340.06
599.237	335.06
599.446	339.06
599.655	344.06
599.864	332.06
600.073	337.06
600.282	329.06
600.491	322.06
600.7	328.06
600.909	333.06
601.118	320.06
601.327	338.06
601.536	297.06
601.745	307.06
601.953	309.06
602.162	322.06
602.371	298.06
602.58	300.06
602.789	310.06
602.997	303.06
603.206	318.06
603.415	315.06
603.623	300.06
603.832	326.06
604.041	301.06
604.249	296.06
604.458	307.06
604.666	296.06
604.875	301.06
605.084	310.06
605.292	303.06
605.501	287.06
605.709	292.06
605.918	304.06
606.126	299.06
606.334	292.06
606.543	304.06
606.751	296.06
606.96	315.06
607.168	299.06
607.376	320.06
607.585	309.06
607.793	293.06
608.001	282.06
608.21	294.06
608.418	290.06
608.626	290.06
608.834	295.06
609.043	285.06
609.251	266.06
609.459	286.06
609.667	293.06
609.875	293.06
610.083	284.06
610.291	291.06
610.499	285.06
610.707	285.06
610.916	275.06
611.124	281.06
611.332	281.06
611.54	289.06
611.748	286.06
611.955	302.06
612.163	289.06
612.371	292.06
612.579	280.06
612.787	282.06
612.995	274.06
613.203	280.06
613.411	278.06
613.618	272.06
613.826	278.06
614.034	296.06
614.242	279.06
614.449	261.06
614.657	292.06
614.865	288.06
615.072	273.06
615.28	296.06
615.488	277.06
615.695	274.06
615.903	281.06
616.111	287.06
616.318	292.06
616.526	306.06
616.733	282.06
616.941	284.06
617.148	283.06
617.356	283.06
617.563	267.06
617.771	272.06
617.978	273.06
618.185	283.06
618.393	288.06
618.6	285.06
618.807	269.06
619.015	277.06
619.222	259.06
619.429	283.06
619.637	277.06
619.844	274.06
620.051	266.06
620.258	274.06
620.466	249.06
620.673	261.06
620.88	246.06
621.087	243.06
621.294	260.06
621.501	263.06
621.708	261.06
621.915	246.06
622.122	270.06
622.329	256.06
622.536	246.06
622.743	246.06
622.95	254.06
623.157	231.06
623.364	255.06
623.571	245.06
623.778	265.06
623.985	245.06
624.192	235.06
624.399	245.06
624.606	248.06
624.812	246.06
625.019	243.06
625.226	245.06
625.433	249.06
625.639	223.06
625.846	231.06
626.053	211.06
626.259	232.06
626.466	246.06
626.673	227.06
626.879	245.06
627.086	247.06
627.293	240.06
627.499	243.06
627.706	249.06
627.912	240.06
628.119	221.06
628.325	232.06
628.532	226.06
628.738	235.06
628.945	232.06
629.151	236.06
629.357	221.06
629.564	233.06
629.77	215.06
629.976	215.06
630.183	228.06
630.389	220.06
630.595	205.06
630.802	209.06
631.008	222.06
631.214	225.06
631.42	227.06
631.627	217.06
631.833	210.06
632.039	204.06
632.245	205.06
632.451	217.06
632.657	218.06
632.863	209.06
633.069	213.06
633.275	209.06
633.481	204.06
633.688	201.06
633.893	203.06
634.099	209.06
634.305	212.06
634.511	200.06
634.717	215.06
634.923	208.06
635.129	202.06
635.335	213.06
635.541	200.06
635.747	196.06
635.952	197.06
636.158	210.06
636.364	205.06
636.57	197.06
636.775	205.06
636.981	197.06
637.187	197.06
637.392	182.06
637.598	199.06
637.804	192.06
638.009	179.06
638.215	196.06
638.421	195.06
638.626	193.06
638.832	184.06
639.037	169.06
639.243	170.06
639.448	189.06
639.654	204.06
639.859	201.06
640.065	184.06
640.27	208.06
640.475	201.06
640.681	200.06
640.886	179.06
641.091	190.06
641.297	181.06
641.502	196.06
641.707	188.06
641.913	193.06
642.118	182.06
642.323	171.06
642.528	185.06
642.733	191.06
642.939	194.06
643.144	203.06
643.349	180.06
643.554	184.06
643.759	194.06
643.964	181.06
644.169	177.06
644.374	192.06
644.579	187.06
644.784	196.06
644.989	188.06
645.194	179.06
645.399	178.06
645.604	197.06
645.809	181.06
646.014	178.06
646.219	176.06
646.423	180.06
646.628	191.06
646.833	201.06
647.038	196.06
647.243	172.06
647.447	203.06
647.652	198.06
647.857	211.06
648.062	200.06
648.266	197.06
648.471	207.06
648.676	182.06
648.88	187.06
649.085	200.06
649.289	179.06
649.494	185.06
649.698	181.06
649.903	177.06
650.107	185.06
650.312	176.06
650.516	167.06
650.721	193.06
650.925	183.06
651.13	162.06
651.334	170.06
651.539	149.06
651.743	163.06
651.947	164.06
652.152	156.06
652.356	163.06
652.56	151.06
652.764	145.06
652.969	150.06
653.173	161.06
653.377	148.06
653.581	158.06
653.785	142.06
653.99	143.06
654.194	140.06
654.398	147.06
654.602	130.06
654.806	144.06
655.01	138.06
655.214	137.06
655.418	138.06
655.622	145.06
655.826	125.06
656.03	133.06
656.234	130.06
656.438	145.06
656.642	150.06
656.846	135.06
657.049	135.06
657.253	123.06
657.457	120.06
657.661	119.06
657.865	117.06
658.068	122.06
658.272	109.06
658.476	116.06
658.68	94.06
658.883	115.06
659.087	96.06
659.291	104.06
659.494	104.06
659.698	104.06
659.901	104.06
660.105	100.06
660.309	94.06
660.512	92.06
660.716	86.06
660.919	91.06
661.123	100.06
661.326	81.06
661.53	87.06
661.733	85.06
661.936	87.06
662.14	92.06
662.343	86.06
662.546	77.06
662.75	84.06
662.953	92.06
663.156	78.06
663.36	91.06
663.563	87.06
663.766	74.06
663.969	74.06
664.173	90.06
664.376	86.06
664.579	73.06
664.782	84.06
664.985	85.06
665.188	92.06
665.391	76.06
665.594	73.06
665.797	81.06
666	86.06
666.203	81.06
666.406	84.06
666.609	75.06
666.812	95.06
667.015	96.06
667.218	77.06
667.421	98.06
667.624	78.06
667.827	77.06
668.03	87.06
668.232	78.06
668.435	79.06
668.638	84.06
668.841	84.06
669.043	67.06
669.246	95.06
669.449	85.06
669.651	90.06
669.854	81.06
670.057	99.06
670.259	74.06
670.462	87.06
670.665	78.06
670.867	85.06
671.07	86.06
671.272	85.06
671.475	83.06
671.677	77.06
671.88	70.06
672.082	82.06
672.284	76.06
672.487	78.06
672.689	85.06
672.892	78.06
