Data from Ni(NO3)2@0.5M.TitratingCurve.Agarose3%dH2O.NegLispCup.LampEnergy10.LIBS07252019_HRD10591_17-59-15-565.txt Node
Date: Thu Jul 25 17:59:15 EDT 2019
User: cochatt
Spectrometer: HR+D1059
Trigger mode: 1
Integration Time (sec): 1.000000E-1
Scans to average: 1
Electric dark correction enabled: true
Nonlinearity correction enabled: false
Boxcar width: 0
XAxis mode: Wavelengths
Number of Pixels in Spectrum: 2048
>>>>>Begin Spectral Data<<<<<
223.165	-3.5
223.4	-3.5
223.635	-3.5
223.869	-25.5
224.104	-18.5
224.338	-25.5
224.573	-18.5
224.808	-10.5
225.042	-13.5
225.277	-10.5
225.511	-0.5
225.746	10.5
225.98	-6.5
226.215	22.5
226.449	24.5
226.683	13.5
226.918	30.5
227.152	31.5
227.387	35.5
227.621	32.5
227.856	36.5
228.09	34.5
228.324	40.5
228.559	62.5
228.793	77.5
229.027	112.5
229.262	132.5
229.496	121.5
229.73	114.5
229.964	140.5
230.199	171.5
230.433	154.5
230.667	144.5
230.901	150.5
231.136	140.5
231.37	154.5
231.604	143.5
231.838	170.5
232.072	167.5
232.306	163.5
232.541	158.5
232.775	149.5
233.009	144.5
233.243	145.5
233.477	150.5
233.711	152.5
233.945	162.5
234.179	157.5
234.413	155.5
234.647	142.5
234.881	163.5
235.115	153.5
235.349	148.5
235.583	135.5
235.817	128.5
236.051	152.5
236.285	122.5
236.519	138.5
236.753	149.5
236.987	143.5
237.221	135.5
237.455	139.5
237.689	140.5
237.922	156.5
238.156	142.5
238.39	146.5
238.624	152.5
238.858	151.5
239.091	144.5
239.325	154.5
239.559	162.5
239.793	180.5
240.027	190.5
240.26	173.5
240.494	162.5
240.728	148.5
240.961	166.5
241.195	164.5
241.429	166.5
241.662	176.5
241.896	175.5
242.13	192.5
242.363	180.5
242.597	169.5
242.83	164.5
243.064	159.5
243.298	176.5
243.531	181.5
243.765	194.5
243.998	188.5
244.232	179.5
244.465	188.5
244.699	175.5
244.932	202.5
245.166	187.5
245.399	184.5
245.633	180.5
245.866	195.5
246.099	186.5
246.333	200.5
246.566	200.5
246.8	184.5
247.033	198.5
247.266	207.5
247.5	207.5
247.733	207.5
247.966	190.5
248.2	199.5
248.433	195.5
248.666	212.5
248.899	203.5
249.133	207.5
249.366	191.5
249.599	213.5
249.832	215.5
250.066	220.5
250.299	213.5
250.532	221.5
250.765	217.5
250.998	235.5
251.231	248.5
251.465	265.5
251.698	250.5
251.931	234.5
252.164	219.5
252.397	227.5
252.63	236.5
252.863	235.5
253.096	222.5
253.329	238.5
253.562	235.5
253.795	242.5
254.028	229.5
254.261	246.5
254.494	245.5
254.727	237.5
254.96	276.5
255.193	258.5
255.426	259.5
255.659	236.5
255.892	235.5
256.124	265.5
256.357	221.5
256.59	260.5
256.823	264.5
257.056	250.5
257.289	244.5
257.521	256.5
257.754	270.5
257.987	261.5
258.22	270.5
258.452	272.5
258.685	261.5
258.918	266.5
259.151	268.5
259.383	283.5
259.616	292.5
259.849	260.5
260.081	269.5
260.314	262.5
260.547	278.5
260.779	284.5
261.012	285.5
261.244	287.5
261.477	303.5
261.71	277.5
261.942	278.5
262.175	296.5
262.407	290.5
262.64	283.5
262.872	276.5
263.105	285.5
263.337	287.5
263.57	289.5
263.802	286.5
264.035	301.5
264.267	300.5
264.499	291.5
264.732	290.5
264.964	290.5
265.197	310.5
265.429	306.5
265.661	308.5
265.894	294.5
266.126	318.5
266.358	315.5
266.591	301.5
266.823	313.5
267.055	315.5
267.287	292.5
267.52	303.5
267.752	292.5
267.984	306.5
268.216	310.5
268.448	310.5
268.681	333.5
268.913	332.5
269.145	310.5
269.377	316.5
269.609	317.5
269.841	324.5
270.073	322.5
270.306	315.5
270.538	323.5
270.77	319.5
271.002	327.5
271.234	325.5
271.466	317.5
271.698	322.5
271.93	319.5
272.162	355.5
272.394	354.5
272.626	340.5
272.858	332.5
273.09	353.5
273.322	343.5
273.553	357.5
273.785	362.5
274.017	354.5
274.249	348.5
274.481	344.5
274.713	346.5
274.945	348.5
275.176	364.5
275.408	348.5
275.64	372.5
275.872	354.5
276.104	357.5
276.335	362.5
276.567	358.5
276.799	364.5
277.031	374.5
277.262	362.5
277.494	374.5
277.726	368.5
277.957	382.5
278.189	363.5
278.421	380.5
278.652	395.5
278.884	369.5
279.115	349.5
279.347	378.5
279.579	380.5
279.81	379.5
280.042	388.5
280.273	392.5
280.505	384.5
280.736	394.5
280.968	378.5
281.199	383.5
281.431	381.5
281.662	393.5
281.894	386.5
282.125	404.5
282.356	396.5
282.588	399.5
282.819	406.5
283.051	388.5
283.282	408.5
283.513	423.5
283.745	401.5
283.976	404.5
284.207	414.5
284.439	391.5
284.67	400.5
284.901	401.5
285.132	412.5
285.364	408.5
285.595	426.5
285.826	419.5
286.057	412.5
286.288	406.5
286.52	410.5
286.751	421.5
286.982	406.5
287.213	422.5
287.444	391.5
287.675	413.5
287.906	412.5
288.138	422.5
288.369	428.5
288.6	437.5
288.831	422.5
289.062	416.5
289.293	419.5
289.524	409.5
289.755	434.5
289.986	442.5
290.217	438.5
290.448	448.5
290.679	438.5
290.91	428.5
291.141	421.5
291.371	432.5
291.602	451.5
291.833	423.5
292.064	434.5
292.295	434.5
292.526	427.5
292.757	426.5
292.987	436.5
293.218	434.5
293.449	450.5
293.68	440.5
293.91	428.5
294.141	449.5
294.372	446.5
294.603	441.5
294.833	440.5
295.064	434.5
295.295	430.5
295.525	452.5
295.756	456.5
295.987	469.5
296.217	444.5
296.448	467.5
296.679	439.5
296.909	443.5
297.14	443.5
297.37	462.5
297.601	451.5
297.831	461.5
298.062	474.5
298.292	480.5
298.523	475.5
298.753	474.5
298.984	474.5
299.214	490.5
299.445	500.5
299.675	477.5
299.905	488.5
300.136	487.5
300.366	527.5
300.597	519.5
300.827	476.5
301.057	494.5
301.288	487.5
301.518	495.5
301.748	494.5
301.979	493.5
302.209	491.5
302.439	495.5
302.669	478.5
302.9	461.5
303.13	501.5
303.36	487.5
303.59	509.5
303.82	487.5
304.051	519.5
304.281	510.5
304.511	490.5
304.741	486.5
304.971	505.5
305.201	524.5
305.431	533.5
305.661	518.5
305.891	505.5
306.121	535.5
306.352	489.5
306.582	492.5
306.812	499.5
307.042	507.5
307.272	489.5
307.502	492.5
307.731	523.5
307.961	509.5
308.191	498.5
308.421	510.5
308.651	519.5
308.881	520.5
309.111	503.5
309.341	508.5
309.571	513.5
309.8	515.5
310.03	539.5
310.26	553.5
310.49	552.5
310.72	539.5
310.949	511.5
311.179	505.5
311.409	515.5
311.639	539.5
311.868	531.5
312.098	524.5
312.328	539.5
312.557	535.5
312.787	529.5
313.017	536.5
313.246	536.5
313.476	560.5
313.706	557.5
313.935	550.5
314.165	529.5
314.394	548.5
314.624	546.5
314.853	559.5
315.083	552.5
315.312	545.5
315.542	552.5
315.771	556.5
316.001	567.5
316.23	576.5
316.46	558.5
316.689	568.5
316.919	550.5
317.148	559.5
317.377	575.5
317.607	528.5
317.836	544.5
318.065	541.5
318.295	543.5
318.524	559.5
318.753	554.5
318.983	558.5
319.212	569.5
319.441	566.5
319.67	582.5
319.9	556.5
320.129	573.5
320.358	560.5
320.587	571.5
320.816	558.5
321.046	588.5
321.275	585.5
321.504	577.5
321.733	599.5
321.962	593.5
322.191	562.5
322.42	580.5
322.649	596.5
322.878	577.5
323.108	589.5
323.337	600.5
323.566	615.5
323.795	576.5
324.024	599.5
324.253	592.5
324.482	602.5
324.71	584.5
324.939	623.5
325.168	604.5
325.397	595.5
325.626	603.5
325.855	605.5
326.084	588.5
326.313	609.5
326.542	592.5
326.77	635.5
326.999	618.5
327.228	612.5
327.457	603.5
327.686	611.5
327.914	629.5
328.143	630.5
328.372	604.5
328.6	619.5
328.829	633.5
329.058	640.5
329.287	624.5
329.515	620.5
329.744	626.5
329.972	640.5
330.201	649.5
330.43	638.5
330.658	650.5
330.887	654.5
331.115	645.5
331.344	659.5
331.572	655.5
331.801	656.5
332.03	659.5
332.258	670.5
332.486	679.5
332.715	664.5
332.943	676.5
333.172	722.5
333.4	707.5
333.629	725.5
333.857	717.5
334.085	718.5
334.314	723.5
334.542	731.5
334.771	735.5
334.999	734.5
335.227	742.5
335.455	725.5
335.684	721.5
335.912	717.5
336.14	722.5
336.369	737.5
336.597	736.5
336.825	740.5
337.053	726.5
337.281	764.5
337.51	738.5
337.738	730.5
337.966	718.5
338.194	730.5
338.422	731.5
338.65	708.5
338.878	699.5
339.106	699.5
339.334	726.5
339.562	742.5
339.79	662.5
340.018	681.5
340.246	663.5
340.474	708.5
340.702	687.5
340.93	664.5
341.158	707.5
341.386	717.5
341.614	734.5
341.842	744.5
342.07	686.5
342.298	706.5
342.526	677.5
342.754	700.5
342.981	695.5
343.209	704.5
343.437	691.5
343.665	736.5
343.893	738.5
344.12	735.5
344.348	747.5
344.576	722.5
344.804	756.5
345.031	735.5
345.259	690.5
345.487	712.5
345.714	735.5
345.942	715.5
346.17	755.5
346.397	716.5
346.625	686.5
346.853	670.5
347.08	659.5
347.308	669.5
347.535	683.5
347.763	666.5
347.99	645.5
348.218	654.5
348.445	637.5
348.673	670.5
348.9	675.5
349.128	687.5
349.355	703.5
349.583	667.5
349.81	665.5
350.037	652.5
350.265	660.5
350.492	640.5
350.72	660.5
350.947	680.5
351.174	698.5
351.402	682.5
351.629	677.5
351.856	682.5
352.083	646.5
352.311	666.5
352.538	709.5
352.765	726.5
352.992	667.5
353.22	655.5
353.447	631.5
353.674	634.5
353.901	611.5
354.128	630.5
354.355	611.5
354.583	621.5
354.81	642.5
355.037	656.5
355.264	652.5
355.491	645.5
355.718	648.5
355.945	639.5
356.172	631.5
356.399	635.5
356.626	666.5
356.853	676.5
357.08	660.5
357.307	663.5
357.534	653.5
357.761	668.5
357.988	629.5
358.215	646.5
358.441	630.5
358.668	622.5
358.895	633.5
359.122	652.5
359.349	667.5
359.576	641.5
359.802	644.5
360.029	632.5
360.256	644.5
360.483	619.5
360.709	639.5
360.936	647.5
361.163	650.5
361.39	652.5
361.616	663.5
361.843	676.5
362.07	706.5
362.296	685.5
362.523	655.5
362.749	672.5
362.976	654.5
363.203	660.5
363.429	637.5
363.656	640.5
363.882	647.5
364.109	637.5
364.335	662.5
364.562	642.5
364.788	646.5
365.015	651.5
365.241	644.5
365.468	640.5
365.694	652.5
365.92	642.5
366.147	635.5
366.373	646.5
366.599	656.5
366.826	658.5
367.052	669.5
367.278	664.5
367.505	640.5
367.731	651.5
367.957	647.5
368.184	664.5
368.41	653.5
368.636	660.5
368.862	649.5
369.089	662.5
369.315	650.5
369.541	661.5
369.767	667.5
369.993	667.5
370.219	676.5
370.445	699.5
370.672	667.5
370.898	667.5
371.124	683.5
371.35	674.5
371.576	692.5
371.802	712.5
372.028	697.5
372.254	707.5
372.48	687.5
372.706	722.5
372.932	711.5
373.158	698.5
373.384	683.5
373.61	697.5
373.835	691.5
374.061	714.5
374.287	705.5
374.513	678.5
374.739	725.5
374.965	704.5
375.191	724.5
375.416	719.5
375.642	707.5
375.868	705.5
376.094	719.5
376.319	712.5
376.545	694.5
376.771	672.5
376.997	696.5
377.222	718.5
377.448	677.5
377.674	700.5
377.899	700.5
378.125	674.5
378.35	709.5
378.576	674.5
378.802	687.5
379.027	680.5
379.253	684.5
379.478	667.5
379.704	690.5
379.929	672.5
380.155	676.5
380.38	702.5
380.606	657.5
380.831	696.5
381.057	694.5
381.282	678.5
381.507	669.5
381.733	684.5
381.958	713.5
382.184	717.5
382.409	701.5
382.634	729.5
382.86	713.5
383.085	714.5
383.31	718.5
383.535	712.5
383.761	734.5
383.986	710.5
384.211	736.5
384.436	753.5
384.662	728.5
384.887	732.5
385.112	762.5
385.337	766.5
385.562	767.5
385.787	785.5
386.013	804.5
386.238	765.5
386.463	798.5
386.688	779.5
386.913	746.5
387.138	760.5
387.363	796.5
387.588	797.5
387.813	792.5
388.038	771.5
388.263	797.5
388.488	775.5
388.713	786.5
388.938	797.5
389.163	759.5
389.387	779.5
389.612	761.5
389.837	762.5
390.062	797.5
390.287	794.5
390.512	798.5
390.736	780.5
390.961	779.5
391.186	796.5
391.411	795.5
391.636	812.5
391.86	796.5
392.085	838.5
392.31	807.5
392.534	831.5
392.759	814.5
392.984	827.5
393.208	820.5
393.433	848.5
393.658	831.5
393.882	827.5
394.107	821.5
394.331	823.5
394.556	797.5
394.78	839.5
395.005	837.5
395.229	811.5
395.454	826.5
395.678	842.5
395.903	811.5
396.127	844.5
396.352	813.5
396.576	855.5
396.801	854.5
397.025	858.5
397.249	880.5
397.474	877.5
397.698	847.5
397.922	873.5
398.147	879.5
398.371	905.5
398.595	910.5
398.82	947.5
399.044	946.5
399.268	989.5
399.492	1044.5
399.717	1070.5
399.941	1068.5
400.165	1050.5
400.389	1037.5
400.613	1029.5
400.837	912.5
401.062	955.5
401.286	937.5
401.51	941.5
401.734	934.5
401.958	932.5
402.182	898.5
402.406	900.5
402.63	942.5
402.854	957.5
403.078	956.5
403.302	971.5
403.526	941.5
403.75	938.5
403.974	962.5
404.198	924.5
404.422	926.5
404.645	931.5
404.869	918.5
405.093	973.5
405.317	952.5
405.541	954.5
405.765	956.5
405.988	962.5
406.212	1019.5
406.436	954.5
406.66	1034.5
406.883	980.5
407.107	1020.5
407.331	1037.5
407.555	1061.5
407.778	1045.5
408.002	1066.5
408.226	1058.5
408.449	1032.5
408.673	1024.5
408.896	1038.5
409.12	1028.5
409.344	1030.5
409.567	1026.5
409.791	1041.5
410.014	996.5
410.238	1005.5
410.461	971.5
410.685	959.5
410.908	1010.5
411.132	965.5
411.355	969.5
411.578	940.5
411.802	956.5
412.025	956.5
412.249	977.5
412.472	959.5
412.695	943.5
412.919	957.5
413.142	920.5
413.365	936.5
413.589	936.5
413.812	940.5
414.035	920.5
414.258	934.5
414.482	912.5
414.705	896.5
414.928	946.5
415.151	920.5
415.374	962.5
415.597	928.5
415.821	924.5
416.044	896.5
416.267	909.5
416.49	919.5
416.713	898.5
416.936	914.5
417.159	886.5
417.382	903.5
417.605	889.5
417.828	905.5
418.051	901.5
418.274	899.5
418.497	890.5
418.72	902.5
418.943	899.5
419.166	950.5
419.389	986.5
419.611	977.5
419.834	957.5
420.057	922.5
420.28	933.5
420.503	860.5
420.726	887.5
420.948	903.5
421.171	897.5
421.394	900.5
421.617	899.5
421.839	917.5
422.062	904.5
422.285	880.5
422.507	916.5
422.73	903.5
422.953	901.5
423.175	899.5
423.398	917.5
423.621	882.5
423.843	880.5
424.066	894.5
424.288	893.5
424.511	886.5
424.733	877.5
424.956	867.5
425.178	885.5
425.401	888.5
425.623	925.5
425.846	863.5
426.068	876.5
426.291	895.5
426.513	907.5
426.735	877.5
426.958	896.5
427.18	853.5
427.402	858.5
427.625	869.5
427.847	839.5
428.069	843.5
428.292	877.5
428.514	860.5
428.736	852.5
428.958	861.5
429.181	847.5
429.403	813.5
429.625	864.5
429.847	846.5
430.069	834.5
430.292	847.5
430.514	846.5
430.736	864.5
430.958	821.5
431.18	856.5
431.402	860.5
431.624	816.5
431.846	866.5
432.068	860.5
432.29	868.5
432.512	886.5
432.734	882.5
432.956	887.5
433.178	867.5
433.4	913.5
433.622	924.5
433.844	894.5
434.066	919.5
434.287	894.5
434.509	871.5
434.731	899.5
434.953	894.5
435.175	945.5
435.397	929.5
435.618	899.5
435.84	900.5
436.062	910.5
436.284	860.5
436.505	851.5
436.727	872.5
436.949	867.5
437.17	893.5
437.392	886.5
437.614	869.5
437.835	835.5
438.057	826.5
438.278	848.5
438.5	823.5
438.721	808.5
438.943	857.5
439.165	818.5
439.386	856.5
439.608	868.5
439.829	846.5
440.05	872.5
440.272	875.5
440.493	866.5
440.715	878.5
440.936	862.5
441.158	887.5
441.379	884.5
441.6	910.5
441.822	895.5
442.043	906.5
442.264	924.5
442.486	887.5
442.707	892.5
442.928	918.5
443.149	923.5
443.371	935.5
443.592	937.5
443.813	962.5
444.034	900.5
444.255	941.5
444.476	975.5
444.698	940.5
444.919	981.5
445.14	1076.5
445.361	1023.5
445.582	933.5
445.803	920.5
446.024	868.5
446.245	900.5
446.466	876.5
446.687	836.5
446.908	854.5
447.129	833.5
447.35	836.5
447.571	839.5
447.792	823.5
448.013	807.5
448.234	831.5
448.455	811.5
448.675	798.5
448.896	814.5
449.117	786.5
449.338	790.5
449.559	821.5
449.779	760.5
450	780.5
450.221	800.5
450.442	778.5
450.662	777.5
450.883	802.5
451.104	836.5
451.324	796.5
451.545	783.5
451.766	784.5
451.986	797.5
452.207	776.5
452.428	791.5
452.648	798.5
452.869	759.5
453.089	765.5
453.31	791.5
453.53	768.5
453.751	746.5
453.971	808.5
454.192	784.5
454.412	802.5
454.633	775.5
454.853	774.5
455.073	763.5
455.294	781.5
455.514	754.5
455.734	800.5
455.955	787.5
456.175	775.5
456.395	774.5
456.616	740.5
456.836	759.5
457.056	762.5
457.276	766.5
457.497	774.5
457.717	798.5
457.937	791.5
458.157	789.5
458.377	774.5
458.598	813.5
458.818	829.5
459.038	821.5
459.258	841.5
459.478	868.5
459.698	942.5
459.918	929.5
460.138	926.5
460.358	939.5
460.578	954.5
460.798	977.5
461.018	1001.5
461.238	942.5
461.458	943.5
461.678	930.5
461.898	920.5
462.118	926.5
462.338	985.5
462.558	990.5
462.777	1039.5
462.997	1078.5
463.217	1090.5
463.437	1122.5
463.657	1086.5
463.876	1040.5
464.096	1008.5
464.316	990.5
464.536	1002.5
464.755	997.5
464.975	976.5
465.195	951.5
465.414	917.5
465.634	899.5
465.854	867.5
466.073	879.5
466.293	867.5
466.512	835.5
466.732	846.5
466.951	851.5
467.171	820.5
467.391	843.5
467.61	839.5
467.829	830.5
468.049	848.5
468.268	816.5
468.488	831.5
468.707	807.5
468.927	822.5
469.146	843.5
469.365	873.5
469.585	836.5
469.804	845.5
470.023	822.5
470.243	805.5
470.462	845.5
470.681	842.5
470.901	849.5
471.12	801.5
471.339	823.5
471.558	859.5
471.777	839.5
471.997	826.5
472.216	831.5
472.435	821.5
472.654	838.5
472.873	805.5
473.092	813.5
473.311	819.5
473.53	827.5
473.749	834.5
473.968	824.5
474.187	830.5
474.406	824.5
474.625	850.5
474.844	833.5
475.063	840.5
475.282	843.5
475.501	832.5
475.72	839.5
475.939	849.5
476.158	842.5
476.377	859.5
476.596	852.5
476.814	851.5
477.033	858.5
477.252	883.5
477.471	896.5
477.69	920.5
477.908	909.5
478.127	930.5
478.346	915.5
478.564	925.5
478.783	961.5
479.002	974.5
479.22	1006.5
479.439	1002.5
479.658	973.5
479.876	959.5
480.095	980.5
480.313	997.5
480.532	993.5
480.751	1020.5
480.969	982.5
481.188	999.5
481.406	974.5
481.624	946.5
481.843	958.5
482.061	958.5
482.28	950.5
482.498	973.5
482.717	962.5
482.935	956.5
483.153	975.5
483.372	981.5
483.59	1044.5
483.808	981.5
484.027	974.5
484.245	986.5
484.463	956.5
484.681	1003.5
484.9	996.5
485.118	975.5
485.336	984.5
485.554	997.5
485.772	966.5
485.99	1014.5
486.209	985.5
486.427	970.5
486.645	985.5
486.863	1025.5
487.081	1000.5
487.299	974.5
487.517	1002.5
487.735	1023.5
487.953	1022.5
488.171	1024.5
488.389	1002.5
488.607	1007.5
488.825	994.5
489.043	980.5
489.261	991.5
489.479	994.5
489.696	969.5
489.914	975.5
490.132	1007.5
490.35	994.5
490.568	1012.5
490.786	995.5
491.003	995.5
491.221	1022.5
491.439	1001.5
491.657	1012.5
491.874	1040.5
492.092	1037.5
492.31	1071.5
492.527	1013.5
492.745	1035.5
492.963	1017.5
493.18	1027.5
493.398	1004.5
493.615	1051.5
493.833	1038.5
494.05	1031.5
494.268	1052.5
494.485	1030.5
494.703	1022.5
494.92	1067.5
495.138	1068.5
495.355	1060.5
495.573	1046.5
495.79	1061.5
496.008	1080.5
496.225	1074.5
496.442	1063.5
496.66	1097.5
496.877	1107.5
497.094	1076.5
497.312	1120.5
497.529	1147.5
497.746	1172.5
497.963	1188.5
498.181	1217.5
498.398	1239.5
498.615	1271.5
498.832	1332.5
499.049	1359.5
499.267	1431.5
499.484	1475.5
499.701	1562.5
499.918	1615.5
500.135	1699.5
500.352	1728.5
500.569	1743.5
500.786	1739.5
501.003	1758.5
501.22	1680.5
501.437	1618.5
501.654	1543.5
501.871	1438.5
502.088	1402.5
502.305	1374.5
502.522	1343.5
502.739	1261.5
502.956	1258.5
503.172	1223.5
503.389	1176.5
503.606	1148.5
503.823	1152.5
504.04	1124.5
504.256	1100.5
504.473	1119.5
504.69	1108.5
504.907	1101.5
505.123	1044.5
505.34	1058.5
505.557	1031.5
505.773	1013.5
505.99	1001.5
506.207	943.5
506.423	941.5
506.64	959.5
506.856	956.5
507.073	928.5
507.289	938.5
507.506	891.5
507.722	913.5
507.939	915.5
508.155	898.5
508.372	872.5
508.588	878.5
508.805	883.5
509.021	872.5
509.238	899.5
509.454	855.5
509.67	861.5
509.887	858.5
510.103	871.5
510.319	862.5
510.536	850.5
510.752	825.5
510.968	844.5
511.184	830.5
511.401	867.5
511.617	849.5
511.833	856.5
512.049	835.5
512.265	846.5
512.481	842.5
512.698	829.5
512.914	827.5
513.13	847.5
513.346	822.5
513.562	821.5
513.778	803.5
513.994	842.5
514.21	820.5
514.426	837.5
514.642	823.5
514.858	854.5
515.074	876.5
515.29	842.5
515.506	858.5
515.721	842.5
515.937	851.5
516.153	869.5
516.369	882.5
516.585	857.5
516.801	912.5
517.016	916.5
517.232	925.5
517.448	910.5
517.664	946.5
517.879	953.5
518.095	932.5
518.311	935.5
518.527	903.5
518.742	911.5
518.958	876.5
519.173	861.5
519.389	829.5
519.605	841.5
519.82	825.5
520.036	854.5
520.251	805.5
520.467	819.5
520.682	820.5
520.898	794.5
521.113	804.5
521.329	810.5
521.544	796.5
521.76	791.5
521.975	814.5
522.19	782.5
522.406	783.5
522.621	776.5
522.836	774.5
523.052	764.5
523.267	757.5
523.482	757.5
523.698	740.5
523.913	748.5
524.128	767.5
524.343	753.5
524.559	735.5
524.774	775.5
524.989	754.5
525.204	754.5
525.419	739.5
525.634	730.5
525.849	732.5
526.064	759.5
526.28	730.5
526.495	711.5
526.71	728.5
526.925	740.5
527.14	733.5
527.355	725.5
527.57	691.5
527.785	734.5
527.999	746.5
528.214	736.5
528.429	766.5
528.644	757.5
528.859	695.5
529.074	709.5
529.289	755.5
529.503	733.5
529.718	722.5
529.933	740.5
530.148	734.5
530.363	707.5
530.577	729.5
530.792	714.5
531.007	706.5
531.221	749.5
531.436	706.5
531.651	704.5
531.865	726.5
532.08	702.5
532.295	706.5
532.509	711.5
532.724	709.5
532.938	705.5
533.153	720.5
533.367	704.5
533.582	704.5
533.796	713.5
534.011	724.5
534.225	662.5
534.44	690.5
534.654	686.5
534.868	672.5
535.083	695.5
535.297	688.5
535.511	685.5
535.726	686.5
535.94	690.5
536.154	671.5
536.369	686.5
536.583	676.5
536.797	666.5
537.011	654.5
537.225	684.5
537.44	666.5
537.654	676.5
537.868	672.5
538.082	658.5
538.296	672.5
538.51	660.5
538.724	659.5
538.938	665.5
539.153	658.5
539.367	663.5
539.581	661.5
539.795	661.5
540.009	657.5
540.222	670.5
540.436	642.5
540.65	642.5
540.864	652.5
541.078	663.5
541.292	646.5
541.506	674.5
541.72	648.5
541.934	637.5
542.147	654.5
542.361	663.5
542.575	646.5
542.789	654.5
543.002	635.5
543.216	635.5
543.43	623.5
543.644	647.5
543.857	664.5
544.071	635.5
544.285	638.5
544.498	662.5
544.712	658.5
544.925	631.5
545.139	636.5
545.352	677.5
545.566	668.5
545.779	660.5
545.993	652.5
546.206	654.5
546.42	647.5
546.633	679.5
546.847	639.5
547.06	651.5
547.274	670.5
547.487	659.5
547.7	655.5
547.914	678.5
548.127	652.5
548.34	640.5
548.554	646.5
548.767	647.5
548.98	653.5
549.193	643.5
549.407	639.5
549.62	651.5
549.833	671.5
550.046	616.5
550.259	632.5
550.473	651.5
550.686	646.5
550.899	613.5
551.112	638.5
551.325	645.5
551.538	642.5
551.751	632.5
551.964	637.5
552.177	640.5
552.39	654.5
552.603	654.5
552.816	655.5
553.029	655.5
553.242	659.5
553.455	649.5
553.667	670.5
553.88	634.5
554.093	641.5
554.306	629.5
554.519	604.5
554.732	638.5
554.944	628.5
555.157	620.5
555.37	614.5
555.583	609.5
555.795	599.5
556.008	582.5
556.221	578.5
556.433	583.5
556.646	590.5
556.859	582.5
557.071	576.5
557.284	566.5
557.496	574.5
557.709	568.5
557.921	564.5
558.134	576.5
558.346	572.5
558.559	581.5
558.771	570.5
558.984	536.5
559.196	553.5
559.409	559.5
559.621	558.5
559.833	562.5
560.046	527.5
560.258	552.5
560.47	549.5
560.683	558.5
560.895	557.5
561.107	554.5
561.32	539.5
561.532	537.5
561.744	572.5
561.956	551.5
562.168	550.5
562.381	562.5
562.593	551.5
562.805	568.5
563.017	559.5
563.229	556.5
563.441	551.5
563.653	552.5
563.865	564.5
564.077	548.5
564.289	558.5
564.501	579.5
564.713	582.5
564.925	587.5
565.137	591.5
565.349	588.5
565.561	602.5
565.773	614.5
565.985	619.5
566.197	639.5
566.408	635.5
566.62	676.5
566.832	669.5
567.044	664.5
567.255	655.5
567.467	695.5
567.679	693.5
567.891	712.5
568.102	663.5
568.314	660.5
568.526	648.5
568.737	647.5
568.949	616.5
569.161	610.5
569.372	562.5
569.584	570.5
569.795	568.5
570.007	567.5
570.218	528.5
570.43	548.5
570.641	534.5
570.853	500.5
571.064	530.5
571.276	518.5
571.487	500.5
571.698	506.5
571.91	496.5
572.121	496.5
572.333	511.5
572.544	460.5
572.755	471.5
572.966	479.5
573.178	462.5
573.389	445.5
573.6	455.5
573.811	446.5
574.023	444.5
574.234	461.5
574.445	447.5
574.656	420.5
574.867	472.5
575.078	427.5
575.289	421.5
575.501	434.5
575.712	445.5
575.923	422.5
576.134	426.5
576.345	434.5
576.556	422.5
576.767	427.5
576.978	405.5
577.188	428.5
577.399	425.5
577.61	410.5
577.821	419.5
578.032	415.5
578.243	411.5
578.454	407.5
578.665	385.5
578.875	397.5
579.086	412.5
579.297	406.5
579.508	404.5
579.718	396.5
579.929	408.5
580.14	397.5
580.35	396.5
580.561	390.5
580.772	402.5
580.982	405.5
581.193	393.5
581.403	382.5
581.614	401.5
581.825	388.5
582.035	392.5
582.246	382.5
582.456	397.5
582.667	378.5
582.877	373.5
583.087	380.5
583.298	374.5
583.508	369.5
583.719	388.5
583.929	374.5
584.139	376.5
584.35	349.5
584.56	388.5
584.77	357.5
584.981	363.5
585.191	376.5
585.401	362.5
585.611	367.5
585.821	378.5
586.032	374.5
586.242	360.5
586.452	364.5
586.662	373.5
586.872	359.5
587.082	370.5
587.292	360.5
587.502	359.5
587.713	378.5
587.923	359.5
588.133	359.5
588.343	371.5
588.553	365.5
588.762	365.5
588.972	345.5
589.182	398.5
589.392	384.5
589.602	379.5
589.812	395.5
590.022	359.5
590.232	363.5
590.441	376.5
590.651	363.5
590.861	382.5
591.071	358.5
591.281	350.5
591.49	380.5
591.7	399.5
591.91	367.5
592.119	365.5
592.329	374.5
592.539	374.5
592.748	375.5
592.958	383.5
593.167	379.5
593.377	368.5
593.587	382.5
593.796	386.5
594.006	389.5
594.215	373.5
594.424	379.5
594.634	357.5
594.843	378.5
595.053	374.5
595.262	351.5
595.472	346.5
595.681	361.5
595.89	343.5
596.1	368.5
596.309	340.5
596.518	365.5
596.727	360.5
596.937	329.5
597.146	326.5
597.355	349.5
597.564	335.5
597.774	332.5
597.983	332.5
598.192	319.5
598.401	304.5
598.61	319.5
598.819	326.5
599.028	314.5
599.237	317.5
599.446	310.5
599.655	311.5
599.864	296.5
600.073	304.5
600.282	320.5
600.491	316.5
600.7	301.5
600.909	315.5
601.118	308.5
601.327	312.5
601.536	301.5
601.745	308.5
601.953	308.5
602.162	304.5
602.371	298.5
602.58	297.5
602.789	294.5
602.997	307.5
603.206	283.5
603.415	306.5
603.623	316.5
603.832	285.5
604.041	268.5
604.249	281.5
604.458	310.5
604.666	290.5
604.875	294.5
605.084	288.5
605.292	284.5
605.501	278.5
605.709	295.5
605.918	283.5
606.126	296.5
606.334	286.5
606.543	286.5
606.751	285.5
606.96	287.5
607.168	285.5
607.376	294.5
607.585	290.5
607.793	283.5
608.001	296.5
608.21	294.5
608.418	263.5
608.626	280.5
608.834	285.5
609.043	268.5
609.251	267.5
609.459	282.5
609.667	278.5
609.875	273.5
610.083	278.5
610.291	277.5
610.499	279.5
610.707	287.5
610.916	269.5
611.124	270.5
611.332	275.5
611.54	271.5
611.748	265.5
611.955	267.5
612.163	280.5
612.371	266.5
612.579	268.5
612.787	281.5
612.995	268.5
613.203	280.5
613.411	285.5
613.618	271.5
613.826	272.5
614.034	272.5
614.242	265.5
614.449	278.5
614.657	261.5
614.865	274.5
615.072	276.5
615.28	260.5
615.488	265.5
615.695	272.5
615.903	262.5
616.111	270.5
616.318	261.5
616.526	259.5
616.733	239.5
616.941	270.5
617.148	271.5
617.356	251.5
617.563	261.5
617.771	269.5
617.978	254.5
618.185	251.5
618.393	271.5
618.6	267.5
618.807	277.5
619.015	259.5
619.222	236.5
619.429	259.5
619.637	254.5
619.844	268.5
620.051	271.5
620.258	257.5
620.466	261.5
620.673	252.5
620.88	238.5
621.087	248.5
621.294	247.5
621.501	233.5
621.708	246.5
621.915	260.5
622.122	248.5
622.329	251.5
622.536	234.5
622.743	243.5
622.95	247.5
623.157	255.5
623.364	223.5
623.571	260.5
623.778	258.5
623.985	250.5
624.192	241.5
624.399	215.5
624.606	228.5
624.812	243.5
625.019	249.5
625.226	226.5
625.433	242.5
625.639	248.5
625.846	222.5
626.053	235.5
626.259	240.5
626.466	230.5
626.673	232.5
626.879	232.5
627.086	235.5
627.293	240.5
627.499	238.5
627.706	227.5
627.912	219.5
628.119	245.5
628.325	243.5
628.532	228.5
628.738	220.5
628.945	221.5
629.151	217.5
629.357	225.5
629.564	237.5
629.77	222.5
629.976	221.5
630.183	215.5
630.389	214.5
630.595	224.5
630.802	215.5
631.008	222.5
631.214	224.5
631.42	243.5
631.627	216.5
631.833	206.5
632.039	230.5
632.245	220.5
632.451	219.5
632.657	230.5
632.863	205.5
633.069	213.5
633.275	223.5
633.481	221.5
633.688	213.5
633.893	214.5
634.099	212.5
634.305	202.5
634.511	202.5
634.717	206.5
634.923	218.5
635.129	200.5
635.335	212.5
635.541	217.5
635.747	205.5
635.952	196.5
636.158	207.5
636.364	211.5
636.57	201.5
636.775	217.5
636.981	209.5
637.187	206.5
637.392	213.5
637.598	211.5
637.804	213.5
638.009	214.5
638.215	216.5
638.421	191.5
638.626	216.5
638.832	214.5
639.037	215.5
639.243	203.5
639.448	214.5
639.654	185.5
639.859	214.5
640.065	198.5
640.27	189.5
640.475	203.5
640.681	202.5
640.886	210.5
641.091	212.5
641.297	201.5
641.502	203.5
641.707	195.5
641.913	198.5
642.118	190.5
642.323	221.5
642.528	199.5
642.733	206.5
642.939	199.5
643.144	204.5
643.349	205.5
643.554	212.5
643.759	201.5
643.964	192.5
644.169	199.5
644.374	208.5
644.579	185.5
644.784	205.5
644.989	190.5
645.194	198.5
645.399	210.5
645.604	194.5
645.809	209.5
646.014	190.5
646.219	191.5
646.423	203.5
646.628	190.5
646.833	194.5
647.038	208.5
647.243	196.5
647.447	211.5
647.652	216.5
647.857	213.5
648.062	216.5
648.266	200.5
648.471	207.5
648.676	217.5
648.88	228.5
649.085	208.5
649.289	212.5
649.494	211.5
649.698	209.5
649.903	204.5
650.107	204.5
650.312	215.5
650.516	209.5
650.721	202.5
650.925	208.5
651.13	208.5
651.334	204.5
651.539	211.5
651.743	200.5
651.947	204.5
652.152	203.5
652.356	195.5
652.56	207.5
652.764	211.5
652.969	203.5
653.173	195.5
653.377	186.5
653.581	216.5
653.785	196.5
653.99	191.5
654.194	189.5
654.398	195.5
654.602	209.5
654.806	185.5
655.01	200.5
655.214	198.5
655.418	199.5
655.622	203.5
655.826	206.5
656.03	193.5
656.234	195.5
656.438	197.5
656.642	198.5
656.846	196.5
657.049	196.5
657.253	181.5
657.457	176.5
657.661	179.5
657.865	161.5
658.068	162.5
658.272	151.5
658.476	143.5
658.68	136.5
658.883	150.5
659.087	138.5
659.291	135.5
659.494	123.5
659.698	125.5
659.901	126.5
660.105	116.5
660.309	128.5
660.512	115.5
660.716	101.5
660.919	125.5
661.123	110.5
661.326	110.5
661.53	107.5
661.733	104.5
661.936	91.5
662.14	79.5
662.343	91.5
662.546	101.5
662.75	95.5
662.953	88.5
663.156	84.5
663.36	101.5
663.563	88.5
663.766	85.5
663.969	88.5
664.173	84.5
664.376	84.5
664.579	80.5
664.782	79.5
664.985	70.5
665.188	80.5
665.391	87.5
665.594	72.5
665.797	79.5
666	82.5
666.203	80.5
666.406	88.5
666.609	70.5
666.812	90.5
667.015	96.5
667.218	76.5
667.421	91.5
667.624	85.5
667.827	81.5
668.03	64.5
668.232	83.5
668.435	75.5
668.638	83.5
668.841	90.5
669.043	83.5
669.246	64.5
669.449	84.5
669.651	80.5
669.854	92.5
670.057	81.5
670.259	83.5
670.462	90.5
670.665	89.5
670.867	86.5
671.07	78.5
671.272	91.5
671.475	101.5
671.677	91.5
671.88	83.5
672.082	87.5
672.284	91.5
672.487	83.5
672.689	78.5
672.892	88.5
