Data from Ni(NO3)2@0.125M.TitratingCurve.Agarose3%dH2O.NegLispCup.LampEnergy10.LIBS07252019_HRD10591_18-09-06-567.txt Node
Date: Thu Jul 25 18:09:06 EDT 2019
User: cochatt
Spectrometer: HR+D1059
Trigger mode: 1
Integration Time (sec): 1.000000E-1
Scans to average: 1
Electric dark correction enabled: true
Nonlinearity correction enabled: false
Boxcar width: 0
XAxis mode: Wavelengths
Number of Pixels in Spectrum: 2048
>>>>>Begin Spectral Data<<<<<
223.165	-9.5
223.4	-9.5
223.635	-9.5
223.869	-20.5
224.104	-18.5
224.338	-26.5
224.573	-8.5
224.808	-22.5
225.042	1.5
225.277	-10.5
225.511	-14.5
225.746	12.5
225.98	7.5
226.215	13.5
226.449	13.5
226.683	30.5
226.918	23.5
227.152	28.5
227.387	37.5
227.621	38.5
227.856	44.5
228.09	41.5
228.324	56.5
228.559	40.5
228.793	55.5
229.027	115.5
229.262	117.5
229.496	113.5
229.73	118.5
229.964	146.5
230.199	130.5
230.433	137.5
230.667	131.5
230.901	141.5
231.136	134.5
231.37	168.5
231.604	133.5
231.838	149.5
232.072	143.5
232.306	162.5
232.541	148.5
232.775	139.5
233.009	156.5
233.243	159.5
233.477	146.5
233.711	134.5
233.945	149.5
234.179	158.5
234.413	157.5
234.647	158.5
234.881	138.5
235.115	163.5
235.349	148.5
235.583	152.5
235.817	154.5
236.051	163.5
236.285	160.5
236.519	155.5
236.753	161.5
236.987	149.5
237.221	161.5
237.455	163.5
237.689	153.5
237.922	165.5
238.156	168.5
238.39	173.5
238.624	171.5
238.858	168.5
239.091	180.5
239.325	175.5
239.559	182.5
239.793	192.5
240.027	186.5
240.26	178.5
240.494	192.5
240.728	193.5
240.961	189.5
241.195	196.5
241.429	194.5
241.662	191.5
241.896	207.5
242.13	203.5
242.363	193.5
242.597	211.5
242.83	200.5
243.064	226.5
243.298	219.5
243.531	215.5
243.765	198.5
243.998	195.5
244.232	235.5
244.465	224.5
244.699	222.5
244.932	242.5
245.166	226.5
245.399	233.5
245.633	231.5
245.866	217.5
246.099	224.5
246.333	242.5
246.566	227.5
246.8	228.5
247.033	241.5
247.266	252.5
247.5	249.5
247.733	249.5
247.966	255.5
248.2	240.5
248.433	263.5
248.666	236.5
248.899	249.5
249.133	253.5
249.366	254.5
249.599	267.5
249.832	260.5
250.066	255.5
250.299	274.5
250.532	258.5
250.765	269.5
250.998	271.5
251.231	285.5
251.465	285.5
251.698	291.5
251.931	294.5
252.164	297.5
252.397	284.5
252.63	292.5
252.863	300.5
253.096	301.5
253.329	290.5
253.562	281.5
253.795	297.5
254.028	314.5
254.261	301.5
254.494	288.5
254.727	297.5
254.96	308.5
255.193	311.5
255.426	322.5
255.659	302.5
255.892	331.5
256.124	319.5
256.357	305.5
256.59	312.5
256.823	328.5
257.056	305.5
257.289	329.5
257.521	325.5
257.754	321.5
257.987	335.5
258.22	313.5
258.452	340.5
258.685	330.5
258.918	322.5
259.151	331.5
259.383	338.5
259.616	330.5
259.849	343.5
260.081	335.5
260.314	356.5
260.547	350.5
260.779	349.5
261.012	356.5
261.244	360.5
261.477	349.5
261.71	354.5
261.942	364.5
262.175	355.5
262.407	378.5
262.64	391.5
262.872	381.5
263.105	380.5
263.337	364.5
263.57	360.5
263.802	376.5
264.035	379.5
264.267	406.5
264.499	378.5
264.732	374.5
264.964	378.5
265.197	390.5
265.429	394.5
265.661	369.5
265.894	396.5
266.126	399.5
266.358	384.5
266.591	410.5
266.823	378.5
267.055	402.5
267.287	404.5
267.52	395.5
267.752	393.5
267.984	413.5
268.216	396.5
268.448	409.5
268.681	402.5
268.913	412.5
269.145	418.5
269.377	416.5
269.609	401.5
269.841	397.5
270.073	393.5
270.306	437.5
270.538	402.5
270.77	406.5
271.002	416.5
271.234	400.5
271.466	437.5
271.698	427.5
271.93	429.5
272.162	421.5
272.394	444.5
272.626	424.5
272.858	425.5
273.09	415.5
273.322	420.5
273.553	449.5
273.785	430.5
274.017	428.5
274.249	436.5
274.481	430.5
274.713	440.5
274.945	450.5
275.176	458.5
275.408	457.5
275.64	454.5
275.872	467.5
276.104	459.5
276.335	459.5
276.567	454.5
276.799	458.5
277.031	444.5
277.262	443.5
277.494	441.5
277.726	472.5
277.957	461.5
278.189	474.5
278.421	448.5
278.652	458.5
278.884	482.5
279.115	458.5
279.347	462.5
279.579	458.5
279.81	474.5
280.042	482.5
280.273	487.5
280.505	512.5
280.736	498.5
280.968	483.5
281.199	506.5
281.431	484.5
281.662	466.5
281.894	516.5
282.125	497.5
282.356	502.5
282.588	508.5
282.819	520.5
283.051	530.5
283.282	515.5
283.513	511.5
283.745	531.5
283.976	528.5
284.207	522.5
284.439	515.5
284.67	525.5
284.901	549.5
285.132	528.5
285.364	540.5
285.595	542.5
285.826	541.5
286.057	548.5
286.288	533.5
286.52	548.5
286.751	557.5
286.982	542.5
287.213	551.5
287.444	550.5
287.675	544.5
287.906	544.5
288.138	542.5
288.369	580.5
288.6	562.5
288.831	582.5
289.062	565.5
289.293	542.5
289.524	557.5
289.755	570.5
289.986	563.5
290.217	548.5
290.448	560.5
290.679	591.5
290.91	584.5
291.141	554.5
291.371	582.5
291.602	538.5
291.833	579.5
292.064	583.5
292.295	579.5
292.526	592.5
292.757	550.5
292.987	563.5
293.218	550.5
293.449	573.5
293.68	582.5
293.91	548.5
294.141	567.5
294.372	589.5
294.603	567.5
294.833	585.5
295.064	595.5
295.295	585.5
295.525	585.5
295.756	597.5
295.987	597.5
296.217	610.5
296.448	594.5
296.679	573.5
296.909	598.5
297.14	595.5
297.37	597.5
297.601	607.5
297.831	626.5
298.062	626.5
298.292	676.5
298.523	636.5
298.753	646.5
298.984	603.5
299.214	630.5
299.445	633.5
299.675	627.5
299.905	637.5
300.136	635.5
300.366	638.5
300.597	651.5
300.827	655.5
301.057	652.5
301.288	674.5
301.518	635.5
301.748	655.5
301.979	668.5
302.209	649.5
302.439	642.5
302.669	646.5
302.9	651.5
303.13	640.5
303.36	657.5
303.59	628.5
303.82	626.5
304.051	648.5
304.281	634.5
304.511	634.5
304.741	614.5
304.971	636.5
305.201	628.5
305.431	619.5
305.661	649.5
305.891	625.5
306.121	640.5
306.352	636.5
306.582	645.5
306.812	626.5
307.042	629.5
307.272	648.5
307.502	614.5
307.731	627.5
307.961	619.5
308.191	637.5
308.421	616.5
308.651	617.5
308.881	629.5
309.111	658.5
309.341	627.5
309.571	615.5
309.8	633.5
310.03	646.5
310.26	625.5
310.49	616.5
310.72	654.5
310.949	618.5
311.179	642.5
311.409	638.5
311.639	666.5
311.868	666.5
312.098	655.5
312.328	667.5
312.557	664.5
312.787	675.5
313.017	650.5
313.246	662.5
313.476	680.5
313.706	669.5
313.935	693.5
314.165	695.5
314.394	658.5
314.624	663.5
314.853	676.5
315.083	639.5
315.312	667.5
315.542	674.5
315.771	692.5
316.001	668.5
316.23	698.5
316.46	642.5
316.689	668.5
316.919	673.5
317.148	667.5
317.377	667.5
317.607	649.5
317.836	658.5
318.065	660.5
318.295	672.5
318.524	654.5
318.753	645.5
318.983	654.5
319.212	658.5
319.441	664.5
319.67	673.5
319.9	652.5
320.129	671.5
320.358	672.5
320.587	664.5
320.816	674.5
321.046	660.5
321.275	667.5
321.504	682.5
321.733	697.5
321.962	671.5
322.191	668.5
322.42	676.5
322.649	675.5
322.878	692.5
323.108	693.5
323.337	685.5
323.566	712.5
323.795	711.5
324.024	705.5
324.253	681.5
324.482	726.5
324.71	707.5
324.939	714.5
325.168	722.5
325.397	712.5
325.626	721.5
325.855	715.5
326.084	753.5
326.313	735.5
326.542	765.5
326.77	749.5
326.999	767.5
327.228	731.5
327.457	734.5
327.686	750.5
327.914	741.5
328.143	750.5
328.372	753.5
328.6	756.5
328.829	717.5
329.058	752.5
329.287	752.5
329.515	759.5
329.744	739.5
329.972	757.5
330.201	748.5
330.43	757.5
330.658	762.5
330.887	767.5
331.115	776.5
331.344	795.5
331.572	785.5
331.801	791.5
332.03	822.5
332.258	889.5
332.486	900.5
332.715	886.5
332.943	967.5
333.172	999.5
333.4	1018.5
333.629	1039.5
333.857	1059.5
334.085	1012.5
334.314	973.5
334.542	1000.5
334.771	969.5
334.999	947.5
335.227	964.5
335.455	935.5
335.684	913.5
335.912	901.5
336.14	885.5
336.369	921.5
336.597	927.5
336.825	939.5
337.053	928.5
337.281	936.5
337.51	872.5
337.738	843.5
337.966	864.5
338.194	850.5
338.422	827.5
338.65	838.5
338.878	836.5
339.106	827.5
339.334	835.5
339.562	833.5
339.79	768.5
340.018	777.5
340.246	781.5
340.474	795.5
340.702	769.5
340.93	808.5
341.158	802.5
341.386	794.5
341.614	789.5
341.842	798.5
342.07	798.5
342.298	783.5
342.526	776.5
342.754	770.5
342.981	801.5
343.209	805.5
343.437	840.5
343.665	938.5
343.893	984.5
344.12	986.5
344.348	949.5
344.576	867.5
344.804	860.5
345.031	854.5
345.259	843.5
345.487	823.5
345.714	810.5
345.942	800.5
346.17	799.5
346.397	791.5
346.625	774.5
346.853	748.5
347.08	776.5
347.308	799.5
347.535	769.5
347.763	801.5
347.99	821.5
348.218	806.5
348.445	780.5
348.673	781.5
348.9	778.5
349.128	768.5
349.355	770.5
349.583	756.5
349.81	752.5
350.037	757.5
350.265	738.5
350.492	768.5
350.72	742.5
350.947	759.5
351.174	734.5
351.402	735.5
351.629	752.5
351.856	762.5
352.083	719.5
352.311	766.5
352.538	712.5
352.765	736.5
352.992	737.5
353.22	708.5
353.447	732.5
353.674	741.5
353.901	752.5
354.128	742.5
354.355	726.5
354.583	704.5
354.81	732.5
355.037	745.5
355.264	748.5
355.491	721.5
355.718	734.5
355.945	741.5
356.172	752.5
356.399	748.5
356.626	743.5
356.853	748.5
357.08	754.5
357.307	748.5
357.534	726.5
357.761	761.5
357.988	742.5
358.215	744.5
358.441	725.5
358.668	745.5
358.895	738.5
359.122	725.5
359.349	737.5
359.576	752.5
359.802	754.5
360.029	765.5
360.256	739.5
360.483	736.5
360.709	744.5
360.936	734.5
361.163	739.5
361.39	741.5
361.616	745.5
361.843	742.5
362.07	739.5
362.296	730.5
362.523	732.5
362.749	725.5
362.976	741.5
363.203	722.5
363.429	728.5
363.656	716.5
363.882	736.5
364.109	729.5
364.335	738.5
364.562	730.5
364.788	717.5
365.015	724.5
365.241	712.5
365.468	733.5
365.694	699.5
365.92	727.5
366.147	706.5
366.373	709.5
366.599	707.5
366.826	737.5
367.052	738.5
367.278	715.5
367.505	718.5
367.731	726.5
367.957	745.5
368.184	758.5
368.41	727.5
368.636	748.5
368.862	774.5
369.089	764.5
369.315	747.5
369.541	748.5
369.767	741.5
369.993	768.5
370.219	761.5
370.445	760.5
370.672	778.5
370.898	768.5
371.124	804.5
371.35	817.5
371.576	776.5
371.802	784.5
372.028	812.5
372.254	789.5
372.48	819.5
372.706	820.5
372.932	824.5
373.158	833.5
373.384	824.5
373.61	800.5
373.835	782.5
374.061	779.5
374.287	796.5
374.513	810.5
374.739	846.5
374.965	850.5
375.191	917.5
375.416	882.5
375.642	837.5
375.868	813.5
376.094	822.5
376.319	824.5
376.545	828.5
376.771	815.5
376.997	822.5
377.222	798.5
377.448	812.5
377.674	796.5
377.899	804.5
378.125	781.5
378.35	752.5
378.576	779.5
378.802	759.5
379.027	779.5
379.253	782.5
379.478	742.5
379.704	817.5
379.929	784.5
380.155	809.5
380.38	793.5
380.606	793.5
380.831	794.5
381.057	814.5
381.282	796.5
381.507	786.5
381.733	801.5
381.958	811.5
382.184	811.5
382.409	814.5
382.634	808.5
382.86	829.5
383.085	871.5
383.31	881.5
383.535	854.5
383.761	886.5
383.986	889.5
384.211	922.5
384.436	936.5
384.662	963.5
384.887	942.5
385.112	935.5
385.337	954.5
385.562	973.5
385.787	969.5
386.013	976.5
386.238	951.5
386.463	962.5
386.688	976.5
386.913	933.5
387.138	934.5
387.363	966.5
387.588	932.5
387.813	950.5
388.038	928.5
388.263	915.5
388.488	931.5
388.713	948.5
388.938	948.5
389.163	919.5
389.387	921.5
389.612	927.5
389.837	930.5
390.062	930.5
390.287	940.5
390.512	913.5
390.736	928.5
390.961	936.5
391.186	955.5
391.411	987.5
391.636	1008.5
391.86	1085.5
392.085	1121.5
392.31	1088.5
392.534	1059.5
392.759	1017.5
392.984	980.5
393.208	1004.5
393.433	1045.5
393.658	1022.5
393.882	1042.5
394.107	996.5
394.331	1023.5
394.556	1016.5
394.78	1024.5
395.005	996.5
395.229	999.5
395.454	1061.5
395.678	1102.5
395.903	1088.5
396.127	1048.5
396.352	1025.5
396.576	972.5
396.801	1009.5
397.025	1020.5
397.249	1000.5
397.474	1054.5
397.698	1082.5
397.922	1045.5
398.147	1057.5
398.371	1093.5
398.595	1103.5
398.82	1150.5
399.044	1235.5
399.268	1357.5
399.492	1636.5
399.717	1909.5
399.941	1931.5
400.165	1629.5
400.389	1411.5
400.613	1302.5
400.837	1230.5
401.062	1221.5
401.286	1174.5
401.51	1169.5
401.734	1160.5
401.958	1192.5
402.182	1206.5
402.406	1242.5
402.63	1244.5
402.854	1278.5
403.078	1335.5
403.302	1362.5
403.526	1376.5
403.75	1389.5
403.974	1449.5
404.198	1461.5
404.422	1430.5
404.645	1426.5
404.869	1411.5
405.093	1376.5
405.317	1369.5
405.541	1347.5
405.765	1338.5
405.988	1291.5
406.212	1283.5
406.436	1336.5
406.66	1308.5
406.883	1351.5
407.107	1440.5
407.331	1544.5
407.555	1604.5
407.778	1574.5
408.002	1526.5
408.226	1489.5
408.449	1451.5
408.673	1387.5
408.896	1368.5
409.12	1336.5
409.344	1390.5
409.567	1369.5
409.791	1407.5
410.014	1402.5
410.238	1374.5
410.461	1410.5
410.685	1342.5
410.908	1291.5
411.132	1309.5
411.355	1266.5
411.578	1269.5
411.802	1240.5
412.025	1227.5
412.249	1266.5
412.472	1260.5
412.695	1197.5
412.919	1197.5
413.142	1213.5
413.365	1164.5
413.589	1214.5
413.812	1210.5
414.035	1190.5
414.258	1190.5
414.482	1214.5
414.705	1232.5
414.928	1250.5
415.151	1219.5
415.374	1204.5
415.597	1192.5
415.821	1186.5
416.044	1225.5
416.267	1206.5
416.49	1171.5
416.713	1199.5
416.936	1206.5
417.159	1186.5
417.382	1195.5
417.605	1197.5
417.828	1214.5
418.051	1182.5
418.274	1218.5
418.497	1241.5
418.72	1248.5
418.943	1231.5
419.166	1308.5
419.389	1408.5
419.611	1373.5
419.834	1333.5
420.057	1272.5
420.28	1247.5
420.503	1196.5
420.726	1198.5
420.948	1201.5
421.171	1189.5
421.394	1214.5
421.617	1208.5
421.839	1197.5
422.062	1173.5
422.285	1208.5
422.507	1259.5
422.73	1238.5
422.953	1271.5
423.175	1256.5
423.398	1306.5
423.621	1322.5
423.843	1310.5
424.066	1318.5
424.288	1336.5
424.511	1316.5
424.733	1282.5
424.956	1256.5
425.178	1267.5
425.401	1197.5
425.623	1217.5
425.846	1187.5
426.068	1195.5
426.291	1172.5
426.513	1145.5
426.735	1153.5
426.958	1136.5
427.18	1106.5
427.402	1091.5
427.625	1093.5
427.847	1100.5
428.069	1068.5
428.292	1070.5
428.514	1084.5
428.736	1076.5
428.958	1059.5
429.181	1047.5
429.403	1033.5
429.625	1066.5
429.847	1056.5
430.069	1011.5
430.292	1082.5
430.514	1031.5
430.736	1054.5
430.958	1025.5
431.18	1059.5
431.402	1038.5
431.624	1075.5
431.846	1054.5
432.068	1076.5
432.29	1108.5
432.512	1050.5
432.734	1091.5
432.956	1083.5
433.178	1094.5
433.4	1094.5
433.622	1115.5
433.844	1125.5
434.066	1121.5
434.287	1132.5
434.509	1147.5
434.731	1175.5
434.953	1226.5
435.175	1274.5
435.397	1232.5
435.618	1160.5
435.84	1142.5
436.062	1114.5
436.284	1074.5
436.505	1064.5
436.727	1084.5
436.949	1064.5
437.17	1111.5
437.392	1077.5
437.614	1050.5
437.835	1004.5
438.057	1037.5
438.278	1015.5
438.5	1040.5
438.721	1056.5
438.943	1067.5
439.165	1014.5
439.386	1052.5
439.608	1067.5
439.829	1091.5
440.05	1082.5
440.272	1100.5
440.493	1091.5
440.715	1110.5
440.936	1136.5
441.158	1123.5
441.379	1224.5
441.6	1246.5
441.822	1278.5
442.043	1272.5
442.264	1231.5
442.486	1195.5
442.707	1206.5
442.928	1202.5
443.149	1215.5
443.371	1210.5
443.592	1221.5
443.813	1234.5
444.034	1258.5
444.255	1288.5
444.476	1324.5
444.698	1456.5
444.919	1528.5
445.14	1625.5
445.361	1431.5
445.582	1303.5
445.803	1214.5
446.024	1195.5
446.245	1180.5
446.466	1142.5
446.687	1122.5
446.908	1116.5
447.129	1083.5
447.35	1046.5
447.571	1061.5
447.792	1031.5
448.013	1060.5
448.234	1009.5
448.455	1011.5
448.675	1009.5
448.896	1014.5
449.117	986.5
449.338	1005.5
449.559	982.5
449.779	985.5
450	980.5
450.221	997.5
450.442	1004.5
450.662	1013.5
450.883	1033.5
451.104	1065.5
451.324	1043.5
451.545	1043.5
451.766	1023.5
451.986	999.5
452.207	1022.5
452.428	1008.5
452.648	992.5
452.869	972.5
453.089	974.5
453.31	1007.5
453.53	980.5
453.751	964.5
453.971	1006.5
454.192	1010.5
454.412	965.5
454.633	939.5
454.853	977.5
455.073	928.5
455.294	970.5
455.514	961.5
455.734	935.5
455.955	943.5
456.175	929.5
456.395	928.5
456.616	914.5
456.836	939.5
457.056	925.5
457.276	893.5
457.497	928.5
457.717	925.5
457.937	968.5
458.157	953.5
458.377	965.5
458.598	971.5
458.818	1003.5
459.038	1034.5
459.258	1070.5
459.478	1087.5
459.698	1133.5
459.918	1178.5
460.138	1224.5
460.358	1317.5
460.578	1306.5
460.798	1336.5
461.018	1365.5
461.238	1344.5
461.458	1298.5
461.678	1307.5
461.898	1310.5
462.118	1315.5
462.338	1390.5
462.558	1404.5
462.777	1476.5
462.997	1626.5
463.217	1860.5
463.437	1836.5
463.657	1662.5
463.876	1553.5
464.096	1560.5
464.316	1543.5
464.536	1580.5
464.755	1518.5
464.975	1435.5
465.195	1388.5
465.414	1304.5
465.634	1208.5
465.854	1158.5
466.073	1172.5
466.293	1113.5
466.512	1075.5
466.732	1075.5
466.951	1065.5
467.171	1054.5
467.391	1056.5
467.61	1078.5
467.829	1072.5
468.049	1026.5
468.268	1016.5
468.488	1013.5
468.707	997.5
468.927	1010.5
469.146	967.5
469.365	1042.5
469.585	1014.5
469.804	1064.5
470.023	1079.5
470.243	1077.5
470.462	1084.5
470.681	1089.5
470.901	1129.5
471.12	1079.5
471.339	1058.5
471.558	1036.5
471.777	1026.5
471.997	1029.5
472.216	992.5
472.435	963.5
472.654	992.5
472.873	981.5
473.092	961.5
473.311	1003.5
473.53	979.5
473.749	966.5
473.968	955.5
474.187	978.5
474.406	972.5
474.625	981.5
474.844	987.5
475.063	972.5
475.282	990.5
475.501	990.5
475.72	981.5
475.939	1016.5
476.158	1056.5
476.377	994.5
476.596	1027.5
476.814	1030.5
477.033	1040.5
477.252	1063.5
477.471	1083.5
477.69	1116.5
477.908	1119.5
478.127	1160.5
478.346	1181.5
478.564	1188.5
478.783	1232.5
479.002	1245.5
479.22	1240.5
479.439	1280.5
479.658	1248.5
479.876	1232.5
480.095	1218.5
480.313	1344.5
480.532	1341.5
480.751	1334.5
480.969	1265.5
481.188	1211.5
481.406	1193.5
481.624	1139.5
481.843	1122.5
482.061	1146.5
482.28	1120.5
482.498	1118.5
482.717	1102.5
482.935	1107.5
483.153	1140.5
483.372	1120.5
483.59	1125.5
483.808	1139.5
484.027	1120.5
484.245	1142.5
484.463	1131.5
484.681	1170.5
484.9	1184.5
485.118	1192.5
485.336	1164.5
485.554	1163.5
485.772	1197.5
485.99	1197.5
486.209	1211.5
486.427	1217.5
486.645	1221.5
486.863	1222.5
487.081	1209.5
487.299	1152.5
487.517	1185.5
487.735	1168.5
487.953	1185.5
488.171	1198.5
488.389	1202.5
488.607	1190.5
488.825	1177.5
489.043	1172.5
489.261	1175.5
489.479	1192.5
489.696	1150.5
489.914	1166.5
490.132	1186.5
490.35	1168.5
490.568	1185.5
490.786	1174.5
491.003	1221.5
491.221	1195.5
491.439	1217.5
491.657	1203.5
491.874	1206.5
492.092	1226.5
492.31	1258.5
492.527	1235.5
492.745	1221.5
492.963	1257.5
493.18	1224.5
493.398	1215.5
493.615	1270.5
493.833	1253.5
494.05	1254.5
494.268	1280.5
494.485	1298.5
494.703	1280.5
494.92	1241.5
495.138	1240.5
495.355	1246.5
495.573	1256.5
495.79	1260.5
496.008	1263.5
496.225	1267.5
496.442	1294.5
496.66	1292.5
496.877	1308.5
497.094	1341.5
497.312	1378.5
497.529	1400.5
497.746	1392.5
497.963	1443.5
498.181	1505.5
498.398	1585.5
498.615	1655.5
498.832	1772.5
499.049	1920.5
499.267	2100.5
499.484	2297.5
499.701	2590.5
499.918	2817.5
500.135	3406.5
500.352	3942.5
500.569	4127.5
500.786	4102.5
501.003	3774.5
501.22	3315.5
501.437	2896.5
501.654	2472.5
501.871	2255.5
502.088	2021.5
502.305	1939.5
502.522	1807.5
502.739	1742.5
502.956	1641.5
503.172	1530.5
503.389	1526.5
503.606	1461.5
503.823	1413.5
504.04	1419.5
504.256	1470.5
504.473	1509.5
504.69	1554.5
504.907	1481.5
505.123	1388.5
505.34	1276.5
505.557	1259.5
505.773	1224.5
505.99	1188.5
506.207	1180.5
506.423	1162.5
506.64	1147.5
506.856	1146.5
507.073	1139.5
507.289	1131.5
507.506	1112.5
507.722	1099.5
507.939	1106.5
508.155	1100.5
508.372	1049.5
508.588	1046.5
508.805	1073.5
509.021	1047.5
509.238	1074.5
509.454	1033.5
509.67	1034.5
509.887	1051.5
510.103	1042.5
510.319	1029.5
510.536	1016.5
510.752	1003.5
510.968	994.5
511.184	987.5
511.401	1028.5
511.617	987.5
511.833	1012.5
512.049	1034.5
512.265	993.5
512.481	1016.5
512.698	1037.5
512.914	1011.5
513.13	1025.5
513.346	1021.5
513.562	1024.5
513.778	1014.5
513.994	1027.5
514.21	1016.5
514.426	1037.5
514.642	1039.5
514.858	1036.5
515.074	1057.5
515.29	1050.5
515.506	1047.5
515.721	1072.5
515.937	1069.5
516.153	1125.5
516.369	1118.5
516.585	1155.5
516.801	1199.5
517.016	1269.5
517.232	1323.5
517.448	1422.5
517.664	1481.5
517.879	1497.5
518.095	1499.5
518.311	1464.5
518.527	1374.5
518.742	1331.5
518.958	1236.5
519.173	1212.5
519.389	1166.5
519.605	1141.5
519.82	1131.5
520.036	1091.5
520.251	1043.5
520.467	1058.5
520.682	1013.5
520.898	1034.5
521.113	983.5
521.329	998.5
521.544	1009.5
521.76	978.5
521.975	997.5
522.19	974.5
522.406	984.5
522.621	962.5
522.836	968.5
523.052	970.5
523.267	1003.5
523.482	964.5
523.698	950.5
523.913	944.5
524.128	951.5
524.343	947.5
524.559	938.5
524.774	946.5
524.989	960.5
525.204	957.5
525.419	952.5
525.634	935.5
525.849	928.5
526.064	898.5
526.28	925.5
526.495	900.5
526.71	911.5
526.925	921.5
527.14	920.5
527.355	926.5
527.57	916.5
527.785	940.5
527.999	932.5
528.214	943.5
528.429	948.5
528.644	916.5
528.859	947.5
529.074	918.5
529.289	922.5
529.503	940.5
529.718	957.5
529.933	922.5
530.148	891.5
530.363	913.5
530.577	928.5
530.792	905.5
531.007	924.5
531.221	936.5
531.436	910.5
531.651	909.5
531.865	942.5
532.08	916.5
532.295	957.5
532.509	938.5
532.724	923.5
532.938	949.5
533.153	914.5
533.367	895.5
533.582	936.5
533.796	880.5
534.011	901.5
534.225	928.5
534.44	890.5
534.654	901.5
534.868	916.5
535.083	932.5
535.297	872.5
535.511	892.5
535.726	891.5
535.94	877.5
536.154	863.5
536.369	853.5
536.583	865.5
536.797	868.5
537.011	849.5
537.225	826.5
537.44	867.5
537.654	865.5
537.868	856.5
538.082	818.5
538.296	840.5
538.51	852.5
538.724	841.5
538.938	828.5
539.153	853.5
539.367	846.5
539.581	849.5
539.795	864.5
540.009	824.5
540.222	829.5
540.436	834.5
540.65	837.5
540.864	853.5
541.078	852.5
541.292	832.5
541.506	843.5
541.72	826.5
541.934	804.5
542.147	818.5
542.361	826.5
542.575	817.5
542.789	794.5
543.002	808.5
543.216	818.5
543.43	800.5
543.644	828.5
543.857	842.5
544.071	809.5
544.285	830.5
544.498	841.5
544.712	828.5
544.925	829.5
545.139	832.5
545.352	863.5
545.566	883.5
545.779	871.5
545.993	855.5
546.206	858.5
546.42	868.5
546.633	833.5
546.847	835.5
547.06	858.5
547.274	828.5
547.487	831.5
547.7	850.5
547.914	858.5
548.127	845.5
548.34	858.5
548.554	855.5
548.767	857.5
548.98	855.5
549.193	868.5
549.407	876.5
549.62	888.5
549.833	904.5
550.046	890.5
550.259	875.5
550.473	851.5
550.686	833.5
550.899	832.5
551.112	832.5
551.325	841.5
551.538	811.5
551.751	846.5
551.964	795.5
552.177	835.5
552.39	851.5
552.603	857.5
552.816	886.5
553.029	909.5
553.242	942.5
553.455	956.5
553.667	980.5
553.88	948.5
554.093	902.5
554.306	886.5
554.519	850.5
554.732	875.5
554.944	829.5
555.157	819.5
555.37	824.5
555.583	816.5
555.795	772.5
556.008	758.5
556.221	753.5
556.433	759.5
556.646	731.5
556.859	747.5
557.071	722.5
557.284	708.5
557.496	736.5
557.709	734.5
557.921	734.5
558.134	705.5
558.346	720.5
558.559	715.5
558.771	708.5
558.984	697.5
559.196	714.5
559.409	721.5
559.621	681.5
559.833	712.5
560.046	695.5
560.258	697.5
560.47	717.5
560.683	693.5
560.895	685.5
561.107	714.5
561.32	712.5
561.532	706.5
561.744	693.5
561.956	685.5
562.168	684.5
562.381	698.5
562.593	684.5
562.805	701.5
563.017	721.5
563.229	706.5
563.441	697.5
563.653	708.5
563.865	718.5
564.077	711.5
564.289	755.5
564.501	727.5
564.713	735.5
564.925	749.5
565.137	762.5
565.349	778.5
565.561	829.5
565.773	829.5
565.985	873.5
566.197	928.5
566.408	973.5
566.62	1032.5
566.832	1170.5
567.044	1188.5
567.255	1170.5
567.467	1193.5
567.679	1246.5
567.891	1400.5
568.102	1448.5
568.314	1398.5
568.526	1228.5
568.737	1114.5
568.949	970.5
569.161	898.5
569.372	842.5
569.584	802.5
569.795	757.5
570.007	717.5
570.218	706.5
570.43	676.5
570.641	736.5
570.853	700.5
571.064	726.5
571.276	735.5
571.487	714.5
571.698	686.5
571.91	657.5
572.121	641.5
572.333	627.5
572.544	604.5
572.755	616.5
572.966	608.5
573.178	598.5
573.389	616.5
573.6	570.5
573.811	570.5
574.023	599.5
574.234	585.5
574.445	581.5
574.656	574.5
574.867	577.5
575.078	578.5
575.289	555.5
575.501	572.5
575.712	533.5
575.923	551.5
576.134	543.5
576.345	555.5
576.556	553.5
576.767	534.5
576.978	545.5
577.188	544.5
577.399	535.5
577.61	533.5
577.821	530.5
578.032	532.5
578.243	536.5
578.454	510.5
578.665	538.5
578.875	521.5
579.086	518.5
579.297	522.5
579.508	522.5
579.718	518.5
579.929	497.5
580.14	500.5
580.35	497.5
580.561	491.5
580.772	505.5
580.982	509.5
581.193	477.5
581.403	496.5
581.614	475.5
581.825	507.5
582.035	476.5
582.246	482.5
582.456	484.5
582.667	472.5
582.877	481.5
583.087	462.5
583.298	472.5
583.508	460.5
583.719	476.5
583.929	487.5
584.139	485.5
584.35	477.5
584.56	467.5
584.77	481.5
584.981	497.5
585.191	464.5
585.401	491.5
585.611	478.5
585.821	465.5
586.032	483.5
586.242	440.5
586.452	461.5
586.662	445.5
586.872	439.5
587.082	450.5
587.292	459.5
587.502	465.5
587.713	460.5
587.923	469.5
588.133	448.5
588.343	469.5
588.553	459.5
588.762	472.5
588.972	462.5
589.182	462.5
589.392	443.5
589.602	484.5
589.812	456.5
590.022	466.5
590.232	445.5
590.441	478.5
590.651	469.5
590.861	475.5
591.071	459.5
591.281	454.5
591.49	481.5
591.7	470.5
591.91	481.5
592.119	497.5
592.329	529.5
592.539	499.5
592.748	528.5
592.958	569.5
593.167	574.5
593.377	584.5
593.587	615.5
593.796	601.5
594.006	609.5
594.215	605.5
594.424	636.5
594.634	606.5
594.843	569.5
595.053	553.5
595.262	505.5
595.472	510.5
595.681	496.5
595.89	465.5
596.1	471.5
596.309	454.5
596.518	466.5
596.727	424.5
596.937	425.5
597.146	424.5
597.355	414.5
597.564	425.5
597.774	429.5
597.983	425.5
598.192	424.5
598.401	420.5
598.61	394.5
598.819	403.5
599.028	382.5
599.237	390.5
599.446	379.5
599.655	372.5
599.864	406.5
600.073	379.5
600.282	392.5
600.491	398.5
600.7	409.5
600.909	409.5
601.118	379.5
601.327	397.5
601.536	376.5
601.745	384.5
601.953	394.5
602.162	373.5
602.371	374.5
602.58	405.5
602.789	389.5
602.997	359.5
603.206	384.5
603.415	359.5
603.623	361.5
603.832	352.5
604.041	363.5
604.249	366.5
604.458	364.5
604.666	364.5
604.875	340.5
605.084	360.5
605.292	357.5
605.501	372.5
605.709	362.5
605.918	373.5
606.126	360.5
606.334	339.5
606.543	346.5
606.751	358.5
606.96	353.5
607.168	347.5
607.376	354.5
607.585	349.5
607.793	377.5
608.001	341.5
608.21	346.5
608.418	347.5
608.626	346.5
608.834	356.5
609.043	355.5
609.251	358.5
609.459	328.5
609.667	348.5
609.875	333.5
610.083	346.5
610.291	348.5
610.499	361.5
610.707	348.5
610.916	350.5
611.124	351.5
611.332	338.5
611.54	360.5
611.748	325.5
611.955	338.5
612.163	322.5
612.371	349.5
612.579	334.5
612.787	324.5
612.995	345.5
613.203	352.5
613.411	342.5
613.618	347.5
613.826	349.5
614.034	328.5
614.242	318.5
614.449	325.5
614.657	332.5
614.865	316.5
615.072	325.5
615.28	309.5
615.488	329.5
615.695	324.5
615.903	325.5
616.111	327.5
616.318	326.5
616.526	346.5
616.733	337.5
616.941	327.5
617.148	325.5
617.356	352.5
617.563	334.5
617.771	323.5
617.978	325.5
618.185	337.5
618.393	338.5
618.6	323.5
618.807	320.5
619.015	330.5
619.222	315.5
619.429	340.5
619.637	308.5
619.844	332.5
620.051	339.5
620.258	326.5
620.466	322.5
620.673	311.5
620.88	304.5
621.087	301.5
621.294	313.5
621.501	314.5
621.708	326.5
621.915	322.5
622.122	320.5
622.329	307.5
622.536	282.5
622.743	285.5
622.95	305.5
623.157	306.5
623.364	315.5
623.571	277.5
623.778	296.5
623.985	297.5
624.192	286.5
624.399	293.5
624.606	288.5
624.812	292.5
625.019	308.5
625.226	304.5
625.433	293.5
625.639	290.5
625.846	280.5
626.053	278.5
626.259	319.5
626.466	271.5
626.673	283.5
626.879	281.5
627.086	282.5
627.293	283.5
627.499	282.5
627.706	278.5
627.912	277.5
628.119	273.5
628.325	283.5
628.532	266.5
628.738	286.5
628.945	268.5
629.151	263.5
629.357	266.5
629.564	266.5
629.77	276.5
629.976	277.5
630.183	258.5
630.389	272.5
630.595	280.5
630.802	264.5
631.008	263.5
631.214	265.5
631.42	283.5
631.627	258.5
631.833	251.5
632.039	240.5
632.245	237.5
632.451	251.5
632.657	244.5
632.863	252.5
633.069	259.5
633.275	243.5
633.481	244.5
633.688	228.5
633.893	252.5
634.099	240.5
634.305	232.5
634.511	226.5
634.717	236.5
634.923	240.5
635.129	238.5
635.335	246.5
635.541	235.5
635.747	242.5
635.952	230.5
636.158	243.5
636.364	233.5
636.57	237.5
636.775	237.5
636.981	221.5
637.187	231.5
637.392	229.5
637.598	236.5
637.804	254.5
638.009	228.5
638.215	240.5
638.421	235.5
638.626	229.5
638.832	213.5
639.037	235.5
639.243	210.5
639.448	228.5
639.654	222.5
639.859	218.5
640.065	217.5
640.27	212.5
640.475	221.5
640.681	201.5
640.886	213.5
641.091	213.5
641.297	220.5
641.502	202.5
641.707	212.5
641.913	228.5
642.118	217.5
642.323	218.5
642.528	205.5
642.733	201.5
642.939	205.5
643.144	205.5
643.349	201.5
643.554	213.5
643.759	213.5
643.964	212.5
644.169	233.5
644.374	196.5
644.579	217.5
644.784	216.5
644.989	212.5
645.194	202.5
645.399	205.5
645.604	213.5
645.809	201.5
646.014	202.5
646.219	206.5
646.423	205.5
646.628	202.5
646.833	211.5
647.038	221.5
647.243	214.5
647.447	212.5
647.652	222.5
647.857	224.5
648.062	229.5
648.266	221.5
648.471	232.5
648.676	240.5
648.88	223.5
649.085	203.5
649.289	227.5
649.494	195.5
649.698	210.5
649.903	195.5
650.107	194.5
650.312	204.5
650.516	206.5
650.721	199.5
650.925	203.5
651.13	195.5
651.334	195.5
651.539	178.5
651.743	201.5
651.947	176.5
652.152	178.5
652.356	195.5
652.56	180.5
652.764	170.5
652.969	169.5
653.173	193.5
653.377	176.5
653.581	176.5
653.785	173.5
653.99	164.5
654.194	176.5
654.398	172.5
654.602	161.5
654.806	156.5
655.01	150.5
655.214	153.5
655.418	161.5
655.622	154.5
655.826	164.5
656.03	162.5
656.234	159.5
656.438	136.5
656.642	147.5
656.846	146.5
657.049	143.5
657.253	154.5
657.457	143.5
657.661	124.5
657.865	133.5
658.068	136.5
658.272	130.5
658.476	126.5
658.68	122.5
658.883	104.5
659.087	109.5
659.291	112.5
659.494	113.5
659.698	111.5
659.901	105.5
660.105	90.5
660.309	106.5
660.512	100.5
660.716	100.5
660.919	93.5
661.123	109.5
661.326	92.5
661.53	86.5
661.733	110.5
661.936	94.5
662.14	101.5
662.343	78.5
662.546	80.5
662.75	99.5
662.953	93.5
663.156	86.5
663.36	90.5
663.563	87.5
663.766	74.5
663.969	83.5
664.173	92.5
664.376	86.5
664.579	92.5
664.782	86.5
664.985	86.5
665.188	76.5
665.391	84.5
665.594	81.5
665.797	92.5
666	83.5
666.203	81.5
666.406	85.5
666.609	84.5
666.812	79.5
667.015	96.5
667.218	77.5
667.421	89.5
667.624	88.5
667.827	82.5
668.03	77.5
668.232	86.5
668.435	77.5
668.638	73.5
668.841	79.5
669.043	80.5
669.246	65.5
669.449	89.5
669.651	86.5
669.854	80.5
670.057	88.5
670.259	86.5
670.462	73.5
670.665	81.5
670.867	78.5
671.07	86.5
671.272	74.5
671.475	85.5
671.677	78.5
671.88	89.5
672.082	80.5
672.284	87.5
672.487	85.5
672.689	73.5
672.892	63.5
