Data from Ni(NO3)2@0.0625M.TitratingCurve.Agarose3%dH2O.NegLispCup.LampEnergy10.LIBS07252019_HRD10591_18-14-59-569.txt Node
Date: Thu Jul 25 18:14:59 EDT 2019
User: cochatt
Spectrometer: HR+D1059
Trigger mode: 1
Integration Time (sec): 1.000000E-1
Scans to average: 1
Electric dark correction enabled: true
Nonlinearity correction enabled: false
Boxcar width: 0
XAxis mode: Wavelengths
Number of Pixels in Spectrum: 2048
>>>>>Begin Spectral Data<<<<<
223.165	-29.38
223.4	-29.38
223.635	-29.38
223.869	-27.38
224.104	-23.38
224.338	-8.38
224.573	1.62
224.808	-11.38
225.042	-14.38
225.277	-2.38
225.511	-14.38
225.746	3.62
225.98	16.62
226.215	18.62
226.449	7.62
226.683	10.62
226.918	40.62
227.152	31.62
227.387	31.62
227.621	62.62
227.856	53.62
228.09	62.62
228.324	37.62
228.559	53.62
228.793	78.62
229.027	98.62
229.262	104.62
229.496	116.62
229.73	123.62
229.964	134.62
230.199	125.62
230.433	139.62
230.667	154.62
230.901	129.62
231.136	125.62
231.37	142.62
231.604	132.62
231.838	149.62
232.072	153.62
232.306	155.62
232.541	158.62
232.775	152.62
233.009	140.62
233.243	153.62
233.477	147.62
233.711	135.62
233.945	150.62
234.179	151.62
234.413	143.62
234.647	156.62
234.881	153.62
235.115	143.62
235.349	138.62
235.583	164.62
235.817	140.62
236.051	164.62
236.285	148.62
236.519	149.62
236.753	171.62
236.987	155.62
237.221	180.62
237.455	179.62
237.689	169.62
237.922	153.62
238.156	169.62
238.39	155.62
238.624	162.62
238.858	174.62
239.091	186.62
239.325	181.62
239.559	177.62
239.793	178.62
240.027	171.62
240.26	199.62
240.494	176.62
240.728	179.62
240.961	190.62
241.195	177.62
241.429	182.62
241.662	197.62
241.896	202.62
242.13	200.62
242.363	188.62
242.597	204.62
242.83	203.62
243.064	201.62
243.298	196.62
243.531	201.62
243.765	194.62
243.998	192.62
244.232	201.62
244.465	203.62
244.699	208.62
244.932	226.62
245.166	216.62
245.399	211.62
245.633	225.62
245.866	219.62
246.099	207.62
246.333	222.62
246.566	233.62
246.8	216.62
247.033	220.62
247.266	217.62
247.5	213.62
247.733	208.62
247.966	227.62
248.2	237.62
248.433	227.62
248.666	243.62
248.899	239.62
249.133	243.62
249.366	241.62
249.599	244.62
249.832	232.62
250.066	254.62
250.299	255.62
250.532	264.62
250.765	245.62
250.998	254.62
251.231	250.62
251.465	274.62
251.698	263.62
251.931	264.62
252.164	260.62
252.397	267.62
252.63	268.62
252.863	265.62
253.096	278.62
253.329	269.62
253.562	270.62
253.795	269.62
254.028	265.62
254.261	265.62
254.494	266.62
254.727	281.62
254.96	269.62
255.193	261.62
255.426	281.62
255.659	280.62
255.892	278.62
256.124	280.62
256.357	292.62
256.59	284.62
256.823	291.62
257.056	281.62
257.289	297.62
257.521	286.62
257.754	284.62
257.987	287.62
258.22	286.62
258.452	301.62
258.685	306.62
258.918	279.62
259.151	281.62
259.383	321.62
259.616	300.62
259.849	314.62
260.081	306.62
260.314	307.62
260.547	322.62
260.779	309.62
261.012	311.62
261.244	332.62
261.477	317.62
261.71	313.62
261.942	322.62
262.175	318.62
262.407	318.62
262.64	313.62
262.872	316.62
263.105	335.62
263.337	323.62
263.57	326.62
263.802	329.62
264.035	331.62
264.267	353.62
264.499	333.62
264.732	339.62
264.964	330.62
265.197	346.62
265.429	349.62
265.661	333.62
265.894	356.62
266.126	355.62
266.358	347.62
266.591	355.62
266.823	364.62
267.055	354.62
267.287	356.62
267.52	372.62
267.752	355.62
267.984	369.62
268.216	366.62
268.448	363.62
268.681	378.62
268.913	385.62
269.145	361.62
269.377	367.62
269.609	372.62
269.841	359.62
270.073	359.62
270.306	365.62
270.538	369.62
270.77	373.62
271.002	408.62
271.234	375.62
271.466	365.62
271.698	380.62
271.93	379.62
272.162	396.62
272.394	369.62
272.626	387.62
272.858	374.62
273.09	368.62
273.322	365.62
273.553	379.62
273.785	405.62
274.017	374.62
274.249	405.62
274.481	395.62
274.713	393.62
274.945	419.62
275.176	400.62
275.408	417.62
275.64	384.62
275.872	425.62
276.104	396.62
276.335	377.62
276.567	403.62
276.799	413.62
277.031	431.62
277.262	414.62
277.494	405.62
277.726	424.62
277.957	406.62
278.189	427.62
278.421	414.62
278.652	415.62
278.884	432.62
279.115	429.62
279.347	415.62
279.579	443.62
279.81	439.62
280.042	442.62
280.273	465.62
280.505	428.62
280.736	437.62
280.968	423.62
281.199	461.62
281.431	450.62
281.662	463.62
281.894	428.62
282.125	440.62
282.356	451.62
282.588	443.62
282.819	467.62
283.051	449.62
283.282	480.62
283.513	455.62
283.745	449.62
283.976	439.62
284.207	447.62
284.439	456.62
284.67	471.62
284.901	478.62
285.132	473.62
285.364	465.62
285.595	468.62
285.826	477.62
286.057	487.62
286.288	485.62
286.52	477.62
286.751	477.62
286.982	487.62
287.213	474.62
287.444	487.62
287.675	499.62
287.906	479.62
288.138	471.62
288.369	502.62
288.6	506.62
288.831	511.62
289.062	490.62
289.293	490.62
289.524	502.62
289.755	499.62
289.986	484.62
290.217	526.62
290.448	508.62
290.679	493.62
290.91	513.62
291.141	516.62
291.371	498.62
291.602	522.62
291.833	510.62
292.064	518.62
292.295	513.62
292.526	514.62
292.757	505.62
292.987	515.62
293.218	540.62
293.449	527.62
293.68	525.62
293.91	526.62
294.141	518.62
294.372	489.62
294.603	520.62
294.833	541.62
295.064	531.62
295.295	527.62
295.525	517.62
295.756	525.62
295.987	503.62
296.217	537.62
296.448	550.62
296.679	532.62
296.909	543.62
297.14	554.62
297.37	547.62
297.601	553.62
297.831	584.62
298.062	543.62
298.292	558.62
298.523	577.62
298.753	578.62
298.984	589.62
299.214	571.62
299.445	568.62
299.675	554.62
299.905	557.62
300.136	548.62
300.366	580.62
300.597	589.62
300.827	579.62
301.057	572.62
301.288	591.62
301.518	590.62
301.748	595.62
301.979	585.62
302.209	565.62
302.439	572.62
302.669	592.62
302.9	595.62
303.13	567.62
303.36	571.62
303.59	564.62
303.82	582.62
304.051	556.62
304.281	571.62
304.511	596.62
304.741	582.62
304.971	551.62
305.201	583.62
305.431	567.62
305.661	554.62
305.891	566.62
306.121	545.62
306.352	570.62
306.582	574.62
306.812	562.62
307.042	562.62
307.272	552.62
307.502	569.62
307.731	565.62
307.961	574.62
308.191	565.62
308.421	562.62
308.651	569.62
308.881	563.62
309.111	555.62
309.341	556.62
309.571	570.62
309.8	576.62
310.03	582.62
310.26	559.62
310.49	563.62
310.72	563.62
310.949	557.62
311.179	549.62
311.409	567.62
311.639	591.62
311.868	588.62
312.098	577.62
312.328	581.62
312.557	575.62
312.787	587.62
313.017	598.62
313.246	588.62
313.476	599.62
313.706	613.62
313.935	608.62
314.165	611.62
314.394	612.62
314.624	615.62
314.853	578.62
315.083	602.62
315.312	598.62
315.542	600.62
315.771	605.62
316.001	603.62
316.23	564.62
316.46	579.62
316.689	590.62
316.919	594.62
317.148	594.62
317.377	571.62
317.607	589.62
317.836	574.62
318.065	589.62
318.295	590.62
318.524	570.62
318.753	571.62
318.983	575.62
319.212	558.62
319.441	579.62
319.67	591.62
319.9	573.62
320.129	579.62
320.358	588.62
320.587	583.62
320.816	589.62
321.046	560.62
321.275	585.62
321.504	582.62
321.733	585.62
321.962	588.62
322.191	620.62
322.42	601.62
322.649	605.62
322.878	604.62
323.108	607.62
323.337	613.62
323.566	603.62
323.795	618.62
324.024	610.62
324.253	598.62
324.482	601.62
324.71	615.62
324.939	617.62
325.168	615.62
325.397	602.62
325.626	628.62
325.855	631.62
326.084	640.62
326.313	634.62
326.542	666.62
326.77	674.62
326.999	658.62
327.228	644.62
327.457	621.62
327.686	649.62
327.914	639.62
328.143	642.62
328.372	641.62
328.6	640.62
328.829	622.62
329.058	647.62
329.287	634.62
329.515	645.62
329.744	669.62
329.972	673.62
330.201	654.62
330.43	655.62
330.658	653.62
330.887	662.62
331.115	685.62
331.344	649.62
331.572	687.62
331.801	706.62
332.03	728.62
332.258	733.62
332.486	729.62
332.715	773.62
332.943	833.62
333.172	854.62
333.4	870.62
333.629	925.62
333.857	868.62
334.085	888.62
334.314	870.62
334.542	833.62
334.771	829.62
334.999	822.62
335.227	779.62
335.455	821.62
335.684	826.62
335.912	782.62
336.14	766.62
336.369	783.62
336.597	793.62
336.825	795.62
337.053	796.62
337.281	763.62
337.51	755.62
337.738	734.62
337.966	748.62
338.194	722.62
338.422	719.62
338.65	710.62
338.878	705.62
339.106	709.62
339.334	707.62
339.562	699.62
339.79	701.62
340.018	677.62
340.246	673.62
340.474	692.62
340.702	665.62
340.93	651.62
341.158	694.62
341.386	685.62
341.614	697.62
341.842	680.62
342.07	668.62
342.298	661.62
342.526	667.62
342.754	697.62
342.981	685.62
343.209	688.62
343.437	721.62
343.665	769.62
343.893	838.62
344.12	859.62
344.348	827.62
344.576	749.62
344.804	755.62
345.031	713.62
345.259	714.62
345.487	692.62
345.714	682.62
345.942	682.62
346.17	684.62
346.397	687.62
346.625	648.62
346.853	639.62
347.08	677.62
347.308	678.62
347.535	654.62
347.763	681.62
347.99	695.62
348.218	670.62
348.445	663.62
348.673	674.62
348.9	676.62
349.128	671.62
349.355	628.62
349.583	682.62
349.81	649.62
350.037	616.62
350.265	637.62
350.492	637.62
350.72	628.62
350.947	633.62
351.174	645.62
351.402	637.62
351.629	654.62
351.856	638.62
352.083	615.62
352.311	628.62
352.538	627.62
352.765	656.62
352.992	628.62
353.22	611.62
353.447	617.62
353.674	621.62
353.901	620.62
354.128	645.62
354.355	606.62
354.583	625.62
354.81	614.62
355.037	616.62
355.264	645.62
355.491	653.62
355.718	637.62
355.945	639.62
356.172	648.62
356.399	634.62
356.626	651.62
356.853	646.62
357.08	641.62
357.307	668.62
357.534	646.62
357.761	640.62
357.988	622.62
358.215	629.62
358.441	644.62
358.668	633.62
358.895	626.62
359.122	625.62
359.349	621.62
359.576	635.62
359.802	652.62
360.029	648.62
360.256	646.62
360.483	639.62
360.709	629.62
360.936	650.62
361.163	653.62
361.39	641.62
361.616	634.62
361.843	647.62
362.07	643.62
362.296	634.62
362.523	631.62
362.749	638.62
362.976	631.62
363.203	611.62
363.429	623.62
363.656	636.62
363.882	632.62
364.109	628.62
364.335	613.62
364.562	625.62
364.788	622.62
365.015	631.62
365.241	626.62
365.468	618.62
365.694	621.62
365.92	623.62
366.147	627.62
366.373	622.62
366.599	633.62
366.826	635.62
367.052	630.62
367.278	635.62
367.505	637.62
367.731	646.62
367.957	650.62
368.184	638.62
368.41	659.62
368.636	628.62
368.862	660.62
369.089	636.62
369.315	663.62
369.541	642.62
369.767	663.62
369.993	649.62
370.219	654.62
370.445	700.62
370.672	678.62
370.898	675.62
371.124	690.62
371.35	678.62
371.576	703.62
371.802	710.62
372.028	724.62
372.254	694.62
372.48	683.62
372.706	707.62
372.932	733.62
373.158	723.62
373.384	695.62
373.61	706.62
373.835	724.62
374.061	695.62
374.287	691.62
374.513	711.62
374.739	726.62
374.965	740.62
375.191	779.62
375.416	782.62
375.642	748.62
375.868	735.62
376.094	717.62
376.319	718.62
376.545	708.62
376.771	672.62
376.997	698.62
377.222	684.62
377.448	702.62
377.674	699.62
377.899	707.62
378.125	699.62
378.35	670.62
378.576	679.62
378.802	693.62
379.027	679.62
379.253	654.62
379.478	675.62
379.704	676.62
379.929	702.62
380.155	691.62
380.38	687.62
380.606	678.62
380.831	679.62
381.057	676.62
381.282	678.62
381.507	652.62
381.733	701.62
381.958	717.62
382.184	728.62
382.409	707.62
382.634	738.62
382.86	734.62
383.085	733.62
383.31	741.62
383.535	738.62
383.761	773.62
383.986	789.62
384.211	794.62
384.436	797.62
384.662	828.62
384.887	831.62
385.112	812.62
385.337	821.62
385.562	860.62
385.787	847.62
386.013	860.62
386.238	821.62
386.463	828.62
386.688	855.62
386.913	820.62
387.138	811.62
387.363	815.62
387.588	824.62
387.813	815.62
388.038	815.62
388.263	833.62
388.488	839.62
388.713	801.62
388.938	821.62
389.163	810.62
389.387	813.62
389.612	815.62
389.837	817.62
390.062	787.62
390.287	814.62
390.512	813.62
390.736	834.62
390.961	804.62
391.186	865.62
391.411	842.62
391.636	885.62
391.86	910.62
392.085	945.62
392.31	950.62
392.534	923.62
392.759	890.62
392.984	903.62
393.208	902.62
393.433	890.62
393.658	892.62
393.882	891.62
394.107	874.62
394.331	883.62
394.556	915.62
394.78	894.62
395.005	901.62
395.229	895.62
395.454	920.62
395.678	904.62
395.903	917.62
396.127	961.62
396.352	893.62
396.576	883.62
396.801	873.62
397.025	886.62
397.249	915.62
397.474	923.62
397.698	966.62
397.922	923.62
398.147	895.62
398.371	951.62
398.595	989.62
398.82	1002.62
399.044	1074.62
399.268	1185.62
399.492	1400.62
399.717	1642.62
399.941	1647.62
400.165	1432.62
400.389	1255.62
400.613	1155.62
400.837	1083.62
401.062	1053.62
401.286	1032.62
401.51	1023.62
401.734	1028.62
401.958	1062.62
402.182	1062.62
402.406	1070.62
402.63	1116.62
402.854	1140.62
403.078	1111.62
403.302	1153.62
403.526	1177.62
403.75	1221.62
403.974	1246.62
404.198	1262.62
404.422	1242.62
404.645	1238.62
404.869	1206.62
405.093	1207.62
405.317	1166.62
405.541	1154.62
405.765	1131.62
405.988	1139.62
406.212	1156.62
406.436	1143.62
406.66	1162.62
406.883	1189.62
407.107	1241.62
407.331	1311.62
407.555	1363.62
407.778	1367.62
408.002	1313.62
408.226	1295.62
408.449	1265.62
408.673	1236.62
408.896	1209.62
409.12	1213.62
409.344	1180.62
409.567	1209.62
409.791	1232.62
410.014	1221.62
410.238	1167.62
410.461	1203.62
410.685	1191.62
410.908	1137.62
411.132	1129.62
411.355	1096.62
411.578	1083.62
411.802	1075.62
412.025	1073.62
412.249	1090.62
412.472	1079.62
412.695	1070.62
412.919	1027.62
413.142	1034.62
413.365	1074.62
413.589	1035.62
413.812	1016.62
414.035	1006.62
414.258	1028.62
414.482	1041.62
414.705	1066.62
414.928	1063.62
415.151	1053.62
415.374	1077.62
415.597	1047.62
415.821	1010.62
416.044	1000.62
416.267	989.62
416.49	1007.62
416.713	1036.62
416.936	1037.62
417.159	1011.62
417.382	1001.62
417.605	1045.62
417.828	1026.62
418.051	1025.62
418.274	1029.62
418.497	1030.62
418.72	1086.62
418.943	1066.62
419.166	1160.62
419.389	1214.62
419.611	1134.62
419.834	1111.62
420.057	1082.62
420.28	1042.62
420.503	1030.62
420.726	994.62
420.948	1014.62
421.171	1009.62
421.394	1020.62
421.617	1031.62
421.839	1036.62
422.062	1076.62
422.285	1040.62
422.507	1053.62
422.73	1044.62
422.953	1089.62
423.175	1077.62
423.398	1093.62
423.621	1078.62
423.843	1126.62
424.066	1093.62
424.288	1114.62
424.511	1133.62
424.733	1089.62
424.956	1091.62
425.178	1056.62
425.401	1051.62
425.623	1002.62
425.846	1014.62
426.068	999.62
426.291	982.62
426.513	980.62
426.735	970.62
426.958	996.62
427.18	932.62
427.402	928.62
427.625	967.62
427.847	905.62
428.069	932.62
428.292	949.62
428.514	901.62
428.736	893.62
428.958	926.62
429.181	916.62
429.403	890.62
429.625	896.62
429.847	889.62
430.069	882.62
430.292	891.62
430.514	890.62
430.736	902.62
430.958	903.62
431.18	893.62
431.402	911.62
431.624	872.62
431.846	911.62
432.068	947.62
432.29	927.62
432.512	925.62
432.734	924.62
432.956	930.62
433.178	931.62
433.4	931.62
433.622	909.62
433.844	942.62
434.066	905.62
434.287	953.62
434.509	941.62
434.731	1018.62
434.953	1065.62
435.175	1034.62
435.397	1051.62
435.618	992.62
435.84	967.62
436.062	939.62
436.284	915.62
436.505	909.62
436.727	931.62
436.949	922.62
437.17	929.62
437.392	926.62
437.614	911.62
437.835	887.62
438.057	879.62
438.278	867.62
438.5	868.62
438.721	893.62
438.943	888.62
439.165	898.62
439.386	925.62
439.608	904.62
439.829	934.62
440.05	926.62
440.272	927.62
440.493	929.62
440.715	966.62
440.936	947.62
441.158	971.62
441.379	988.62
441.6	1026.62
441.822	1061.62
442.043	1080.62
442.264	1058.62
442.486	996.62
442.707	1020.62
442.928	1030.62
443.149	1018.62
443.371	1018.62
443.592	1018.62
443.813	1043.62
444.034	1042.62
444.255	1086.62
444.476	1173.62
444.698	1245.62
444.919	1315.62
445.14	1317.62
445.361	1158.62
445.582	1096.62
445.803	1015.62
446.024	958.62
446.245	969.62
446.466	949.62
446.687	919.62
446.908	934.62
447.129	910.62
447.35	894.62
447.571	877.62
447.792	879.62
448.013	893.62
448.234	847.62
448.455	870.62
448.675	853.62
448.896	828.62
449.117	857.62
449.338	843.62
449.559	841.62
449.779	840.62
450	847.62
450.221	846.62
450.442	847.62
450.662	862.62
450.883	852.62
451.104	901.62
451.324	893.62
451.545	897.62
451.766	893.62
451.986	887.62
452.207	870.62
452.428	858.62
452.648	871.62
452.869	821.62
453.089	839.62
453.31	854.62
453.53	836.62
453.751	849.62
453.971	826.62
454.192	842.62
454.412	833.62
454.633	813.62
454.853	797.62
455.073	793.62
455.294	798.62
455.514	806.62
455.734	794.62
455.955	801.62
456.175	782.62
456.395	808.62
456.616	771.62
456.836	814.62
457.056	797.62
457.276	761.62
457.497	780.62
457.717	810.62
457.937	791.62
458.157	806.62
458.377	819.62
458.598	825.62
458.818	847.62
459.038	883.62
459.258	912.62
459.478	928.62
459.698	934.62
459.918	969.62
460.138	1021.62
460.358	1082.62
460.578	1079.62
460.798	1123.62
461.018	1142.62
461.238	1121.62
461.458	1081.62
461.678	1102.62
461.898	1092.62
462.118	1090.62
462.338	1186.62
462.558	1216.62
462.777	1207.62
462.997	1317.62
463.217	1515.62
463.437	1545.62
463.657	1377.62
463.876	1334.62
464.096	1300.62
464.316	1302.62
464.536	1325.62
464.755	1275.62
464.975	1229.62
465.195	1157.62
465.414	1093.62
465.634	1003.62
465.854	975.62
466.073	952.62
466.293	917.62
466.512	918.62
466.732	916.62
466.951	900.62
467.171	898.62
467.391	907.62
467.61	901.62
467.829	905.62
468.049	868.62
468.268	890.62
468.488	847.62
468.707	833.62
468.927	857.62
469.146	855.62
469.365	878.62
469.585	872.62
469.804	876.62
470.023	917.62
470.243	908.62
470.462	929.62
470.681	930.62
470.901	951.62
471.12	925.62
471.339	892.62
471.558	853.62
471.777	877.62
471.997	890.62
472.216	889.62
472.435	851.62
472.654	852.62
472.873	845.62
473.092	844.62
473.311	844.62
473.53	834.62
473.749	831.62
473.968	830.62
474.187	837.62
474.406	853.62
474.625	833.62
474.844	852.62
475.063	840.62
475.282	833.62
475.501	823.62
475.72	839.62
475.939	867.62
476.158	884.62
476.377	853.62
476.596	840.62
476.814	875.62
477.033	893.62
477.252	907.62
477.471	917.62
477.69	922.62
477.908	973.62
478.127	985.62
478.346	1010.62
478.564	1004.62
478.783	1054.62
479.002	1031.62
479.22	1069.62
479.439	1035.62
479.658	1019.62
479.876	1022.62
480.095	1048.62
480.313	1107.62
480.532	1130.62
480.751	1137.62
480.969	1096.62
481.188	1018.62
481.406	1016.62
481.624	981.62
481.843	947.62
482.061	964.62
482.28	956.62
482.498	963.62
482.717	955.62
482.935	934.62
483.153	925.62
483.372	953.62
483.59	948.62
483.808	957.62
484.027	947.62
484.245	933.62
484.463	949.62
484.681	1028.62
484.9	969.62
485.118	991.62
485.336	969.62
485.554	988.62
485.772	1003.62
485.99	992.62
486.209	998.62
486.427	1009.62
486.645	986.62
486.863	1002.62
487.081	1002.62
487.299	979.62
487.517	1004.62
487.735	1011.62
487.953	985.62
488.171	982.62
488.389	967.62
488.607	966.62
488.825	975.62
489.043	975.62
489.261	970.62
489.479	978.62
489.696	971.62
489.914	985.62
490.132	1018.62
490.35	1029.62
490.568	980.62
490.786	996.62
491.003	1001.62
491.221	1000.62
491.439	1015.62
491.657	1024.62
491.874	1005.62
492.092	1035.62
492.31	1005.62
492.527	982.62
492.745	1010.62
492.963	1001.62
493.18	1011.62
493.398	1053.62
493.615	1026.62
493.833	1046.62
494.05	1019.62
494.268	1060.62
494.485	1050.62
494.703	1049.62
494.92	1062.62
495.138	1037.62
495.355	1087.62
495.573	1076.62
495.79	1055.62
496.008	1071.62
496.225	1054.62
496.442	1062.62
496.66	1093.62
496.877	1103.62
497.094	1091.62
497.312	1129.62
497.529	1154.62
497.746	1209.62
497.963	1205.62
498.181	1286.62
498.398	1294.62
498.615	1378.62
498.832	1505.62
499.049	1649.62
499.267	1768.62
499.484	1933.62
499.701	2146.62
499.918	2373.62
500.135	2757.62
500.352	3196.62
500.569	3387.62
500.786	3352.62
501.003	3107.62
501.22	2692.62
501.437	2401.62
501.654	2035.62
501.871	1896.62
502.088	1768.62
502.305	1621.62
502.522	1525.62
502.739	1473.62
502.956	1423.62
503.172	1329.62
503.389	1231.62
503.606	1215.62
503.823	1219.62
504.04	1194.62
504.256	1193.62
504.473	1253.62
504.69	1293.62
504.907	1265.62
505.123	1201.62
505.34	1087.62
505.557	1093.62
505.773	1027.62
505.99	1004.62
506.207	993.62
506.423	996.62
506.64	983.62
506.856	925.62
507.073	940.62
507.289	933.62
507.506	936.62
507.722	936.62
507.939	940.62
508.155	939.62
508.372	902.62
508.588	885.62
508.805	895.62
509.021	910.62
509.238	883.62
509.454	885.62
509.67	876.62
509.887	865.62
510.103	880.62
510.319	833.62
510.536	859.62
510.752	859.62
510.968	866.62
511.184	832.62
511.401	868.62
511.617	865.62
511.833	852.62
512.049	822.62
512.265	847.62
512.481	875.62
512.698	841.62
512.914	862.62
513.13	858.62
513.346	836.62
513.562	873.62
513.778	856.62
513.994	851.62
514.21	889.62
514.426	870.62
514.642	872.62
514.858	871.62
515.074	903.62
515.29	890.62
515.506	901.62
515.721	895.62
515.937	921.62
516.153	936.62
516.369	945.62
516.585	973.62
516.801	1033.62
517.016	1070.62
517.232	1151.62
517.448	1192.62
517.664	1216.62
517.879	1235.62
518.095	1246.62
518.311	1168.62
518.527	1133.62
518.742	1100.62
518.958	1064.62
519.173	1004.62
519.389	947.62
519.605	963.62
519.82	918.62
520.036	931.62
520.251	894.62
520.467	870.62
520.682	891.62
520.898	844.62
521.113	873.62
521.329	852.62
521.544	842.62
521.76	842.62
521.975	850.62
522.19	818.62
522.406	833.62
522.621	820.62
522.836	799.62
523.052	803.62
523.267	798.62
523.482	805.62
523.698	785.62
523.913	797.62
524.128	808.62
524.343	802.62
524.559	791.62
524.774	778.62
524.989	769.62
525.204	793.62
525.419	771.62
525.634	775.62
525.849	796.62
526.064	789.62
526.28	776.62
526.495	756.62
526.71	783.62
526.925	794.62
527.14	779.62
527.355	769.62
527.57	750.62
527.785	781.62
527.999	765.62
528.214	850.62
528.429	755.62
528.644	766.62
528.859	769.62
529.074	771.62
529.289	779.62
529.503	807.62
529.718	769.62
529.933	787.62
530.148	775.62
530.363	789.62
530.577	814.62
530.792	783.62
531.007	774.62
531.221	771.62
531.436	782.62
531.651	795.62
531.865	820.62
532.08	794.62
532.295	779.62
532.509	796.62
532.724	774.62
532.938	780.62
533.153	787.62
533.367	776.62
533.582	773.62
533.796	766.62
534.011	785.62
534.225	772.62
534.44	771.62
534.654	770.62
534.868	783.62
535.083	737.62
535.297	766.62
535.511	754.62
535.726	771.62
535.94	757.62
536.154	737.62
536.369	733.62
536.583	725.62
536.797	738.62
537.011	739.62
537.225	714.62
537.44	722.62
537.654	717.62
537.868	693.62
538.082	693.62
538.296	716.62
538.51	705.62
538.724	691.62
538.938	707.62
539.153	701.62
539.367	697.62
539.581	682.62
539.795	689.62
540.009	710.62
540.222	690.62
540.436	685.62
540.65	711.62
540.864	709.62
541.078	682.62
541.292	683.62
541.506	691.62
541.72	703.62
541.934	694.62
542.147	671.62
542.361	707.62
542.575	675.62
542.789	700.62
543.002	677.62
543.216	700.62
543.43	680.62
543.644	683.62
543.857	698.62
544.071	697.62
544.285	695.62
544.498	694.62
544.712	690.62
544.925	692.62
545.139	691.62
545.352	687.62
545.566	732.62
545.779	723.62
545.993	710.62
546.206	717.62
546.42	693.62
546.633	721.62
546.847	706.62
547.06	677.62
547.274	693.62
547.487	695.62
547.7	718.62
547.914	727.62
548.127	700.62
548.34	702.62
548.554	697.62
548.767	729.62
548.98	715.62
549.193	718.62
549.407	729.62
549.62	712.62
549.833	724.62
550.046	726.62
550.259	712.62
550.473	713.62
550.686	694.62
550.899	711.62
551.112	698.62
551.325	689.62
551.538	695.62
551.751	695.62
551.964	695.62
552.177	706.62
552.39	739.62
552.603	730.62
552.816	758.62
553.029	767.62
553.242	791.62
553.455	782.62
553.667	819.62
553.88	746.62
554.093	760.62
554.306	714.62
554.519	707.62
554.732	714.62
554.944	724.62
555.157	665.62
555.37	667.62
555.583	649.62
555.795	677.62
556.008	640.62
556.221	618.62
556.433	627.62
556.646	633.62
556.859	643.62
557.071	618.62
557.284	597.62
557.496	607.62
557.709	603.62
557.921	630.62
558.134	615.62
558.346	620.62
558.559	598.62
558.771	586.62
558.984	585.62
559.196	601.62
559.409	578.62
559.621	584.62
559.833	613.62
560.046	603.62
560.258	585.62
560.47	594.62
560.683	606.62
560.895	601.62
561.107	582.62
561.32	576.62
561.532	578.62
561.744	566.62
561.956	591.62
562.168	580.62
562.381	588.62
562.593	581.62
562.805	589.62
563.017	582.62
563.229	589.62
563.441	602.62
563.653	617.62
563.865	610.62
564.077	600.62
564.289	607.62
564.501	617.62
564.713	645.62
564.925	657.62
565.137	667.62
565.349	654.62
565.561	667.62
565.773	698.62
565.985	729.62
566.197	738.62
566.408	784.62
566.62	887.62
566.832	976.62
567.044	988.62
567.255	988.62
567.467	1004.62
567.679	1060.62
567.891	1187.62
568.102	1223.62
568.314	1171.62
568.526	1010.62
568.737	937.62
568.949	838.62
569.161	757.62
569.372	713.62
569.584	709.62
569.795	651.62
570.007	627.62
570.218	616.62
570.43	609.62
570.641	609.62
570.853	608.62
571.064	628.62
571.276	611.62
571.487	601.62
571.698	561.62
571.91	565.62
572.121	552.62
572.333	507.62
572.544	533.62
572.755	528.62
572.966	509.62
573.178	520.62
573.389	505.62
573.6	489.62
573.811	494.62
574.023	502.62
574.234	471.62
574.445	484.62
574.656	463.62
574.867	481.62
575.078	506.62
575.289	466.62
575.501	502.62
575.712	484.62
575.923	478.62
576.134	466.62
576.345	469.62
576.556	455.62
576.767	459.62
576.978	456.62
577.188	452.62
577.399	464.62
577.61	452.62
577.821	449.62
578.032	447.62
578.243	455.62
578.454	451.62
578.665	433.62
578.875	433.62
579.086	435.62
579.297	455.62
579.508	448.62
579.718	426.62
579.929	439.62
580.14	427.62
580.35	428.62
580.561	449.62
580.772	430.62
580.982	429.62
581.193	411.62
581.403	419.62
581.614	405.62
581.825	419.62
582.035	423.62
582.246	396.62
582.456	422.62
582.667	405.62
582.877	406.62
583.087	425.62
583.298	413.62
583.508	420.62
583.719	417.62
583.929	407.62
584.139	419.62
584.35	400.62
584.56	411.62
584.77	406.62
584.981	403.62
585.191	395.62
585.401	421.62
585.611	407.62
585.821	402.62
586.032	398.62
586.242	408.62
586.452	408.62
586.662	382.62
586.872	397.62
587.082	401.62
587.292	401.62
587.502	382.62
587.713	403.62
587.923	381.62
588.133	399.62
588.343	405.62
588.553	413.62
588.762	395.62
588.972	411.62
589.182	407.62
589.392	374.62
589.602	388.62
589.812	403.62
590.022	390.62
590.232	403.62
590.441	399.62
590.651	399.62
590.861	402.62
591.071	410.62
591.281	428.62
591.49	402.62
591.7	413.62
591.91	425.62
592.119	444.62
592.329	467.62
592.539	424.62
592.748	463.62
592.958	489.62
593.167	487.62
593.377	497.62
593.587	517.62
593.796	517.62
594.006	522.62
594.215	525.62
594.424	534.62
594.634	492.62
594.843	505.62
595.053	488.62
595.262	457.62
595.472	434.62
595.681	429.62
595.89	409.62
596.1	397.62
596.309	394.62
596.518	397.62
596.727	381.62
596.937	368.62
597.146	353.62
597.355	370.62
597.564	367.62
597.774	362.62
597.983	365.62
598.192	374.62
598.401	361.62
598.61	343.62
598.819	353.62
599.028	349.62
599.237	338.62
599.446	329.62
599.655	361.62
599.864	349.62
600.073	331.62
600.282	313.62
600.491	348.62
600.7	349.62
600.909	323.62
601.118	325.62
601.327	325.62
601.536	340.62
601.745	319.62
601.953	318.62
602.162	337.62
602.371	315.62
602.58	309.62
602.789	307.62
602.997	327.62
603.206	324.62
603.415	322.62
603.623	345.62
603.832	320.62
604.041	317.62
604.249	318.62
604.458	322.62
604.666	318.62
604.875	325.62
605.084	302.62
605.292	308.62
605.501	313.62
605.709	317.62
605.918	339.62
606.126	321.62
606.334	321.62
606.543	324.62
606.751	302.62
606.96	289.62
607.168	302.62
607.376	295.62
607.585	303.62
607.793	305.62
608.001	311.62
608.21	300.62
608.418	299.62
608.626	318.62
608.834	297.62
609.043	299.62
609.251	302.62
609.459	290.62
609.667	299.62
609.875	293.62
610.083	307.62
610.291	311.62
610.499	315.62
610.707	301.62
610.916	295.62
611.124	298.62
611.332	278.62
611.54	295.62
611.748	301.62
611.955	290.62
612.163	291.62
612.371	294.62
612.579	269.62
612.787	275.62
612.995	289.62
613.203	293.62
613.411	289.62
613.618	288.62
613.826	298.62
614.034	284.62
614.242	282.62
614.449	283.62
614.657	291.62
614.865	272.62
615.072	295.62
615.28	302.62
615.488	299.62
615.695	296.62
615.903	292.62
616.111	305.62
616.318	277.62
616.526	301.62
616.733	281.62
616.941	309.62
617.148	302.62
617.356	302.62
617.563	303.62
617.771	291.62
617.978	296.62
618.185	307.62
618.393	289.62
618.6	294.62
618.807	314.62
619.015	301.62
619.222	277.62
619.429	281.62
619.637	275.62
619.844	277.62
620.051	277.62
620.258	289.62
620.466	264.62
620.673	259.62
620.88	275.62
621.087	272.62
621.294	271.62
621.501	286.62
621.708	270.62
621.915	271.62
622.122	275.62
622.329	289.62
622.536	260.62
622.743	247.62
622.95	258.62
623.157	265.62
623.364	252.62
623.571	251.62
623.778	255.62
623.985	271.62
624.192	274.62
624.399	265.62
624.606	266.62
624.812	252.62
625.019	261.62
625.226	247.62
625.433	283.62
625.639	254.62
625.846	263.62
626.053	238.62
626.259	255.62
626.466	240.62
626.673	239.62
626.879	241.62
627.086	233.62
627.293	239.62
627.499	254.62
627.706	243.62
627.912	249.62
628.119	262.62
628.325	247.62
628.532	226.62
628.738	227.62
628.945	248.62
629.151	241.62
629.357	231.62
629.564	224.62
629.77	208.62
629.976	226.62
630.183	222.62
630.389	214.62
630.595	222.62
630.802	236.62
631.008	236.62
631.214	234.62
631.42	250.62
631.627	241.62
631.833	215.62
632.039	213.62
632.245	213.62
632.451	210.62
632.657	212.62
632.863	200.62
633.069	230.62
633.275	221.62
633.481	209.62
633.688	212.62
633.893	208.62
634.099	214.62
634.305	220.62
634.511	210.62
634.717	220.62
634.923	192.62
635.129	229.62
635.335	215.62
635.541	223.62
635.747	210.62
635.952	206.62
636.158	215.62
636.364	211.62
636.57	229.62
636.775	213.62
636.981	228.62
637.187	217.62
637.392	194.62
637.598	205.62
637.804	196.62
638.009	191.62
638.215	202.62
638.421	202.62
638.626	203.62
638.832	213.62
639.037	213.62
639.243	197.62
639.448	199.62
639.654	218.62
639.859	199.62
640.065	186.62
640.27	201.62
640.475	213.62
640.681	199.62
640.886	198.62
641.091	199.62
641.297	201.62
641.502	198.62
641.707	199.62
641.913	200.62
642.118	190.62
642.323	196.62
642.528	185.62
642.733	188.62
642.939	211.62
643.144	196.62
643.349	185.62
643.554	197.62
643.759	194.62
643.964	198.62
644.169	198.62
644.374	176.62
644.579	198.62
644.784	185.62
644.989	187.62
645.194	184.62
645.399	193.62
645.604	196.62
645.809	209.62
646.014	202.62
646.219	217.62
646.423	197.62
646.628	178.62
646.833	205.62
647.038	186.62
647.243	202.62
647.447	185.62
647.652	198.62
647.857	203.62
648.062	221.62
648.266	194.62
648.471	198.62
648.676	184.62
648.88	197.62
649.085	198.62
649.289	191.62
649.494	191.62
649.698	177.62
649.903	192.62
650.107	193.62
650.312	193.62
650.516	199.62
650.721	180.62
650.925	171.62
651.13	188.62
651.334	175.62
651.539	161.62
651.743	175.62
651.947	174.62
652.152	151.62
652.356	167.62
652.56	165.62
652.764	167.62
652.969	164.62
653.173	158.62
653.377	152.62
653.581	156.62
653.785	145.62
653.99	151.62
654.194	143.62
654.398	156.62
654.602	141.62
654.806	132.62
655.01	143.62
655.214	153.62
655.418	147.62
655.622	151.62
655.826	148.62
656.03	139.62
656.234	132.62
656.438	138.62
656.642	131.62
656.846	154.62
657.049	140.62
657.253	139.62
657.457	127.62
657.661	128.62
657.865	123.62
658.068	113.62
658.272	137.62
658.476	103.62
658.68	111.62
658.883	110.62
659.087	91.62
659.291	98.62
659.494	113.62
659.698	100.62
659.901	105.62
660.105	105.62
660.309	94.62
660.512	94.62
660.716	87.62
660.919	100.62
661.123	92.62
661.326	85.62
661.53	86.62
661.733	107.62
661.936	86.62
662.14	74.62
662.343	98.62
662.546	82.62
662.75	71.62
662.953	89.62
663.156	95.62
663.36	82.62
663.563	93.62
663.766	82.62
663.969	81.62
664.173	81.62
664.376	93.62
664.579	74.62
664.782	78.62
664.985	98.62
665.188	87.62
665.391	79.62
665.594	105.62
665.797	82.62
666	72.62
666.203	94.62
666.406	77.62
666.609	72.62
666.812	75.62
667.015	80.62
667.218	81.62
667.421	88.62
667.624	70.62
667.827	90.62
668.03	99.62
668.232	85.62
668.435	82.62
668.638	96.62
668.841	84.62
669.043	83.62
669.246	80.62
669.449	83.62
669.651	79.62
669.854	77.62
670.057	90.62
670.259	85.62
670.462	84.62
670.665	84.62
670.867	100.62
671.07	90.62
671.272	70.62
671.475	88.62
671.677	77.62
671.88	86.62
672.082	62.62
672.284	92.62
672.487	88.62
672.689	84.62
672.892	86.62
