Data from Ni(NO3)2@0.5M.TitratingCurve.Agarose3%dH2O.NegLispCup.LampEnergy10.LIBS07252019_HRD10591_17-58-47-564.txt Node
Date: Thu Jul 25 17:58:47 EDT 2019
User: cochatt
Spectrometer: HR+D1059
Trigger mode: 1
Integration Time (sec): 1.000000E-1
Scans to average: 1
Electric dark correction enabled: true
Nonlinearity correction enabled: false
Boxcar width: 0
XAxis mode: Wavelengths
Number of Pixels in Spectrum: 2048
>>>>>Begin Spectral Data<<<<<
223.165	-21.88
223.4	-21.88
223.635	-21.88
223.869	-20.88
224.104	-21.88
224.338	-12.88
224.573	-11.88
224.808	2.12
225.042	-13.88
225.277	-7.88
225.511	-15.88
225.746	1.12
225.98	10.12
226.215	11.12
226.449	22.12
226.683	12.12
226.918	26.12
227.152	42.12
227.387	20.12
227.621	34.12
227.856	41.12
228.09	41.12
228.324	48.12
228.559	52.12
228.793	93.12
229.027	117.12
229.262	140.12
229.496	134.12
229.73	150.12
229.964	170.12
230.199	196.12
230.433	191.12
230.667	178.12
230.901	178.12
231.136	160.12
231.37	154.12
231.604	164.12
231.838	186.12
232.072	194.12
232.306	185.12
232.541	165.12
232.775	155.12
233.009	152.12
233.243	149.12
233.477	165.12
233.711	164.12
233.945	151.12
234.179	170.12
234.413	147.12
234.647	159.12
234.881	168.12
235.115	169.12
235.349	151.12
235.583	152.12
235.817	145.12
236.051	136.12
236.285	156.12
236.519	159.12
236.753	164.12
236.987	151.12
237.221	143.12
237.455	151.12
237.689	166.12
237.922	158.12
238.156	156.12
238.39	168.12
238.624	158.12
238.858	157.12
239.091	166.12
239.325	183.12
239.559	189.12
239.793	205.12
240.027	193.12
240.26	166.12
240.494	162.12
240.728	178.12
240.961	197.12
241.195	173.12
241.429	167.12
241.662	186.12
241.896	206.12
242.13	212.12
242.363	198.12
242.597	176.12
242.83	179.12
243.064	179.12
243.298	189.12
243.531	185.12
243.765	200.12
243.998	199.12
244.232	216.12
244.465	193.12
244.699	193.12
244.932	196.12
245.166	206.12
245.399	195.12
245.633	196.12
245.866	206.12
246.099	194.12
246.333	211.12
246.566	194.12
246.8	198.12
247.033	214.12
247.266	195.12
247.5	212.12
247.733	205.12
247.966	209.12
248.2	209.12
248.433	234.12
248.666	209.12
248.899	218.12
249.133	230.12
249.366	229.12
249.599	237.12
249.832	222.12
250.066	223.12
250.299	239.12
250.532	221.12
250.765	247.12
250.998	246.12
251.231	244.12
251.465	274.12
251.698	268.12
251.931	272.12
252.164	240.12
252.397	255.12
252.63	258.12
252.863	260.12
253.096	249.12
253.329	249.12
253.562	262.12
253.795	258.12
254.028	271.12
254.261	257.12
254.494	267.12
254.727	264.12
254.96	265.12
255.193	276.12
255.426	282.12
255.659	260.12
255.892	285.12
256.124	300.12
256.357	278.12
256.59	279.12
256.823	287.12
257.056	269.12
257.289	286.12
257.521	287.12
257.754	280.12
257.987	302.12
258.22	301.12
258.452	301.12
258.685	294.12
258.918	291.12
259.151	280.12
259.383	298.12
259.616	273.12
259.849	290.12
260.081	315.12
260.314	293.12
260.547	288.12
260.779	309.12
261.012	298.12
261.244	302.12
261.477	322.12
261.71	324.12
261.942	314.12
262.175	316.12
262.407	330.12
262.64	294.12
262.872	290.12
263.105	310.12
263.337	316.12
263.57	324.12
263.802	342.12
264.035	325.12
264.267	334.12
264.499	322.12
264.732	319.12
264.964	331.12
265.197	346.12
265.429	321.12
265.661	340.12
265.894	332.12
266.126	336.12
266.358	364.12
266.591	333.12
266.823	330.12
267.055	330.12
267.287	352.12
267.52	344.12
267.752	350.12
267.984	336.12
268.216	366.12
268.448	361.12
268.681	350.12
268.913	363.12
269.145	376.12
269.377	356.12
269.609	357.12
269.841	353.12
270.073	371.12
270.306	337.12
270.538	358.12
270.77	374.12
271.002	367.12
271.234	372.12
271.466	379.12
271.698	380.12
271.93	384.12
272.162	366.12
272.394	366.12
272.626	376.12
272.858	388.12
273.09	379.12
273.322	404.12
273.553	395.12
273.785	378.12
274.017	368.12
274.249	382.12
274.481	390.12
274.713	383.12
274.945	380.12
275.176	389.12
275.408	379.12
275.64	401.12
275.872	397.12
276.104	402.12
276.335	404.12
276.567	406.12
276.799	413.12
277.031	406.12
277.262	403.12
277.494	410.12
277.726	412.12
277.957	395.12
278.189	418.12
278.421	419.12
278.652	424.12
278.884	410.12
279.115	440.12
279.347	427.12
279.579	436.12
279.81	408.12
280.042	426.12
280.273	419.12
280.505	434.12
280.736	439.12
280.968	434.12
281.199	422.12
281.431	436.12
281.662	438.12
281.894	464.12
282.125	441.12
282.356	454.12
282.588	426.12
282.819	436.12
283.051	431.12
283.282	427.12
283.513	443.12
283.745	444.12
283.976	454.12
284.207	448.12
284.439	440.12
284.67	455.12
284.901	464.12
285.132	457.12
285.364	463.12
285.595	467.12
285.826	454.12
286.057	467.12
286.288	447.12
286.52	469.12
286.751	474.12
286.982	480.12
287.213	476.12
287.444	475.12
287.675	452.12
287.906	482.12
288.138	476.12
288.369	476.12
288.6	454.12
288.831	479.12
289.062	468.12
289.293	472.12
289.524	491.12
289.755	487.12
289.986	461.12
290.217	464.12
290.448	472.12
290.679	463.12
290.91	492.12
291.141	476.12
291.371	486.12
291.602	497.12
291.833	454.12
292.064	481.12
292.295	472.12
292.526	478.12
292.757	482.12
292.987	457.12
293.218	474.12
293.449	482.12
293.68	491.12
293.91	512.12
294.141	491.12
294.372	504.12
294.603	492.12
294.833	486.12
295.064	507.12
295.295	481.12
295.525	475.12
295.756	487.12
295.987	476.12
296.217	502.12
296.448	493.12
296.679	464.12
296.909	492.12
297.14	502.12
297.37	518.12
297.601	514.12
297.831	508.12
298.062	500.12
298.292	518.12
298.523	509.12
298.753	525.12
298.984	526.12
299.214	515.12
299.445	543.12
299.675	532.12
299.905	518.12
300.136	526.12
300.366	564.12
300.597	570.12
300.827	554.12
301.057	544.12
301.288	546.12
301.518	559.12
301.748	521.12
301.979	554.12
302.209	536.12
302.439	564.12
302.669	535.12
302.9	542.12
303.13	552.12
303.36	572.12
303.59	571.12
303.82	563.12
304.051	610.12
304.281	570.12
304.511	575.12
304.741	584.12
304.971	606.12
305.201	602.12
305.431	609.12
305.661	590.12
305.891	605.12
306.121	574.12
306.352	563.12
306.582	547.12
306.812	574.12
307.042	562.12
307.272	576.12
307.502	565.12
307.731	544.12
307.961	550.12
308.191	566.12
308.421	568.12
308.651	550.12
308.881	562.12
309.111	574.12
309.341	554.12
309.571	555.12
309.8	590.12
310.03	596.12
310.26	621.12
310.49	622.12
310.72	606.12
310.949	587.12
311.179	590.12
311.409	574.12
311.639	600.12
311.868	618.12
312.098	611.12
312.328	607.12
312.557	580.12
312.787	590.12
313.017	596.12
313.246	615.12
313.476	629.12
313.706	636.12
313.935	607.12
314.165	614.12
314.394	603.12
314.624	590.12
314.853	602.12
315.083	614.12
315.312	629.12
315.542	626.12
315.771	633.12
316.001	612.12
316.23	611.12
316.46	627.12
316.689	620.12
316.919	615.12
317.148	606.12
317.377	619.12
317.607	637.12
317.836	623.12
318.065	627.12
318.295	644.12
318.524	653.12
318.753	644.12
318.983	628.12
319.212	656.12
319.441	642.12
319.67	630.12
319.9	623.12
320.129	628.12
320.358	654.12
320.587	644.12
320.816	640.12
321.046	640.12
321.275	653.12
321.504	669.12
321.733	642.12
321.962	662.12
322.191	657.12
322.42	656.12
322.649	640.12
322.878	669.12
323.108	646.12
323.337	664.12
323.566	685.12
323.795	674.12
324.024	658.12
324.253	668.12
324.482	654.12
324.71	675.12
324.939	687.12
325.168	699.12
325.397	674.12
325.626	679.12
325.855	679.12
326.084	669.12
326.313	709.12
326.542	707.12
326.77	695.12
326.999	637.12
327.228	701.12
327.457	707.12
327.686	714.12
327.914	700.12
328.143	678.12
328.372	698.12
328.6	719.12
328.829	703.12
329.058	699.12
329.287	701.12
329.515	693.12
329.744	710.12
329.972	715.12
330.201	716.12
330.43	743.12
330.658	719.12
330.887	723.12
331.115	726.12
331.344	736.12
331.572	723.12
331.801	734.12
332.03	756.12
332.258	744.12
332.486	741.12
332.715	746.12
332.943	760.12
333.172	802.12
333.4	818.12
333.629	786.12
333.857	788.12
334.085	809.12
334.314	792.12
334.542	799.12
334.771	809.12
334.999	801.12
335.227	830.12
335.455	813.12
335.684	805.12
335.912	823.12
336.14	820.12
336.369	829.12
336.597	825.12
336.825	825.12
337.053	836.12
337.281	836.12
337.51	810.12
337.738	795.12
337.966	820.12
338.194	830.12
338.422	842.12
338.65	804.12
338.878	780.12
339.106	813.12
339.334	823.12
339.562	790.12
339.79	782.12
340.018	783.12
340.246	761.12
340.474	783.12
340.702	783.12
340.93	772.12
341.158	802.12
341.386	817.12
341.614	863.12
341.842	825.12
342.07	797.12
342.298	792.12
342.526	770.12
342.754	754.12
342.981	767.12
343.209	796.12
343.437	811.12
343.665	835.12
343.893	829.12
344.12	823.12
344.348	827.12
344.576	862.12
344.804	848.12
345.031	810.12
345.259	781.12
345.487	801.12
345.714	794.12
345.942	810.12
346.17	840.12
346.397	805.12
346.625	757.12
346.853	777.12
347.08	745.12
347.308	744.12
347.535	754.12
347.763	751.12
347.99	757.12
348.218	731.12
348.445	743.12
348.673	748.12
348.9	754.12
349.128	758.12
349.355	783.12
349.583	791.12
349.81	746.12
350.037	746.12
350.265	744.12
350.492	734.12
350.72	726.12
350.947	745.12
351.174	766.12
351.402	783.12
351.629	817.12
351.856	784.12
352.083	756.12
352.311	776.12
352.538	823.12
352.765	782.12
352.992	717.12
353.22	728.12
353.447	731.12
353.674	714.12
353.901	699.12
354.128	720.12
354.355	719.12
354.583	708.12
354.81	726.12
355.037	730.12
355.264	725.12
355.491	724.12
355.718	714.12
355.945	723.12
356.172	742.12
356.399	725.12
356.626	742.12
356.853	771.12
357.08	739.12
357.307	754.12
357.534	748.12
357.761	714.12
357.988	720.12
358.215	729.12
358.441	702.12
358.668	726.12
358.895	733.12
359.122	719.12
359.349	739.12
359.576	727.12
359.802	742.12
360.029	720.12
360.256	727.12
360.483	719.12
360.709	739.12
360.936	767.12
361.163	749.12
361.39	735.12
361.616	765.12
361.843	777.12
362.07	827.12
362.296	795.12
362.523	743.12
362.749	736.12
362.976	712.12
363.203	711.12
363.429	732.12
363.656	728.12
363.882	724.12
364.109	730.12
364.335	722.12
364.562	744.12
364.788	738.12
365.015	715.12
365.241	736.12
365.468	732.12
365.694	740.12
365.92	736.12
366.147	757.12
366.373	719.12
366.599	746.12
366.826	723.12
367.052	752.12
367.278	734.12
367.505	757.12
367.731	753.12
367.957	745.12
368.184	758.12
368.41	751.12
368.636	728.12
368.862	764.12
369.089	756.12
369.315	761.12
369.541	746.12
369.767	785.12
369.993	762.12
370.219	790.12
370.445	740.12
370.672	759.12
370.898	785.12
371.124	762.12
371.35	804.12
371.576	774.12
371.802	807.12
372.028	804.12
372.254	797.12
372.48	777.12
372.706	804.12
372.932	788.12
373.158	805.12
373.384	814.12
373.61	785.12
373.835	802.12
374.061	814.12
374.287	777.12
374.513	810.12
374.739	785.12
374.965	819.12
375.191	814.12
375.416	782.12
375.642	792.12
375.868	807.12
376.094	796.12
376.319	803.12
376.545	792.12
376.771	761.12
376.997	776.12
377.222	742.12
377.448	770.12
377.674	789.12
377.899	774.12
378.125	773.12
378.35	759.12
378.576	776.12
378.802	754.12
379.027	795.12
379.253	787.12
379.478	782.12
379.704	753.12
379.929	770.12
380.155	751.12
380.38	755.12
380.606	788.12
380.831	780.12
381.057	807.12
381.282	790.12
381.507	796.12
381.733	780.12
381.958	781.12
382.184	797.12
382.409	805.12
382.634	798.12
382.86	792.12
383.085	808.12
383.31	804.12
383.535	804.12
383.761	825.12
383.986	816.12
384.211	817.12
384.436	844.12
384.662	828.12
384.887	853.12
385.112	822.12
385.337	856.12
385.562	856.12
385.787	870.12
386.013	849.12
386.238	858.12
386.463	861.12
386.688	848.12
386.913	876.12
387.138	870.12
387.363	846.12
387.588	854.12
387.813	860.12
388.038	905.12
388.263	896.12
388.488	882.12
388.713	876.12
388.938	860.12
389.163	882.12
389.387	903.12
389.612	851.12
389.837	871.12
390.062	890.12
390.287	873.12
390.512	880.12
390.736	880.12
390.961	880.12
391.186	882.12
391.411	912.12
391.636	941.12
391.86	928.12
392.085	903.12
392.31	922.12
392.534	904.12
392.759	925.12
392.984	930.12
393.208	894.12
393.433	919.12
393.658	922.12
393.882	911.12
394.107	911.12
394.331	919.12
394.556	906.12
394.78	920.12
395.005	923.12
395.229	950.12
395.454	929.12
395.678	943.12
395.903	950.12
396.127	934.12
396.352	927.12
396.576	911.12
396.801	924.12
397.025	951.12
397.249	946.12
397.474	971.12
397.698	968.12
397.922	974.12
398.147	950.12
398.371	997.12
398.595	980.12
398.82	1046.12
399.044	1060.12
399.268	1097.12
399.492	1126.12
399.717	1188.12
399.941	1200.12
400.165	1152.12
400.389	1133.12
400.613	1079.12
400.837	1065.12
401.062	1062.12
401.286	1049.12
401.51	1036.12
401.734	1036.12
401.958	1030.12
402.182	1020.12
402.406	1039.12
402.63	1034.12
402.854	1065.12
403.078	1038.12
403.302	1021.12
403.526	1048.12
403.75	1048.12
403.974	1050.12
404.198	1055.12
404.422	1079.12
404.645	1040.12
404.869	1067.12
405.093	1070.12
405.317	1066.12
405.541	1050.12
405.765	1085.12
405.988	1062.12
406.212	1071.12
406.436	1082.12
406.66	1110.12
406.883	1113.12
407.107	1141.12
407.331	1133.12
407.555	1179.12
407.778	1196.12
408.002	1177.12
408.226	1142.12
408.449	1164.12
408.673	1159.12
408.896	1121.12
409.12	1116.12
409.344	1147.12
409.567	1064.12
409.791	1111.12
410.014	1062.12
410.238	1101.12
410.461	1086.12
410.685	1114.12
410.908	1077.12
411.132	1076.12
411.355	1071.12
411.578	1091.12
411.802	1085.12
412.025	1040.12
412.249	1050.12
412.472	1085.12
412.695	1016.12
412.919	1083.12
413.142	1026.12
413.365	1038.12
413.589	1048.12
413.812	1065.12
414.035	1051.12
414.258	1097.12
414.482	1040.12
414.705	1046.12
414.928	1039.12
415.151	1041.12
415.374	1033.12
415.597	999.12
415.821	1004.12
416.044	1027.12
416.267	1004.12
416.49	1000.12
416.713	1022.12
416.936	1025.12
417.159	1013.12
417.382	1029.12
417.605	1001.12
417.828	1024.12
418.051	979.12
418.274	996.12
418.497	978.12
418.72	1000.12
418.943	1007.12
419.166	1035.12
419.389	1087.12
419.611	1078.12
419.834	1068.12
420.057	1063.12
420.28	1027.12
420.503	996.12
420.726	970.12
420.948	982.12
421.171	1008.12
421.394	973.12
421.617	997.12
421.839	990.12
422.062	1015.12
422.285	959.12
422.507	990.12
422.73	1001.12
422.953	982.12
423.175	990.12
423.398	1007.12
423.621	992.12
423.843	1007.12
424.066	1022.12
424.288	992.12
424.511	977.12
424.733	976.12
424.956	977.12
425.178	991.12
425.401	975.12
425.623	995.12
425.846	973.12
426.068	959.12
426.291	974.12
426.513	961.12
426.735	975.12
426.958	964.12
427.18	960.12
427.402	959.12
427.625	975.12
427.847	964.12
428.069	972.12
428.292	941.12
428.514	967.12
428.736	928.12
428.958	956.12
429.181	942.12
429.403	926.12
429.625	968.12
429.847	951.12
430.069	942.12
430.292	973.12
430.514	940.12
430.736	950.12
430.958	985.12
431.18	957.12
431.402	973.12
431.624	969.12
431.846	968.12
432.068	954.12
432.29	967.12
432.512	946.12
432.734	985.12
432.956	969.12
433.178	998.12
433.4	1007.12
433.622	1046.12
433.844	995.12
434.066	1026.12
434.287	976.12
434.509	982.12
434.731	1006.12
434.953	1023.12
435.175	1033.12
435.397	1050.12
435.618	983.12
435.84	976.12
436.062	956.12
436.284	964.12
436.505	976.12
436.727	981.12
436.949	999.12
437.17	983.12
437.392	986.12
437.614	971.12
437.835	933.12
438.057	928.12
438.278	902.12
438.5	941.12
438.721	915.12
438.943	963.12
439.165	956.12
439.386	952.12
439.608	948.12
439.829	943.12
440.05	955.12
440.272	971.12
440.493	987.12
440.715	983.12
440.936	996.12
441.158	1015.12
441.379	997.12
441.6	1030.12
441.822	1040.12
442.043	1011.12
442.264	1027.12
442.486	986.12
442.707	995.12
442.928	998.12
443.149	1043.12
443.371	1048.12
443.592	1081.12
443.813	1060.12
444.034	1048.12
444.255	1012.12
444.476	1052.12
444.698	1065.12
444.919	1084.12
445.14	1185.12
445.361	1095.12
445.582	1084.12
445.803	1007.12
446.024	971.12
446.245	963.12
446.466	973.12
446.687	959.12
446.908	963.12
447.129	942.12
447.35	960.12
447.571	931.12
447.792	899.12
448.013	900.12
448.234	892.12
448.455	905.12
448.675	895.12
448.896	911.12
449.117	893.12
449.338	902.12
449.559	887.12
449.779	897.12
450	882.12
450.221	868.12
450.442	887.12
450.662	898.12
450.883	897.12
451.104	939.12
451.324	912.12
451.545	884.12
451.766	873.12
451.986	862.12
452.207	863.12
452.428	875.12
452.648	856.12
452.869	865.12
453.089	864.12
453.31	859.12
453.53	879.12
453.751	869.12
453.971	882.12
454.192	883.12
454.412	900.12
454.633	849.12
454.853	843.12
455.073	849.12
455.294	868.12
455.514	849.12
455.734	911.12
455.955	914.12
456.175	883.12
456.395	870.12
456.616	857.12
456.836	831.12
457.056	822.12
457.276	815.12
457.497	889.12
457.717	878.12
457.937	892.12
458.157	861.12
458.377	869.12
458.598	877.12
458.818	916.12
459.038	928.12
459.258	917.12
459.478	1028.12
459.698	1078.12
459.918	1053.12
460.138	1058.12
460.358	1035.12
460.578	1054.12
460.798	1108.12
461.018	1110.12
461.238	1044.12
461.458	1026.12
461.678	1017.12
461.898	1032.12
462.118	1054.12
462.338	1097.12
462.558	1112.12
462.777	1142.12
462.997	1186.12
463.217	1208.12
463.437	1226.12
463.657	1187.12
463.876	1135.12
464.096	1138.12
464.316	1120.12
464.536	1138.12
464.755	1095.12
464.975	1040.12
465.195	1019.12
465.414	1053.12
465.634	1005.12
465.854	982.12
466.073	984.12
466.293	977.12
466.512	935.12
466.732	942.12
466.951	923.12
467.171	945.12
467.391	967.12
467.61	955.12
467.829	915.12
468.049	938.12
468.268	933.12
468.488	927.12
468.707	912.12
468.927	926.12
469.146	940.12
469.365	964.12
469.585	946.12
469.804	950.12
470.023	934.12
470.243	952.12
470.462	924.12
470.681	933.12
470.901	911.12
471.12	942.12
471.339	923.12
471.558	942.12
471.777	939.12
471.997	931.12
472.216	904.12
472.435	911.12
472.654	933.12
472.873	926.12
473.092	895.12
473.311	905.12
473.53	919.12
473.749	937.12
473.968	903.12
474.187	893.12
474.406	900.12
474.625	911.12
474.844	910.12
475.063	956.12
475.282	929.12
475.501	928.12
475.72	940.12
475.939	951.12
476.158	946.12
476.377	974.12
476.596	940.12
476.814	961.12
477.033	970.12
477.252	973.12
477.471	1006.12
477.69	1034.12
477.908	1037.12
478.127	1071.12
478.346	1044.12
478.564	1045.12
478.783	1086.12
479.002	1113.12
479.22	1146.12
479.439	1108.12
479.658	1079.12
479.876	1091.12
480.095	1085.12
480.313	1107.12
480.532	1098.12
480.751	1112.12
480.969	1094.12
481.188	1100.12
481.406	1061.12
481.624	1065.12
481.843	1055.12
482.061	1055.12
482.28	1070.12
482.498	1060.12
482.717	1072.12
482.935	1091.12
483.153	1079.12
483.372	1102.12
483.59	1180.12
483.808	1119.12
484.027	1095.12
484.245	1086.12
484.463	1083.12
484.681	1077.12
484.9	1069.12
485.118	1128.12
485.336	1108.12
485.554	1119.12
485.772	1096.12
485.99	1123.12
486.209	1106.12
486.427	1103.12
486.645	1100.12
486.863	1109.12
487.081	1094.12
487.299	1125.12
487.517	1137.12
487.735	1149.12
487.953	1158.12
488.171	1148.12
488.389	1131.12
488.607	1115.12
488.825	1134.12
489.043	1084.12
489.261	1095.12
489.479	1104.12
489.696	1142.12
489.914	1080.12
490.132	1111.12
490.35	1114.12
490.568	1091.12
490.786	1163.12
491.003	1146.12
491.221	1110.12
491.439	1114.12
491.657	1115.12
491.874	1173.12
492.092	1142.12
492.31	1178.12
492.527	1154.12
492.745	1174.12
492.963	1154.12
493.18	1144.12
493.398	1139.12
493.615	1161.12
493.833	1154.12
494.05	1167.12
494.268	1180.12
494.485	1157.12
494.703	1175.12
494.92	1193.12
495.138	1176.12
495.355	1162.12
495.573	1202.12
495.79	1164.12
496.008	1190.12
496.225	1202.12
496.442	1226.12
496.66	1240.12
496.877	1228.12
497.094	1251.12
497.312	1250.12
497.529	1269.12
497.746	1303.12
497.963	1312.12
498.181	1337.12
498.398	1381.12
498.615	1408.12
498.832	1453.12
499.049	1498.12
499.267	1531.12
499.484	1639.12
499.701	1722.12
499.918	1787.12
500.135	1815.12
500.352	1946.12
500.569	1954.12
500.786	1936.12
501.003	1863.12
501.22	1821.12
501.437	1717.12
501.654	1651.12
501.871	1598.12
502.088	1552.12
502.305	1511.12
502.522	1498.12
502.739	1437.12
502.956	1342.12
503.172	1339.12
503.389	1300.12
503.606	1294.12
503.823	1267.12
504.04	1258.12
504.256	1260.12
504.473	1202.12
504.69	1233.12
504.907	1206.12
505.123	1193.12
505.34	1178.12
505.557	1134.12
505.773	1104.12
505.99	1082.12
506.207	1075.12
506.423	1079.12
506.64	1081.12
506.856	1066.12
507.073	1047.12
507.289	1063.12
507.506	999.12
507.722	1045.12
507.939	1059.12
508.155	1031.12
508.372	1041.12
508.588	1015.12
508.805	983.12
509.021	987.12
509.238	963.12
509.454	987.12
509.67	971.12
509.887	962.12
510.103	955.12
510.319	951.12
510.536	949.12
510.752	948.12
510.968	945.12
511.184	915.12
511.401	926.12
511.617	938.12
511.833	930.12
512.049	945.12
512.265	912.12
512.481	949.12
512.698	927.12
512.914	925.12
513.13	948.12
513.346	926.12
513.562	917.12
513.778	916.12
513.994	943.12
514.21	936.12
514.426	949.12
514.642	914.12
514.858	920.12
515.074	951.12
515.29	950.12
515.506	942.12
515.721	965.12
515.937	975.12
516.153	960.12
516.369	949.12
516.585	971.12
516.801	975.12
517.016	988.12
517.232	1017.12
517.448	1049.12
517.664	1043.12
517.879	1043.12
518.095	1028.12
518.311	1012.12
518.527	1028.12
518.742	1005.12
518.958	979.12
519.173	979.12
519.389	978.12
519.605	954.12
519.82	950.12
520.036	938.12
520.251	899.12
520.467	883.12
520.682	924.12
520.898	907.12
521.113	930.12
521.329	894.12
521.544	894.12
521.76	918.12
521.975	867.12
522.19	866.12
522.406	880.12
522.621	900.12
522.836	876.12
523.052	843.12
523.267	869.12
523.482	870.12
523.698	861.12
523.913	846.12
524.128	866.12
524.343	842.12
524.559	860.12
524.774	819.12
524.989	815.12
525.204	829.12
525.419	855.12
525.634	839.12
525.849	858.12
526.064	852.12
526.28	842.12
526.495	831.12
526.71	805.12
526.925	818.12
527.14	850.12
527.355	834.12
527.57	823.12
527.785	795.12
527.999	802.12
528.214	778.12
528.429	802.12
528.644	841.12
528.859	824.12
529.074	829.12
529.289	812.12
529.503	818.12
529.718	813.12
529.933	813.12
530.148	826.12
530.363	825.12
530.577	801.12
530.792	800.12
531.007	805.12
531.221	785.12
531.436	787.12
531.651	827.12
531.865	805.12
532.08	774.12
532.295	794.12
532.509	804.12
532.724	790.12
532.938	809.12
533.153	776.12
533.367	789.12
533.582	792.12
533.796	805.12
534.011	796.12
534.225	787.12
534.44	781.12
534.654	791.12
534.868	788.12
535.083	765.12
535.297	779.12
535.511	749.12
535.726	791.12
535.94	784.12
536.154	768.12
536.369	756.12
536.583	756.12
536.797	735.12
537.011	754.12
537.225	754.12
537.44	743.12
537.654	750.12
537.868	721.12
538.082	743.12
538.296	722.12
538.51	746.12
538.724	735.12
538.938	770.12
539.153	726.12
539.367	762.12
539.581	737.12
539.795	751.12
540.009	747.12
540.222	726.12
540.436	727.12
540.65	745.12
540.864	749.12
541.078	726.12
541.292	707.12
541.506	738.12
541.72	772.12
541.934	747.12
542.147	735.12
542.361	754.12
542.575	718.12
542.789	745.12
543.002	722.12
543.216	716.12
543.43	716.12
543.644	708.12
543.857	728.12
544.071	715.12
544.285	757.12
544.498	743.12
544.712	724.12
544.925	730.12
545.139	731.12
545.352	711.12
545.566	740.12
545.779	744.12
545.993	713.12
546.206	736.12
546.42	717.12
546.633	730.12
546.847	717.12
547.06	726.12
547.274	751.12
547.487	716.12
547.7	732.12
547.914	762.12
548.127	702.12
548.34	726.12
548.554	723.12
548.767	706.12
548.98	730.12
549.193	727.12
549.407	710.12
549.62	718.12
549.833	718.12
550.046	707.12
550.259	701.12
550.473	716.12
550.686	730.12
550.899	722.12
551.112	709.12
551.325	731.12
551.538	714.12
551.751	713.12
551.964	707.12
552.177	709.12
552.39	682.12
552.603	723.12
552.816	692.12
553.029	717.12
553.242	712.12
553.455	720.12
553.667	715.12
553.88	705.12
554.093	699.12
554.306	714.12
554.519	707.12
554.732	680.12
554.944	676.12
555.157	689.12
555.37	681.12
555.583	680.12
555.795	649.12
556.008	650.12
556.221	643.12
556.433	646.12
556.646	650.12
556.859	663.12
557.071	635.12
557.284	656.12
557.496	627.12
557.709	614.12
557.921	640.12
558.134	623.12
558.346	616.12
558.559	608.12
558.771	627.12
558.984	616.12
559.196	630.12
559.409	608.12
559.621	643.12
559.833	623.12
560.046	616.12
560.258	634.12
560.47	604.12
560.683	613.12
560.895	603.12
561.107	612.12
561.32	605.12
561.532	607.12
561.744	612.12
561.956	616.12
562.168	607.12
562.381	605.12
562.593	622.12
562.805	620.12
563.017	609.12
563.229	620.12
563.441	606.12
563.653	619.12
563.865	610.12
564.077	602.12
564.289	604.12
564.501	661.12
564.713	642.12
564.925	642.12
565.137	637.12
565.349	642.12
565.561	656.12
565.773	637.12
565.985	666.12
566.197	681.12
566.408	718.12
566.62	742.12
566.832	724.12
567.044	751.12
567.255	737.12
567.467	749.12
567.679	752.12
567.891	755.12
568.102	744.12
568.314	737.12
568.526	740.12
568.737	698.12
568.949	674.12
569.161	659.12
569.372	639.12
569.584	618.12
569.795	646.12
570.007	615.12
570.218	577.12
570.43	568.12
570.641	569.12
570.853	579.12
571.064	595.12
571.276	562.12
571.487	553.12
571.698	561.12
571.91	538.12
572.121	551.12
572.333	528.12
572.544	522.12
572.755	517.12
572.966	534.12
573.178	506.12
573.389	511.12
573.6	501.12
573.811	494.12
574.023	500.12
574.234	492.12
574.445	514.12
574.656	493.12
574.867	488.12
575.078	497.12
575.289	480.12
575.501	480.12
575.712	474.12
575.923	483.12
576.134	471.12
576.345	464.12
576.556	464.12
576.767	435.12
576.978	448.12
577.188	456.12
577.399	469.12
577.61	463.12
577.821	452.12
578.032	456.12
578.243	450.12
578.454	470.12
578.665	436.12
578.875	447.12
579.086	454.12
579.297	477.12
579.508	452.12
579.718	442.12
579.929	426.12
580.14	428.12
580.35	438.12
580.561	428.12
580.772	426.12
580.982	432.12
581.193	427.12
581.403	439.12
581.614	442.12
581.825	415.12
582.035	423.12
582.246	405.12
582.456	400.12
582.667	411.12
582.877	418.12
583.087	417.12
583.298	426.12
583.508	427.12
583.719	414.12
583.929	414.12
584.139	425.12
584.35	407.12
584.56	390.12
584.77	399.12
584.981	418.12
585.191	411.12
585.401	400.12
585.611	398.12
585.821	400.12
586.032	408.12
586.242	405.12
586.452	404.12
586.662	389.12
586.872	376.12
587.082	409.12
587.292	383.12
587.502	399.12
587.713	416.12
587.923	400.12
588.133	424.12
588.343	390.12
588.553	399.12
588.762	400.12
588.972	406.12
589.182	439.12
589.392	440.12
589.602	409.12
589.812	414.12
590.022	404.12
590.232	380.12
590.441	399.12
590.651	398.12
590.861	395.12
591.071	404.12
591.281	383.12
591.49	391.12
591.7	425.12
591.91	404.12
592.119	403.12
592.329	415.12
592.539	403.12
592.748	410.12
592.958	437.12
593.167	427.12
593.377	414.12
593.587	424.12
593.796	430.12
594.006	409.12
594.215	420.12
594.424	397.12
594.634	400.12
594.843	414.12
595.053	409.12
595.262	401.12
595.472	405.12
595.681	390.12
595.89	387.12
596.1	379.12
596.309	379.12
596.518	378.12
596.727	370.12
596.937	356.12
597.146	359.12
597.355	365.12
597.564	357.12
597.774	355.12
597.983	362.12
598.192	353.12
598.401	341.12
598.61	339.12
598.819	340.12
599.028	350.12
599.237	371.12
599.446	332.12
599.655	344.12
599.864	334.12
600.073	326.12
600.282	363.12
600.491	327.12
600.7	338.12
600.909	344.12
601.118	340.12
601.327	327.12
601.536	327.12
601.745	338.12
601.953	330.12
602.162	334.12
602.371	336.12
602.58	336.12
602.789	321.12
602.997	339.12
603.206	317.12
603.415	315.12
603.623	328.12
603.832	335.12
604.041	334.12
604.249	318.12
604.458	321.12
604.666	312.12
604.875	326.12
605.084	313.12
605.292	320.12
605.501	322.12
605.709	317.12
605.918	310.12
606.126	311.12
606.334	333.12
606.543	297.12
606.751	322.12
606.96	320.12
607.168	298.12
607.376	300.12
607.585	302.12
607.793	309.12
608.001	319.12
608.21	315.12
608.418	299.12
608.626	308.12
608.834	298.12
609.043	313.12
609.251	310.12
609.459	305.12
609.667	289.12
609.875	316.12
610.083	313.12
610.291	299.12
610.499	292.12
610.707	295.12
610.916	301.12
611.124	302.12
611.332	308.12
611.54	308.12
611.748	299.12
611.955	316.12
612.163	288.12
612.371	278.12
612.579	287.12
612.787	309.12
612.995	301.12
613.203	280.12
613.411	296.12
613.618	295.12
613.826	298.12
614.034	274.12
614.242	293.12
614.449	298.12
614.657	287.12
614.865	292.12
615.072	288.12
615.28	287.12
615.488	289.12
615.695	290.12
615.903	296.12
616.111	290.12
616.318	293.12
616.526	288.12
616.733	298.12
616.941	289.12
617.148	277.12
617.356	290.12
617.563	272.12
617.771	287.12
617.978	288.12
618.185	300.12
618.393	284.12
618.6	272.12
618.807	286.12
619.015	268.12
619.222	273.12
619.429	278.12
619.637	286.12
619.844	280.12
620.051	287.12
620.258	293.12
620.466	269.12
620.673	266.12
620.88	260.12
621.087	282.12
621.294	279.12
621.501	274.12
621.708	283.12
621.915	271.12
622.122	254.12
622.329	261.12
622.536	280.12
622.743	268.12
622.95	253.12
623.157	267.12
623.364	285.12
623.571	247.12
623.778	273.12
623.985	268.12
624.192	256.12
624.399	269.12
624.606	275.12
624.812	248.12
625.019	262.12
625.226	245.12
625.433	260.12
625.639	258.12
625.846	253.12
626.053	242.12
626.259	237.12
626.466	235.12
626.673	252.12
626.879	247.12
627.086	257.12
627.293	245.12
627.499	242.12
627.706	244.12
627.912	247.12
628.119	257.12
628.325	236.12
628.532	236.12
628.738	242.12
628.945	228.12
629.151	242.12
629.357	247.12
629.564	247.12
629.77	246.12
629.976	249.12
630.183	259.12
630.389	230.12
630.595	246.12
630.802	240.12
631.008	244.12
631.214	254.12
631.42	232.12
631.627	244.12
631.833	242.12
632.039	228.12
632.245	232.12
632.451	245.12
632.657	242.12
632.863	230.12
633.069	232.12
633.275	223.12
633.481	213.12
633.688	237.12
633.893	256.12
634.099	236.12
634.305	213.12
634.511	207.12
634.717	246.12
634.923	241.12
635.129	243.12
635.335	223.12
635.541	223.12
635.747	220.12
635.952	217.12
636.158	228.12
636.364	220.12
636.57	215.12
636.775	233.12
636.981	220.12
637.187	227.12
637.392	222.12
637.598	208.12
637.804	214.12
638.009	233.12
638.215	223.12
638.421	215.12
638.626	216.12
638.832	210.12
639.037	219.12
639.243	200.12
639.448	235.12
639.654	235.12
639.859	216.12
640.065	211.12
640.27	229.12
640.475	214.12
640.681	213.12
640.886	215.12
641.091	225.12
641.297	225.12
641.502	215.12
641.707	229.12
641.913	218.12
642.118	216.12
642.323	218.12
642.528	239.12
642.733	212.12
642.939	203.12
643.144	217.12
643.349	191.12
643.554	219.12
643.759	220.12
643.964	194.12
644.169	216.12
644.374	225.12
644.579	212.12
644.784	219.12
644.989	226.12
645.194	195.12
645.399	200.12
645.604	214.12
645.809	224.12
646.014	218.12
646.219	212.12
646.423	216.12
646.628	212.12
646.833	221.12
647.038	205.12
647.243	219.12
647.447	223.12
647.652	211.12
647.857	234.12
648.062	215.12
648.266	218.12
648.471	207.12
648.676	229.12
648.88	217.12
649.085	218.12
649.289	223.12
649.494	242.12
649.698	215.12
649.903	196.12
650.107	222.12
650.312	222.12
650.516	208.12
650.721	204.12
650.925	234.12
651.13	212.12
651.334	206.12
651.539	223.12
651.743	215.12
651.947	204.12
652.152	207.12
652.356	213.12
652.56	186.12
652.764	206.12
652.969	210.12
653.173	191.12
653.377	204.12
653.581	207.12
653.785	191.12
653.99	201.12
654.194	193.12
654.398	201.12
654.602	207.12
654.806	203.12
655.01	204.12
655.214	205.12
655.418	200.12
655.622	190.12
655.826	223.12
656.03	217.12
656.234	212.12
656.438	214.12
656.642	206.12
656.846	190.12
657.049	187.12
657.253	192.12
657.457	193.12
657.661	180.12
657.865	169.12
658.068	150.12
658.272	154.12
658.476	159.12
658.68	155.12
658.883	130.12
659.087	136.12
659.291	124.12
659.494	126.12
659.698	118.12
659.901	122.12
660.105	117.12
660.309	115.12
660.512	118.12
660.716	114.12
660.919	103.12
661.123	114.12
661.326	103.12
661.53	98.12
661.733	103.12
661.936	97.12
662.14	96.12
662.343	93.12
662.546	97.12
662.75	90.12
662.953	97.12
663.156	75.12
663.36	89.12
663.563	87.12
663.766	87.12
663.969	92.12
664.173	94.12
664.376	91.12
664.579	93.12
664.782	80.12
664.985	84.12
665.188	76.12
665.391	85.12
665.594	92.12
665.797	91.12
666	84.12
666.203	79.12
666.406	81.12
666.609	86.12
666.812	83.12
667.015	69.12
667.218	76.12
667.421	76.12
667.624	79.12
667.827	83.12
668.03	86.12
668.232	79.12
668.435	88.12
668.638	87.12
668.841	79.12
669.043	80.12
669.246	82.12
669.449	72.12
669.651	102.12
669.854	86.12
670.057	81.12
670.259	80.12
670.462	76.12
670.665	79.12
670.867	75.12
671.07	87.12
671.272	74.12
671.475	89.12
671.677	80.12
671.88	73.12
672.082	81.12
672.284	87.12
672.487	72.12
672.689	82.12
672.892	93.12
