Data from Ni(NO3)2@0.0625M.TitratingCurve.Agarose3%dH2O.NegLispCup.LampEnergy10.LIBS07252019_HRD10591_18-13-23-572.txt Node
Date: Thu Jul 25 18:13:23 EDT 2019
User: cochatt
Spectrometer: HR+D1059
Trigger mode: 1
Integration Time (sec): 1.000000E-1
Scans to average: 1
Electric dark correction enabled: true
Nonlinearity correction enabled: false
Boxcar width: 0
XAxis mode: Wavelengths
Number of Pixels in Spectrum: 2048
>>>>>Begin Spectral Data<<<<<
223.165	-23.06
223.4	-23.06
223.635	-23.06
223.869	-12.06
224.104	-16.06
224.338	-2.06
224.573	-19.06
224.808	-17.06
225.042	-26.06
225.277	-20.06
225.511	2.94
225.746	25.94
225.98	4.94
226.215	13.94
226.449	6.94
226.683	27.94
226.918	28.94
227.152	23.94
227.387	30.94
227.621	37.94
227.856	42.94
228.09	43.94
228.324	49.94
228.559	56.94
228.793	70.94
229.027	98.94
229.262	118.94
229.496	109.94
229.73	123.94
229.964	141.94
230.199	134.94
230.433	145.94
230.667	140.94
230.901	140.94
231.136	149.94
231.37	135.94
231.604	143.94
231.838	159.94
232.072	145.94
232.306	149.94
232.541	150.94
232.775	169.94
233.009	172.94
233.243	164.94
233.477	155.94
233.711	147.94
233.945	164.94
234.179	158.94
234.413	167.94
234.647	160.94
234.881	168.94
235.115	156.94
235.349	158.94
235.583	158.94
235.817	145.94
236.051	164.94
236.285	161.94
236.519	154.94
236.753	167.94
236.987	170.94
237.221	164.94
237.455	176.94
237.689	189.94
237.922	170.94
238.156	165.94
238.39	192.94
238.624	176.94
238.858	171.94
239.091	167.94
239.325	188.94
239.559	170.94
239.793	186.94
240.027	184.94
240.26	185.94
240.494	195.94
240.728	205.94
240.961	190.94
241.195	203.94
241.429	210.94
241.662	198.94
241.896	201.94
242.13	190.94
242.363	189.94
242.597	211.94
242.83	211.94
243.064	196.94
243.298	214.94
243.531	210.94
243.765	215.94
243.998	214.94
244.232	225.94
244.465	222.94
244.699	214.94
244.932	227.94
245.166	230.94
245.399	232.94
245.633	237.94
245.866	223.94
246.099	228.94
246.333	249.94
246.566	246.94
246.8	233.94
247.033	230.94
247.266	225.94
247.5	236.94
247.733	258.94
247.966	256.94
248.2	259.94
248.433	265.94
248.666	245.94
248.899	252.94
249.133	251.94
249.366	265.94
249.599	263.94
249.832	258.94
250.066	266.94
250.299	267.94
250.532	259.94
250.765	269.94
250.998	285.94
251.231	269.94
251.465	275.94
251.698	270.94
251.931	306.94
252.164	302.94
252.397	285.94
252.63	293.94
252.863	295.94
253.096	304.94
253.329	304.94
253.562	284.94
253.795	294.94
254.028	293.94
254.261	293.94
254.494	293.94
254.727	312.94
254.96	297.94
255.193	293.94
255.426	309.94
255.659	305.94
255.892	327.94
256.124	297.94
256.357	283.94
256.59	308.94
256.823	314.94
257.056	328.94
257.289	316.94
257.521	303.94
257.754	323.94
257.987	326.94
258.22	320.94
258.452	331.94
258.685	325.94
258.918	348.94
259.151	346.94
259.383	336.94
259.616	351.94
259.849	338.94
260.081	310.94
260.314	355.94
260.547	361.94
260.779	333.94
261.012	352.94
261.244	332.94
261.477	349.94
261.71	352.94
261.942	339.94
262.175	358.94
262.407	352.94
262.64	357.94
262.872	356.94
263.105	370.94
263.337	348.94
263.57	360.94
263.802	356.94
264.035	369.94
264.267	359.94
264.499	365.94
264.732	379.94
264.964	370.94
265.197	378.94
265.429	386.94
265.661	373.94
265.894	368.94
266.126	383.94
266.358	407.94
266.591	378.94
266.823	384.94
267.055	394.94
267.287	396.94
267.52	396.94
267.752	397.94
267.984	389.94
268.216	398.94
268.448	395.94
268.681	396.94
268.913	401.94
269.145	403.94
269.377	412.94
269.609	399.94
269.841	414.94
270.073	403.94
270.306	403.94
270.538	415.94
270.77	415.94
271.002	403.94
271.234	414.94
271.466	434.94
271.698	419.94
271.93	401.94
272.162	432.94
272.394	426.94
272.626	440.94
272.858	429.94
273.09	428.94
273.322	422.94
273.553	424.94
273.785	438.94
274.017	436.94
274.249	441.94
274.481	416.94
274.713	450.94
274.945	436.94
275.176	421.94
275.408	449.94
275.64	453.94
275.872	466.94
276.104	469.94
276.335	436.94
276.567	434.94
276.799	447.94
277.031	465.94
277.262	436.94
277.494	456.94
277.726	463.94
277.957	444.94
278.189	456.94
278.421	463.94
278.652	465.94
278.884	467.94
279.115	500.94
279.347	473.94
279.579	490.94
279.81	468.94
280.042	484.94
280.273	489.94
280.505	474.94
280.736	492.94
280.968	491.94
281.199	490.94
281.431	510.94
281.662	490.94
281.894	517.94
282.125	483.94
282.356	488.94
282.588	482.94
282.819	520.94
283.051	520.94
283.282	486.94
283.513	495.94
283.745	520.94
283.976	518.94
284.207	500.94
284.439	487.94
284.67	508.94
284.901	509.94
285.132	535.94
285.364	508.94
285.595	518.94
285.826	539.94
286.057	541.94
286.288	541.94
286.52	563.94
286.751	530.94
286.982	550.94
287.213	563.94
287.444	546.94
287.675	538.94
287.906	554.94
288.138	558.94
288.369	533.94
288.6	526.94
288.831	558.94
289.062	557.94
289.293	565.94
289.524	552.94
289.755	578.94
289.986	561.94
290.217	535.94
290.448	552.94
290.679	576.94
290.91	562.94
291.141	566.94
291.371	564.94
291.602	571.94
291.833	573.94
292.064	578.94
292.295	573.94
292.526	572.94
292.757	554.94
292.987	568.94
293.218	586.94
293.449	578.94
293.68	582.94
293.91	566.94
294.141	586.94
294.372	555.94
294.603	584.94
294.833	567.94
295.064	583.94
295.295	578.94
295.525	576.94
295.756	587.94
295.987	603.94
296.217	611.94
296.448	601.94
296.679	600.94
296.909	600.94
297.14	619.94
297.37	616.94
297.601	629.94
297.831	596.94
298.062	613.94
298.292	635.94
298.523	643.94
298.753	629.94
298.984	616.94
299.214	629.94
299.445	632.94
299.675	620.94
299.905	603.94
300.136	602.94
300.366	612.94
300.597	635.94
300.827	624.94
301.057	669.94
301.288	659.94
301.518	646.94
301.748	621.94
301.979	652.94
302.209	655.94
302.439	646.94
302.669	662.94
302.9	647.94
303.13	632.94
303.36	640.94
303.59	629.94
303.82	633.94
304.051	638.94
304.281	632.94
304.511	648.94
304.741	674.94
304.971	638.94
305.201	644.94
305.431	636.94
305.661	646.94
305.891	633.94
306.121	636.94
306.352	638.94
306.582	617.94
306.812	629.94
307.042	612.94
307.272	631.94
307.502	642.94
307.731	637.94
307.961	634.94
308.191	632.94
308.421	630.94
308.651	628.94
308.881	619.94
309.111	628.94
309.341	624.94
309.571	644.94
309.8	610.94
310.03	624.94
310.26	611.94
310.49	612.94
310.72	644.94
310.949	611.94
311.179	638.94
311.409	636.94
311.639	644.94
311.868	621.94
312.098	642.94
312.328	660.94
312.557	644.94
312.787	663.94
313.017	668.94
313.246	643.94
313.476	665.94
313.706	655.94
313.935	692.94
314.165	672.94
314.394	690.94
314.624	689.94
314.853	662.94
315.083	666.94
315.312	659.94
315.542	676.94
315.771	661.94
316.001	656.94
316.23	694.94
316.46	656.94
316.689	646.94
316.919	644.94
317.148	617.94
317.377	621.94
317.607	655.94
317.836	644.94
318.065	665.94
318.295	637.94
318.524	633.94
318.753	656.94
318.983	635.94
319.212	655.94
319.441	637.94
319.67	641.94
319.9	664.94
320.129	653.94
320.358	657.94
320.587	666.94
320.816	664.94
321.046	667.94
321.275	642.94
321.504	642.94
321.733	672.94
321.962	673.94
322.191	641.94
322.42	670.94
322.649	669.94
322.878	700.94
323.108	652.94
323.337	681.94
323.566	670.94
323.795	659.94
324.024	657.94
324.253	661.94
324.482	676.94
324.71	688.94
324.939	695.94
325.168	698.94
325.397	718.94
325.626	681.94
325.855	690.94
326.084	702.94
326.313	715.94
326.542	736.94
326.77	735.94
326.999	713.94
327.228	715.94
327.457	700.94
327.686	743.94
327.914	690.94
328.143	734.94
328.372	706.94
328.6	724.94
328.829	722.94
329.058	737.94
329.287	714.94
329.515	743.94
329.744	743.94
329.972	723.94
330.201	747.94
330.43	717.94
330.658	743.94
330.887	755.94
331.115	758.94
331.344	766.94
331.572	795.94
331.801	778.94
332.03	802.94
332.258	830.94
332.486	834.94
332.715	877.94
332.943	899.94
333.172	939.94
333.4	992.94
333.629	1026.94
333.857	1014.94
334.085	983.94
334.314	988.94
334.542	967.94
334.771	936.94
334.999	909.94
335.227	933.94
335.455	932.94
335.684	924.94
335.912	889.94
336.14	891.94
336.369	885.94
336.597	911.94
336.825	858.94
337.053	827.94
337.281	825.94
337.51	828.94
337.738	843.94
337.966	801.94
338.194	820.94
338.422	788.94
338.65	793.94
338.878	791.94
339.106	778.94
339.334	770.94
339.562	780.94
339.79	756.94
340.018	760.94
340.246	729.94
340.474	764.94
340.702	742.94
340.93	768.94
341.158	778.94
341.386	779.94
341.614	767.94
341.842	737.94
342.07	738.94
342.298	761.94
342.526	745.94
342.754	753.94
342.981	739.94
343.209	772.94
343.437	794.94
343.665	856.94
343.893	948.94
344.12	974.94
344.348	896.94
344.576	853.94
344.804	836.94
345.031	778.94
345.259	794.94
345.487	784.94
345.714	760.94
345.942	732.94
346.17	712.94
346.397	750.94
346.625	765.94
346.853	731.94
347.08	753.94
347.308	753.94
347.535	762.94
347.763	760.94
347.99	738.94
348.218	753.94
348.445	760.94
348.673	747.94
348.9	737.94
349.128	736.94
349.355	712.94
349.583	699.94
349.81	712.94
350.037	697.94
350.265	711.94
350.492	740.94
350.72	701.94
350.947	725.94
351.174	710.94
351.402	712.94
351.629	700.94
351.856	717.94
352.083	688.94
352.311	722.94
352.538	715.94
352.765	702.94
352.992	722.94
353.22	700.94
353.447	695.94
353.674	703.94
353.901	681.94
354.128	689.94
354.355	695.94
354.583	709.94
354.81	708.94
355.037	717.94
355.264	702.94
355.491	732.94
355.718	683.94
355.945	696.94
356.172	708.94
356.399	733.94
356.626	739.94
356.853	723.94
357.08	720.94
357.307	706.94
357.534	713.94
357.761	718.94
357.988	711.94
358.215	708.94
358.441	691.94
358.668	707.94
358.895	707.94
359.122	698.94
359.349	725.94
359.576	698.94
359.802	703.94
360.029	706.94
360.256	727.94
360.483	708.94
360.709	711.94
360.936	713.94
361.163	708.94
361.39	704.94
361.616	708.94
361.843	688.94
362.07	692.94
362.296	708.94
362.523	721.94
362.749	744.94
362.976	677.94
363.203	702.94
363.429	703.94
363.656	715.94
363.882	699.94
364.109	692.94
364.335	666.94
364.562	709.94
364.788	688.94
365.015	686.94
365.241	700.94
365.468	685.94
365.694	713.94
365.92	707.94
366.147	701.94
366.373	700.94
366.599	718.94
366.826	707.94
367.052	672.94
367.278	728.94
367.505	703.94
367.731	719.94
367.957	690.94
368.184	698.94
368.41	717.94
368.636	754.94
368.862	728.94
369.089	708.94
369.315	716.94
369.541	715.94
369.767	725.94
369.993	725.94
370.219	723.94
370.445	745.94
370.672	745.94
370.898	745.94
371.124	742.94
371.35	758.94
371.576	780.94
371.802	781.94
372.028	760.94
372.254	774.94
372.48	778.94
372.706	829.94
372.932	805.94
373.158	816.94
373.384	786.94
373.61	761.94
373.835	737.94
374.061	767.94
374.287	773.94
374.513	804.94
374.739	796.94
374.965	841.94
375.191	880.94
375.416	859.94
375.642	829.94
375.868	808.94
376.094	802.94
376.319	776.94
376.545	768.94
376.771	791.94
376.997	742.94
377.222	782.94
377.448	790.94
377.674	750.94
377.899	758.94
378.125	771.94
378.35	776.94
378.576	767.94
378.802	755.94
379.027	790.94
379.253	761.94
379.478	749.94
379.704	754.94
379.929	755.94
380.155	758.94
380.38	762.94
380.606	790.94
380.831	761.94
381.057	770.94
381.282	749.94
381.507	768.94
381.733	766.94
381.958	749.94
382.184	789.94
382.409	816.94
382.634	827.94
382.86	823.94
383.085	824.94
383.31	824.94
383.535	843.94
383.761	863.94
383.986	889.94
384.211	898.94
384.436	912.94
384.662	966.94
384.887	938.94
385.112	950.94
385.337	924.94
385.562	945.94
385.787	952.94
386.013	946.94
386.238	953.94
386.463	967.94
386.688	926.94
386.913	937.94
387.138	907.94
387.363	958.94
387.588	941.94
387.813	944.94
388.038	923.94
388.263	904.94
388.488	915.94
388.713	906.94
388.938	918.94
389.163	891.94
389.387	880.94
389.612	919.94
389.837	908.94
390.062	887.94
390.287	904.94
390.512	923.94
390.736	940.94
390.961	932.94
391.186	915.94
391.411	981.94
391.636	961.94
391.86	1057.94
392.085	1044.94
392.31	1063.94
392.534	1029.94
392.759	988.94
392.984	954.94
393.208	996.94
393.433	987.94
393.658	984.94
393.882	992.94
394.107	983.94
394.331	1003.94
394.556	1017.94
394.78	974.94
395.005	1002.94
395.229	1004.94
395.454	1038.94
395.678	1067.94
395.903	1017.94
396.127	1003.94
396.352	999.94
396.576	983.94
396.801	952.94
397.025	993.94
397.249	1015.94
397.474	1060.94
397.698	1045.94
397.922	1032.94
398.147	1025.94
398.371	1060.94
398.595	1089.94
398.82	1158.94
399.044	1212.94
399.268	1343.94
399.492	1620.94
399.717	1876.94
399.941	1875.94
400.165	1573.94
400.389	1397.94
400.613	1303.94
400.837	1210.94
401.062	1186.94
401.286	1164.94
401.51	1170.94
401.734	1148.94
401.958	1184.94
402.182	1203.94
402.406	1224.94
402.63	1247.94
402.854	1249.94
403.078	1261.94
403.302	1318.94
403.526	1336.94
403.75	1381.94
403.974	1389.94
404.198	1412.94
404.422	1422.94
404.645	1366.94
404.869	1353.94
405.093	1369.94
405.317	1300.94
405.541	1334.94
405.765	1321.94
405.988	1300.94
406.212	1292.94
406.436	1275.94
406.66	1312.94
406.883	1328.94
407.107	1444.94
407.331	1464.94
407.555	1549.94
407.778	1551.94
408.002	1522.94
408.226	1425.94
408.449	1375.94
408.673	1385.94
408.896	1346.94
409.12	1333.94
409.344	1347.94
409.567	1336.94
409.791	1365.94
410.014	1332.94
410.238	1333.94
410.461	1335.94
410.685	1313.94
410.908	1283.94
411.132	1251.94
411.355	1202.94
411.578	1226.94
411.802	1208.94
412.025	1208.94
412.249	1231.94
412.472	1265.94
412.695	1207.94
412.919	1154.94
413.142	1157.94
413.365	1146.94
413.589	1167.94
413.812	1170.94
414.035	1168.94
414.258	1142.94
414.482	1172.94
414.705	1217.94
414.928	1184.94
415.151	1196.94
415.374	1192.94
415.597	1205.94
415.821	1166.94
416.044	1162.94
416.267	1109.94
416.49	1140.94
416.713	1122.94
416.936	1140.94
417.159	1154.94
417.382	1150.94
417.605	1167.94
417.828	1137.94
418.051	1144.94
418.274	1182.94
418.497	1176.94
418.72	1198.94
418.943	1190.94
419.166	1276.94
419.389	1382.94
419.611	1343.94
419.834	1258.94
420.057	1225.94
420.28	1173.94
420.503	1180.94
420.726	1142.94
420.948	1152.94
421.171	1152.94
421.394	1139.94
421.617	1160.94
421.839	1170.94
422.062	1189.94
422.285	1160.94
422.507	1186.94
422.73	1216.94
422.953	1204.94
423.175	1230.94
423.398	1269.94
423.621	1221.94
423.843	1260.94
424.066	1243.94
424.288	1225.94
424.511	1247.94
424.733	1241.94
424.956	1180.94
425.178	1152.94
425.401	1190.94
425.623	1193.94
425.846	1146.94
426.068	1095.94
426.291	1090.94
426.513	1131.94
426.735	1072.94
426.958	1090.94
427.18	1046.94
427.402	1065.94
427.625	1052.94
427.847	1014.94
428.069	1035.94
428.292	1034.94
428.514	1032.94
428.736	1027.94
428.958	1006.94
429.181	1017.94
429.403	1013.94
429.625	1006.94
429.847	996.94
430.069	1004.94
430.292	994.94
430.514	997.94
430.736	986.94
430.958	1000.94
431.18	997.94
431.402	1005.94
431.624	1030.94
431.846	1025.94
432.068	1038.94
432.29	1033.94
432.512	1004.94
432.734	1035.94
432.956	1024.94
433.178	1035.94
433.4	1034.94
433.622	1063.94
433.844	1046.94
434.066	1063.94
434.287	1082.94
434.509	1103.94
434.731	1157.94
434.953	1128.94
435.175	1194.94
435.397	1160.94
435.618	1121.94
435.84	1082.94
436.062	1038.94
436.284	1020.94
436.505	1033.94
436.727	1011.94
436.949	1062.94
437.17	1046.94
437.392	1027.94
437.614	1020.94
437.835	993.94
438.057	997.94
438.278	953.94
438.5	970.94
438.721	973.94
438.943	1001.94
439.165	963.94
439.386	1000.94
439.608	1021.94
439.829	1045.94
440.05	1048.94
440.272	1064.94
440.493	1039.94
440.715	1026.94
440.936	1061.94
441.158	1067.94
441.379	1096.94
441.6	1149.94
441.822	1168.94
442.043	1187.94
442.264	1152.94
442.486	1129.94
442.707	1127.94
442.928	1174.94
443.149	1147.94
443.371	1138.94
443.592	1157.94
443.813	1205.94
444.034	1184.94
444.255	1257.94
444.476	1273.94
444.698	1379.94
444.919	1454.94
445.14	1486.94
445.361	1357.94
445.582	1184.94
445.803	1166.94
446.024	1074.94
446.245	1057.94
446.466	1057.94
446.687	1042.94
446.908	1060.94
447.129	1005.94
447.35	986.94
447.571	996.94
447.792	954.94
448.013	989.94
448.234	933.94
448.455	948.94
448.675	937.94
448.896	938.94
449.117	940.94
449.338	960.94
449.559	933.94
449.779	913.94
450	921.94
450.221	931.94
450.442	937.94
450.662	968.94
450.883	963.94
451.104	985.94
451.324	1015.94
451.545	969.94
451.766	977.94
451.986	960.94
452.207	945.94
452.428	946.94
452.648	939.94
452.869	898.94
453.089	917.94
453.31	956.94
453.53	952.94
453.751	941.94
453.971	948.94
454.192	921.94
454.412	893.94
454.633	892.94
454.853	926.94
455.073	904.94
455.294	905.94
455.514	886.94
455.734	889.94
455.955	859.94
456.175	884.94
456.395	877.94
456.616	875.94
456.836	913.94
457.056	881.94
457.276	865.94
457.497	912.94
457.717	885.94
457.937	909.94
458.157	905.94
458.377	914.94
458.598	931.94
458.818	942.94
459.038	978.94
459.258	1012.94
459.478	1046.94
459.698	1070.94
459.918	1089.94
460.138	1126.94
460.358	1236.94
460.578	1257.94
460.798	1269.94
461.018	1284.94
461.238	1269.94
461.458	1225.94
461.678	1211.94
461.898	1227.94
462.118	1246.94
462.338	1318.94
462.558	1342.94
462.777	1405.94
462.997	1549.94
463.217	1707.94
463.437	1761.94
463.657	1575.94
463.876	1477.94
464.096	1423.94
464.316	1458.94
464.536	1486.94
464.755	1433.94
464.975	1341.94
465.195	1282.94
465.414	1208.94
465.634	1147.94
465.854	1123.94
466.073	1080.94
466.293	1057.94
466.512	1008.94
466.732	1010.94
466.951	1001.94
467.171	995.94
467.391	1037.94
467.61	987.94
467.829	1009.94
468.049	964.94
468.268	974.94
468.488	954.94
468.707	942.94
468.927	963.94
469.146	962.94
469.365	955.94
469.585	952.94
469.804	1001.94
470.023	1031.94
470.243	1016.94
470.462	1030.94
470.681	1036.94
470.901	1027.94
471.12	1048.94
471.339	1002.94
471.558	980.94
471.777	998.94
471.997	975.94
472.216	941.94
472.435	960.94
472.654	952.94
472.873	945.94
473.092	932.94
473.311	910.94
473.53	908.94
473.749	901.94
473.968	921.94
474.187	934.94
474.406	914.94
474.625	923.94
474.844	938.94
475.063	937.94
475.282	918.94
475.501	924.94
475.72	949.94
475.939	918.94
476.158	946.94
476.377	951.94
476.596	949.94
476.814	969.94
477.033	997.94
477.252	992.94
477.471	1000.94
477.69	1069.94
477.908	1060.94
478.127	1092.94
478.346	1105.94
478.564	1116.94
478.783	1130.94
479.002	1184.94
479.22	1216.94
479.439	1148.94
479.658	1141.94
479.876	1128.94
480.095	1182.94
480.313	1237.94
480.532	1274.94
480.751	1255.94
480.969	1207.94
481.188	1137.94
481.406	1114.94
481.624	1114.94
481.843	1066.94
482.061	1066.94
482.28	1060.94
482.498	1069.94
482.717	1054.94
482.935	1059.94
483.153	1059.94
483.372	1047.94
483.59	1058.94
483.808	1056.94
484.027	1044.94
484.245	1089.94
484.463	1100.94
484.681	1076.94
484.9	1078.94
485.118	1090.94
485.336	1100.94
485.554	1083.94
485.772	1127.94
485.99	1133.94
486.209	1152.94
486.427	1132.94
486.645	1123.94
486.863	1128.94
487.081	1102.94
487.299	1116.94
487.517	1106.94
487.735	1106.94
487.953	1099.94
488.171	1083.94
488.389	1099.94
488.607	1092.94
488.825	1099.94
489.043	1062.94
489.261	1090.94
489.479	1114.94
489.696	1114.94
489.914	1106.94
490.132	1130.94
490.35	1120.94
490.568	1093.94
490.786	1107.94
491.003	1156.94
491.221	1116.94
491.439	1117.94
491.657	1133.94
491.874	1131.94
492.092	1151.94
492.31	1117.94
492.527	1136.94
492.745	1115.94
492.963	1145.94
493.18	1158.94
493.398	1165.94
493.615	1152.94
493.833	1149.94
494.05	1166.94
494.268	1173.94
494.485	1163.94
494.703	1178.94
494.92	1181.94
495.138	1156.94
495.355	1164.94
495.573	1187.94
495.79	1179.94
496.008	1164.94
496.225	1187.94
496.442	1179.94
496.66	1219.94
496.877	1229.94
497.094	1267.94
497.312	1296.94
497.529	1290.94
497.746	1314.94
497.963	1373.94
498.181	1440.94
498.398	1466.94
498.615	1576.94
498.832	1687.94
499.049	1781.94
499.267	1966.94
499.484	2154.94
499.701	2440.94
499.918	2697.94
500.135	3164.94
500.352	3677.94
500.569	3872.94
500.786	3866.94
501.003	3520.94
501.22	3109.94
501.437	2723.94
501.654	2331.94
501.871	2133.94
502.088	1924.94
502.305	1780.94
502.522	1715.94
502.739	1667.94
502.956	1574.94
503.172	1492.94
503.389	1424.94
503.606	1377.94
503.823	1337.94
504.04	1346.94
504.256	1322.94
504.473	1394.94
504.69	1482.94
504.907	1459.94
505.123	1325.94
505.34	1232.94
505.557	1193.94
505.773	1147.94
505.99	1127.94
506.207	1080.94
506.423	1076.94
506.64	1064.94
506.856	1067.94
507.073	1051.94
507.289	1034.94
507.506	1038.94
507.722	1026.94
507.939	1028.94
508.155	1004.94
508.372	1008.94
508.588	961.94
508.805	987.94
509.021	999.94
509.238	976.94
509.454	972.94
509.67	961.94
509.887	950.94
510.103	978.94
510.319	965.94
510.536	954.94
510.752	960.94
510.968	946.94
511.184	923.94
511.401	960.94
511.617	964.94
511.833	967.94
512.049	942.94
512.265	974.94
512.481	933.94
512.698	976.94
512.914	949.94
513.13	937.94
513.346	969.94
513.562	950.94
513.778	946.94
513.994	968.94
514.21	965.94
514.426	969.94
514.642	976.94
514.858	969.94
515.074	985.94
515.29	996.94
515.506	1028.94
515.721	999.94
515.937	1036.94
516.153	1061.94
516.369	1077.94
516.585	1088.94
516.801	1164.94
517.016	1200.94
517.232	1248.94
517.448	1325.94
517.664	1405.94
517.879	1413.94
518.095	1362.94
518.311	1404.94
518.527	1284.94
518.742	1223.94
518.958	1160.94
519.173	1125.94
519.389	1094.94
519.605	1074.94
519.82	1052.94
520.036	1025.94
520.251	994.94
520.467	987.94
520.682	968.94
520.898	940.94
521.113	937.94
521.329	949.94
521.544	950.94
521.76	941.94
521.975	920.94
522.19	909.94
522.406	906.94
522.621	898.94
522.836	897.94
523.052	869.94
523.267	873.94
523.482	869.94
523.698	903.94
523.913	884.94
524.128	860.94
524.343	908.94
524.559	896.94
524.774	865.94
524.989	849.94
525.204	888.94
525.419	857.94
525.634	872.94
525.849	896.94
526.064	891.94
526.28	872.94
526.495	882.94
526.71	877.94
526.925	870.94
527.14	859.94
527.355	852.94
527.57	868.94
527.785	882.94
527.999	858.94
528.214	856.94
528.429	852.94
528.644	880.94
528.859	880.94
529.074	869.94
529.289	870.94
529.503	869.94
529.718	860.94
529.933	852.94
530.148	867.94
530.363	867.94
530.577	817.94
530.792	878.94
531.007	856.94
531.221	853.94
531.436	873.94
531.651	872.94
531.865	903.94
532.08	870.94
532.295	855.94
532.509	876.94
532.724	869.94
532.938	871.94
533.153	864.94
533.367	844.94
533.582	889.94
533.796	853.94
534.011	857.94
534.225	863.94
534.44	852.94
534.654	846.94
534.868	849.94
535.083	870.94
535.297	843.94
535.511	818.94
535.726	821.94
535.94	822.94
536.154	831.94
536.369	824.94
536.583	810.94
536.797	800.94
537.011	828.94
537.225	806.94
537.44	817.94
537.654	797.94
537.868	804.94
538.082	816.94
538.296	797.94
538.51	780.94
538.724	796.94
538.938	797.94
539.153	794.94
539.367	803.94
539.581	766.94
539.795	744.94
540.009	741.94
540.222	778.94
540.436	780.94
540.65	739.94
540.864	756.94
541.078	762.94
541.292	742.94
541.506	786.94
541.72	770.94
541.934	766.94
542.147	795.94
542.361	769.94
542.575	772.94
542.789	757.94
543.002	755.94
543.216	742.94
543.43	742.94
543.644	742.94
543.857	781.94
544.071	794.94
544.285	770.94
544.498	752.94
544.712	753.94
544.925	782.94
545.139	792.94
545.352	778.94
545.566	819.94
545.779	820.94
545.993	825.94
546.206	802.94
546.42	760.94
546.633	797.94
546.847	803.94
547.06	788.94
547.274	763.94
547.487	788.94
547.7	760.94
547.914	821.94
548.127	818.94
548.34	796.94
548.554	801.94
548.767	821.94
548.98	800.94
549.193	796.94
549.407	800.94
549.62	810.94
549.833	792.94
550.046	825.94
550.259	803.94
550.473	768.94
550.686	803.94
550.899	792.94
551.112	777.94
551.325	747.94
551.538	786.94
551.751	752.94
551.964	771.94
552.177	771.94
552.39	778.94
552.603	797.94
552.816	845.94
553.029	847.94
553.242	853.94
553.455	865.94
553.667	875.94
553.88	874.94
554.093	850.94
554.306	823.94
554.519	804.94
554.732	780.94
554.944	770.94
555.157	761.94
555.37	760.94
555.583	745.94
555.795	718.94
556.008	686.94
556.221	713.94
556.433	718.94
556.646	698.94
556.859	690.94
557.071	701.94
557.284	704.94
557.496	681.94
557.709	672.94
557.921	673.94
558.134	661.94
558.346	660.94
558.559	657.94
558.771	666.94
558.984	662.94
559.196	674.94
559.409	664.94
559.621	661.94
559.833	649.94
560.046	658.94
560.258	651.94
560.47	640.94
560.683	638.94
560.895	671.94
561.107	658.94
561.32	638.94
561.532	646.94
561.744	665.94
561.956	663.94
562.168	660.94
562.381	648.94
562.593	651.94
562.805	649.94
563.017	666.94
563.229	676.94
563.441	661.94
563.653	685.94
563.865	695.94
564.077	676.94
564.289	693.94
564.501	700.94
564.713	698.94
564.925	718.94
565.137	716.94
565.349	691.94
565.561	752.94
565.773	772.94
565.985	810.94
566.197	854.94
566.408	909.94
566.62	1024.94
566.832	1099.94
567.044	1132.94
567.255	1091.94
567.467	1146.94
567.679	1218.94
567.891	1339.94
568.102	1392.94
568.314	1304.94
568.526	1157.94
568.737	1028.94
568.949	962.94
569.161	855.94
569.372	778.94
569.584	778.94
569.795	704.94
570.007	710.94
570.218	695.94
570.43	673.94
570.641	652.94
570.853	678.94
571.064	700.94
571.276	698.94
571.487	668.94
571.698	654.94
571.91	613.94
572.121	578.94
572.333	599.94
572.544	582.94
572.755	594.94
572.966	564.94
573.178	588.94
573.389	579.94
573.6	557.94
573.811	543.94
574.023	560.94
574.234	569.94
574.445	532.94
574.656	535.94
574.867	546.94
575.078	550.94
575.289	541.94
575.501	523.94
575.712	529.94
575.923	522.94
576.134	525.94
576.345	537.94
576.556	539.94
576.767	512.94
576.978	512.94
577.188	512.94
577.399	506.94
577.61	495.94
577.821	528.94
578.032	459.94
578.243	478.94
578.454	480.94
578.665	491.94
578.875	473.94
579.086	476.94
579.297	459.94
579.508	476.94
579.718	477.94
579.929	476.94
580.14	465.94
580.35	462.94
580.561	455.94
580.772	481.94
580.982	456.94
581.193	456.94
581.403	469.94
581.614	448.94
581.825	480.94
582.035	435.94
582.246	454.94
582.456	435.94
582.667	463.94
582.877	453.94
583.087	452.94
583.298	489.94
583.508	432.94
583.719	454.94
583.929	454.94
584.139	442.94
584.35	463.94
584.56	439.94
584.77	437.94
584.981	457.94
585.191	442.94
585.401	438.94
585.611	438.94
585.821	446.94
586.032	425.94
586.242	416.94
586.452	419.94
586.662	429.94
586.872	427.94
587.082	426.94
587.292	424.94
587.502	446.94
587.713	442.94
587.923	451.94
588.133	449.94
588.343	439.94
588.553	423.94
588.762	440.94
588.972	432.94
589.182	445.94
589.392	435.94
589.602	442.94
589.812	439.94
590.022	451.94
590.232	451.94
590.441	438.94
590.651	430.94
590.861	418.94
591.071	443.94
591.281	448.94
591.49	443.94
591.7	469.94
591.91	469.94
592.119	469.94
592.329	473.94
592.539	480.94
592.748	513.94
592.958	535.94
593.167	541.94
593.377	556.94
593.587	564.94
593.796	579.94
594.006	573.94
594.215	593.94
594.424	600.94
594.634	588.94
594.843	534.94
595.053	487.94
595.262	500.94
595.472	493.94
595.681	480.94
595.89	447.94
596.1	439.94
596.309	440.94
596.518	426.94
596.727	438.94
596.937	417.94
597.146	408.94
597.355	408.94
597.564	410.94
597.774	404.94
597.983	383.94
598.192	379.94
598.401	381.94
598.61	390.94
598.819	398.94
599.028	387.94
599.237	377.94
599.446	387.94
599.655	364.94
599.864	352.94
600.073	371.94
600.282	354.94
600.491	368.94
600.7	371.94
600.909	374.94
601.118	368.94
601.327	354.94
601.536	348.94
601.745	353.94
601.953	363.94
602.162	356.94
602.371	354.94
602.58	348.94
602.789	362.94
602.997	339.94
603.206	353.94
603.415	357.94
603.623	357.94
603.832	328.94
604.041	328.94
604.249	359.94
604.458	346.94
604.666	334.94
604.875	348.94
605.084	337.94
605.292	341.94
605.501	338.94
605.709	330.94
605.918	325.94
606.126	334.94
606.334	340.94
606.543	335.94
606.751	341.94
606.96	325.94
607.168	339.94
607.376	333.94
607.585	331.94
607.793	320.94
608.001	336.94
608.21	329.94
608.418	326.94
608.626	328.94
608.834	336.94
609.043	320.94
609.251	341.94
609.459	336.94
609.667	327.94
609.875	320.94
610.083	341.94
610.291	315.94
610.499	333.94
610.707	321.94
610.916	314.94
611.124	324.94
611.332	314.94
611.54	340.94
611.748	327.94
611.955	314.94
612.163	321.94
612.371	333.94
612.579	309.94
612.787	322.94
612.995	307.94
613.203	310.94
613.411	324.94
613.618	310.94
613.826	314.94
614.034	322.94
614.242	304.94
614.449	310.94
614.657	329.94
614.865	309.94
615.072	302.94
615.28	308.94
615.488	318.94
615.695	313.94
615.903	314.94
616.111	313.94
616.318	319.94
616.526	328.94
616.733	321.94
616.941	322.94
617.148	328.94
617.356	321.94
617.563	330.94
617.771	313.94
617.978	316.94
618.185	306.94
618.393	320.94
618.6	314.94
618.807	297.94
619.015	306.94
619.222	307.94
619.429	308.94
619.637	306.94
619.844	307.94
620.051	304.94
620.258	323.94
620.466	313.94
620.673	286.94
620.88	288.94
621.087	296.94
621.294	308.94
621.501	294.94
621.708	287.94
621.915	292.94
622.122	290.94
622.329	298.94
622.536	276.94
622.743	285.94
622.95	278.94
623.157	285.94
623.364	282.94
623.571	282.94
623.778	284.94
623.985	274.94
624.192	278.94
624.399	254.94
624.606	259.94
624.812	285.94
625.019	276.94
625.226	283.94
625.433	279.94
625.639	265.94
625.846	262.94
626.053	274.94
626.259	274.94
626.466	281.94
626.673	265.94
626.879	259.94
627.086	267.94
627.293	294.94
627.499	266.94
627.706	270.94
627.912	251.94
628.119	263.94
628.325	269.94
628.532	263.94
628.738	253.94
628.945	273.94
629.151	274.94
629.357	261.94
629.564	253.94
629.77	267.94
629.976	247.94
630.183	253.94
630.389	259.94
630.595	264.94
630.802	249.94
631.008	236.94
631.214	231.94
631.42	255.94
631.627	241.94
631.833	231.94
632.039	221.94
632.245	229.94
632.451	252.94
632.657	236.94
632.863	229.94
633.069	236.94
633.275	236.94
633.481	243.94
633.688	227.94
633.893	235.94
634.099	247.94
634.305	234.94
634.511	234.94
634.717	235.94
634.923	233.94
635.129	228.94
635.335	235.94
635.541	241.94
635.747	224.94
635.952	231.94
636.158	227.94
636.364	213.94
636.57	222.94
636.775	235.94
636.981	213.94
637.187	220.94
637.392	215.94
637.598	231.94
637.804	238.94
638.009	211.94
638.215	237.94
638.421	214.94
638.626	230.94
638.832	222.94
639.037	240.94
639.243	196.94
639.448	202.94
639.654	217.94
639.859	199.94
640.065	197.94
640.27	231.94
640.475	219.94
640.681	206.94
640.886	220.94
641.091	225.94
641.297	210.94
641.502	206.94
641.707	213.94
641.913	212.94
642.118	197.94
642.323	196.94
642.528	204.94
642.733	202.94
642.939	194.94
643.144	211.94
643.349	204.94
643.554	206.94
643.759	200.94
643.964	200.94
644.169	209.94
644.374	212.94
644.579	199.94
644.784	196.94
644.989	205.94
645.194	187.94
645.399	199.94
645.604	194.94
645.809	214.94
646.014	203.94
646.219	208.94
646.423	211.94
646.628	220.94
646.833	206.94
647.038	211.94
647.243	210.94
647.447	204.94
647.652	204.94
647.857	197.94
648.062	227.94
648.266	226.94
648.471	216.94
648.676	207.94
648.88	213.94
649.085	227.94
649.289	217.94
649.494	207.94
649.698	199.94
649.903	200.94
650.107	210.94
650.312	196.94
650.516	196.94
650.721	184.94
650.925	189.94
651.13	178.94
651.334	182.94
651.539	184.94
651.743	190.94
651.947	170.94
652.152	168.94
652.356	165.94
652.56	156.94
652.764	181.94
652.969	158.94
653.173	172.94
653.377	157.94
653.581	156.94
653.785	160.94
653.99	154.94
654.194	139.94
654.398	160.94
654.602	147.94
654.806	133.94
655.01	128.94
655.214	152.94
655.418	157.94
655.622	147.94
655.826	133.94
656.03	141.94
656.234	151.94
656.438	132.94
656.642	129.94
656.846	135.94
657.049	136.94
657.253	134.94
657.457	150.94
657.661	116.94
657.865	122.94
658.068	118.94
658.272	108.94
658.476	95.94
658.68	110.94
658.883	117.94
659.087	98.94
659.291	113.94
659.494	101.94
659.698	92.94
659.901	93.94
660.105	87.94
660.309	94.94
660.512	106.94
660.716	114.94
660.919	104.94
661.123	98.94
661.326	89.94
661.53	107.94
661.733	96.94
661.936	78.94
662.14	98.94
662.343	69.94
662.546	99.94
662.75	87.94
662.953	96.94
663.156	83.94
663.36	71.94
663.563	73.94
663.766	75.94
663.969	84.94
664.173	91.94
664.376	88.94
664.579	81.94
664.782	79.94
664.985	83.94
665.188	88.94
665.391	84.94
665.594	80.94
665.797	76.94
666	84.94
666.203	75.94
666.406	84.94
666.609	85.94
666.812	89.94
667.015	79.94
667.218	68.94
667.421	77.94
667.624	66.94
667.827	82.94
668.03	78.94
668.232	73.94
668.435	90.94
668.638	71.94
668.841	91.94
669.043	87.94
669.246	74.94
669.449	83.94
669.651	75.94
669.854	72.94
670.057	82.94
670.259	80.94
670.462	90.94
670.665	90.94
670.867	82.94
671.07	86.94
671.272	84.94
671.475	81.94
671.677	76.94
671.88	77.94
672.082	68.94
672.284	88.94
672.487	91.94
672.689	74.94
672.892	86.94
