Data from Ni(NO3)2@0.25M.TitratingCurve.Agarose3%dH2O.NegLispCup.LampEnergy10.LIBS07252019_HRD10591_18-03-10-565.txt Node
Date: Thu Jul 25 18:03:10 EDT 2019
User: cochatt
Spectrometer: HR+D1059
Trigger mode: 1
Integration Time (sec): 1.000000E-1
Scans to average: 1
Electric dark correction enabled: true
Nonlinearity correction enabled: false
Boxcar width: 0
XAxis mode: Wavelengths
Number of Pixels in Spectrum: 2048
>>>>>Begin Spectral Data<<<<<
223.165	-12.19
223.4	-12.19
223.635	-12.19
223.869	-20.19
224.104	-27.19
224.338	-19.19
224.573	-9.19
224.808	-7.19
225.042	-15.19
225.277	-20.19
225.511	4.81
225.746	7.81
225.98	3.81
226.215	24.81
226.449	7.81
226.683	23.81
226.918	29.81
227.152	27.81
227.387	26.81
227.621	34.81
227.856	52.81
228.09	46.81
228.324	61.81
228.559	50.81
228.793	78.81
229.027	85.81
229.262	84.81
229.496	90.81
229.73	96.81
229.964	88.81
230.199	112.81
230.433	106.81
230.667	98.81
230.901	115.81
231.136	124.81
231.37	107.81
231.604	126.81
231.838	109.81
232.072	108.81
232.306	109.81
232.541	110.81
232.775	95.81
233.009	118.81
233.243	120.81
233.477	125.81
233.711	110.81
233.945	125.81
234.179	116.81
234.413	121.81
234.647	118.81
234.881	123.81
235.115	105.81
235.349	110.81
235.583	115.81
235.817	118.81
236.051	120.81
236.285	118.81
236.519	109.81
236.753	114.81
236.987	123.81
237.221	116.81
237.455	90.81
237.689	106.81
237.922	124.81
238.156	130.81
238.39	121.81
238.624	120.81
238.858	120.81
239.091	106.81
239.325	116.81
239.559	120.81
239.793	123.81
240.027	130.81
240.26	106.81
240.494	113.81
240.728	128.81
240.961	115.81
241.195	130.81
241.429	135.81
241.662	110.81
241.896	122.81
242.13	134.81
242.363	132.81
242.597	129.81
242.83	128.81
243.064	131.81
243.298	127.81
243.531	150.81
243.765	143.81
243.998	127.81
244.232	137.81
244.465	133.81
244.699	138.81
244.932	146.81
245.166	133.81
245.399	158.81
245.633	120.81
245.866	145.81
246.099	136.81
246.333	135.81
246.566	145.81
246.8	148.81
247.033	143.81
247.266	160.81
247.5	139.81
247.733	152.81
247.966	155.81
248.2	155.81
248.433	159.81
248.666	152.81
248.899	169.81
249.133	158.81
249.366	175.81
249.599	168.81
249.832	152.81
250.066	177.81
250.299	163.81
250.532	158.81
250.765	174.81
250.998	166.81
251.231	182.81
251.465	186.81
251.698	183.81
251.931	179.81
252.164	197.81
252.397	187.81
252.63	174.81
252.863	190.81
253.096	198.81
253.329	185.81
253.562	198.81
253.795	198.81
254.028	193.81
254.261	216.81
254.494	191.81
254.727	215.81
254.96	215.81
255.193	205.81
255.426	234.81
255.659	223.81
255.892	215.81
256.124	231.81
256.357	225.81
256.59	225.81
256.823	226.81
257.056	244.81
257.289	230.81
257.521	225.81
257.754	227.81
257.987	232.81
258.22	231.81
258.452	239.81
258.685	233.81
258.918	214.81
259.151	240.81
259.383	225.81
259.616	243.81
259.849	258.81
260.081	243.81
260.314	245.81
260.547	235.81
260.779	255.81
261.012	242.81
261.244	248.81
261.477	266.81
261.71	252.81
261.942	260.81
262.175	247.81
262.407	236.81
262.64	274.81
262.872	259.81
263.105	260.81
263.337	287.81
263.57	270.81
263.802	264.81
264.035	287.81
264.267	274.81
264.499	270.81
264.732	299.81
264.964	280.81
265.197	270.81
265.429	286.81
265.661	281.81
265.894	269.81
266.126	292.81
266.358	283.81
266.591	286.81
266.823	300.81
267.055	310.81
267.287	299.81
267.52	285.81
267.752	293.81
267.984	278.81
268.216	278.81
268.448	270.81
268.681	291.81
268.913	292.81
269.145	296.81
269.377	280.81
269.609	304.81
269.841	286.81
270.073	299.81
270.306	287.81
270.538	290.81
270.77	282.81
271.002	295.81
271.234	284.81
271.466	290.81
271.698	311.81
271.93	320.81
272.162	312.81
272.394	318.81
272.626	304.81
272.858	302.81
273.09	297.81
273.322	295.81
273.553	298.81
273.785	310.81
274.017	319.81
274.249	297.81
274.481	310.81
274.713	321.81
274.945	303.81
275.176	311.81
275.408	303.81
275.64	304.81
275.872	312.81
276.104	319.81
276.335	302.81
276.567	322.81
276.799	306.81
277.031	316.81
277.262	314.81
277.494	297.81
277.726	312.81
277.957	315.81
278.189	314.81
278.421	321.81
278.652	316.81
278.884	301.81
279.115	303.81
279.347	313.81
279.579	316.81
279.81	323.81
280.042	312.81
280.273	340.81
280.505	314.81
280.736	328.81
280.968	315.81
281.199	315.81
281.431	318.81
281.662	306.81
281.894	331.81
282.125	327.81
282.356	316.81
282.588	317.81
282.819	327.81
283.051	321.81
283.282	289.81
283.513	336.81
283.745	334.81
283.976	325.81
284.207	328.81
284.439	335.81
284.67	299.81
284.901	328.81
285.132	334.81
285.364	319.81
285.595	329.81
285.826	325.81
286.057	330.81
286.288	342.81
286.52	350.81
286.751	323.81
286.982	333.81
287.213	326.81
287.444	339.81
287.675	324.81
287.906	335.81
288.138	338.81
288.369	350.81
288.6	340.81
288.831	346.81
289.062	319.81
289.293	358.81
289.524	345.81
289.755	340.81
289.986	346.81
290.217	333.81
290.448	335.81
290.679	331.81
290.91	348.81
291.141	331.81
291.371	344.81
291.602	332.81
291.833	345.81
292.064	339.81
292.295	344.81
292.526	327.81
292.757	338.81
292.987	322.81
293.218	327.81
293.449	333.81
293.68	333.81
293.91	331.81
294.141	330.81
294.372	335.81
294.603	349.81
294.833	330.81
295.064	345.81
295.295	349.81
295.525	338.81
295.756	338.81
295.987	334.81
296.217	358.81
296.448	352.81
296.679	360.81
296.909	341.81
297.14	347.81
297.37	340.81
297.601	339.81
297.831	361.81
298.062	362.81
298.292	357.81
298.523	358.81
298.753	355.81
298.984	372.81
299.214	358.81
299.445	347.81
299.675	362.81
299.905	371.81
300.136	381.81
300.366	385.81
300.597	375.81
300.827	389.81
301.057	372.81
301.288	386.81
301.518	350.81
301.748	360.81
301.979	377.81
302.209	374.81
302.439	396.81
302.669	400.81
302.9	374.81
303.13	382.81
303.36	400.81
303.59	390.81
303.82	385.81
304.051	388.81
304.281	389.81
304.511	399.81
304.741	393.81
304.971	377.81
305.201	391.81
305.431	396.81
305.661	385.81
305.891	404.81
306.121	409.81
306.352	413.81
306.582	398.81
306.812	380.81
307.042	369.81
307.272	391.81
307.502	367.81
307.731	374.81
307.961	378.81
308.191	393.81
308.421	388.81
308.651	390.81
308.881	379.81
309.111	399.81
309.341	394.81
309.571	392.81
309.8	404.81
310.03	393.81
310.26	409.81
310.49	428.81
310.72	411.81
310.949	409.81
311.179	382.81
311.409	396.81
311.639	424.81
311.868	408.81
312.098	399.81
312.328	420.81
312.557	441.81
312.787	424.81
313.017	412.81
313.246	436.81
313.476	448.81
313.706	443.81
313.935	442.81
314.165	431.81
314.394	454.81
314.624	440.81
314.853	451.81
315.083	440.81
315.312	455.81
315.542	444.81
315.771	437.81
316.001	450.81
316.23	450.81
316.46	445.81
316.689	453.81
316.919	448.81
317.148	451.81
317.377	464.81
317.607	453.81
317.836	475.81
318.065	470.81
318.295	485.81
318.524	462.81
318.753	485.81
318.983	498.81
319.212	498.81
319.441	484.81
319.67	502.81
319.9	473.81
320.129	503.81
320.358	516.81
320.587	524.81
320.816	506.81
321.046	514.81
321.275	499.81
321.504	513.81
321.733	539.81
321.962	521.81
322.191	527.81
322.42	555.81
322.649	536.81
322.878	544.81
323.108	539.81
323.337	536.81
323.566	550.81
323.795	560.81
324.024	555.81
324.253	567.81
324.482	546.81
324.71	552.81
324.939	569.81
325.168	558.81
325.397	578.81
325.626	581.81
325.855	570.81
326.084	587.81
326.313	595.81
326.542	607.81
326.77	604.81
326.999	585.81
327.228	608.81
327.457	626.81
327.686	565.81
327.914	619.81
328.143	606.81
328.372	612.81
328.6	617.81
328.829	620.81
329.058	639.81
329.287	613.81
329.515	627.81
329.744	634.81
329.972	661.81
330.201	637.81
330.43	643.81
330.658	638.81
330.887	666.81
331.115	650.81
331.344	648.81
331.572	678.81
331.801	671.81
332.03	677.81
332.258	688.81
332.486	692.81
332.715	680.81
332.943	687.81
333.172	742.81
333.4	714.81
333.629	736.81
333.857	747.81
334.085	732.81
334.314	747.81
334.542	740.81
334.771	760.81
334.999	755.81
335.227	767.81
335.455	760.81
335.684	761.81
335.912	774.81
336.14	763.81
336.369	775.81
336.597	788.81
336.825	764.81
337.053	750.81
337.281	765.81
337.51	736.81
337.738	747.81
337.966	741.81
338.194	742.81
338.422	751.81
338.65	742.81
338.878	707.81
339.106	728.81
339.334	745.81
339.562	722.81
339.79	720.81
340.018	724.81
340.246	706.81
340.474	709.81
340.702	708.81
340.93	698.81
341.158	721.81
341.386	732.81
341.614	728.81
341.842	728.81
342.07	690.81
342.298	706.81
342.526	708.81
342.754	713.81
342.981	693.81
343.209	724.81
343.437	726.81
343.665	737.81
343.893	764.81
344.12	768.81
344.348	776.81
344.576	769.81
344.804	766.81
345.031	746.81
345.259	724.81
345.487	736.81
345.714	739.81
345.942	730.81
346.17	758.81
346.397	743.81
346.625	718.81
346.853	710.81
347.08	700.81
347.308	716.81
347.535	697.81
347.763	703.81
347.99	707.81
348.218	708.81
348.445	665.81
348.673	704.81
348.9	707.81
349.128	708.81
349.355	687.81
349.583	703.81
349.81	696.81
350.037	683.81
350.265	665.81
350.492	681.81
350.72	703.81
350.947	708.81
351.174	701.81
351.402	683.81
351.629	712.81
351.856	676.81
352.083	716.81
352.311	692.81
352.538	691.81
352.765	701.81
352.992	681.81
353.22	674.81
353.447	665.81
353.674	674.81
353.901	656.81
354.128	666.81
354.355	664.81
354.583	690.81
354.81	676.81
355.037	680.81
355.264	678.81
355.491	673.81
355.718	663.81
355.945	636.81
356.172	677.81
356.399	675.81
356.626	662.81
356.853	680.81
357.08	667.81
357.307	694.81
357.534	667.81
357.761	676.81
357.988	654.81
358.215	659.81
358.441	647.81
358.668	669.81
358.895	647.81
359.122	652.81
359.349	656.81
359.576	663.81
359.802	657.81
360.029	671.81
360.256	661.81
360.483	662.81
360.709	661.81
360.936	661.81
361.163	662.81
361.39	679.81
361.616	678.81
361.843	647.81
362.07	693.81
362.296	684.81
362.523	669.81
362.749	671.81
362.976	652.81
363.203	654.81
363.429	636.81
363.656	637.81
363.882	644.81
364.109	667.81
364.335	655.81
364.562	662.81
364.788	668.81
365.015	671.81
365.241	676.81
365.468	665.81
365.694	662.81
365.92	656.81
366.147	638.81
366.373	652.81
366.599	656.81
366.826	687.81
367.052	632.81
367.278	635.81
367.505	660.81
367.731	643.81
367.957	629.81
368.184	646.81
368.41	644.81
368.636	675.81
368.862	682.81
369.089	644.81
369.315	677.81
369.541	647.81
369.767	674.81
369.993	629.81
370.219	648.81
370.445	663.81
370.672	671.81
370.898	675.81
371.124	670.81
371.35	648.81
371.576	647.81
371.802	652.81
372.028	657.81
372.254	674.81
372.48	670.81
372.706	674.81
372.932	682.81
373.158	681.81
373.384	680.81
373.61	680.81
373.835	662.81
374.061	667.81
374.287	703.81
374.513	634.81
374.739	678.81
374.965	704.81
375.191	690.81
375.416	692.81
375.642	683.81
375.868	666.81
376.094	693.81
376.319	686.81
376.545	658.81
376.771	637.81
376.997	652.81
377.222	669.81
377.448	658.81
377.674	641.81
377.899	646.81
378.125	647.81
378.35	638.81
378.576	651.81
378.802	614.81
379.027	634.81
379.253	637.81
379.478	654.81
379.704	657.81
379.929	639.81
380.155	634.81
380.38	630.81
380.606	664.81
380.831	646.81
381.057	628.81
381.282	630.81
381.507	653.81
381.733	652.81
381.958	648.81
382.184	643.81
382.409	668.81
382.634	651.81
382.86	634.81
383.085	675.81
383.31	667.81
383.535	667.81
383.761	660.81
383.986	665.81
384.211	680.81
384.436	668.81
384.662	682.81
384.887	686.81
385.112	687.81
385.337	696.81
385.562	690.81
385.787	702.81
386.013	735.81
386.238	706.81
386.463	710.81
386.688	712.81
386.913	684.81
387.138	708.81
387.363	694.81
387.588	705.81
387.813	720.81
388.038	713.81
388.263	686.81
388.488	711.81
388.713	700.81
388.938	692.81
389.163	714.81
389.387	726.81
389.612	698.81
389.837	710.81
390.062	683.81
390.287	692.81
390.512	716.81
390.736	728.81
390.961	710.81
391.186	725.81
391.411	720.81
391.636	729.81
391.86	745.81
392.085	748.81
392.31	745.81
392.534	758.81
392.759	737.81
392.984	735.81
393.208	748.81
393.433	739.81
393.658	709.81
393.882	730.81
394.107	742.81
394.331	720.81
394.556	730.81
394.78	745.81
395.005	745.81
395.229	743.81
395.454	744.81
395.678	754.81
395.903	764.81
396.127	779.81
396.352	763.81
396.576	767.81
396.801	775.81
397.025	763.81
397.249	760.81
397.474	795.81
397.698	778.81
397.922	820.81
398.147	789.81
398.371	790.81
398.595	834.81
398.82	815.81
399.044	886.81
399.268	880.81
399.492	946.81
399.717	954.81
399.941	989.81
400.165	959.81
400.389	912.81
400.613	907.81
400.837	891.81
401.062	896.81
401.286	892.81
401.51	875.81
401.734	844.81
401.958	877.81
402.182	853.81
402.406	848.81
402.63	865.81
402.854	865.81
403.078	852.81
403.302	883.81
403.526	888.81
403.75	865.81
403.974	862.81
404.198	875.81
404.422	875.81
404.645	855.81
404.869	886.81
405.093	886.81
405.317	864.81
405.541	900.81
405.765	890.81
405.988	924.81
406.212	906.81
406.436	902.81
406.66	951.81
406.883	930.81
407.107	958.81
407.331	980.81
407.555	982.81
407.778	997.81
408.002	979.81
408.226	979.81
408.449	976.81
408.673	962.81
408.896	951.81
409.12	946.81
409.344	988.81
409.567	971.81
409.791	958.81
410.014	938.81
410.238	911.81
410.461	901.81
410.685	918.81
410.908	933.81
411.132	927.81
411.355	918.81
411.578	947.81
411.802	926.81
412.025	907.81
412.249	908.81
412.472	938.81
412.695	894.81
412.919	897.81
413.142	912.81
413.365	914.81
413.589	911.81
413.812	904.81
414.035	906.81
414.258	918.81
414.482	912.81
414.705	900.81
414.928	917.81
415.151	898.81
415.374	903.81
415.597	904.81
415.821	893.81
416.044	875.81
416.267	882.81
416.49	868.81
416.713	884.81
416.936	913.81
417.159	859.81
417.382	907.81
417.605	887.81
417.828	848.81
418.051	884.81
418.274	882.81
418.497	887.81
418.72	887.81
418.943	867.81
419.166	932.81
419.389	1007.81
419.611	959.81
419.834	938.81
420.057	938.81
420.28	920.81
420.503	898.81
420.726	858.81
420.948	877.81
421.171	892.81
421.394	874.81
421.617	898.81
421.839	880.81
422.062	912.81
422.285	897.81
422.507	883.81
422.73	880.81
422.953	865.81
423.175	865.81
423.398	891.81
423.621	918.81
423.843	886.81
424.066	905.81
424.288	891.81
424.511	891.81
424.733	910.81
424.956	887.81
425.178	909.81
425.401	910.81
425.623	944.81
425.846	912.81
426.068	903.81
426.291	898.81
426.513	918.81
426.735	896.81
426.958	905.81
427.18	880.81
427.402	886.81
427.625	904.81
427.847	886.81
428.069	901.81
428.292	927.81
428.514	907.81
428.736	907.81
428.958	923.81
429.181	860.81
429.403	871.81
429.625	872.81
429.847	863.81
430.069	877.81
430.292	900.81
430.514	864.81
430.736	874.81
430.958	864.81
431.18	855.81
431.402	893.81
431.624	896.81
431.846	901.81
432.068	890.81
432.29	860.81
432.512	883.81
432.734	894.81
432.956	876.81
433.178	910.81
433.4	912.81
433.622	932.81
433.844	912.81
434.066	919.81
434.287	893.81
434.509	918.81
434.731	912.81
434.953	934.81
435.175	932.81
435.397	950.81
435.618	914.81
435.84	912.81
436.062	926.81
436.284	905.81
436.505	907.81
436.727	914.81
436.949	886.81
437.17	916.81
437.392	884.81
437.614	863.81
437.835	843.81
438.057	838.81
438.278	875.81
438.5	875.81
438.721	930.81
438.943	867.81
439.165	898.81
439.386	886.81
439.608	933.81
439.829	916.81
440.05	895.81
440.272	911.81
440.493	926.81
440.715	895.81
440.936	931.81
441.158	927.81
441.379	916.81
441.6	930.81
441.822	939.81
442.043	951.81
442.264	934.81
442.486	941.81
442.707	940.81
442.928	950.81
443.149	929.81
443.371	946.81
443.592	941.81
443.813	968.81
444.034	959.81
444.255	976.81
444.476	965.81
444.698	1010.81
444.919	1012.81
445.14	1075.81
445.361	1056.81
445.582	956.81
445.803	937.81
446.024	948.81
446.245	938.81
446.466	924.81
446.687	913.81
446.908	939.81
447.129	903.81
447.35	915.81
447.571	907.81
447.792	883.81
448.013	882.81
448.234	874.81
448.455	884.81
448.675	857.81
448.896	851.81
449.117	859.81
449.338	842.81
449.559	831.81
449.779	862.81
450	848.81
450.221	838.81
450.442	852.81
450.662	827.81
450.883	847.81
451.104	852.81
451.324	838.81
451.545	843.81
451.766	831.81
451.986	834.81
452.207	851.81
452.428	830.81
452.648	824.81
452.869	831.81
453.089	822.81
453.31	829.81
453.53	790.81
453.751	789.81
453.971	792.81
454.192	806.81
454.412	801.81
454.633	807.81
454.853	815.81
455.073	785.81
455.294	812.81
455.514	794.81
455.734	790.81
455.955	788.81
456.175	788.81
456.395	765.81
456.616	791.81
456.836	813.81
457.056	796.81
457.276	796.81
457.497	816.81
457.717	825.81
457.937	802.81
458.157	797.81
458.377	807.81
458.598	842.81
458.818	833.81
459.038	833.81
459.258	847.81
459.478	853.81
459.698	887.81
459.918	870.81
460.138	910.81
460.358	938.81
460.578	948.81
460.798	979.81
461.018	968.81
461.238	952.81
461.458	991.81
461.678	974.81
461.898	994.81
462.118	979.81
462.338	1032.81
462.558	1036.81
462.777	1043.81
462.997	1075.81
463.217	1074.81
463.437	1106.81
463.657	1087.81
463.876	1021.81
464.096	1065.81
464.316	1057.81
464.536	1060.81
464.755	1047.81
464.975	1012.81
465.195	997.81
465.414	951.81
465.634	929.81
465.854	913.81
466.073	922.81
466.293	925.81
466.512	902.81
466.732	894.81
466.951	892.81
467.171	907.81
467.391	889.81
467.61	893.81
467.829	835.81
468.049	863.81
468.268	848.81
468.488	877.81
468.707	868.81
468.927	921.81
469.146	886.81
469.365	875.81
469.585	874.81
469.804	903.81
470.023	884.81
470.243	862.81
470.462	911.81
470.681	934.81
470.901	906.81
471.12	891.81
471.339	876.81
471.558	878.81
471.777	891.81
471.997	882.81
472.216	883.81
472.435	880.81
472.654	876.81
472.873	855.81
473.092	888.81
473.311	862.81
473.53	881.81
473.749	858.81
473.968	882.81
474.187	868.81
474.406	855.81
474.625	900.81
474.844	906.81
475.063	894.81
475.282	895.81
475.501	905.81
475.72	934.81
475.939	892.81
476.158	920.81
476.377	907.81
476.596	896.81
476.814	922.81
477.033	915.81
477.252	928.81
477.471	951.81
477.69	978.81
477.908	996.81
478.127	997.81
478.346	1001.81
478.564	990.81
478.783	1026.81
479.002	989.81
479.22	1031.81
479.439	1042.81
479.658	1014.81
479.876	1012.81
480.095	1030.81
480.313	1054.81
480.532	1034.81
480.751	1038.81
480.969	1028.81
481.188	1031.81
481.406	1033.81
481.624	1011.81
481.843	1002.81
482.061	1008.81
482.28	1015.81
482.498	997.81
482.717	999.81
482.935	1033.81
483.153	1034.81
483.372	1066.81
483.59	1063.81
483.808	1030.81
484.027	1018.81
484.245	1005.81
484.463	1007.81
484.681	1044.81
484.9	1044.81
485.118	1062.81
485.336	1047.81
485.554	1045.81
485.772	1026.81
485.99	1028.81
486.209	1026.81
486.427	1052.81
486.645	1057.81
486.863	1048.81
487.081	1047.81
487.299	1038.81
487.517	1042.81
487.735	1069.81
487.953	1076.81
488.171	1067.81
488.389	1094.81
488.607	1065.81
488.825	1055.81
489.043	1046.81
489.261	1029.81
489.479	1078.81
489.696	1036.81
489.914	1068.81
490.132	1059.81
490.35	1069.81
490.568	1064.81
490.786	1101.81
491.003	1116.81
491.221	1088.81
491.439	1089.81
491.657	1097.81
491.874	1122.81
492.092	1164.81
492.31	1150.81
492.527	1130.81
492.745	1128.81
492.963	1126.81
493.18	1119.81
493.398	1136.81
493.615	1149.81
493.833	1120.81
494.05	1154.81
494.268	1173.81
494.485	1148.81
494.703	1156.81
494.92	1154.81
495.138	1143.81
495.355	1145.81
495.573	1180.81
495.79	1157.81
496.008	1193.81
496.225	1189.81
496.442	1199.81
496.66	1190.81
496.877	1252.81
497.094	1233.81
497.312	1220.81
497.529	1244.81
497.746	1270.81
497.963	1266.81
498.181	1349.81
498.398	1357.81
498.615	1361.81
498.832	1426.81
499.049	1479.81
499.267	1512.81
499.484	1600.81
499.701	1727.81
499.918	1799.81
500.135	1839.81
500.352	1916.81
500.569	1958.81
500.786	1940.81
501.003	1912.81
501.22	1818.81
501.437	1727.81
501.654	1670.81
501.871	1584.81
502.088	1526.81
502.305	1486.81
502.522	1435.81
502.739	1437.81
502.956	1372.81
503.172	1331.81
503.389	1320.81
503.606	1272.81
503.823	1246.81
504.04	1249.81
504.256	1280.81
504.473	1206.81
504.69	1226.81
504.907	1183.81
505.123	1153.81
505.34	1156.81
505.557	1093.81
505.773	1133.81
505.99	1108.81
506.207	1058.81
506.423	1052.81
506.64	1051.81
506.856	1029.81
507.073	1053.81
507.289	1021.81
507.506	1041.81
507.722	1005.81
507.939	1025.81
508.155	999.81
508.372	1002.81
508.588	1000.81
508.805	988.81
509.021	1004.81
509.238	981.81
509.454	951.81
509.67	970.81
509.887	966.81
510.103	944.81
510.319	931.81
510.536	946.81
510.752	949.81
510.968	934.81
511.184	938.81
511.401	912.81
511.617	934.81
511.833	911.81
512.049	926.81
512.265	912.81
512.481	912.81
512.698	952.81
512.914	933.81
513.13	907.81
513.346	929.81
513.562	923.81
513.778	961.81
513.994	939.81
514.21	959.81
514.426	945.81
514.642	958.81
514.858	924.81
515.074	919.81
515.29	944.81
515.506	941.81
515.721	974.81
515.937	966.81
516.153	957.81
516.369	988.81
516.585	1007.81
516.801	1015.81
517.016	1051.81
517.232	1047.81
517.448	1033.81
517.664	1050.81
517.879	1080.81
518.095	1041.81
518.311	1021.81
518.527	1030.81
518.742	1018.81
518.958	1018.81
519.173	981.81
519.389	990.81
519.605	971.81
519.82	975.81
520.036	948.81
520.251	930.81
520.467	919.81
520.682	906.81
520.898	933.81
521.113	892.81
521.329	900.81
521.544	901.81
521.76	906.81
521.975	872.81
522.19	887.81
522.406	843.81
522.621	876.81
522.836	871.81
523.052	864.81
523.267	877.81
523.482	878.81
523.698	859.81
523.913	871.81
524.128	870.81
524.343	855.81
524.559	869.81
524.774	856.81
524.989	854.81
525.204	846.81
525.419	861.81
525.634	856.81
525.849	844.81
526.064	862.81
526.28	823.81
526.495	867.81
526.71	838.81
526.925	821.81
527.14	816.81
527.355	838.81
527.57	835.81
527.785	832.81
527.999	840.81
528.214	816.81
528.429	833.81
528.644	828.81
528.859	831.81
529.074	833.81
529.289	858.81
529.503	848.81
529.718	846.81
529.933	822.81
530.148	828.81
530.363	831.81
530.577	824.81
530.792	800.81
531.007	824.81
531.221	818.81
531.436	831.81
531.651	814.81
531.865	832.81
532.08	790.81
532.295	831.81
532.509	811.81
532.724	830.81
532.938	796.81
533.153	806.81
533.367	815.81
533.582	822.81
533.796	833.81
534.011	828.81
534.225	826.81
534.44	811.81
534.654	806.81
534.868	806.81
535.083	789.81
535.297	796.81
535.511	799.81
535.726	802.81
535.94	788.81
536.154	804.81
536.369	783.81
536.583	790.81
536.797	743.81
537.011	772.81
537.225	776.81
537.44	771.81
537.654	784.81
537.868	754.81
538.082	754.81
538.296	759.81
538.51	752.81
538.724	746.81
538.938	752.81
539.153	750.81
539.367	770.81
539.581	766.81
539.795	747.81
540.009	759.81
540.222	736.81
540.436	759.81
540.65	751.81
540.864	770.81
541.078	790.81
541.292	754.81
541.506	760.81
541.72	771.81
541.934	785.81
542.147	756.81
542.361	784.81
542.575	772.81
542.789	757.81
543.002	784.81
543.216	752.81
543.43	738.81
543.644	755.81
543.857	762.81
544.071	754.81
544.285	744.81
544.498	752.81
544.712	762.81
544.925	739.81
545.139	747.81
545.352	755.81
545.566	746.81
545.779	739.81
545.993	768.81
546.206	772.81
546.42	762.81
546.633	755.81
546.847	762.81
547.06	776.81
547.274	759.81
547.487	776.81
547.7	751.81
547.914	754.81
548.127	770.81
548.34	792.81
548.554	738.81
548.767	747.81
548.98	754.81
549.193	762.81
549.407	744.81
549.62	755.81
549.833	754.81
550.046	770.81
550.259	746.81
550.473	746.81
550.686	747.81
550.899	757.81
551.112	745.81
551.325	733.81
551.538	708.81
551.751	734.81
551.964	728.81
552.177	724.81
552.39	739.81
552.603	741.81
552.816	774.81
553.029	768.81
553.242	764.81
553.455	755.81
553.667	780.81
553.88	776.81
554.093	749.81
554.306	744.81
554.519	757.81
554.732	736.81
554.944	721.81
555.157	714.81
555.37	711.81
555.583	687.81
555.795	687.81
556.008	695.81
556.221	666.81
556.433	679.81
556.646	665.81
556.859	681.81
557.071	690.81
557.284	659.81
557.496	664.81
557.709	652.81
557.921	669.81
558.134	664.81
558.346	661.81
558.559	667.81
558.771	670.81
558.984	648.81
559.196	646.81
559.409	645.81
559.621	631.81
559.833	634.81
560.046	650.81
560.258	621.81
560.47	639.81
560.683	638.81
560.895	610.81
561.107	628.81
561.32	592.81
561.532	633.81
561.744	634.81
561.956	618.81
562.168	638.81
562.381	639.81
562.593	631.81
562.805	623.81
563.017	645.81
563.229	616.81
563.441	627.81
563.653	634.81
563.865	636.81
564.077	625.81
564.289	642.81
564.501	652.81
564.713	666.81
564.925	670.81
565.137	658.81
565.349	685.81
565.561	691.81
565.773	681.81
565.985	701.81
566.197	732.81
566.408	734.81
566.62	726.81
566.832	756.81
567.044	790.81
567.255	771.81
567.467	805.81
567.679	787.81
567.891	775.81
568.102	758.81
568.314	745.81
568.526	732.81
568.737	710.81
568.949	688.81
569.161	657.81
569.372	657.81
569.584	643.81
569.795	636.81
570.007	610.81
570.218	594.81
570.43	592.81
570.641	609.81
570.853	587.81
571.064	604.81
571.276	598.81
571.487	589.81
571.698	578.81
571.91	575.81
572.121	574.81
572.333	564.81
572.544	530.81
572.755	548.81
572.966	525.81
573.178	548.81
573.389	537.81
573.6	506.81
573.811	526.81
574.023	505.81
574.234	522.81
574.445	493.81
574.656	503.81
574.867	504.81
575.078	510.81
575.289	496.81
575.501	494.81
575.712	489.81
575.923	493.81
576.134	489.81
576.345	501.81
576.556	482.81
576.767	479.81
576.978	474.81
577.188	495.81
577.399	483.81
577.61	455.81
577.821	463.81
578.032	451.81
578.243	463.81
578.454	468.81
578.665	445.81
578.875	451.81
579.086	458.81
579.297	470.81
579.508	436.81
579.718	464.81
579.929	464.81
580.14	463.81
580.35	442.81
580.561	443.81
580.772	462.81
580.982	440.81
581.193	432.81
581.403	451.81
581.614	441.81
581.825	451.81
582.035	456.81
582.246	422.81
582.456	410.81
582.667	418.81
582.877	439.81
583.087	421.81
583.298	437.81
583.508	431.81
583.719	444.81
583.929	440.81
584.139	430.81
584.35	408.81
584.56	436.81
584.77	426.81
584.981	421.81
585.191	421.81
585.401	428.81
585.611	397.81
585.821	411.81
586.032	436.81
586.242	392.81
586.452	420.81
586.662	423.81
586.872	405.81
587.082	422.81
587.292	426.81
587.502	410.81
587.713	420.81
587.923	395.81
588.133	398.81
588.343	409.81
588.553	399.81
588.762	384.81
588.972	407.81
589.182	423.81
589.392	407.81
589.602	407.81
589.812	421.81
590.022	406.81
590.232	407.81
590.441	419.81
590.651	431.81
590.861	415.81
591.071	415.81
591.281	410.81
591.49	391.81
591.7	398.81
591.91	395.81
592.119	415.81
592.329	417.81
592.539	403.81
592.748	425.81
592.958	407.81
593.167	432.81
593.377	413.81
593.587	420.81
593.796	428.81
594.006	422.81
594.215	420.81
594.424	417.81
594.634	418.81
594.843	419.81
595.053	413.81
595.262	393.81
595.472	397.81
595.681	383.81
595.89	391.81
596.1	368.81
596.309	384.81
596.518	388.81
596.727	382.81
596.937	366.81
597.146	360.81
597.355	373.81
597.564	370.81
597.774	367.81
597.983	359.81
598.192	374.81
598.401	364.81
598.61	354.81
598.819	345.81
599.028	351.81
599.237	370.81
599.446	356.81
599.655	337.81
599.864	375.81
600.073	346.81
600.282	341.81
600.491	344.81
600.7	332.81
600.909	340.81
601.118	348.81
601.327	336.81
601.536	325.81
601.745	333.81
601.953	339.81
602.162	339.81
602.371	335.81
602.58	326.81
602.789	322.81
602.997	341.81
603.206	318.81
603.415	341.81
603.623	337.81
603.832	321.81
604.041	313.81
604.249	322.81
604.458	336.81
604.666	319.81
604.875	316.81
605.084	322.81
605.292	324.81
605.501	347.81
605.709	343.81
605.918	330.81
606.126	324.81
606.334	330.81
606.543	329.81
606.751	324.81
606.96	309.81
607.168	310.81
607.376	316.81
607.585	316.81
607.793	313.81
608.001	309.81
608.21	302.81
608.418	297.81
608.626	306.81
608.834	307.81
609.043	294.81
609.251	311.81
609.459	315.81
609.667	312.81
609.875	286.81
610.083	298.81
610.291	304.81
610.499	301.81
610.707	314.81
610.916	299.81
611.124	312.81
611.332	290.81
611.54	286.81
611.748	305.81
611.955	304.81
612.163	302.81
612.371	302.81
612.579	311.81
612.787	298.81
612.995	299.81
613.203	310.81
613.411	301.81
613.618	316.81
613.826	311.81
614.034	307.81
614.242	301.81
614.449	294.81
614.657	295.81
614.865	310.81
615.072	316.81
615.28	290.81
615.488	274.81
615.695	290.81
615.903	272.81
616.111	282.81
616.318	290.81
616.526	306.81
616.733	291.81
616.941	250.81
617.148	276.81
617.356	286.81
617.563	287.81
617.771	305.81
617.978	287.81
618.185	282.81
618.393	274.81
618.6	262.81
618.807	277.81
619.015	282.81
619.222	273.81
619.429	274.81
619.637	288.81
619.844	269.81
620.051	284.81
620.258	289.81
620.466	277.81
620.673	265.81
620.88	261.81
621.087	256.81
621.294	269.81
621.501	284.81
621.708	258.81
621.915	269.81
622.122	264.81
622.329	287.81
622.536	281.81
622.743	267.81
622.95	265.81
623.157	280.81
623.364	264.81
623.571	264.81
623.778	252.81
623.985	251.81
624.192	259.81
624.399	250.81
624.606	263.81
624.812	264.81
625.019	266.81
625.226	256.81
625.433	251.81
625.639	248.81
625.846	245.81
626.053	259.81
626.259	242.81
626.466	257.81
626.673	246.81
626.879	229.81
627.086	244.81
627.293	247.81
627.499	248.81
627.706	253.81
627.912	253.81
628.119	253.81
628.325	237.81
628.532	247.81
628.738	247.81
628.945	237.81
629.151	251.81
629.357	248.81
629.564	231.81
629.77	202.81
629.976	239.81
630.183	241.81
630.389	247.81
630.595	241.81
630.802	231.81
631.008	238.81
631.214	238.81
631.42	236.81
631.627	249.81
631.833	254.81
632.039	226.81
632.245	204.81
632.451	238.81
632.657	235.81
632.863	231.81
633.069	221.81
633.275	224.81
633.481	207.81
633.688	221.81
633.893	230.81
634.099	212.81
634.305	227.81
634.511	237.81
634.717	221.81
634.923	220.81
635.129	224.81
635.335	224.81
635.541	213.81
635.747	230.81
635.952	213.81
636.158	235.81
636.364	222.81
636.57	213.81
636.775	208.81
636.981	224.81
637.187	230.81
637.392	208.81
637.598	215.81
637.804	215.81
638.009	215.81
638.215	245.81
638.421	202.81
638.626	206.81
638.832	214.81
639.037	212.81
639.243	237.81
639.448	203.81
639.654	215.81
639.859	208.81
640.065	190.81
640.27	210.81
640.475	219.81
640.681	197.81
640.886	208.81
641.091	207.81
641.297	207.81
641.502	199.81
641.707	203.81
641.913	219.81
642.118	203.81
642.323	195.81
642.528	221.81
642.733	211.81
642.939	208.81
643.144	217.81
643.349	199.81
643.554	218.81
643.759	201.81
643.964	214.81
644.169	206.81
644.374	219.81
644.579	213.81
644.784	199.81
644.989	204.81
645.194	205.81
645.399	189.81
645.604	198.81
645.809	183.81
646.014	218.81
646.219	190.81
646.423	197.81
646.628	195.81
646.833	208.81
647.038	192.81
647.243	216.81
647.447	196.81
647.652	198.81
647.857	211.81
648.062	213.81
648.266	194.81
648.471	186.81
648.676	202.81
648.88	195.81
649.085	213.81
649.289	209.81
649.494	196.81
649.698	201.81
649.903	185.81
650.107	185.81
650.312	204.81
650.516	215.81
650.721	202.81
650.925	192.81
651.13	186.81
651.334	175.81
651.539	184.81
651.743	188.81
651.947	167.81
652.152	178.81
652.356	180.81
652.56	172.81
652.764	175.81
652.969	171.81
653.173	171.81
653.377	178.81
653.581	176.81
653.785	165.81
653.99	161.81
654.194	166.81
654.398	179.81
654.602	171.81
654.806	168.81
655.01	164.81
655.214	133.81
655.418	154.81
655.622	170.81
655.826	162.81
656.03	159.81
656.234	154.81
656.438	160.81
656.642	146.81
656.846	144.81
657.049	143.81
657.253	140.81
657.457	137.81
657.661	125.81
657.865	128.81
658.068	133.81
658.272	130.81
658.476	128.81
658.68	126.81
658.883	127.81
659.087	113.81
659.291	112.81
659.494	124.81
659.698	102.81
659.901	106.81
660.105	109.81
660.309	107.81
660.512	96.81
660.716	84.81
660.919	109.81
661.123	103.81
661.326	90.81
661.53	93.81
661.733	92.81
661.936	95.81
662.14	109.81
662.343	101.81
662.546	101.81
662.75	100.81
662.953	75.81
663.156	86.81
663.36	93.81
663.563	92.81
663.766	88.81
663.969	82.81
664.173	88.81
664.376	72.81
664.579	74.81
664.782	85.81
664.985	86.81
665.188	92.81
665.391	74.81
665.594	90.81
665.797	85.81
666	88.81
666.203	86.81
666.406	91.81
666.609	85.81
666.812	81.81
667.015	87.81
667.218	69.81
667.421	87.81
667.624	87.81
667.827	76.81
668.03	79.81
668.232	95.81
668.435	76.81
668.638	99.81
668.841	67.81
669.043	76.81
669.246	76.81
669.449	91.81
669.651	91.81
669.854	89.81
670.057	85.81
670.259	85.81
670.462	73.81
670.665	76.81
670.867	86.81
671.07	84.81
671.272	86.81
671.475	96.81
671.677	81.81
671.88	88.81
672.082	78.81
672.284	93.81
672.487	79.81
672.689	84.81
672.892	68.81
