Data from Ni(NO3)2@0.25M.TitratingCurve.Agarose3%dH2O.NegLispCup.LampEnergy10.LIBS07252019_HRD10591_18-03-06-566.txt Node
Date: Thu Jul 25 18:03:06 EDT 2019
User: cochatt
Spectrometer: HR+D1059
Trigger mode: 1
Integration Time (sec): 1.000000E-1
Scans to average: 1
Electric dark correction enabled: true
Nonlinearity correction enabled: false
Boxcar width: 0
XAxis mode: Wavelengths
Number of Pixels in Spectrum: 2048
>>>>>Begin Spectral Data<<<<<
223.165	-15.19
223.4	-15.19
223.635	-15.19
223.869	-16.19
224.104	-1.19
224.338	-16.19
224.573	-5.19
224.808	4.81
225.042	-17.19
225.277	-13.19
225.511	-14.19
225.746	8.81
225.98	9.81
226.215	5.81
226.449	12.81
226.683	14.81
226.918	17.81
227.152	23.81
227.387	45.81
227.621	40.81
227.856	47.81
228.09	33.81
228.324	48.81
228.559	77.81
228.793	55.81
229.027	91.81
229.262	101.81
229.496	98.81
229.73	102.81
229.964	126.81
230.199	122.81
230.433	124.81
230.667	126.81
230.901	123.81
231.136	108.81
231.37	114.81
231.604	123.81
231.838	138.81
232.072	128.81
232.306	123.81
232.541	140.81
232.775	101.81
233.009	116.81
233.243	109.81
233.477	126.81
233.711	134.81
233.945	121.81
234.179	139.81
234.413	119.81
234.647	119.81
234.881	119.81
235.115	122.81
235.349	128.81
235.583	112.81
235.817	128.81
236.051	116.81
236.285	108.81
236.519	113.81
236.753	133.81
236.987	128.81
237.221	144.81
237.455	116.81
237.689	117.81
237.922	129.81
238.156	122.81
238.39	122.81
238.624	137.81
238.858	132.81
239.091	139.81
239.325	133.81
239.559	144.81
239.793	142.81
240.027	134.81
240.26	137.81
240.494	127.81
240.728	134.81
240.961	121.81
241.195	125.81
241.429	133.81
241.662	146.81
241.896	156.81
242.13	156.81
242.363	144.81
242.597	157.81
242.83	156.81
243.064	143.81
243.298	139.81
243.531	128.81
243.765	157.81
243.998	162.81
244.232	146.81
244.465	161.81
244.699	151.81
244.932	154.81
245.166	170.81
245.399	160.81
245.633	168.81
245.866	161.81
246.099	161.81
246.333	173.81
246.566	160.81
246.8	174.81
247.033	184.81
247.266	186.81
247.5	186.81
247.733	174.81
247.966	180.81
248.2	198.81
248.433	203.81
248.666	192.81
248.899	192.81
249.133	210.81
249.366	210.81
249.599	218.81
249.832	209.81
250.066	226.81
250.299	215.81
250.532	231.81
250.765	247.81
250.998	248.81
251.231	256.81
251.465	262.81
251.698	260.81
251.931	254.81
252.164	274.81
252.397	276.81
252.63	273.81
252.863	287.81
253.096	290.81
253.329	285.81
253.562	306.81
253.795	293.81
254.028	298.81
254.261	316.81
254.494	309.81
254.727	301.81
254.96	319.81
255.193	327.81
255.426	332.81
255.659	332.81
255.892	335.81
256.124	336.81
256.357	348.81
256.59	346.81
256.823	333.81
257.056	350.81
257.289	368.81
257.521	363.81
257.754	358.81
257.987	368.81
258.22	374.81
258.452	384.81
258.685	410.81
258.918	392.81
259.151	396.81
259.383	399.81
259.616	386.81
259.849	402.81
260.081	415.81
260.314	398.81
260.547	389.81
260.779	410.81
261.012	424.81
261.244	441.81
261.477	412.81
261.71	432.81
261.942	424.81
262.175	436.81
262.407	430.81
262.64	442.81
262.872	438.81
263.105	441.81
263.337	447.81
263.57	473.81
263.802	438.81
264.035	473.81
264.267	449.81
264.499	445.81
264.732	440.81
264.964	454.81
265.197	448.81
265.429	443.81
265.661	447.81
265.894	445.81
266.126	473.81
266.358	456.81
266.591	469.81
266.823	462.81
267.055	479.81
267.287	477.81
267.52	465.81
267.752	463.81
267.984	486.81
268.216	484.81
268.448	481.81
268.681	490.81
268.913	482.81
269.145	477.81
269.377	474.81
269.609	484.81
269.841	489.81
270.073	488.81
270.306	490.81
270.538	489.81
270.77	494.81
271.002	466.81
271.234	484.81
271.466	480.81
271.698	480.81
271.93	489.81
272.162	502.81
272.394	501.81
272.626	496.81
272.858	486.81
273.09	512.81
273.322	500.81
273.553	494.81
273.785	508.81
274.017	508.81
274.249	525.81
274.481	499.81
274.713	493.81
274.945	490.81
275.176	513.81
275.408	504.81
275.64	502.81
275.872	508.81
276.104	484.81
276.335	513.81
276.567	518.81
276.799	534.81
277.031	546.81
277.262	537.81
277.494	520.81
277.726	526.81
277.957	526.81
278.189	505.81
278.421	528.81
278.652	515.81
278.884	495.81
279.115	538.81
279.347	536.81
279.579	528.81
279.81	527.81
280.042	510.81
280.273	510.81
280.505	525.81
280.736	524.81
280.968	516.81
281.199	513.81
281.431	536.81
281.662	512.81
281.894	512.81
282.125	524.81
282.356	535.81
282.588	514.81
282.819	504.81
283.051	526.81
283.282	516.81
283.513	526.81
283.745	510.81
283.976	521.81
284.207	512.81
284.439	518.81
284.67	548.81
284.901	533.81
285.132	537.81
285.364	525.81
285.595	534.81
285.826	528.81
286.057	542.81
286.288	531.81
286.52	527.81
286.751	520.81
286.982	524.81
287.213	532.81
287.444	534.81
287.675	541.81
287.906	551.81
288.138	539.81
288.369	540.81
288.6	527.81
288.831	522.81
289.062	537.81
289.293	525.81
289.524	548.81
289.755	517.81
289.986	529.81
290.217	523.81
290.448	521.81
290.679	517.81
290.91	525.81
291.141	534.81
291.371	525.81
291.602	548.81
291.833	532.81
292.064	533.81
292.295	521.81
292.526	520.81
292.757	518.81
292.987	509.81
293.218	508.81
293.449	533.81
293.68	524.81
293.91	540.81
294.141	527.81
294.372	526.81
294.603	522.81
294.833	522.81
295.064	525.81
295.295	510.81
295.525	512.81
295.756	504.81
295.987	528.81
296.217	537.81
296.448	536.81
296.679	517.81
296.909	534.81
297.14	530.81
297.37	539.81
297.601	550.81
297.831	536.81
298.062	552.81
298.292	543.81
298.523	547.81
298.753	551.81
298.984	547.81
299.214	550.81
299.445	548.81
299.675	545.81
299.905	554.81
300.136	560.81
300.366	557.81
300.597	574.81
300.827	543.81
301.057	568.81
301.288	566.81
301.518	542.81
301.748	567.81
301.979	579.81
302.209	587.81
302.439	575.81
302.669	577.81
302.9	574.81
303.13	589.81
303.36	586.81
303.59	579.81
303.82	580.81
304.051	601.81
304.281	597.81
304.511	583.81
304.741	589.81
304.971	606.81
305.201	617.81
305.431	608.81
305.661	593.81
305.891	608.81
306.121	619.81
306.352	616.81
306.582	581.81
306.812	600.81
307.042	595.81
307.272	604.81
307.502	624.81
307.731	618.81
307.961	642.81
308.191	604.81
308.421	628.81
308.651	636.81
308.881	619.81
309.111	611.81
309.341	609.81
309.571	665.81
309.8	652.81
310.03	642.81
310.26	661.81
310.49	660.81
310.72	662.81
310.949	665.81
311.179	685.81
311.409	651.81
311.639	654.81
311.868	688.81
312.098	698.81
312.328	688.81
312.557	694.81
312.787	712.81
313.017	716.81
313.246	729.81
313.476	712.81
313.706	730.81
313.935	731.81
314.165	729.81
314.394	733.81
314.624	774.81
314.853	756.81
315.083	749.81
315.312	760.81
315.542	774.81
315.771	789.81
316.001	793.81
316.23	796.81
316.46	791.81
316.689	818.81
316.919	813.81
317.148	826.81
317.377	830.81
317.607	809.81
317.836	798.81
318.065	828.81
318.295	873.81
318.524	864.81
318.753	868.81
318.983	850.81
319.212	884.81
319.441	869.81
319.67	887.81
319.9	904.81
320.129	906.81
320.358	921.81
320.587	930.81
320.816	919.81
321.046	928.81
321.275	928.81
321.504	929.81
321.733	936.81
321.962	961.81
322.191	949.81
322.42	986.81
322.649	973.81
322.878	999.81
323.108	958.81
323.337	1007.81
323.566	991.81
323.795	1041.81
324.024	1019.81
324.253	1028.81
324.482	1046.81
324.71	1028.81
324.939	1080.81
325.168	1082.81
325.397	1059.81
325.626	1072.81
325.855	1084.81
326.084	1101.81
326.313	1105.81
326.542	1128.81
326.77	1142.81
326.999	1146.81
327.228	1128.81
327.457	1140.81
327.686	1153.81
327.914	1163.81
328.143	1170.81
328.372	1174.81
328.6	1153.81
328.829	1169.81
329.058	1170.81
329.287	1204.81
329.515	1224.81
329.744	1242.81
329.972	1206.81
330.201	1209.81
330.43	1232.81
330.658	1234.81
330.887	1250.81
331.115	1222.81
331.344	1241.81
331.572	1253.81
331.801	1286.81
332.03	1288.81
332.258	1298.81
332.486	1296.81
332.715	1293.81
332.943	1298.81
333.172	1309.81
333.4	1281.81
333.629	1336.81
333.857	1335.81
334.085	1334.81
334.314	1367.81
334.542	1359.81
334.771	1364.81
334.999	1390.81
335.227	1400.81
335.455	1406.81
335.684	1382.81
335.912	1444.81
336.14	1432.81
336.369	1392.81
336.597	1448.81
336.825	1420.81
337.053	1480.81
337.281	1422.81
337.51	1413.81
337.738	1434.81
337.966	1400.81
338.194	1405.81
338.422	1417.81
338.65	1414.81
338.878	1424.81
339.106	1397.81
339.334	1390.81
339.562	1408.81
339.79	1384.81
340.018	1423.81
340.246	1389.81
340.474	1415.81
340.702	1406.81
340.93	1402.81
341.158	1410.81
341.386	1406.81
341.614	1410.81
341.842	1410.81
342.07	1393.81
342.298	1365.81
342.526	1375.81
342.754	1407.81
342.981	1391.81
343.209	1379.81
343.437	1418.81
343.665	1440.81
343.893	1428.81
344.12	1421.81
344.348	1425.81
344.576	1433.81
344.804	1482.81
345.031	1452.81
345.259	1441.81
345.487	1418.81
345.714	1412.81
345.942	1352.81
346.17	1397.81
346.397	1366.81
346.625	1397.81
346.853	1361.81
347.08	1390.81
347.308	1385.81
347.535	1420.81
347.763	1392.81
347.99	1364.81
348.218	1362.81
348.445	1362.81
348.673	1368.81
348.9	1398.81
349.128	1380.81
349.355	1381.81
349.583	1355.81
349.81	1368.81
350.037	1359.81
350.265	1361.81
350.492	1348.81
350.72	1361.81
350.947	1366.81
351.174	1370.81
351.402	1377.81
351.629	1323.81
351.856	1357.81
352.083	1344.81
352.311	1366.81
352.538	1354.81
352.765	1346.81
352.992	1323.81
353.22	1320.81
353.447	1308.81
353.674	1360.81
353.901	1304.81
354.128	1322.81
354.355	1328.81
354.583	1318.81
354.81	1327.81
355.037	1339.81
355.264	1341.81
355.491	1318.81
355.718	1304.81
355.945	1326.81
356.172	1341.81
356.399	1301.81
356.626	1301.81
356.853	1325.81
357.08	1341.81
357.307	1330.81
357.534	1294.81
357.761	1338.81
357.988	1340.81
358.215	1275.81
358.441	1311.81
358.668	1288.81
358.895	1310.81
359.122	1305.81
359.349	1325.81
359.576	1336.81
359.802	1345.81
360.029	1327.81
360.256	1315.81
360.483	1329.81
360.709	1310.81
360.936	1341.81
361.163	1349.81
361.39	1299.81
361.616	1315.81
361.843	1326.81
362.07	1348.81
362.296	1309.81
362.523	1338.81
362.749	1312.81
362.976	1311.81
363.203	1299.81
363.429	1276.81
363.656	1316.81
363.882	1360.81
364.109	1336.81
364.335	1284.81
364.562	1327.81
364.788	1288.81
365.015	1321.81
365.241	1320.81
365.468	1292.81
365.694	1293.81
365.92	1297.81
366.147	1309.81
366.373	1297.81
366.599	1326.81
366.826	1286.81
367.052	1277.81
367.278	1332.81
367.505	1314.81
367.731	1322.81
367.957	1286.81
368.184	1285.81
368.41	1314.81
368.636	1295.81
368.862	1330.81
369.089	1316.81
369.315	1311.81
369.541	1306.81
369.767	1318.81
369.993	1302.81
370.219	1329.81
370.445	1306.81
370.672	1338.81
370.898	1317.81
371.124	1297.81
371.35	1296.81
371.576	1308.81
371.802	1286.81
372.028	1288.81
372.254	1332.81
372.48	1267.81
372.706	1303.81
372.932	1296.81
373.158	1336.81
373.384	1292.81
373.61	1294.81
373.835	1289.81
374.061	1288.81
374.287	1307.81
374.513	1285.81
374.739	1285.81
374.965	1308.81
375.191	1273.81
375.416	1270.81
375.642	1323.81
375.868	1298.81
376.094	1270.81
376.319	1293.81
376.545	1254.81
376.771	1269.81
376.997	1233.81
377.222	1273.81
377.448	1242.81
377.674	1247.81
377.899	1269.81
378.125	1212.81
378.35	1253.81
378.576	1238.81
378.802	1226.81
379.027	1226.81
379.253	1222.81
379.478	1208.81
379.704	1205.81
379.929	1217.81
380.155	1218.81
380.38	1212.81
380.606	1220.81
380.831	1215.81
381.057	1244.81
381.282	1219.81
381.507	1240.81
381.733	1232.81
381.958	1205.81
382.184	1224.81
382.409	1226.81
382.634	1241.81
382.86	1225.81
383.085	1212.81
383.31	1250.81
383.535	1253.81
383.761	1271.81
383.986	1245.81
384.211	1239.81
384.436	1257.81
384.662	1270.81
384.887	1260.81
385.112	1259.81
385.337	1263.81
385.562	1269.81
385.787	1292.81
386.013	1293.81
386.238	1270.81
386.463	1272.81
386.688	1284.81
386.913	1283.81
387.138	1308.81
387.363	1328.81
387.588	1283.81
387.813	1313.81
388.038	1353.81
388.263	1324.81
388.488	1325.81
388.713	1289.81
388.938	1300.81
389.163	1324.81
389.387	1320.81
389.612	1291.81
389.837	1322.81
390.062	1297.81
390.287	1317.81
390.512	1342.81
390.736	1299.81
390.961	1322.81
391.186	1297.81
391.411	1306.81
391.636	1358.81
391.86	1362.81
392.085	1344.81
392.31	1345.81
392.534	1334.81
392.759	1329.81
392.984	1342.81
393.208	1356.81
393.433	1357.81
393.658	1312.81
393.882	1280.81
394.107	1350.81
394.331	1312.81
394.556	1365.81
394.78	1369.81
395.005	1303.81
395.229	1338.81
395.454	1327.81
395.678	1361.81
395.903	1360.81
396.127	1383.81
396.352	1355.81
396.576	1369.81
396.801	1359.81
397.025	1401.81
397.249	1422.81
397.474	1394.81
397.698	1397.81
397.922	1420.81
398.147	1432.81
398.371	1414.81
398.595	1417.81
398.82	1447.81
399.044	1471.81
399.268	1507.81
399.492	1527.81
399.717	1552.81
399.941	1559.81
400.165	1547.81
400.389	1540.81
400.613	1556.81
400.837	1513.81
401.062	1533.81
401.286	1518.81
401.51	1513.81
401.734	1487.81
401.958	1491.81
402.182	1514.81
402.406	1462.81
402.63	1477.81
402.854	1493.81
403.078	1486.81
403.302	1525.81
403.526	1497.81
403.75	1507.81
403.974	1510.81
404.198	1482.81
404.422	1484.81
404.645	1501.81
404.869	1508.81
405.093	1558.81
405.317	1542.81
405.541	1544.81
405.765	1556.81
405.988	1538.81
406.212	1572.81
406.436	1544.81
406.66	1591.81
406.883	1573.81
407.107	1616.81
407.331	1625.81
407.555	1625.81
407.778	1658.81
408.002	1649.81
408.226	1637.81
408.449	1657.81
408.673	1650.81
408.896	1652.81
409.12	1646.81
409.344	1643.81
409.567	1599.81
409.791	1605.81
410.014	1623.81
410.238	1611.81
410.461	1616.81
410.685	1624.81
410.908	1631.81
411.132	1610.81
411.355	1562.81
411.578	1635.81
411.802	1551.81
412.025	1564.81
412.249	1585.81
412.472	1574.81
412.695	1588.81
412.919	1580.81
413.142	1590.81
413.365	1562.81
413.589	1594.81
413.812	1610.81
414.035	1577.81
414.258	1563.81
414.482	1584.81
414.705	1613.81
414.928	1577.81
415.151	1564.81
415.374	1576.81
415.597	1606.81
415.821	1552.81
416.044	1560.81
416.267	1546.81
416.49	1561.81
416.713	1582.81
416.936	1604.81
417.159	1560.81
417.382	1560.81
417.605	1538.81
417.828	1569.81
418.051	1544.81
418.274	1556.81
418.497	1522.81
418.72	1555.81
418.943	1546.81
419.166	1609.81
419.389	1743.81
419.611	1686.81
419.834	1658.81
420.057	1630.81
420.28	1618.81
420.503	1530.81
420.726	1546.81
420.948	1578.81
421.171	1558.81
421.394	1572.81
421.617	1595.81
421.839	1553.81
422.062	1604.81
422.285	1526.81
422.507	1572.81
422.73	1546.81
422.953	1562.81
423.175	1567.81
423.398	1615.81
423.621	1593.81
423.843	1582.81
424.066	1572.81
424.288	1584.81
424.511	1580.81
424.733	1585.81
424.956	1599.81
425.178	1601.81
425.401	1656.81
425.623	1617.81
425.846	1668.81
426.068	1630.81
426.291	1592.81
426.513	1625.81
426.735	1601.81
426.958	1622.81
427.18	1588.81
427.402	1643.81
427.625	1622.81
427.847	1608.81
428.069	1625.81
428.292	1622.81
428.514	1602.81
428.736	1617.81
428.958	1631.81
429.181	1641.81
429.403	1607.81
429.625	1608.81
429.847	1605.81
430.069	1639.81
430.292	1618.81
430.514	1664.81
430.736	1616.81
430.958	1636.81
431.18	1641.81
431.402	1596.81
431.624	1626.81
431.846	1598.81
432.068	1606.81
432.29	1669.81
432.512	1606.81
432.734	1670.81
432.956	1626.81
433.178	1664.81
433.4	1647.81
433.622	1694.81
433.844	1707.81
434.066	1636.81
434.287	1696.81
434.509	1666.81
434.731	1661.81
434.953	1644.81
435.175	1682.81
435.397	1711.81
435.618	1641.81
435.84	1652.81
436.062	1672.81
436.284	1661.81
436.505	1619.81
436.727	1636.81
436.949	1652.81
437.17	1596.81
437.392	1613.81
437.614	1595.81
437.835	1624.81
438.057	1625.81
438.278	1596.81
438.5	1645.81
438.721	1616.81
438.943	1628.81
439.165	1605.81
439.386	1614.81
439.608	1657.81
439.829	1632.81
440.05	1620.81
440.272	1610.81
440.493	1616.81
440.715	1641.81
440.936	1676.81
441.158	1635.81
441.379	1650.81
441.6	1642.81
441.822	1661.81
442.043	1664.81
442.264	1656.81
442.486	1659.81
442.707	1686.81
442.928	1664.81
443.149	1690.81
443.371	1639.81
443.592	1676.81
443.813	1704.81
444.034	1679.81
444.255	1672.81
444.476	1710.81
444.698	1682.81
444.919	1708.81
445.14	1833.81
445.361	1716.81
445.582	1698.81
445.803	1639.81
446.024	1652.81
446.245	1660.81
446.466	1678.81
446.687	1620.81
446.908	1658.81
447.129	1614.81
447.35	1630.81
447.571	1633.81
447.792	1619.81
448.013	1593.81
448.234	1566.81
448.455	1600.81
448.675	1567.81
448.896	1569.81
449.117	1514.81
449.338	1552.81
449.559	1553.81
449.779	1527.81
450	1500.81
450.221	1540.81
450.442	1550.81
450.662	1518.81
450.883	1547.81
451.104	1551.81
451.324	1532.81
451.545	1554.81
451.766	1505.81
451.986	1525.81
452.207	1521.81
452.428	1494.81
452.648	1506.81
452.869	1493.81
453.089	1480.81
453.31	1531.81
453.53	1484.81
453.751	1487.81
453.971	1459.81
454.192	1509.81
454.412	1525.81
454.633	1465.81
454.853	1508.81
455.073	1470.81
455.294	1508.81
455.514	1495.81
455.734	1524.81
455.955	1518.81
456.175	1473.81
456.395	1494.81
456.616	1481.81
456.836	1483.81
457.056	1465.81
457.276	1456.81
457.497	1515.81
457.717	1516.81
457.937	1525.81
458.157	1504.81
458.377	1522.81
458.598	1529.81
458.818	1548.81
459.038	1569.81
459.258	1569.81
459.478	1605.81
459.698	1641.81
459.918	1608.81
460.138	1637.81
460.358	1664.81
460.578	1644.81
460.798	1670.81
461.018	1707.81
461.238	1722.81
461.458	1707.81
461.678	1671.81
461.898	1754.81
462.118	1694.81
462.338	1750.81
462.558	1733.81
462.777	1738.81
462.997	1823.81
463.217	1812.81
463.437	1828.81
463.657	1785.81
463.876	1797.81
464.096	1787.81
464.316	1735.81
464.536	1751.81
464.755	1729.81
464.975	1752.81
465.195	1690.81
465.414	1710.81
465.634	1678.81
465.854	1673.81
466.073	1654.81
466.293	1649.81
466.512	1668.81
466.732	1630.81
466.951	1607.81
467.171	1613.81
467.391	1616.81
467.61	1590.81
467.829	1604.81
468.049	1631.81
468.268	1572.81
468.488	1614.81
468.707	1607.81
468.927	1632.81
469.146	1638.81
469.365	1618.81
469.585	1612.81
469.804	1634.81
470.023	1681.81
470.243	1592.81
470.462	1652.81
470.681	1615.81
470.901	1603.81
471.12	1584.81
471.339	1646.81
471.558	1635.81
471.777	1668.81
471.997	1640.81
472.216	1650.81
472.435	1633.81
472.654	1640.81
472.873	1623.81
473.092	1648.81
473.311	1653.81
473.53	1703.81
473.749	1703.81
473.968	1686.81
474.187	1665.81
474.406	1660.81
474.625	1664.81
474.844	1694.81
475.063	1680.81
475.282	1732.81
475.501	1689.81
475.72	1729.81
475.939	1742.81
476.158	1760.81
476.377	1761.81
476.596	1769.81
476.814	1790.81
477.033	1744.81
477.252	1764.81
477.471	1810.81
477.69	1831.81
477.908	1882.81
478.127	1834.81
478.346	1861.81
478.564	1855.81
478.783	1920.81
479.002	1911.81
479.22	1890.81
479.439	1910.81
479.658	1924.81
479.876	1932.81
480.095	1913.81
480.313	1944.81
480.532	1924.81
480.751	1912.81
480.969	1904.81
481.188	1952.81
481.406	1960.81
481.624	1911.81
481.843	1964.81
482.061	1956.81
482.28	1991.81
482.498	1940.81
482.717	1951.81
482.935	1968.81
483.153	1998.81
483.372	1982.81
483.59	1933.81
483.808	1993.81
484.027	2002.81
484.245	2016.81
484.463	2005.81
484.681	2006.81
484.9	2006.81
485.118	2036.81
485.336	1972.81
485.554	2018.81
485.772	2028.81
485.99	1995.81
486.209	1989.81
486.427	2043.81
486.645	2028.81
486.863	2009.81
487.081	2017.81
487.299	2021.81
487.517	2010.81
487.735	2062.81
487.953	2107.81
488.171	2104.81
488.389	2069.81
488.607	2021.81
488.825	2067.81
489.043	2058.81
489.261	2042.81
489.479	2076.81
489.696	2061.81
489.914	2067.81
490.132	2069.81
490.35	2101.81
490.568	2090.81
490.786	2130.81
491.003	2128.81
491.221	2174.81
491.439	2124.81
491.657	2178.81
491.874	2136.81
492.092	2136.81
492.31	2157.81
492.527	2161.81
492.745	2175.81
492.963	2125.81
493.18	2146.81
493.398	2162.81
493.615	2190.81
493.833	2214.81
494.05	2228.81
494.268	2187.81
494.485	2187.81
494.703	2215.81
494.92	2199.81
495.138	2226.81
495.355	2267.81
495.573	2248.81
495.79	2284.81
496.008	2312.81
496.225	2253.81
496.442	2280.81
496.66	2356.81
496.877	2324.81
497.094	2355.81
497.312	2363.81
497.529	2335.81
497.746	2376.81
497.963	2422.81
498.181	2481.81
498.398	2479.81
498.615	2516.81
498.832	2512.81
499.049	2573.81
499.267	2614.81
499.484	2656.81
499.701	2675.81
499.918	2730.81
500.135	2746.81
500.352	2789.81
500.569	2811.81
500.786	2744.81
501.003	2830.81
501.22	2789.81
501.437	2730.81
501.654	2684.81
501.871	2646.81
502.088	2655.81
502.305	2588.81
502.522	2580.81
502.739	2526.81
502.956	2403.81
503.172	2404.81
503.389	2409.81
503.606	2385.81
503.823	2365.81
504.04	2302.81
504.256	2349.81
504.473	2289.81
504.69	2240.81
504.907	2223.81
505.123	2220.81
505.34	2194.81
505.557	2158.81
505.773	2171.81
505.99	2173.81
506.207	2088.81
506.423	2108.81
506.64	2058.81
506.856	2053.81
507.073	2029.81
507.289	2042.81
507.506	2029.81
507.722	2009.81
507.939	1992.81
508.155	2009.81
508.372	1990.81
508.588	1971.81
508.805	1967.81
509.021	1964.81
509.238	1964.81
509.454	1885.81
509.67	1913.81
509.887	1924.81
510.103	1888.81
510.319	1889.81
510.536	1912.81
510.752	1831.81
510.968	1850.81
511.184	1870.81
511.401	1888.81
511.617	1853.81
511.833	1867.81
512.049	1827.81
512.265	1851.81
512.481	1815.81
512.698	1800.81
512.914	1874.81
513.13	1877.81
513.346	1846.81
513.562	1840.81
513.778	1849.81
513.994	1864.81
514.21	1816.81
514.426	1811.81
514.642	1842.81
514.858	1848.81
515.074	1849.81
515.29	1860.81
515.506	1822.81
515.721	1857.81
515.937	1864.81
516.153	1888.81
516.369	1885.81
516.585	1894.81
516.801	1890.81
517.016	1887.81
517.232	1908.81
517.448	1881.81
517.664	1880.81
517.879	1901.81
518.095	1895.81
518.311	1906.81
518.527	1872.81
518.742	1897.81
518.958	1873.81
519.173	1854.81
519.389	1872.81
519.605	1821.81
519.82	1831.81
520.036	1823.81
520.251	1823.81
520.467	1816.81
520.682	1786.81
520.898	1801.81
521.113	1759.81
521.329	1783.81
521.544	1776.81
521.76	1739.81
521.975	1739.81
522.19	1729.81
522.406	1789.81
522.621	1748.81
522.836	1711.81
523.052	1720.81
523.267	1693.81
523.482	1720.81
523.698	1696.81
523.913	1691.81
524.128	1716.81
524.343	1699.81
524.559	1689.81
524.774	1676.81
524.989	1696.81
525.204	1696.81
525.419	1670.81
525.634	1684.81
525.849	1660.81
526.064	1656.81
526.28	1662.81
526.495	1662.81
526.71	1650.81
526.925	1639.81
527.14	1672.81
527.355	1623.81
527.57	1639.81
527.785	1617.81
527.999	1642.81
528.214	1634.81
528.429	1617.81
528.644	1649.81
528.859	1633.81
529.074	1617.81
529.289	1682.81
529.503	1646.81
529.718	1601.81
529.933	1625.81
530.148	1616.81
530.363	1587.81
530.577	1610.81
530.792	1596.81
531.007	1594.81
531.221	1627.81
531.436	1582.81
531.651	1576.81
531.865	1618.81
532.08	1574.81
532.295	1574.81
532.509	1601.81
532.724	1564.81
532.938	1601.81
533.153	1566.81
533.367	1557.81
533.582	1549.81
533.796	1552.81
534.011	1565.81
534.225	1567.81
534.44	1572.81
534.654	1521.81
534.868	1554.81
535.083	1537.81
535.297	1503.81
535.511	1513.81
535.726	1514.81
535.94	1529.81
536.154	1513.81
536.369	1531.81
536.583	1472.81
536.797	1484.81
537.011	1521.81
537.225	1476.81
537.44	1489.81
537.654	1517.81
537.868	1456.81
538.082	1432.81
538.296	1500.81
538.51	1490.81
538.724	1481.81
538.938	1480.81
539.153	1479.81
539.367	1521.81
539.581	1447.81
539.795	1480.81
540.009	1448.81
540.222	1435.81
540.436	1450.81
540.65	1430.81
540.864	1479.81
541.078	1448.81
541.292	1473.81
541.506	1467.81
541.72	1460.81
541.934	1496.81
542.147	1454.81
542.361	1467.81
542.575	1438.81
542.789	1444.81
543.002	1421.81
543.216	1413.81
543.43	1421.81
543.644	1413.81
543.857	1422.81
544.071	1432.81
544.285	1428.81
544.498	1445.81
544.712	1438.81
544.925	1421.81
545.139	1435.81
545.352	1424.81
545.566	1389.81
545.779	1388.81
545.993	1417.81
546.206	1414.81
546.42	1447.81
546.633	1414.81
546.847	1418.81
547.06	1416.81
547.274	1380.81
547.487	1420.81
547.7	1419.81
547.914	1429.81
548.127	1420.81
548.34	1420.81
548.554	1392.81
548.767	1407.81
548.98	1396.81
549.193	1400.81
549.407	1372.81
549.62	1393.81
549.833	1384.81
550.046	1375.81
550.259	1348.81
550.473	1342.81
550.686	1379.81
550.899	1372.81
551.112	1373.81
551.325	1387.81
551.538	1378.81
551.751	1356.81
551.964	1343.81
552.177	1366.81
552.39	1334.81
552.603	1380.81
552.816	1364.81
553.029	1361.81
553.242	1334.81
553.455	1378.81
553.667	1328.81
553.88	1308.81
554.093	1319.81
554.306	1315.81
554.519	1297.81
554.732	1325.81
554.944	1321.81
555.157	1286.81
555.37	1312.81
555.583	1302.81
555.795	1261.81
556.008	1261.81
556.221	1222.81
556.433	1261.81
556.646	1225.81
556.859	1251.81
557.071	1234.81
557.284	1238.81
557.496	1237.81
557.709	1231.81
557.921	1252.81
558.134	1247.81
558.346	1215.81
558.559	1213.81
558.771	1224.81
558.984	1197.81
559.196	1196.81
559.409	1193.81
559.621	1199.81
559.833	1182.81
560.046	1214.81
560.258	1198.81
560.47	1151.81
560.683	1199.81
560.895	1209.81
561.107	1185.81
561.32	1159.81
561.532	1198.81
561.744	1185.81
561.956	1155.81
562.168	1172.81
562.381	1164.81
562.593	1157.81
562.805	1197.81
563.017	1222.81
563.229	1188.81
563.441	1176.81
563.653	1182.81
563.865	1165.81
564.077	1202.81
564.289	1177.81
564.501	1200.81
564.713	1179.81
564.925	1175.81
565.137	1191.81
565.349	1233.81
565.561	1187.81
565.773	1210.81
565.985	1207.81
566.197	1223.81
566.408	1244.81
566.62	1246.81
566.832	1233.81
567.044	1244.81
567.255	1205.81
567.467	1210.81
567.679	1214.81
567.891	1224.81
568.102	1166.81
568.314	1189.81
568.526	1209.81
568.737	1193.81
568.949	1149.81
569.161	1126.81
569.372	1140.81
569.584	1137.81
569.795	1130.81
570.007	1089.81
570.218	1095.81
570.43	1068.81
570.641	1064.81
570.853	1064.81
571.064	1059.81
571.276	1034.81
571.487	1054.81
571.698	1014.81
571.91	1018.81
572.121	1028.81
572.333	1003.81
572.544	985.81
572.755	969.81
572.966	959.81
573.178	978.81
573.389	959.81
573.6	929.81
573.811	936.81
574.023	952.81
574.234	948.81
574.445	900.81
574.656	918.81
574.867	926.81
575.078	930.81
575.289	906.81
575.501	906.81
575.712	879.81
575.923	885.81
576.134	898.81
576.345	889.81
576.556	885.81
576.767	875.81
576.978	885.81
577.188	874.81
577.399	870.81
577.61	871.81
577.821	865.81
578.032	836.81
578.243	830.81
578.454	840.81
578.665	858.81
578.875	826.81
579.086	813.81
579.297	833.81
579.508	832.81
579.718	815.81
579.929	834.81
580.14	797.81
580.35	801.81
580.561	799.81
580.772	811.81
580.982	781.81
581.193	797.81
581.403	797.81
581.614	784.81
581.825	802.81
582.035	768.81
582.246	768.81
582.456	790.81
582.667	808.81
582.877	794.81
583.087	779.81
583.298	768.81
583.508	739.81
583.719	788.81
583.929	770.81
584.139	741.81
584.35	791.81
584.56	766.81
584.77	767.81
584.981	756.81
585.191	757.81
585.401	778.81
585.611	749.81
585.821	744.81
586.032	726.81
586.242	743.81
586.452	758.81
586.662	712.81
586.872	753.81
587.082	745.81
587.292	710.81
587.502	737.81
587.713	719.81
587.923	716.81
588.133	754.81
588.343	740.81
588.553	721.81
588.762	722.81
588.972	718.81
589.182	725.81
589.392	745.81
589.602	728.81
589.812	714.81
590.022	695.81
590.232	715.81
590.441	713.81
590.651	706.81
590.861	726.81
591.071	702.81
591.281	707.81
591.49	698.81
591.7	714.81
591.91	722.81
592.119	711.81
592.329	710.81
592.539	684.81
592.748	702.81
592.958	701.81
593.167	684.81
593.377	720.81
593.587	712.81
593.796	687.81
594.006	690.81
594.215	694.81
594.424	676.81
594.634	688.81
594.843	671.81
595.053	665.81
595.262	682.81
595.472	665.81
595.681	643.81
595.89	650.81
596.1	667.81
596.309	639.81
596.518	658.81
596.727	648.81
596.937	617.81
597.146	636.81
597.355	642.81
597.564	637.81
597.774	630.81
597.983	627.81
598.192	625.81
598.401	632.81
598.61	604.81
598.819	594.81
599.028	598.81
599.237	621.81
599.446	592.81
599.655	597.81
599.864	610.81
600.073	596.81
600.282	590.81
600.491	581.81
600.7	576.81
600.909	605.81
601.118	574.81
601.327	582.81
601.536	587.81
601.745	580.81
601.953	589.81
602.162	586.81
602.371	570.81
602.58	560.81
602.789	578.81
602.997	558.81
603.206	561.81
603.415	584.81
603.623	574.81
603.832	535.81
604.041	570.81
604.249	565.81
604.458	552.81
604.666	540.81
604.875	541.81
605.084	525.81
605.292	532.81
605.501	562.81
605.709	546.81
605.918	541.81
606.126	533.81
606.334	552.81
606.543	522.81
606.751	543.81
606.96	538.81
607.168	520.81
607.376	517.81
607.585	512.81
607.793	514.81
608.001	531.81
608.21	534.81
608.418	518.81
608.626	505.81
608.834	519.81
609.043	529.81
609.251	543.81
609.459	510.81
609.667	535.81
609.875	506.81
610.083	509.81
610.291	540.81
610.499	493.81
610.707	512.81
610.916	502.81
611.124	508.81
611.332	497.81
611.54	503.81
611.748	486.81
611.955	510.81
612.163	517.81
612.371	501.81
612.579	497.81
612.787	488.81
612.995	488.81
613.203	511.81
613.411	522.81
613.618	491.81
613.826	502.81
614.034	487.81
614.242	494.81
614.449	476.81
614.657	484.81
614.865	487.81
615.072	509.81
615.28	480.81
615.488	487.81
615.695	484.81
615.903	449.81
616.111	482.81
616.318	493.81
616.526	500.81
616.733	492.81
616.941	460.81
617.148	466.81
617.356	481.81
617.563	453.81
617.771	460.81
617.978	460.81
618.185	470.81
618.393	474.81
618.6	461.81
618.807	461.81
619.015	450.81
619.222	456.81
619.429	452.81
619.637	462.81
619.844	466.81
620.051	448.81
620.258	430.81
620.466	449.81
620.673	422.81
620.88	447.81
621.087	444.81
621.294	418.81
621.501	422.81
621.708	447.81
621.915	424.81
622.122	433.81
622.329	460.81
622.536	426.81
622.743	427.81
622.95	440.81
623.157	442.81
623.364	424.81
623.571	422.81
623.778	416.81
623.985	432.81
624.192	428.81
624.399	410.81
624.606	412.81
624.812	401.81
625.019	406.81
625.226	418.81
625.433	407.81
625.639	416.81
625.846	424.81
626.053	416.81
626.259	422.81
626.466	438.81
626.673	387.81
626.879	398.81
627.086	411.81
627.293	426.81
627.499	396.81
627.706	405.81
627.912	392.81
628.119	397.81
628.325	403.81
628.532	401.81
628.738	390.81
628.945	400.81
629.151	379.81
629.357	397.81
629.564	379.81
629.77	386.81
629.976	403.81
630.183	384.81
630.389	383.81
630.595	368.81
630.802	382.81
631.008	352.81
631.214	384.81
631.42	389.81
631.627	363.81
631.833	363.81
632.039	387.81
632.245	369.81
632.451	368.81
632.657	362.81
632.863	377.81
633.069	359.81
633.275	365.81
633.481	378.81
633.688	343.81
633.893	358.81
634.099	370.81
634.305	351.81
634.511	342.81
634.717	360.81
634.923	347.81
635.129	331.81
635.335	352.81
635.541	363.81
635.747	352.81
635.952	344.81
636.158	353.81
636.364	349.81
636.57	351.81
636.775	335.81
636.981	337.81
637.187	361.81
637.392	352.81
637.598	329.81
637.804	339.81
638.009	325.81
638.215	321.81
638.421	344.81
638.626	339.81
638.832	316.81
639.037	315.81
639.243	334.81
639.448	346.81
639.654	355.81
639.859	335.81
640.065	327.81
640.27	334.81
640.475	326.81
640.681	321.81
640.886	308.81
641.091	316.81
641.297	328.81
641.502	330.81
641.707	322.81
641.913	324.81
642.118	325.81
642.323	317.81
642.528	305.81
642.733	342.81
642.939	329.81
643.144	310.81
643.349	325.81
643.554	315.81
643.759	312.81
643.964	327.81
644.169	326.81
644.374	298.81
644.579	318.81
644.784	311.81
644.989	322.81
645.194	335.81
645.399	278.81
645.604	305.81
645.809	310.81
646.014	315.81
646.219	308.81
646.423	328.81
646.628	297.81
646.833	297.81
647.038	306.81
647.243	296.81
647.447	314.81
647.652	301.81
647.857	329.81
648.062	300.81
648.266	308.81
648.471	297.81
648.676	303.81
648.88	324.81
649.085	294.81
649.289	312.81
649.494	301.81
649.698	288.81
649.903	299.81
650.107	313.81
650.312	300.81
650.516	295.81
650.721	281.81
650.925	281.81
651.13	286.81
651.334	272.81
651.539	273.81
651.743	307.81
651.947	278.81
652.152	270.81
652.356	264.81
652.56	246.81
652.764	272.81
652.969	246.81
653.173	235.81
653.377	239.81
653.581	238.81
653.785	240.81
653.99	250.81
654.194	248.81
654.398	226.81
654.602	250.81
654.806	218.81
655.01	229.81
655.214	218.81
655.418	241.81
655.622	216.81
655.826	214.81
656.03	214.81
656.234	219.81
656.438	221.81
656.642	212.81
656.846	204.81
657.049	214.81
657.253	193.81
657.457	186.81
657.661	180.81
657.865	168.81
658.068	180.81
658.272	182.81
658.476	172.81
658.68	147.81
658.883	142.81
659.087	147.81
659.291	140.81
659.494	136.81
659.698	124.81
659.901	125.81
660.105	128.81
660.309	120.81
660.512	126.81
660.716	109.81
660.919	110.81
661.123	114.81
661.326	106.81
661.53	118.81
661.733	114.81
661.936	105.81
662.14	98.81
662.343	108.81
662.546	93.81
662.75	84.81
662.953	86.81
663.156	90.81
663.36	77.81
663.563	97.81
663.766	82.81
663.969	93.81
664.173	94.81
664.376	88.81
664.579	73.81
664.782	90.81
664.985	83.81
665.188	81.81
665.391	83.81
665.594	77.81
665.797	87.81
666	80.81
666.203	84.81
666.406	96.81
666.609	73.81
666.812	100.81
667.015	82.81
667.218	83.81
667.421	80.81
667.624	94.81
667.827	81.81
668.03	69.81
668.232	89.81
668.435	84.81
668.638	85.81
668.841	96.81
669.043	89.81
669.246	82.81
669.449	86.81
669.651	100.81
669.854	88.81
670.057	73.81
670.259	89.81
670.462	87.81
670.665	80.81
670.867	92.81
671.07	74.81
671.272	102.81
671.475	84.81
671.677	83.81
671.88	92.81
672.082	96.81
672.284	94.81
672.487	87.81
672.689	80.81
672.892	97.81
