Data from Ni(NO3)2@0.5M.TitratingCurve.Agarose3%dH2O.NegLispCup.LampEnergy10.LIBS07252019_HRD10591_17-58-37-564.txt Node
Date: Thu Jul 25 17:58:37 EDT 2019
User: cochatt
Spectrometer: HR+D1059
Trigger mode: 1
Integration Time (sec): 1.000000E-1
Scans to average: 1
Electric dark correction enabled: true
Nonlinearity correction enabled: false
Boxcar width: 0
XAxis mode: Wavelengths
Number of Pixels in Spectrum: 2048
>>>>>Begin Spectral Data<<<<<
223.165	-20.19
223.4	-20.19
223.635	-20.19
223.869	-15.19
224.104	-8.19
224.338	-8.19
224.573	-15.19
224.808	-11.19
225.042	-9.19
225.277	-3.19
225.511	-14.19
225.746	9.81
225.98	11.81
226.215	10.81
226.449	8.81
226.683	12.81
226.918	21.81
227.152	28.81
227.387	36.81
227.621	42.81
227.856	27.81
228.09	34.81
228.324	36.81
228.559	48.81
228.793	66.81
229.027	107.81
229.262	108.81
229.496	95.81
229.73	118.81
229.964	139.81
230.199	143.81
230.433	141.81
230.667	132.81
230.901	142.81
231.136	129.81
231.37	119.81
231.604	130.81
231.838	156.81
232.072	140.81
232.306	142.81
232.541	140.81
232.775	134.81
233.009	132.81
233.243	115.81
233.477	127.81
233.711	126.81
233.945	143.81
234.179	130.81
234.413	125.81
234.647	140.81
234.881	128.81
235.115	129.81
235.349	122.81
235.583	121.81
235.817	126.81
236.051	110.81
236.285	119.81
236.519	119.81
236.753	128.81
236.987	126.81
237.221	134.81
237.455	129.81
237.689	128.81
237.922	126.81
238.156	119.81
238.39	137.81
238.624	124.81
238.858	136.81
239.091	135.81
239.325	139.81
239.559	144.81
239.793	159.81
240.027	145.81
240.26	146.81
240.494	127.81
240.728	138.81
240.961	140.81
241.195	141.81
241.429	130.81
241.662	146.81
241.896	148.81
242.13	170.81
242.363	165.81
242.597	134.81
242.83	149.81
243.064	150.81
243.298	148.81
243.531	139.81
243.765	152.81
243.998	174.81
244.232	161.81
244.465	163.81
244.699	165.81
244.932	156.81
245.166	164.81
245.399	163.81
245.633	162.81
245.866	170.81
246.099	158.81
246.333	171.81
246.566	152.81
246.8	150.81
247.033	148.81
247.266	174.81
247.5	174.81
247.733	154.81
247.966	174.81
248.2	169.81
248.433	177.81
248.666	156.81
248.899	189.81
249.133	164.81
249.366	172.81
249.599	183.81
249.832	192.81
250.066	182.81
250.299	190.81
250.532	190.81
250.765	203.81
250.998	203.81
251.231	207.81
251.465	214.81
251.698	199.81
251.931	177.81
252.164	182.81
252.397	192.81
252.63	205.81
252.863	191.81
253.096	198.81
253.329	202.81
253.562	202.81
253.795	197.81
254.028	195.81
254.261	231.81
254.494	195.81
254.727	207.81
254.96	224.81
255.193	210.81
255.426	208.81
255.659	212.81
255.892	208.81
256.124	222.81
256.357	220.81
256.59	238.81
256.823	214.81
257.056	230.81
257.289	233.81
257.521	229.81
257.754	212.81
257.987	244.81
258.22	233.81
258.452	226.81
258.685	223.81
258.918	241.81
259.151	226.81
259.383	219.81
259.616	227.81
259.849	231.81
260.081	221.81
260.314	244.81
260.547	243.81
260.779	218.81
261.012	248.81
261.244	255.81
261.477	258.81
261.71	244.81
261.942	239.81
262.175	241.81
262.407	230.81
262.64	246.81
262.872	244.81
263.105	262.81
263.337	255.81
263.57	274.81
263.802	262.81
264.035	247.81
264.267	258.81
264.499	251.81
264.732	262.81
264.964	249.81
265.197	250.81
265.429	264.81
265.661	262.81
265.894	268.81
266.126	264.81
266.358	260.81
266.591	264.81
266.823	274.81
267.055	267.81
267.287	269.81
267.52	288.81
267.752	245.81
267.984	256.81
268.216	299.81
268.448	275.81
268.681	259.81
268.913	267.81
269.145	276.81
269.377	267.81
269.609	270.81
269.841	268.81
270.073	292.81
270.306	271.81
270.538	271.81
270.77	284.81
271.002	293.81
271.234	287.81
271.466	270.81
271.698	282.81
271.93	281.81
272.162	289.81
272.394	286.81
272.626	291.81
272.858	294.81
273.09	313.81
273.322	302.81
273.553	296.81
273.785	312.81
274.017	285.81
274.249	284.81
274.481	294.81
274.713	310.81
274.945	293.81
275.176	299.81
275.408	294.81
275.64	308.81
275.872	314.81
276.104	295.81
276.335	310.81
276.567	299.81
276.799	314.81
277.031	312.81
277.262	318.81
277.494	309.81
277.726	314.81
277.957	322.81
278.189	315.81
278.421	316.81
278.652	313.81
278.884	315.81
279.115	288.81
279.347	316.81
279.579	322.81
279.81	345.81
280.042	331.81
280.273	314.81
280.505	320.81
280.736	328.81
280.968	312.81
281.199	327.81
281.431	333.81
281.662	330.81
281.894	344.81
282.125	344.81
282.356	340.81
282.588	335.81
282.819	335.81
283.051	325.81
283.282	330.81
283.513	338.81
283.745	336.81
283.976	359.81
284.207	354.81
284.439	356.81
284.67	354.81
284.901	368.81
285.132	358.81
285.364	355.81
285.595	356.81
285.826	358.81
286.057	342.81
286.288	358.81
286.52	362.81
286.751	361.81
286.982	360.81
287.213	374.81
287.444	360.81
287.675	355.81
287.906	355.81
288.138	368.81
288.369	357.81
288.6	358.81
288.831	379.81
289.062	374.81
289.293	344.81
289.524	359.81
289.755	375.81
289.986	360.81
290.217	382.81
290.448	373.81
290.679	374.81
290.91	357.81
291.141	366.81
291.371	366.81
291.602	367.81
291.833	348.81
292.064	373.81
292.295	351.81
292.526	368.81
292.757	377.81
292.987	358.81
293.218	346.81
293.449	383.81
293.68	387.81
293.91	374.81
294.141	368.81
294.372	373.81
294.603	377.81
294.833	381.81
295.064	391.81
295.295	378.81
295.525	372.81
295.756	387.81
295.987	379.81
296.217	373.81
296.448	401.81
296.679	372.81
296.909	367.81
297.14	351.81
297.37	386.81
297.601	386.81
297.831	386.81
298.062	406.81
298.292	405.81
298.523	395.81
298.753	398.81
298.984	391.81
299.214	374.81
299.445	389.81
299.675	414.81
299.905	406.81
300.136	416.81
300.366	437.81
300.597	457.81
300.827	441.81
301.057	414.81
301.288	426.81
301.518	428.81
301.748	435.81
301.979	410.81
302.209	425.81
302.439	407.81
302.669	416.81
302.9	401.81
303.13	402.81
303.36	407.81
303.59	415.81
303.82	431.81
304.051	439.81
304.281	440.81
304.511	434.81
304.741	395.81
304.971	432.81
305.201	426.81
305.431	462.81
305.661	455.81
305.891	428.81
306.121	445.81
306.352	433.81
306.582	430.81
306.812	418.81
307.042	431.81
307.272	428.81
307.502	436.81
307.731	404.81
307.961	450.81
308.191	430.81
308.421	457.81
308.651	435.81
308.881	441.81
309.111	425.81
309.341	417.81
309.571	423.81
309.8	435.81
310.03	449.81
310.26	464.81
310.49	482.81
310.72	447.81
310.949	424.81
311.179	457.81
311.409	438.81
311.639	432.81
311.868	432.81
312.098	432.81
312.328	452.81
312.557	451.81
312.787	479.81
313.017	447.81
313.246	475.81
313.476	460.81
313.706	466.81
313.935	496.81
314.165	453.81
314.394	458.81
314.624	484.81
314.853	480.81
315.083	453.81
315.312	470.81
315.542	461.81
315.771	475.81
316.001	458.81
316.23	455.81
316.46	442.81
316.689	486.81
316.919	480.81
317.148	459.81
317.377	490.81
317.607	454.81
317.836	484.81
318.065	466.81
318.295	464.81
318.524	468.81
318.753	488.81
318.983	484.81
319.212	470.81
319.441	483.81
319.67	505.81
319.9	492.81
320.129	494.81
320.358	491.81
320.587	495.81
320.816	481.81
321.046	482.81
321.275	490.81
321.504	480.81
321.733	494.81
321.962	499.81
322.191	511.81
322.42	504.81
322.649	504.81
322.878	514.81
323.108	512.81
323.337	511.81
323.566	510.81
323.795	519.81
324.024	531.81
324.253	507.81
324.482	508.81
324.71	498.81
324.939	483.81
325.168	512.81
325.397	514.81
325.626	529.81
325.855	524.81
326.084	552.81
326.313	544.81
326.542	536.81
326.77	548.81
326.999	514.81
327.228	517.81
327.457	531.81
327.686	538.81
327.914	555.81
328.143	544.81
328.372	521.81
328.6	555.81
328.829	558.81
329.058	530.81
329.287	543.81
329.515	541.81
329.744	554.81
329.972	556.81
330.201	543.81
330.43	561.81
330.658	577.81
330.887	563.81
331.115	551.81
331.344	547.81
331.572	577.81
331.801	592.81
332.03	577.81
332.258	589.81
332.486	587.81
332.715	584.81
332.943	603.81
333.172	592.81
333.4	602.81
333.629	645.81
333.857	624.81
334.085	622.81
334.314	625.81
334.542	615.81
334.771	646.81
334.999	640.81
335.227	625.81
335.455	646.81
335.684	653.81
335.912	643.81
336.14	636.81
336.369	630.81
336.597	656.81
336.825	641.81
337.053	644.81
337.281	656.81
337.51	639.81
337.738	635.81
337.966	627.81
338.194	642.81
338.422	636.81
338.65	615.81
338.878	615.81
339.106	626.81
339.334	633.81
339.562	603.81
339.79	596.81
340.018	594.81
340.246	598.81
340.474	623.81
340.702	608.81
340.93	601.81
341.158	600.81
341.386	616.81
341.614	631.81
341.842	630.81
342.07	598.81
342.298	619.81
342.526	611.81
342.754	611.81
342.981	591.81
343.209	625.81
343.437	630.81
343.665	645.81
343.893	634.81
344.12	662.81
344.348	632.81
344.576	648.81
344.804	652.81
345.031	627.81
345.259	635.81
345.487	626.81
345.714	620.81
345.942	650.81
346.17	644.81
346.397	641.81
346.625	613.81
346.853	613.81
347.08	588.81
347.308	609.81
347.535	582.81
347.763	566.81
347.99	598.81
348.218	585.81
348.445	575.81
348.673	586.81
348.9	599.81
349.128	589.81
349.355	596.81
349.583	640.81
349.81	583.81
350.037	585.81
350.265	586.81
350.492	567.81
350.72	568.81
350.947	577.81
351.174	592.81
351.402	599.81
351.629	651.81
351.856	614.81
352.083	595.81
352.311	614.81
352.538	625.81
352.765	630.81
352.992	592.81
353.22	568.81
353.447	552.81
353.674	556.81
353.901	572.81
354.128	586.81
354.355	569.81
354.583	562.81
354.81	560.81
355.037	548.81
355.264	553.81
355.491	560.81
355.718	560.81
355.945	558.81
356.172	554.81
356.399	584.81
356.626	572.81
356.853	586.81
357.08	568.81
357.307	554.81
357.534	554.81
357.761	567.81
357.988	550.81
358.215	567.81
358.441	553.81
358.668	563.81
358.895	585.81
359.122	553.81
359.349	565.81
359.576	571.81
359.802	560.81
360.029	579.81
360.256	566.81
360.483	578.81
360.709	568.81
360.936	580.81
361.163	594.81
361.39	578.81
361.616	591.81
361.843	598.81
362.07	619.81
362.296	605.81
362.523	608.81
362.749	571.81
362.976	546.81
363.203	567.81
363.429	576.81
363.656	577.81
363.882	578.81
364.109	575.81
364.335	574.81
364.562	566.81
364.788	563.81
365.015	583.81
365.241	562.81
365.468	578.81
365.694	559.81
365.92	551.81
366.147	568.81
366.373	542.81
366.599	562.81
366.826	581.81
367.052	574.81
367.278	553.81
367.505	562.81
367.731	587.81
367.957	576.81
368.184	602.81
368.41	583.81
368.636	596.81
368.862	594.81
369.089	594.81
369.315	588.81
369.541	596.81
369.767	583.81
369.993	581.81
370.219	571.81
370.445	584.81
370.672	587.81
370.898	609.81
371.124	618.81
371.35	613.81
371.576	597.81
371.802	606.81
372.028	610.81
372.254	602.81
372.48	606.81
372.706	604.81
372.932	602.81
373.158	621.81
373.384	611.81
373.61	620.81
373.835	602.81
374.061	612.81
374.287	631.81
374.513	642.81
374.739	644.81
374.965	624.81
375.191	635.81
375.416	635.81
375.642	615.81
375.868	620.81
376.094	610.81
376.319	624.81
376.545	616.81
376.771	595.81
376.997	608.81
377.222	605.81
377.448	606.81
377.674	611.81
377.899	606.81
378.125	587.81
378.35	602.81
378.576	615.81
378.802	575.81
379.027	615.81
379.253	627.81
379.478	591.81
379.704	603.81
379.929	595.81
380.155	586.81
380.38	563.81
380.606	611.81
380.831	618.81
381.057	610.81
381.282	618.81
381.507	572.81
381.733	606.81
381.958	585.81
382.184	620.81
382.409	618.81
382.634	622.81
382.86	607.81
383.085	610.81
383.31	633.81
383.535	596.81
383.761	627.81
383.986	639.81
384.211	632.81
384.436	647.81
384.662	665.81
384.887	673.81
385.112	647.81
385.337	680.81
385.562	680.81
385.787	687.81
386.013	680.81
386.238	671.81
386.463	688.81
386.688	682.81
386.913	702.81
387.138	653.81
387.363	673.81
387.588	683.81
387.813	687.81
388.038	673.81
388.263	673.81
388.488	674.81
388.713	674.81
388.938	668.81
389.163	657.81
389.387	670.81
389.612	681.81
389.837	700.81
390.062	703.81
390.287	682.81
390.512	683.81
390.736	675.81
390.961	712.81
391.186	695.81
391.411	714.81
391.636	708.81
391.86	715.81
392.085	710.81
392.31	701.81
392.534	705.81
392.759	713.81
392.984	707.81
393.208	752.81
393.433	739.81
393.658	715.81
393.882	710.81
394.107	730.81
394.331	706.81
394.556	704.81
394.78	728.81
395.005	724.81
395.229	735.81
395.454	717.81
395.678	721.81
395.903	739.81
396.127	731.81
396.352	712.81
396.576	728.81
396.801	707.81
397.025	744.81
397.249	754.81
397.474	769.81
397.698	754.81
397.922	804.81
398.147	786.81
398.371	765.81
398.595	808.81
398.82	817.81
399.044	832.81
399.268	868.81
399.492	900.81
399.717	926.81
399.941	931.81
400.165	894.81
400.389	872.81
400.613	879.81
400.837	853.81
401.062	841.81
401.286	800.81
401.51	811.81
401.734	809.81
401.958	812.81
402.182	840.81
402.406	830.81
402.63	803.81
402.854	830.81
403.078	828.81
403.302	832.81
403.526	837.81
403.75	825.81
403.974	863.81
404.198	809.81
404.422	839.81
404.645	838.81
404.869	806.81
405.093	822.81
405.317	826.81
405.541	834.81
405.765	815.81
405.988	871.81
406.212	855.81
406.436	849.81
406.66	899.81
406.883	892.81
407.107	892.81
407.331	912.81
407.555	923.81
407.778	957.81
408.002	916.81
408.226	908.81
408.449	912.81
408.673	890.81
408.896	907.81
409.12	895.81
409.344	883.81
409.567	880.81
409.791	882.81
410.014	879.81
410.238	867.81
410.461	894.81
410.685	865.81
410.908	840.81
411.132	856.81
411.355	843.81
411.578	832.81
411.802	862.81
412.025	834.81
412.249	838.81
412.472	827.81
412.695	837.81
412.919	834.81
413.142	820.81
413.365	820.81
413.589	827.81
413.812	824.81
414.035	828.81
414.258	822.81
414.482	824.81
414.705	826.81
414.928	815.81
415.151	821.81
415.374	823.81
415.597	815.81
415.821	801.81
416.044	782.81
416.267	812.81
416.49	800.81
416.713	812.81
416.936	819.81
417.159	796.81
417.382	818.81
417.605	788.81
417.828	778.81
418.051	793.81
418.274	795.81
418.497	770.81
418.72	807.81
418.943	792.81
419.166	834.81
419.389	870.81
419.611	892.81
419.834	839.81
420.057	827.81
420.28	830.81
420.503	790.81
420.726	790.81
420.948	786.81
421.171	796.81
421.394	777.81
421.617	798.81
421.839	774.81
422.062	788.81
422.285	768.81
422.507	816.81
422.73	797.81
422.953	804.81
423.175	776.81
423.398	794.81
423.621	805.81
423.843	799.81
424.066	807.81
424.288	794.81
424.511	822.81
424.733	792.81
424.956	796.81
425.178	775.81
425.401	808.81
425.623	784.81
425.846	770.81
426.068	778.81
426.291	788.81
426.513	780.81
426.735	759.81
426.958	772.81
427.18	771.81
427.402	748.81
427.625	782.81
427.847	776.81
428.069	777.81
428.292	795.81
428.514	766.81
428.736	750.81
428.958	772.81
429.181	751.81
429.403	762.81
429.625	761.81
429.847	741.81
430.069	789.81
430.292	757.81
430.514	751.81
430.736	767.81
430.958	773.81
431.18	777.81
431.402	767.81
431.624	768.81
431.846	743.81
432.068	760.81
432.29	763.81
432.512	766.81
432.734	780.81
432.956	778.81
433.178	793.81
433.4	797.81
433.622	792.81
433.844	801.81
434.066	780.81
434.287	786.81
434.509	794.81
434.731	787.81
434.953	792.81
435.175	803.81
435.397	820.81
435.618	794.81
435.84	785.81
436.062	792.81
436.284	784.81
436.505	789.81
436.727	754.81
436.949	785.81
437.17	772.81
437.392	764.81
437.614	771.81
437.835	756.81
438.057	751.81
438.278	725.81
438.5	756.81
438.721	745.81
438.943	755.81
439.165	738.81
439.386	771.81
439.608	767.81
439.829	792.81
440.05	792.81
440.272	792.81
440.493	793.81
440.715	790.81
440.936	807.81
441.158	787.81
441.379	791.81
441.6	831.81
441.822	803.81
442.043	832.81
442.264	825.81
442.486	800.81
442.707	790.81
442.928	795.81
443.149	827.81
443.371	849.81
443.592	839.81
443.813	871.81
444.034	832.81
444.255	821.81
444.476	827.81
444.698	863.81
444.919	878.81
445.14	950.81
445.361	898.81
445.582	850.81
445.803	806.81
446.024	806.81
446.245	795.81
446.466	788.81
446.687	791.81
446.908	768.81
447.129	765.81
447.35	732.81
447.571	733.81
447.792	758.81
448.013	743.81
448.234	752.81
448.455	731.81
448.675	714.81
448.896	741.81
449.117	718.81
449.338	736.81
449.559	712.81
449.779	697.81
450	720.81
450.221	730.81
450.442	719.81
450.662	720.81
450.883	728.81
451.104	736.81
451.324	736.81
451.545	696.81
451.766	721.81
451.986	705.81
452.207	704.81
452.428	726.81
452.648	707.81
452.869	694.81
453.089	692.81
453.31	723.81
453.53	698.81
453.751	689.81
453.971	690.81
454.192	679.81
454.412	665.81
454.633	699.81
454.853	684.81
455.073	674.81
455.294	733.81
455.514	696.81
455.734	692.81
455.955	707.81
456.175	710.81
456.395	683.81
456.616	675.81
456.836	705.81
457.056	712.81
457.276	699.81
457.497	699.81
457.717	696.81
457.937	700.81
458.157	694.81
458.377	696.81
458.598	730.81
458.818	731.81
459.038	723.81
459.258	764.81
459.478	777.81
459.698	820.81
459.918	829.81
460.138	848.81
460.358	834.81
460.578	844.81
460.798	884.81
461.018	882.81
461.238	850.81
461.458	827.81
461.678	840.81
461.898	854.81
462.118	868.81
462.338	870.81
462.558	894.81
462.777	916.81
462.997	956.81
463.217	964.81
463.437	970.81
463.657	963.81
463.876	937.81
464.096	928.81
464.316	889.81
464.536	896.81
464.755	900.81
464.975	851.81
465.195	840.81
465.414	835.81
465.634	795.81
465.854	810.81
466.073	763.81
466.293	762.81
466.512	764.81
466.732	752.81
466.951	772.81
467.171	745.81
467.391	740.81
467.61	742.81
467.829	776.81
468.049	770.81
468.268	737.81
468.488	740.81
468.707	759.81
468.927	734.81
469.146	718.81
469.365	733.81
469.585	748.81
469.804	743.81
470.023	757.81
470.243	743.81
470.462	755.81
470.681	755.81
470.901	744.81
471.12	770.81
471.339	761.81
471.558	754.81
471.777	734.81
471.997	738.81
472.216	731.81
472.435	739.81
472.654	737.81
472.873	742.81
473.092	750.81
473.311	728.81
473.53	735.81
473.749	763.81
473.968	711.81
474.187	743.81
474.406	714.81
474.625	770.81
474.844	756.81
475.063	769.81
475.282	756.81
475.501	741.81
475.72	791.81
475.939	766.81
476.158	758.81
476.377	780.81
476.596	772.81
476.814	773.81
477.033	786.81
477.252	753.81
477.471	802.81
477.69	827.81
477.908	809.81
478.127	830.81
478.346	814.81
478.564	843.81
478.783	838.81
479.002	835.81
479.22	874.81
479.439	896.81
479.658	859.81
479.876	870.81
480.095	873.81
480.313	894.81
480.532	882.81
480.751	851.81
480.969	852.81
481.188	840.81
481.406	859.81
481.624	854.81
481.843	835.81
482.061	835.81
482.28	858.81
482.498	836.81
482.717	856.81
482.935	866.81
483.153	873.81
483.372	890.81
483.59	881.81
483.808	899.81
484.027	859.81
484.245	859.81
484.463	852.81
484.681	878.81
484.9	862.81
485.118	867.81
485.336	866.81
485.554	866.81
485.772	878.81
485.99	871.81
486.209	863.81
486.427	867.81
486.645	851.81
486.863	878.81
487.081	896.81
487.299	885.81
487.517	866.81
487.735	866.81
487.953	891.81
488.171	869.81
488.389	885.81
488.607	881.81
488.825	892.81
489.043	844.81
489.261	881.81
489.479	870.81
489.696	870.81
489.914	870.81
490.132	886.81
490.35	914.81
490.568	887.81
490.786	908.81
491.003	903.81
491.221	939.81
491.439	915.81
491.657	910.81
491.874	910.81
492.092	912.81
492.31	908.81
492.527	943.81
492.745	946.81
492.963	938.81
493.18	948.81
493.398	922.81
493.615	932.81
493.833	937.81
494.05	955.81
494.268	912.81
494.485	946.81
494.703	922.81
494.92	935.81
495.138	948.81
495.355	950.81
495.573	937.81
495.79	952.81
496.008	969.81
496.225	962.81
496.442	980.81
496.66	1007.81
496.877	998.81
497.094	1022.81
497.312	1012.81
497.529	1043.81
497.746	1043.81
497.963	1049.81
498.181	1111.81
498.398	1111.81
498.615	1146.81
498.832	1194.81
499.049	1223.81
499.267	1228.81
499.484	1285.81
499.701	1364.81
499.918	1447.81
500.135	1489.81
500.352	1570.81
500.569	1587.81
500.786	1552.81
501.003	1563.81
501.22	1481.81
501.437	1416.81
501.654	1352.81
501.871	1287.81
502.088	1262.81
502.305	1235.81
502.522	1191.81
502.739	1171.81
502.956	1135.81
503.172	1081.81
503.389	1054.81
503.606	1041.81
503.823	1041.81
504.04	1043.81
504.256	1027.81
504.473	1026.81
504.69	979.81
504.907	967.81
505.123	964.81
505.34	944.81
505.557	919.81
505.773	922.81
505.99	916.81
506.207	881.81
506.423	873.81
506.64	874.81
506.856	835.81
507.073	856.81
507.289	850.81
507.506	856.81
507.722	835.81
507.939	822.81
508.155	839.81
508.372	824.81
508.588	832.81
508.805	793.81
509.021	822.81
509.238	810.81
509.454	822.81
509.67	780.81
509.887	769.81
510.103	750.81
510.319	778.81
510.536	786.81
510.752	764.81
510.968	764.81
511.184	767.81
511.401	772.81
511.617	760.81
511.833	768.81
512.049	792.81
512.265	759.81
512.481	771.81
512.698	771.81
512.914	767.81
513.13	750.81
513.346	768.81
513.562	767.81
513.778	767.81
513.994	766.81
514.21	765.81
514.426	771.81
514.642	769.81
514.858	778.81
515.074	770.81
515.29	770.81
515.506	787.81
515.721	796.81
515.937	777.81
516.153	800.81
516.369	814.81
516.585	822.81
516.801	820.81
517.016	811.81
517.232	856.81
517.448	851.81
517.664	854.81
517.879	840.81
518.095	863.81
518.311	853.81
518.527	828.81
518.742	829.81
518.958	809.81
519.173	803.81
519.389	791.81
519.605	799.81
519.82	794.81
520.036	783.81
520.251	744.81
520.467	750.81
520.682	765.81
520.898	739.81
521.113	737.81
521.329	724.81
521.544	730.81
521.76	746.81
521.975	725.81
522.19	711.81
522.406	706.81
522.621	719.81
522.836	692.81
523.052	710.81
523.267	710.81
523.482	675.81
523.698	705.81
523.913	694.81
524.128	696.81
524.343	692.81
524.559	707.81
524.774	694.81
524.989	697.81
525.204	688.81
525.419	711.81
525.634	709.81
525.849	683.81
526.064	696.81
526.28	696.81
526.495	672.81
526.71	672.81
526.925	651.81
527.14	664.81
527.355	683.81
527.57	662.81
527.785	686.81
527.999	657.81
528.214	676.81
528.429	681.81
528.644	670.81
528.859	663.81
529.074	673.81
529.289	666.81
529.503	692.81
529.718	699.81
529.933	698.81
530.148	659.81
530.363	672.81
530.577	638.81
530.792	630.81
531.007	662.81
531.221	658.81
531.436	660.81
531.651	673.81
531.865	658.81
532.08	656.81
532.295	635.81
532.509	635.81
532.724	645.81
532.938	647.81
533.153	655.81
533.367	671.81
533.582	660.81
533.796	658.81
534.011	649.81
534.225	651.81
534.44	637.81
534.654	646.81
534.868	653.81
535.083	644.81
535.297	644.81
535.511	641.81
535.726	635.81
535.94	636.81
536.154	619.81
536.369	619.81
536.583	603.81
536.797	625.81
537.011	615.81
537.225	622.81
537.44	626.81
537.654	642.81
537.868	603.81
538.082	606.81
538.296	612.81
538.51	597.81
538.724	607.81
538.938	608.81
539.153	611.81
539.367	602.81
539.581	635.81
539.795	618.81
540.009	615.81
540.222	596.81
540.436	607.81
540.65	605.81
540.864	614.81
541.078	631.81
541.292	604.81
541.506	597.81
541.72	620.81
541.934	618.81
542.147	632.81
542.361	608.81
542.575	599.81
542.789	604.81
543.002	614.81
543.216	619.81
543.43	630.81
543.644	572.81
543.857	607.81
544.071	596.81
544.285	612.81
544.498	602.81
544.712	617.81
544.925	605.81
545.139	604.81
545.352	613.81
545.566	627.81
545.779	614.81
545.993	628.81
546.206	624.81
546.42	634.81
546.633	621.81
546.847	614.81
547.06	626.81
547.274	631.81
547.487	599.81
547.7	642.81
547.914	626.81
548.127	592.81
548.34	626.81
548.554	596.81
548.767	601.81
548.98	599.81
549.193	607.81
549.407	604.81
549.62	595.81
549.833	599.81
550.046	603.81
550.259	624.81
550.473	603.81
550.686	603.81
550.899	609.81
551.112	594.81
551.325	576.81
551.538	596.81
551.751	601.81
551.964	611.81
552.177	597.81
552.39	593.81
552.603	613.81
552.816	585.81
553.029	623.81
553.242	621.81
553.455	611.81
553.667	616.81
553.88	614.81
554.093	593.81
554.306	613.81
554.519	577.81
554.732	562.81
554.944	576.81
555.157	586.81
555.37	562.81
555.583	577.81
555.795	554.81
556.008	549.81
556.221	533.81
556.433	548.81
556.646	566.81
556.859	553.81
557.071	524.81
557.284	546.81
557.496	518.81
557.709	521.81
557.921	543.81
558.134	534.81
558.346	512.81
558.559	528.81
558.771	534.81
558.984	520.81
559.196	534.81
559.409	513.81
559.621	525.81
559.833	500.81
560.046	527.81
560.258	512.81
560.47	525.81
560.683	525.81
560.895	512.81
561.107	520.81
561.32	535.81
561.532	512.81
561.744	530.81
561.956	496.81
562.168	521.81
562.381	507.81
562.593	516.81
562.805	518.81
563.017	501.81
563.229	527.81
563.441	522.81
563.653	529.81
563.865	524.81
564.077	507.81
564.289	522.81
564.501	539.81
564.713	543.81
564.925	549.81
565.137	536.81
565.349	533.81
565.561	539.81
565.773	583.81
565.985	579.81
566.197	573.81
566.408	603.81
566.62	607.81
566.832	610.81
567.044	607.81
567.255	618.81
567.467	622.81
567.679	628.81
567.891	645.81
568.102	638.81
568.314	619.81
568.526	588.81
568.737	581.81
568.949	562.81
569.161	546.81
569.372	546.81
569.584	526.81
569.795	521.81
570.007	491.81
570.218	490.81
570.43	499.81
570.641	492.81
570.853	483.81
571.064	483.81
571.276	493.81
571.487	499.81
571.698	472.81
571.91	479.81
572.121	471.81
572.333	435.81
572.544	454.81
572.755	455.81
572.966	435.81
573.178	432.81
573.389	427.81
573.6	447.81
573.811	431.81
574.023	438.81
574.234	416.81
574.445	426.81
574.656	422.81
574.867	408.81
575.078	427.81
575.289	397.81
575.501	411.81
575.712	430.81
575.923	418.81
576.134	428.81
576.345	402.81
576.556	425.81
576.767	409.81
576.978	394.81
577.188	403.81
577.399	395.81
577.61	390.81
577.821	402.81
578.032	396.81
578.243	385.81
578.454	409.81
578.665	380.81
578.875	376.81
579.086	363.81
579.297	383.81
579.508	402.81
579.718	386.81
579.929	355.81
580.14	363.81
580.35	358.81
580.561	377.81
580.772	363.81
580.982	388.81
581.193	357.81
581.403	352.81
581.614	356.81
581.825	356.81
582.035	355.81
582.246	355.81
582.456	359.81
582.667	349.81
582.877	354.81
583.087	351.81
583.298	351.81
583.508	355.81
583.719	370.81
583.929	327.81
584.139	351.81
584.35	339.81
584.56	336.81
584.77	343.81
584.981	339.81
585.191	344.81
585.401	351.81
585.611	353.81
585.821	347.81
586.032	366.81
586.242	345.81
586.452	347.81
586.662	335.81
586.872	346.81
587.082	345.81
587.292	352.81
587.502	354.81
587.713	343.81
587.923	338.81
588.133	344.81
588.343	326.81
588.553	340.81
588.762	354.81
588.972	353.81
589.182	374.81
589.392	362.81
589.602	344.81
589.812	376.81
590.022	365.81
590.232	323.81
590.441	343.81
590.651	351.81
590.861	333.81
591.071	345.81
591.281	338.81
591.49	343.81
591.7	329.81
591.91	358.81
592.119	322.81
592.329	342.81
592.539	344.81
592.748	361.81
592.958	335.81
593.167	336.81
593.377	337.81
593.587	361.81
593.796	356.81
594.006	344.81
594.215	358.81
594.424	368.81
594.634	361.81
594.843	353.81
595.053	358.81
595.262	347.81
595.472	323.81
595.681	317.81
595.89	324.81
596.1	314.81
596.309	320.81
596.518	303.81
596.727	316.81
596.937	303.81
597.146	303.81
597.355	318.81
597.564	320.81
597.774	302.81
597.983	311.81
598.192	288.81
598.401	288.81
598.61	310.81
598.819	293.81
599.028	297.81
599.237	296.81
599.446	306.81
599.655	303.81
599.864	261.81
600.073	295.81
600.282	289.81
600.491	308.81
600.7	280.81
600.909	297.81
601.118	289.81
601.327	279.81
601.536	310.81
601.745	278.81
601.953	277.81
602.162	289.81
602.371	267.81
602.58	278.81
602.789	286.81
602.997	266.81
603.206	279.81
603.415	321.81
603.623	277.81
603.832	274.81
604.041	286.81
604.249	297.81
604.458	283.81
604.666	271.81
604.875	277.81
605.084	269.81
605.292	281.81
605.501	263.81
605.709	261.81
605.918	260.81
606.126	262.81
606.334	257.81
606.543	281.81
606.751	260.81
606.96	270.81
607.168	280.81
607.376	268.81
607.585	273.81
607.793	266.81
608.001	256.81
608.21	274.81
608.418	268.81
608.626	277.81
608.834	270.81
609.043	255.81
609.251	257.81
609.459	272.81
609.667	273.81
609.875	272.81
610.083	249.81
610.291	257.81
610.499	250.81
610.707	259.81
610.916	258.81
611.124	258.81
611.332	256.81
611.54	268.81
611.748	240.81
611.955	247.81
612.163	248.81
612.371	248.81
612.579	268.81
612.787	254.81
612.995	253.81
613.203	244.81
613.411	256.81
613.618	255.81
613.826	235.81
614.034	242.81
614.242	238.81
614.449	264.81
614.657	261.81
614.865	256.81
615.072	244.81
615.28	241.81
615.488	260.81
615.695	235.81
615.903	249.81
616.111	256.81
616.318	261.81
616.526	268.81
616.733	266.81
616.941	258.81
617.148	242.81
617.356	245.81
617.563	243.81
617.771	236.81
617.978	226.81
618.185	235.81
618.393	214.81
618.6	235.81
618.807	233.81
619.015	258.81
619.222	244.81
619.429	230.81
619.637	237.81
619.844	240.81
620.051	228.81
620.258	242.81
620.466	225.81
620.673	221.81
620.88	223.81
621.087	230.81
621.294	235.81
621.501	230.81
621.708	235.81
621.915	217.81
622.122	225.81
622.329	237.81
622.536	228.81
622.743	233.81
622.95	207.81
623.157	215.81
623.364	235.81
623.571	234.81
623.778	227.81
623.985	219.81
624.192	222.81
624.399	220.81
624.606	244.81
624.812	233.81
625.019	228.81
625.226	220.81
625.433	206.81
625.639	218.81
625.846	230.81
626.053	209.81
626.259	209.81
626.466	219.81
626.673	238.81
626.879	213.81
627.086	222.81
627.293	218.81
627.499	216.81
627.706	208.81
627.912	214.81
628.119	207.81
628.325	202.81
628.532	220.81
628.738	218.81
628.945	210.81
629.151	223.81
629.357	212.81
629.564	202.81
629.77	218.81
629.976	217.81
630.183	221.81
630.389	211.81
630.595	180.81
630.802	200.81
631.008	203.81
631.214	200.81
631.42	202.81
631.627	203.81
631.833	199.81
632.039	201.81
632.245	204.81
632.451	203.81
632.657	187.81
632.863	192.81
633.069	211.81
633.275	195.81
633.481	194.81
633.688	203.81
633.893	205.81
634.099	195.81
634.305	194.81
634.511	190.81
634.717	185.81
634.923	192.81
635.129	182.81
635.335	206.81
635.541	194.81
635.747	193.81
635.952	192.81
636.158	184.81
636.364	182.81
636.57	184.81
636.775	194.81
636.981	191.81
637.187	171.81
637.392	182.81
637.598	213.81
637.804	200.81
638.009	195.81
638.215	191.81
638.421	163.81
638.626	181.81
638.832	193.81
639.037	191.81
639.243	205.81
639.448	190.81
639.654	196.81
639.859	178.81
640.065	198.81
640.27	188.81
640.475	176.81
640.681	189.81
640.886	176.81
641.091	191.81
641.297	174.81
641.502	182.81
641.707	196.81
641.913	187.81
642.118	181.81
642.323	180.81
642.528	193.81
642.733	187.81
642.939	180.81
643.144	197.81
643.349	181.81
643.554	191.81
643.759	191.81
643.964	183.81
644.169	167.81
644.374	176.81
644.579	192.81
644.784	182.81
644.989	187.81
645.194	176.81
645.399	177.81
645.604	171.81
645.809	188.81
646.014	171.81
646.219	179.81
646.423	186.81
646.628	178.81
646.833	195.81
647.038	179.81
647.243	173.81
647.447	182.81
647.652	155.81
647.857	188.81
648.062	182.81
648.266	186.81
648.471	187.81
648.676	192.81
648.88	170.81
649.085	170.81
649.289	184.81
649.494	184.81
649.698	198.81
649.903	176.81
650.107	187.81
650.312	198.81
650.516	177.81
650.721	180.81
650.925	178.81
651.13	190.81
651.334	169.81
651.539	163.81
651.743	167.81
651.947	184.81
652.152	165.81
652.356	156.81
652.56	138.81
652.764	154.81
652.969	134.81
653.173	147.81
653.377	151.81
653.581	157.81
653.785	155.81
653.99	141.81
654.194	124.81
654.398	146.81
654.602	144.81
654.806	154.81
655.01	166.81
655.214	137.81
655.418	146.81
655.622	140.81
655.826	151.81
656.03	148.81
656.234	161.81
656.438	155.81
656.642	143.81
656.846	151.81
657.049	147.81
657.253	152.81
657.457	141.81
657.661	124.81
657.865	136.81
658.068	128.81
658.272	122.81
658.476	118.81
658.68	116.81
658.883	121.81
659.087	114.81
659.291	120.81
659.494	114.81
659.698	103.81
659.901	87.81
660.105	97.81
660.309	84.81
660.512	86.81
660.716	110.81
660.919	94.81
661.123	100.81
661.326	97.81
661.53	89.81
661.733	98.81
661.936	79.81
662.14	87.81
662.343	93.81
662.546	81.81
662.75	83.81
662.953	88.81
663.156	88.81
663.36	80.81
663.563	83.81
663.766	88.81
663.969	90.81
664.173	77.81
664.376	77.81
664.579	77.81
664.782	80.81
664.985	76.81
665.188	59.81
665.391	62.81
665.594	82.81
665.797	77.81
666	66.81
666.203	74.81
666.406	79.81
666.609	62.81
666.812	77.81
667.015	85.81
667.218	89.81
667.421	83.81
667.624	74.81
667.827	84.81
668.03	81.81
668.232	84.81
668.435	68.81
668.638	81.81
668.841	77.81
669.043	84.81
669.246	76.81
669.449	78.81
669.651	71.81
669.854	72.81
670.057	82.81
670.259	74.81
670.462	68.81
670.665	72.81
670.867	73.81
671.07	71.81
671.272	74.81
671.475	71.81
671.677	83.81
671.88	82.81
672.082	76.81
672.284	68.81
672.487	74.81
672.689	97.81
672.892	81.81
