Data from Ni(NO3)2@0.25M.TitratingCurve.Agarose3%dH2O.NegLispCup.LampEnergy10.LIBS07252019_HRD10591_18-03-00-565.txt Node
Date: Thu Jul 25 18:03:00 EDT 2019
User: cochatt
Spectrometer: HR+D1059
Trigger mode: 1
Integration Time (sec): 1.000000E-1
Scans to average: 1
Electric dark correction enabled: true
Nonlinearity correction enabled: false
Boxcar width: 0
XAxis mode: Wavelengths
Number of Pixels in Spectrum: 2048
>>>>>Begin Spectral Data<<<<<
223.165	-9.44
223.4	-9.44
223.635	-9.44
223.869	-22.44
224.104	-12.44
224.338	-30.44
224.573	-10.44
224.808	-16.44
225.042	-0.44
225.277	-1.44
225.511	-5.44
225.746	-5.44
225.98	9.56
226.215	15.56
226.449	13.56
226.683	22.56
226.918	21.56
227.152	31.56
227.387	37.56
227.621	39.56
227.856	54.56
228.09	45.56
228.324	44.56
228.559	56.56
228.793	73.56
229.027	83.56
229.262	103.56
229.496	109.56
229.73	110.56
229.964	114.56
230.199	127.56
230.433	121.56
230.667	122.56
230.901	120.56
231.136	139.56
231.37	124.56
231.604	147.56
231.838	149.56
232.072	128.56
232.306	141.56
232.541	125.56
232.775	134.56
233.009	131.56
233.243	123.56
233.477	135.56
233.711	140.56
233.945	133.56
234.179	137.56
234.413	154.56
234.647	141.56
234.881	140.56
235.115	148.56
235.349	131.56
235.583	147.56
235.817	139.56
236.051	157.56
236.285	148.56
236.519	133.56
236.753	138.56
236.987	138.56
237.221	160.56
237.455	141.56
237.689	152.56
237.922	140.56
238.156	152.56
238.39	144.56
238.624	156.56
238.858	161.56
239.091	153.56
239.325	159.56
239.559	165.56
239.793	170.56
240.027	158.56
240.26	161.56
240.494	166.56
240.728	157.56
240.961	156.56
241.195	148.56
241.429	167.56
241.662	165.56
241.896	181.56
242.13	178.56
242.363	177.56
242.597	172.56
242.83	165.56
243.064	170.56
243.298	180.56
243.531	180.56
243.765	181.56
243.998	185.56
244.232	182.56
244.465	190.56
244.699	208.56
244.932	189.56
245.166	187.56
245.399	199.56
245.633	201.56
245.866	203.56
246.099	188.56
246.333	201.56
246.566	185.56
246.8	212.56
247.033	205.56
247.266	218.56
247.5	201.56
247.733	222.56
247.966	215.56
248.2	217.56
248.433	231.56
248.666	226.56
248.899	225.56
249.133	220.56
249.366	223.56
249.599	222.56
249.832	241.56
250.066	238.56
250.299	238.56
250.532	227.56
250.765	229.56
250.998	247.56
251.231	212.56
251.465	248.56
251.698	259.56
251.931	256.56
252.164	262.56
252.397	239.56
252.63	257.56
252.863	271.56
253.096	258.56
253.329	259.56
253.562	249.56
253.795	263.56
254.028	285.56
254.261	285.56
254.494	275.56
254.727	281.56
254.96	278.56
255.193	293.56
255.426	282.56
255.659	313.56
255.892	295.56
256.124	288.56
256.357	290.56
256.59	317.56
256.823	321.56
257.056	305.56
257.289	295.56
257.521	313.56
257.754	319.56
257.987	325.56
258.22	330.56
258.452	329.56
258.685	322.56
258.918	326.56
259.151	327.56
259.383	330.56
259.616	335.56
259.849	335.56
260.081	332.56
260.314	351.56
260.547	366.56
260.779	349.56
261.012	335.56
261.244	357.56
261.477	369.56
261.71	377.56
261.942	362.56
262.175	357.56
262.407	362.56
262.64	344.56
262.872	353.56
263.105	349.56
263.337	345.56
263.57	365.56
263.802	378.56
264.035	351.56
264.267	393.56
264.499	380.56
264.732	366.56
264.964	383.56
265.197	381.56
265.429	386.56
265.661	367.56
265.894	377.56
266.126	366.56
266.358	401.56
266.591	395.56
266.823	382.56
267.055	387.56
267.287	400.56
267.52	394.56
267.752	363.56
267.984	401.56
268.216	396.56
268.448	405.56
268.681	405.56
268.913	408.56
269.145	415.56
269.377	413.56
269.609	422.56
269.841	389.56
270.073	395.56
270.306	423.56
270.538	411.56
270.77	404.56
271.002	391.56
271.234	414.56
271.466	417.56
271.698	428.56
271.93	419.56
272.162	422.56
272.394	423.56
272.626	397.56
272.858	421.56
273.09	431.56
273.322	422.56
273.553	438.56
273.785	446.56
274.017	413.56
274.249	428.56
274.481	433.56
274.713	433.56
274.945	425.56
275.176	442.56
275.408	434.56
275.64	448.56
275.872	435.56
276.104	443.56
276.335	426.56
276.567	447.56
276.799	437.56
277.031	436.56
277.262	469.56
277.494	451.56
277.726	442.56
277.957	466.56
278.189	457.56
278.421	463.56
278.652	462.56
278.884	463.56
279.115	463.56
279.347	458.56
279.579	468.56
279.81	464.56
280.042	455.56
280.273	445.56
280.505	461.56
280.736	446.56
280.968	477.56
281.199	463.56
281.431	467.56
281.662	492.56
281.894	467.56
282.125	462.56
282.356	482.56
282.588	469.56
282.819	488.56
283.051	473.56
283.282	482.56
283.513	475.56
283.745	478.56
283.976	480.56
284.207	481.56
284.439	461.56
284.67	492.56
284.901	473.56
285.132	484.56
285.364	485.56
285.595	490.56
285.826	478.56
286.057	501.56
286.288	505.56
286.52	502.56
286.751	492.56
286.982	494.56
287.213	487.56
287.444	508.56
287.675	522.56
287.906	497.56
288.138	515.56
288.369	511.56
288.6	503.56
288.831	487.56
289.062	509.56
289.293	517.56
289.524	528.56
289.755	508.56
289.986	519.56
290.217	490.56
290.448	517.56
290.679	523.56
290.91	524.56
291.141	517.56
291.371	514.56
291.602	517.56
291.833	515.56
292.064	518.56
292.295	509.56
292.526	503.56
292.757	504.56
292.987	519.56
293.218	522.56
293.449	539.56
293.68	527.56
293.91	504.56
294.141	519.56
294.372	509.56
294.603	524.56
294.833	520.56
295.064	536.56
295.295	511.56
295.525	517.56
295.756	532.56
295.987	532.56
296.217	534.56
296.448	501.56
296.679	545.56
296.909	536.56
297.14	542.56
297.37	561.56
297.601	550.56
297.831	563.56
298.062	565.56
298.292	579.56
298.523	557.56
298.753	547.56
298.984	581.56
299.214	558.56
299.445	561.56
299.675	582.56
299.905	568.56
300.136	561.56
300.366	582.56
300.597	581.56
300.827	578.56
301.057	567.56
301.288	578.56
301.518	568.56
301.748	596.56
301.979	596.56
302.209	619.56
302.439	591.56
302.669	568.56
302.9	588.56
303.13	574.56
303.36	584.56
303.59	593.56
303.82	611.56
304.051	613.56
304.281	586.56
304.511	596.56
304.741	592.56
304.971	581.56
305.201	606.56
305.431	611.56
305.661	620.56
305.891	636.56
306.121	597.56
306.352	581.56
306.582	566.56
306.812	570.56
307.042	582.56
307.272	605.56
307.502	590.56
307.731	612.56
307.961	596.56
308.191	602.56
308.421	599.56
308.651	605.56
308.881	611.56
309.111	618.56
309.341	583.56
309.571	597.56
309.8	617.56
310.03	630.56
310.26	618.56
310.49	618.56
310.72	622.56
310.949	620.56
311.179	615.56
311.409	612.56
311.639	621.56
311.868	641.56
312.098	630.56
312.328	647.56
312.557	643.56
312.787	620.56
313.017	634.56
313.246	678.56
313.476	673.56
313.706	678.56
313.935	670.56
314.165	675.56
314.394	659.56
314.624	666.56
314.853	688.56
315.083	677.56
315.312	676.56
315.542	667.56
315.771	674.56
316.001	646.56
316.23	684.56
316.46	667.56
316.689	694.56
316.919	699.56
317.148	682.56
317.377	711.56
317.607	691.56
317.836	698.56
318.065	682.56
318.295	686.56
318.524	717.56
318.753	715.56
318.983	687.56
319.212	716.56
319.441	701.56
319.67	701.56
319.9	697.56
320.129	753.56
320.358	723.56
320.587	705.56
320.816	745.56
321.046	756.56
321.275	735.56
321.504	748.56
321.733	737.56
321.962	769.56
322.191	760.56
322.42	756.56
322.649	751.56
322.878	775.56
323.108	751.56
323.337	769.56
323.566	777.56
323.795	772.56
324.024	776.56
324.253	792.56
324.482	789.56
324.71	795.56
324.939	808.56
325.168	808.56
325.397	817.56
325.626	813.56
325.855	824.56
326.084	795.56
326.313	821.56
326.542	853.56
326.77	865.56
326.999	860.56
327.228	843.56
327.457	839.56
327.686	850.56
327.914	870.56
328.143	869.56
328.372	835.56
328.6	854.56
328.829	853.56
329.058	866.56
329.287	857.56
329.515	867.56
329.744	878.56
329.972	888.56
330.201	889.56
330.43	877.56
330.658	899.56
330.887	903.56
331.115	867.56
331.344	905.56
331.572	886.56
331.801	943.56
332.03	946.56
332.258	925.56
332.486	950.56
332.715	986.56
332.943	991.56
333.172	1004.56
333.4	1015.56
333.629	1029.56
333.857	1047.56
334.085	1053.56
334.314	1050.56
334.542	1069.56
334.771	1068.56
334.999	1043.56
335.227	1103.56
335.455	1070.56
335.684	1053.56
335.912	1062.56
336.14	1045.56
336.369	1078.56
336.597	1063.56
336.825	1053.56
337.053	1077.56
337.281	1043.56
337.51	1030.56
337.738	1013.56
337.966	1035.56
338.194	1010.56
338.422	996.56
338.65	999.56
338.878	996.56
339.106	1014.56
339.334	1011.56
339.562	1003.56
339.79	986.56
340.018	975.56
340.246	958.56
340.474	978.56
340.702	988.56
340.93	969.56
341.158	944.56
341.386	980.56
341.614	1006.56
341.842	995.56
342.07	967.56
342.298	967.56
342.526	988.56
342.754	966.56
342.981	994.56
343.209	970.56
343.437	999.56
343.665	1038.56
343.893	1069.56
344.12	1065.56
344.348	1087.56
344.576	1070.56
344.804	1043.56
345.031	1033.56
345.259	1043.56
345.487	1001.56
345.714	973.56
345.942	1002.56
346.17	1009.56
346.397	975.56
346.625	945.56
346.853	953.56
347.08	932.56
347.308	957.56
347.535	938.56
347.763	965.56
347.99	943.56
348.218	913.56
348.445	945.56
348.673	969.56
348.9	942.56
349.128	919.56
349.355	925.56
349.583	941.56
349.81	925.56
350.037	921.56
350.265	899.56
350.492	891.56
350.72	929.56
350.947	893.56
351.174	925.56
351.402	948.56
351.629	930.56
351.856	913.56
352.083	947.56
352.311	917.56
352.538	937.56
352.765	939.56
352.992	892.56
353.22	895.56
353.447	887.56
353.674	890.56
353.901	896.56
354.128	881.56
354.355	884.56
354.583	909.56
354.81	885.56
355.037	883.56
355.264	926.56
355.491	901.56
355.718	873.56
355.945	911.56
356.172	924.56
356.399	918.56
356.626	918.56
356.853	928.56
357.08	895.56
357.307	923.56
357.534	932.56
357.761	913.56
357.988	906.56
358.215	897.56
358.441	906.56
358.668	889.56
358.895	909.56
359.122	914.56
359.349	873.56
359.576	887.56
359.802	911.56
360.029	856.56
360.256	888.56
360.483	886.56
360.709	935.56
360.936	872.56
361.163	889.56
361.39	911.56
361.616	899.56
361.843	909.56
362.07	923.56
362.296	931.56
362.523	920.56
362.749	918.56
362.976	894.56
363.203	921.56
363.429	899.56
363.656	903.56
363.882	895.56
364.109	901.56
364.335	877.56
364.562	893.56
364.788	887.56
365.015	908.56
365.241	891.56
365.468	883.56
365.694	890.56
365.92	886.56
366.147	907.56
366.373	905.56
366.599	868.56
366.826	909.56
367.052	890.56
367.278	891.56
367.505	901.56
367.731	906.56
367.957	911.56
368.184	897.56
368.41	901.56
368.636	919.56
368.862	919.56
369.089	910.56
369.315	907.56
369.541	924.56
369.767	929.56
369.993	919.56
370.219	917.56
370.445	905.56
370.672	927.56
370.898	926.56
371.124	925.56
371.35	921.56
371.576	940.56
371.802	943.56
372.028	948.56
372.254	961.56
372.48	940.56
372.706	977.56
372.932	957.56
373.158	951.56
373.384	941.56
373.61	963.56
373.835	954.56
374.061	937.56
374.287	920.56
374.513	932.56
374.739	978.56
374.965	960.56
375.191	974.56
375.416	990.56
375.642	926.56
375.868	961.56
376.094	974.56
376.319	930.56
376.545	910.56
376.771	929.56
376.997	919.56
377.222	911.56
377.448	934.56
377.674	932.56
377.899	901.56
378.125	913.56
378.35	885.56
378.576	915.56
378.802	904.56
379.027	895.56
379.253	908.56
379.478	876.56
379.704	901.56
379.929	907.56
380.155	889.56
380.38	897.56
380.606	897.56
380.831	908.56
381.057	940.56
381.282	921.56
381.507	918.56
381.733	931.56
381.958	888.56
382.184	907.56
382.409	935.56
382.634	949.56
382.86	950.56
383.085	939.56
383.31	944.56
383.535	953.56
383.761	945.56
383.986	951.56
384.211	958.56
384.436	962.56
384.662	1001.56
384.887	1012.56
385.112	987.56
385.337	972.56
385.562	1001.56
385.787	1032.56
386.013	1002.56
386.238	1029.56
386.463	1040.56
386.688	1016.56
386.913	1046.56
387.138	1007.56
387.363	1056.56
387.588	1021.56
387.813	1007.56
388.038	994.56
388.263	1028.56
388.488	1033.56
388.713	1043.56
388.938	1022.56
389.163	1040.56
389.387	1023.56
389.612	1034.56
389.837	1021.56
390.062	1033.56
390.287	1031.56
390.512	1069.56
390.736	1047.56
390.961	1020.56
391.186	1091.56
391.411	1083.56
391.636	1082.56
391.86	1090.56
392.085	1110.56
392.31	1105.56
392.534	1075.56
392.759	1098.56
392.984	1105.56
393.208	1094.56
393.433	1068.56
393.658	1090.56
393.882	1070.56
394.107	1067.56
394.331	1093.56
394.556	1083.56
394.78	1113.56
395.005	1090.56
395.229	1109.56
395.454	1105.56
395.678	1125.56
395.903	1132.56
396.127	1114.56
396.352	1110.56
396.576	1128.56
396.801	1120.56
397.025	1132.56
397.249	1147.56
397.474	1151.56
397.698	1158.56
397.922	1162.56
398.147	1185.56
398.371	1209.56
398.595	1228.56
398.82	1243.56
399.044	1271.56
399.268	1389.56
399.492	1433.56
399.717	1482.56
399.941	1503.56
400.165	1433.56
400.389	1388.56
400.613	1372.56
400.837	1324.56
401.062	1313.56
401.286	1277.56
401.51	1302.56
401.734	1267.56
401.958	1256.56
402.182	1269.56
402.406	1222.56
402.63	1271.56
402.854	1280.56
403.078	1263.56
403.302	1270.56
403.526	1273.56
403.75	1274.56
403.974	1307.56
404.198	1291.56
404.422	1298.56
404.645	1309.56
404.869	1289.56
405.093	1325.56
405.317	1310.56
405.541	1325.56
405.765	1326.56
405.988	1330.56
406.212	1357.56
406.436	1353.56
406.66	1366.56
406.883	1373.56
407.107	1398.56
407.331	1469.56
407.555	1491.56
407.778	1445.56
408.002	1454.56
408.226	1444.56
408.449	1457.56
408.673	1388.56
408.896	1388.56
409.12	1363.56
409.344	1373.56
409.567	1344.56
409.791	1399.56
410.014	1363.56
410.238	1310.56
410.461	1361.56
410.685	1349.56
410.908	1349.56
411.132	1339.56
411.355	1303.56
411.578	1306.56
411.802	1296.56
412.025	1330.56
412.249	1324.56
412.472	1318.56
412.695	1341.56
412.919	1301.56
413.142	1289.56
413.365	1279.56
413.589	1296.56
413.812	1291.56
414.035	1284.56
414.258	1305.56
414.482	1285.56
414.705	1306.56
414.928	1329.56
415.151	1272.56
415.374	1252.56
415.597	1281.56
415.821	1282.56
416.044	1252.56
416.267	1252.56
416.49	1233.56
416.713	1235.56
416.936	1238.56
417.159	1232.56
417.382	1247.56
417.605	1251.56
417.828	1230.56
418.051	1249.56
418.274	1249.56
418.497	1251.56
418.72	1285.56
418.943	1267.56
419.166	1337.56
419.389	1422.56
419.611	1386.56
419.834	1324.56
420.057	1301.56
420.28	1295.56
420.503	1269.56
420.726	1273.56
420.948	1282.56
421.171	1257.56
421.394	1276.56
421.617	1254.56
421.839	1266.56
422.062	1271.56
422.285	1241.56
422.507	1247.56
422.73	1267.56
422.953	1232.56
423.175	1295.56
423.398	1316.56
423.621	1281.56
423.843	1269.56
424.066	1290.56
424.288	1289.56
424.511	1310.56
424.733	1291.56
424.956	1306.56
425.178	1283.56
425.401	1281.56
425.623	1281.56
425.846	1249.56
426.068	1251.56
426.291	1261.56
426.513	1259.56
426.735	1281.56
426.958	1268.56
427.18	1235.56
427.402	1214.56
427.625	1223.56
427.847	1215.56
428.069	1230.56
428.292	1235.56
428.514	1199.56
428.736	1237.56
428.958	1251.56
429.181	1227.56
429.403	1183.56
429.625	1222.56
429.847	1228.56
430.069	1195.56
430.292	1203.56
430.514	1214.56
430.736	1208.56
430.958	1235.56
431.18	1206.56
431.402	1222.56
431.624	1195.56
431.846	1227.56
432.068	1210.56
432.29	1261.56
432.512	1194.56
432.734	1236.56
432.956	1223.56
433.178	1223.56
433.4	1229.56
433.622	1223.56
433.844	1265.56
434.066	1212.56
434.287	1243.56
434.509	1252.56
434.731	1295.56
434.953	1258.56
435.175	1301.56
435.397	1278.56
435.618	1225.56
435.84	1257.56
436.062	1237.56
436.284	1234.56
436.505	1277.56
436.727	1252.56
436.949	1234.56
437.17	1227.56
437.392	1218.56
437.614	1213.56
437.835	1187.56
438.057	1172.56
438.278	1185.56
438.5	1196.56
438.721	1172.56
438.943	1205.56
439.165	1220.56
439.386	1215.56
439.608	1239.56
439.829	1212.56
440.05	1217.56
440.272	1241.56
440.493	1224.56
440.715	1249.56
440.936	1226.56
441.158	1249.56
441.379	1275.56
441.6	1302.56
441.822	1293.56
442.043	1290.56
442.264	1276.56
442.486	1269.56
442.707	1331.56
442.928	1301.56
443.149	1319.56
443.371	1305.56
443.592	1269.56
443.813	1279.56
444.034	1307.56
444.255	1344.56
444.476	1388.56
444.698	1401.56
444.919	1395.56
445.14	1500.56
445.361	1383.56
445.582	1333.56
445.803	1331.56
446.024	1317.56
446.245	1295.56
446.466	1272.56
446.687	1241.56
446.908	1244.56
447.129	1227.56
447.35	1222.56
447.571	1186.56
447.792	1175.56
448.013	1171.56
448.234	1166.56
448.455	1146.56
448.675	1164.56
448.896	1186.56
449.117	1122.56
449.338	1153.56
449.559	1126.56
449.779	1123.56
450	1149.56
450.221	1131.56
450.442	1149.56
450.662	1145.56
450.883	1141.56
451.104	1150.56
451.324	1146.56
451.545	1142.56
451.766	1094.56
451.986	1138.56
452.207	1127.56
452.428	1114.56
452.648	1149.56
452.869	1091.56
453.089	1075.56
453.31	1116.56
453.53	1100.56
453.751	1081.56
453.971	1084.56
454.192	1070.56
454.412	1085.56
454.633	1100.56
454.853	1082.56
455.073	1060.56
455.294	1087.56
455.514	1039.56
455.734	1115.56
455.955	1075.56
456.175	1071.56
456.395	1048.56
456.616	1058.56
456.836	1071.56
457.056	1074.56
457.276	1077.56
457.497	1107.56
457.717	1096.56
457.937	1091.56
458.157	1117.56
458.377	1121.56
458.598	1125.56
458.818	1125.56
459.038	1154.56
459.258	1170.56
459.478	1206.56
459.698	1231.56
459.918	1257.56
460.138	1266.56
460.358	1351.56
460.578	1319.56
460.798	1329.56
461.018	1336.56
461.238	1365.56
461.458	1333.56
461.678	1317.56
461.898	1355.56
462.118	1366.56
462.338	1388.56
462.558	1430.56
462.777	1487.56
462.997	1496.56
463.217	1513.56
463.437	1574.56
463.657	1480.56
463.876	1498.56
464.096	1488.56
464.316	1467.56
464.536	1446.56
464.755	1421.56
464.975	1419.56
465.195	1381.56
465.414	1323.56
465.634	1269.56
465.854	1257.56
466.073	1289.56
466.293	1205.56
466.512	1204.56
466.732	1201.56
466.951	1205.56
467.171	1180.56
467.391	1188.56
467.61	1183.56
467.829	1195.56
468.049	1174.56
468.268	1185.56
468.488	1148.56
468.707	1130.56
468.927	1173.56
469.146	1181.56
469.365	1201.56
469.585	1157.56
469.804	1197.56
470.023	1192.56
470.243	1215.56
470.462	1188.56
470.681	1196.56
470.901	1181.56
471.12	1229.56
471.339	1182.56
471.558	1205.56
471.777	1199.56
471.997	1169.56
472.216	1161.56
472.435	1169.56
472.654	1177.56
472.873	1158.56
473.092	1183.56
473.311	1147.56
473.53	1150.56
473.749	1186.56
473.968	1159.56
474.187	1198.56
474.406	1151.56
474.625	1157.56
474.844	1190.56
475.063	1172.56
475.282	1161.56
475.501	1195.56
475.72	1191.56
475.939	1176.56
476.158	1226.56
476.377	1239.56
476.596	1209.56
476.814	1246.56
477.033	1216.56
477.252	1248.56
477.471	1239.56
477.69	1290.56
477.908	1313.56
478.127	1347.56
478.346	1315.56
478.564	1391.56
478.783	1347.56
479.002	1352.56
479.22	1393.56
479.439	1415.56
479.658	1371.56
479.876	1386.56
480.095	1396.56
480.313	1400.56
480.532	1437.56
480.751	1409.56
480.969	1422.56
481.188	1371.56
481.406	1340.56
481.624	1342.56
481.843	1324.56
482.061	1364.56
482.28	1333.56
482.498	1314.56
482.717	1308.56
482.935	1356.56
483.153	1332.56
483.372	1364.56
483.59	1371.56
483.808	1366.56
484.027	1331.56
484.245	1337.56
484.463	1343.56
484.681	1376.56
484.9	1364.56
485.118	1357.56
485.336	1369.56
485.554	1383.56
485.772	1350.56
485.99	1365.56
486.209	1379.56
486.427	1363.56
486.645	1383.56
486.863	1396.56
487.081	1403.56
487.299	1401.56
487.517	1387.56
487.735	1430.56
487.953	1423.56
488.171	1424.56
488.389	1457.56
488.607	1382.56
488.825	1377.56
489.043	1376.56
489.261	1417.56
489.479	1395.56
489.696	1406.56
489.914	1386.56
490.132	1404.56
490.35	1397.56
490.568	1427.56
490.786	1445.56
491.003	1451.56
491.221	1442.56
491.439	1430.56
491.657	1477.56
491.874	1406.56
492.092	1449.56
492.31	1489.56
492.527	1478.56
492.745	1459.56
492.963	1478.56
493.18	1490.56
493.398	1481.56
493.615	1488.56
493.833	1512.56
494.05	1474.56
494.268	1505.56
494.485	1490.56
494.703	1510.56
494.92	1534.56
495.138	1549.56
495.355	1542.56
495.573	1546.56
495.79	1554.56
496.008	1564.56
496.225	1609.56
496.442	1587.56
496.66	1608.56
496.877	1626.56
497.094	1643.56
497.312	1642.56
497.529	1694.56
497.746	1707.56
497.963	1769.56
498.181	1799.56
498.398	1813.56
498.615	1932.56
498.832	2011.56
499.049	2073.56
499.267	2187.56
499.484	2245.56
499.701	2385.56
499.918	2476.56
500.135	2625.56
500.352	2785.56
500.569	2794.56
500.786	2819.56
501.003	2699.56
501.22	2653.56
501.437	2494.56
501.654	2349.56
501.871	2235.56
502.088	2139.56
502.305	2028.56
502.522	2015.56
502.739	1965.56
502.956	1826.56
503.172	1813.56
503.389	1729.56
503.606	1717.56
503.823	1680.56
504.04	1691.56
504.256	1653.56
504.473	1635.56
504.69	1633.56
504.907	1599.56
505.123	1604.56
505.34	1543.56
505.557	1534.56
505.773	1485.56
505.99	1449.56
506.207	1398.56
506.423	1401.56
506.64	1397.56
506.856	1394.56
507.073	1382.56
507.289	1365.56
507.506	1357.56
507.722	1321.56
507.939	1342.56
508.155	1319.56
508.372	1312.56
508.588	1307.56
508.805	1257.56
509.021	1253.56
509.238	1290.56
509.454	1262.56
509.67	1254.56
509.887	1225.56
510.103	1252.56
510.319	1222.56
510.536	1231.56
510.752	1214.56
510.968	1229.56
511.184	1203.56
511.401	1229.56
511.617	1230.56
511.833	1188.56
512.049	1209.56
512.265	1211.56
512.481	1188.56
512.698	1197.56
512.914	1209.56
513.13	1209.56
513.346	1190.56
513.562	1185.56
513.778	1209.56
513.994	1242.56
514.21	1213.56
514.426	1246.56
514.642	1220.56
514.858	1222.56
515.074	1219.56
515.29	1259.56
515.506	1222.56
515.721	1245.56
515.937	1274.56
516.153	1258.56
516.369	1291.56
516.585	1337.56
516.801	1364.56
517.016	1353.56
517.232	1400.56
517.448	1409.56
517.664	1386.56
517.879	1395.56
518.095	1407.56
518.311	1387.56
518.527	1352.56
518.742	1334.56
518.958	1346.56
519.173	1351.56
519.389	1326.56
519.605	1302.56
519.82	1252.56
520.036	1238.56
520.251	1228.56
520.467	1207.56
520.682	1215.56
520.898	1175.56
521.113	1169.56
521.329	1204.56
521.544	1148.56
521.76	1172.56
521.975	1143.56
522.19	1147.56
522.406	1151.56
522.621	1159.56
522.836	1171.56
523.052	1160.56
523.267	1130.56
523.482	1137.56
523.698	1131.56
523.913	1111.56
524.128	1125.56
524.343	1141.56
524.559	1124.56
524.774	1132.56
524.989	1155.56
525.204	1117.56
525.419	1127.56
525.634	1103.56
525.849	1078.56
526.064	1093.56
526.28	1057.56
526.495	1084.56
526.71	1068.56
526.925	1093.56
527.14	1066.56
527.355	1045.56
527.57	1077.56
527.785	1091.56
527.999	1079.56
528.214	1094.56
528.429	1071.56
528.644	1116.56
528.859	1083.56
529.074	1054.56
529.289	1099.56
529.503	1095.56
529.718	1076.56
529.933	1066.56
530.148	1063.56
530.363	1088.56
530.577	1058.56
530.792	1038.56
531.007	1046.56
531.221	1049.56
531.436	1046.56
531.651	1047.56
531.865	1078.56
532.08	1011.56
532.295	1029.56
532.509	1045.56
532.724	1048.56
532.938	1055.56
533.153	1045.56
533.367	1048.56
533.582	1048.56
533.796	1097.56
534.011	1040.56
534.225	1064.56
534.44	1014.56
534.654	1017.56
534.868	1037.56
535.083	1037.56
535.297	1012.56
535.511	1019.56
535.726	1012.56
535.94	988.56
536.154	1001.56
536.369	989.56
536.583	973.56
536.797	992.56
537.011	988.56
537.225	980.56
537.44	959.56
537.654	952.56
537.868	993.56
538.082	971.56
538.296	975.56
538.51	946.56
538.724	969.56
538.938	991.56
539.153	994.56
539.367	975.56
539.581	929.56
539.795	961.56
540.009	941.56
540.222	945.56
540.436	981.56
540.65	946.56
540.864	961.56
541.078	985.56
541.292	965.56
541.506	947.56
541.72	995.56
541.934	977.56
542.147	1029.56
542.361	971.56
542.575	965.56
542.789	969.56
543.002	965.56
543.216	946.56
543.43	957.56
543.644	950.56
543.857	951.56
544.071	945.56
544.285	986.56
544.498	939.56
544.712	978.56
544.925	978.56
545.139	974.56
545.352	981.56
545.566	978.56
545.779	978.56
545.993	983.56
546.206	1003.56
546.42	999.56
546.633	962.56
546.847	975.56
547.06	960.56
547.274	954.56
547.487	986.56
547.7	971.56
547.914	988.56
548.127	989.56
548.34	979.56
548.554	973.56
548.767	979.56
548.98	977.56
549.193	967.56
549.407	961.56
549.62	966.56
549.833	942.56
550.046	972.56
550.259	960.56
550.473	951.56
550.686	967.56
550.899	975.56
551.112	981.56
551.325	963.56
551.538	926.56
551.751	963.56
551.964	966.56
552.177	931.56
552.39	956.56
552.603	968.56
552.816	1003.56
553.029	1005.56
553.242	1012.56
553.455	1007.56
553.667	1006.56
553.88	987.56
554.093	964.56
554.306	963.56
554.519	938.56
554.732	950.56
554.944	912.56
555.157	938.56
555.37	897.56
555.583	876.56
555.795	893.56
556.008	885.56
556.221	842.56
556.433	849.56
556.646	827.56
556.859	847.56
557.071	832.56
557.284	853.56
557.496	870.56
557.709	840.56
557.921	838.56
558.134	850.56
558.346	827.56
558.559	818.56
558.771	822.56
558.984	825.56
559.196	848.56
559.409	829.56
559.621	810.56
559.833	823.56
560.046	806.56
560.258	806.56
560.47	796.56
560.683	801.56
560.895	801.56
561.107	806.56
561.32	811.56
561.532	799.56
561.744	800.56
561.956	805.56
562.168	808.56
562.381	807.56
562.593	788.56
562.805	814.56
563.017	821.56
563.229	796.56
563.441	833.56
563.653	833.56
563.865	812.56
564.077	844.56
564.289	853.56
564.501	839.56
564.713	841.56
564.925	858.56
565.137	877.56
565.349	877.56
565.561	893.56
565.773	901.56
565.985	911.56
566.197	951.56
566.408	990.56
566.62	1006.56
566.832	1040.56
567.044	1051.56
567.255	1054.56
567.467	1055.56
567.679	1080.56
567.891	1072.56
568.102	1077.56
568.314	1021.56
568.526	1006.56
568.737	947.56
568.949	904.56
569.161	878.56
569.372	862.56
569.584	812.56
569.795	808.56
570.007	795.56
570.218	812.56
570.43	776.56
570.641	765.56
570.853	777.56
571.064	801.56
571.276	773.56
571.487	737.56
571.698	759.56
571.91	738.56
572.121	703.56
572.333	716.56
572.544	690.56
572.755	678.56
572.966	697.56
573.178	683.56
573.389	651.56
573.6	614.56
573.811	676.56
574.023	656.56
574.234	640.56
574.445	659.56
574.656	621.56
574.867	641.56
575.078	630.56
575.289	633.56
575.501	630.56
575.712	623.56
575.923	627.56
576.134	610.56
576.345	629.56
576.556	597.56
576.767	598.56
576.978	597.56
577.188	621.56
577.399	588.56
577.61	619.56
577.821	595.56
578.032	586.56
578.243	575.56
578.454	599.56
578.665	579.56
578.875	552.56
579.086	584.56
579.297	556.56
579.508	556.56
579.718	565.56
579.929	573.56
580.14	571.56
580.35	570.56
580.561	572.56
580.772	557.56
580.982	551.56
581.193	533.56
581.403	535.56
581.614	535.56
581.825	538.56
582.035	537.56
582.246	550.56
582.456	544.56
582.667	533.56
582.877	543.56
583.087	539.56
583.298	521.56
583.508	523.56
583.719	512.56
583.929	539.56
584.139	535.56
584.35	523.56
584.56	519.56
584.77	518.56
584.981	527.56
585.191	522.56
585.401	493.56
585.611	503.56
585.821	521.56
586.032	522.56
586.242	501.56
586.452	533.56
586.662	531.56
586.872	503.56
587.082	519.56
587.292	508.56
587.502	517.56
587.713	523.56
587.923	484.56
588.133	486.56
588.343	520.56
588.553	511.56
588.762	487.56
588.972	519.56
589.182	557.56
589.392	515.56
589.602	503.56
589.812	522.56
590.022	519.56
590.232	484.56
590.441	521.56
590.651	503.56
590.861	522.56
591.071	493.56
591.281	531.56
591.49	509.56
591.7	551.56
591.91	527.56
592.119	535.56
592.329	533.56
592.539	519.56
592.748	533.56
592.958	548.56
593.167	544.56
593.377	549.56
593.587	556.56
593.796	557.56
594.006	551.56
594.215	534.56
594.424	527.56
594.634	552.56
594.843	539.56
595.053	535.56
595.262	514.56
595.472	527.56
595.681	506.56
595.89	486.56
596.1	477.56
596.309	463.56
596.518	474.56
596.727	468.56
596.937	475.56
597.146	463.56
597.355	470.56
597.564	465.56
597.774	448.56
597.983	447.56
598.192	426.56
598.401	445.56
598.61	438.56
598.819	462.56
599.028	433.56
599.237	435.56
599.446	422.56
599.655	423.56
599.864	440.56
600.073	447.56
600.282	401.56
600.491	416.56
600.7	417.56
600.909	431.56
601.118	412.56
601.327	422.56
601.536	403.56
601.745	414.56
601.953	419.56
602.162	390.56
602.371	405.56
602.58	411.56
602.789	403.56
602.997	414.56
603.206	435.56
603.415	401.56
603.623	405.56
603.832	410.56
604.041	381.56
604.249	381.56
604.458	373.56
604.666	390.56
604.875	390.56
605.084	395.56
605.292	402.56
605.501	411.56
605.709	395.56
605.918	393.56
606.126	398.56
606.334	399.56
606.543	376.56
606.751	373.56
606.96	398.56
607.168	401.56
607.376	387.56
607.585	382.56
607.793	397.56
608.001	390.56
608.21	379.56
608.418	385.56
608.626	368.56
608.834	385.56
609.043	382.56
609.251	387.56
609.459	370.56
609.667	378.56
609.875	366.56
610.083	380.56
610.291	385.56
610.499	366.56
610.707	373.56
610.916	347.56
611.124	375.56
611.332	362.56
611.54	355.56
611.748	363.56
611.955	349.56
612.163	357.56
612.371	354.56
612.579	366.56
612.787	344.56
612.995	373.56
613.203	363.56
613.411	359.56
613.618	330.56
613.826	359.56
614.034	362.56
614.242	356.56
614.449	354.56
614.657	347.56
614.865	352.56
615.072	372.56
615.28	354.56
615.488	339.56
615.695	349.56
615.903	348.56
616.111	352.56
616.318	339.56
616.526	354.56
616.733	357.56
616.941	341.56
617.148	357.56
617.356	362.56
617.563	355.56
617.771	329.56
617.978	323.56
618.185	341.56
618.393	345.56
618.6	343.56
618.807	332.56
619.015	345.56
619.222	351.56
619.429	338.56
619.637	335.56
619.844	322.56
620.051	339.56
620.258	335.56
620.466	332.56
620.673	348.56
620.88	322.56
621.087	317.56
621.294	331.56
621.501	316.56
621.708	317.56
621.915	318.56
622.122	320.56
622.329	344.56
622.536	316.56
622.743	342.56
622.95	311.56
623.157	325.56
623.364	309.56
623.571	317.56
623.778	331.56
623.985	317.56
624.192	312.56
624.399	321.56
624.606	323.56
624.812	280.56
625.019	303.56
625.226	306.56
625.433	290.56
625.639	291.56
625.846	292.56
626.053	292.56
626.259	301.56
626.466	305.56
626.673	330.56
626.879	295.56
627.086	300.56
627.293	307.56
627.499	285.56
627.706	301.56
627.912	296.56
628.119	304.56
628.325	297.56
628.532	299.56
628.738	285.56
628.945	295.56
629.151	276.56
629.357	285.56
629.564	289.56
629.77	274.56
629.976	286.56
630.183	287.56
630.389	255.56
630.595	278.56
630.802	275.56
631.008	279.56
631.214	298.56
631.42	287.56
631.627	278.56
631.833	251.56
632.039	257.56
632.245	282.56
632.451	279.56
632.657	265.56
632.863	264.56
633.069	275.56
633.275	277.56
633.481	261.56
633.688	280.56
633.893	240.56
634.099	250.56
634.305	284.56
634.511	262.56
634.717	263.56
634.923	283.56
635.129	254.56
635.335	244.56
635.541	263.56
635.747	264.56
635.952	246.56
636.158	269.56
636.364	263.56
636.57	262.56
636.775	271.56
636.981	270.56
637.187	259.56
637.392	242.56
637.598	236.56
637.804	248.56
638.009	247.56
638.215	241.56
638.421	236.56
638.626	247.56
638.832	249.56
639.037	238.56
639.243	249.56
639.448	244.56
639.654	240.56
639.859	241.56
640.065	242.56
640.27	247.56
640.475	249.56
640.681	242.56
640.886	229.56
641.091	247.56
641.297	250.56
641.502	232.56
641.707	237.56
641.913	243.56
642.118	249.56
642.323	233.56
642.528	240.56
642.733	220.56
642.939	243.56
643.144	230.56
643.349	245.56
643.554	234.56
643.759	249.56
643.964	242.56
644.169	245.56
644.374	231.56
644.579	246.56
644.784	226.56
644.989	241.56
645.194	229.56
645.399	234.56
645.604	233.56
645.809	238.56
646.014	221.56
646.219	230.56
646.423	249.56
646.628	236.56
646.833	237.56
647.038	223.56
647.243	230.56
647.447	237.56
647.652	238.56
647.857	243.56
648.062	234.56
648.266	230.56
648.471	234.56
648.676	235.56
648.88	222.56
649.085	234.56
649.289	230.56
649.494	218.56
649.698	228.56
649.903	227.56
650.107	214.56
650.312	234.56
650.516	227.56
650.721	213.56
650.925	212.56
651.13	212.56
651.334	211.56
651.539	209.56
651.743	206.56
651.947	227.56
652.152	215.56
652.356	212.56
652.56	199.56
652.764	201.56
652.969	187.56
653.173	194.56
653.377	187.56
653.581	195.56
653.785	190.56
653.99	193.56
654.194	203.56
654.398	191.56
654.602	183.56
654.806	183.56
655.01	186.56
655.214	169.56
655.418	177.56
655.622	171.56
655.826	180.56
656.03	179.56
656.234	178.56
656.438	166.56
656.642	175.56
656.846	183.56
657.049	166.56
657.253	152.56
657.457	161.56
657.661	161.56
657.865	149.56
658.068	147.56
658.272	148.56
658.476	137.56
658.68	128.56
658.883	133.56
659.087	142.56
659.291	103.56
659.494	106.56
659.698	112.56
659.901	109.56
660.105	100.56
660.309	110.56
660.512	99.56
660.716	119.56
660.919	111.56
661.123	102.56
661.326	108.56
661.53	104.56
661.733	105.56
661.936	96.56
662.14	80.56
662.343	95.56
662.546	90.56
662.75	97.56
662.953	89.56
663.156	93.56
663.36	91.56
663.563	75.56
663.766	78.56
663.969	85.56
664.173	85.56
664.376	90.56
664.579	78.56
664.782	82.56
664.985	80.56
665.188	88.56
665.391	72.56
665.594	75.56
665.797	100.56
666	78.56
666.203	92.56
666.406	81.56
666.609	87.56
666.812	80.56
667.015	102.56
667.218	83.56
667.421	81.56
667.624	88.56
667.827	82.56
668.03	79.56
668.232	82.56
668.435	97.56
668.638	87.56
668.841	92.56
669.043	79.56
669.246	86.56
669.449	83.56
669.651	85.56
669.854	82.56
670.057	81.56
670.259	68.56
670.462	88.56
670.665	77.56
670.867	90.56
671.07	79.56
671.272	91.56
671.475	81.56
671.677	92.56
671.88	100.56
672.082	73.56
672.284	79.56
672.487	93.56
672.689	82.56
672.892	75.56
