Data from Ni(NO3)2@0.125M.TitratingCurve.Agarose3%dH2O.NegLispCup.LampEnergy10.LIBS07252019_HRD10591_18-09-04-567.txt Node
Date: Thu Jul 25 18:09:04 EDT 2019
User: cochatt
Spectrometer: HR+D1059
Trigger mode: 1
Integration Time (sec): 1.000000E-1
Scans to average: 1
Electric dark correction enabled: true
Nonlinearity correction enabled: false
Boxcar width: 0
XAxis mode: Wavelengths
Number of Pixels in Spectrum: 2048
>>>>>Begin Spectral Data<<<<<
223.165	-21.25
223.4	-21.25
223.635	-21.25
223.869	-26.25
224.104	-16.25
224.338	-19.25
224.573	-12.25
224.808	-2.25
225.042	-6.25
225.277	-2.25
225.511	2.75
225.746	3.75
225.98	13.75
226.215	20.75
226.449	9.75
226.683	11.75
226.918	21.75
227.152	21.75
227.387	20.75
227.621	32.75
227.856	43.75
228.09	48.75
228.324	41.75
228.559	70.75
228.793	64.75
229.027	103.75
229.262	131.75
229.496	121.75
229.73	137.75
229.964	115.75
230.199	138.75
230.433	143.75
230.667	147.75
230.901	134.75
231.136	146.75
231.37	146.75
231.604	144.75
231.838	152.75
232.072	153.75
232.306	146.75
232.541	157.75
232.775	141.75
233.009	151.75
233.243	161.75
233.477	170.75
233.711	154.75
233.945	161.75
234.179	155.75
234.413	141.75
234.647	168.75
234.881	168.75
235.115	172.75
235.349	159.75
235.583	167.75
235.817	173.75
236.051	164.75
236.285	177.75
236.519	172.75
236.753	153.75
236.987	177.75
237.221	171.75
237.455	175.75
237.689	179.75
237.922	182.75
238.156	179.75
238.39	181.75
238.624	176.75
238.858	172.75
239.091	170.75
239.325	186.75
239.559	183.75
239.793	171.75
240.027	177.75
240.26	175.75
240.494	198.75
240.728	199.75
240.961	193.75
241.195	195.75
241.429	189.75
241.662	198.75
241.896	201.75
242.13	221.75
242.363	203.75
242.597	203.75
242.83	198.75
243.064	203.75
243.298	206.75
243.531	221.75
243.765	216.75
243.998	215.75
244.232	231.75
244.465	225.75
244.699	220.75
244.932	220.75
245.166	231.75
245.399	218.75
245.633	236.75
245.866	233.75
246.099	244.75
246.333	227.75
246.566	248.75
246.8	241.75
247.033	243.75
247.266	259.75
247.5	257.75
247.733	248.75
247.966	253.75
248.2	261.75
248.433	254.75
248.666	260.75
248.899	248.75
249.133	263.75
249.366	262.75
249.599	259.75
249.832	264.75
250.066	270.75
250.299	281.75
250.532	273.75
250.765	279.75
250.998	260.75
251.231	287.75
251.465	268.75
251.698	287.75
251.931	292.75
252.164	294.75
252.397	309.75
252.63	303.75
252.863	323.75
253.096	297.75
253.329	297.75
253.562	304.75
253.795	310.75
254.028	310.75
254.261	309.75
254.494	315.75
254.727	327.75
254.96	328.75
255.193	324.75
255.426	330.75
255.659	318.75
255.892	313.75
256.124	331.75
256.357	325.75
256.59	323.75
256.823	341.75
257.056	324.75
257.289	327.75
257.521	329.75
257.754	340.75
257.987	351.75
258.22	318.75
258.452	345.75
258.685	348.75
258.918	332.75
259.151	344.75
259.383	339.75
259.616	368.75
259.849	356.75
260.081	354.75
260.314	356.75
260.547	343.75
260.779	347.75
261.012	362.75
261.244	353.75
261.477	376.75
261.71	356.75
261.942	362.75
262.175	375.75
262.407	367.75
262.64	351.75
262.872	381.75
263.105	371.75
263.337	373.75
263.57	368.75
263.802	389.75
264.035	366.75
264.267	385.75
264.499	379.75
264.732	387.75
264.964	377.75
265.197	388.75
265.429	380.75
265.661	392.75
265.894	397.75
266.126	395.75
266.358	392.75
266.591	403.75
266.823	405.75
267.055	393.75
267.287	410.75
267.52	421.75
267.752	406.75
267.984	391.75
268.216	404.75
268.448	411.75
268.681	411.75
268.913	425.75
269.145	423.75
269.377	385.75
269.609	432.75
269.841	413.75
270.073	433.75
270.306	416.75
270.538	426.75
270.77	419.75
271.002	423.75
271.234	399.75
271.466	416.75
271.698	424.75
271.93	417.75
272.162	419.75
272.394	458.75
272.626	457.75
272.858	437.75
273.09	439.75
273.322	461.75
273.553	454.75
273.785	457.75
274.017	465.75
274.249	453.75
274.481	455.75
274.713	462.75
274.945	457.75
275.176	452.75
275.408	471.75
275.64	474.75
275.872	453.75
276.104	468.75
276.335	474.75
276.567	484.75
276.799	467.75
277.031	497.75
277.262	480.75
277.494	476.75
277.726	465.75
277.957	497.75
278.189	482.75
278.421	497.75
278.652	492.75
278.884	486.75
279.115	503.75
279.347	495.75
279.579	501.75
279.81	491.75
280.042	509.75
280.273	503.75
280.505	521.75
280.736	504.75
280.968	525.75
281.199	509.75
281.431	545.75
281.662	521.75
281.894	519.75
282.125	498.75
282.356	517.75
282.588	525.75
282.819	520.75
283.051	521.75
283.282	525.75
283.513	541.75
283.745	556.75
283.976	551.75
284.207	534.75
284.439	544.75
284.67	527.75
284.901	543.75
285.132	545.75
285.364	539.75
285.595	571.75
285.826	539.75
286.057	559.75
286.288	531.75
286.52	565.75
286.751	582.75
286.982	578.75
287.213	550.75
287.444	589.75
287.675	572.75
287.906	558.75
288.138	564.75
288.369	572.75
288.6	583.75
288.831	587.75
289.062	550.75
289.293	555.75
289.524	581.75
289.755	578.75
289.986	576.75
290.217	580.75
290.448	560.75
290.679	589.75
290.91	603.75
291.141	587.75
291.371	576.75
291.602	586.75
291.833	572.75
292.064	599.75
292.295	584.75
292.526	583.75
292.757	603.75
292.987	596.75
293.218	581.75
293.449	615.75
293.68	604.75
293.91	593.75
294.141	619.75
294.372	595.75
294.603	603.75
294.833	611.75
295.064	595.75
295.295	620.75
295.525	612.75
295.756	593.75
295.987	612.75
296.217	601.75
296.448	631.75
296.679	603.75
296.909	607.75
297.14	618.75
297.37	620.75
297.601	616.75
297.831	617.75
298.062	647.75
298.292	637.75
298.523	650.75
298.753	629.75
298.984	634.75
299.214	627.75
299.445	619.75
299.675	633.75
299.905	650.75
300.136	643.75
300.366	629.75
300.597	650.75
300.827	673.75
301.057	672.75
301.288	686.75
301.518	663.75
301.748	682.75
301.979	684.75
302.209	685.75
302.439	680.75
302.669	679.75
302.9	655.75
303.13	666.75
303.36	649.75
303.59	660.75
303.82	657.75
304.051	676.75
304.281	659.75
304.511	642.75
304.741	666.75
304.971	645.75
305.201	654.75
305.431	667.75
305.661	659.75
305.891	629.75
306.121	648.75
306.352	677.75
306.582	661.75
306.812	658.75
307.042	664.75
307.272	653.75
307.502	631.75
307.731	657.75
307.961	649.75
308.191	639.75
308.421	659.75
308.651	659.75
308.881	632.75
309.111	619.75
309.341	649.75
309.571	660.75
309.8	673.75
310.03	656.75
310.26	641.75
310.49	667.75
310.72	678.75
310.949	653.75
311.179	679.75
311.409	669.75
311.639	691.75
311.868	678.75
312.098	680.75
312.328	677.75
312.557	682.75
312.787	699.75
313.017	673.75
313.246	693.75
313.476	694.75
313.706	697.75
313.935	721.75
314.165	706.75
314.394	713.75
314.624	691.75
314.853	705.75
315.083	723.75
315.312	707.75
315.542	673.75
315.771	708.75
316.001	714.75
316.23	703.75
316.46	684.75
316.689	673.75
316.919	674.75
317.148	714.75
317.377	689.75
317.607	685.75
317.836	673.75
318.065	684.75
318.295	700.75
318.524	666.75
318.753	712.75
318.983	687.75
319.212	678.75
319.441	675.75
319.67	706.75
319.9	683.75
320.129	731.75
320.358	697.75
320.587	657.75
320.816	681.75
321.046	696.75
321.275	715.75
321.504	688.75
321.733	731.75
321.962	705.75
322.191	706.75
322.42	683.75
322.649	744.75
322.878	725.75
323.108	696.75
323.337	724.75
323.566	741.75
323.795	730.75
324.024	724.75
324.253	723.75
324.482	705.75
324.71	714.75
324.939	710.75
325.168	732.75
325.397	738.75
325.626	758.75
325.855	746.75
326.084	746.75
326.313	799.75
326.542	770.75
326.77	797.75
326.999	773.75
327.228	756.75
327.457	754.75
327.686	771.75
327.914	771.75
328.143	792.75
328.372	787.75
328.6	777.75
328.829	784.75
329.058	776.75
329.287	785.75
329.515	793.75
329.744	800.75
329.972	789.75
330.201	794.75
330.43	824.75
330.658	810.75
330.887	820.75
331.115	828.75
331.344	848.75
331.572	797.75
331.801	875.75
332.03	859.75
332.258	874.75
332.486	913.75
332.715	953.75
332.943	982.75
333.172	1027.75
333.4	1046.75
333.629	1116.75
333.857	1091.75
334.085	1054.75
334.314	1057.75
334.542	1038.75
334.771	1008.75
334.999	997.75
335.227	980.75
335.455	996.75
335.684	964.75
335.912	965.75
336.14	943.75
336.369	931.75
336.597	931.75
336.825	966.75
337.053	953.75
337.281	928.75
337.51	919.75
337.738	877.75
337.966	901.75
338.194	876.75
338.422	859.75
338.65	880.75
338.878	846.75
339.106	868.75
339.334	869.75
339.562	834.75
339.79	827.75
340.018	820.75
340.246	828.75
340.474	827.75
340.702	809.75
340.93	851.75
341.158	839.75
341.386	847.75
341.614	803.75
341.842	825.75
342.07	821.75
342.298	817.75
342.526	815.75
342.754	824.75
342.981	809.75
343.209	853.75
343.437	875.75
343.665	951.75
343.893	1032.75
344.12	1050.75
344.348	991.75
344.576	925.75
344.804	928.75
345.031	864.75
345.259	886.75
345.487	859.75
345.714	805.75
345.942	807.75
346.17	823.75
346.397	806.75
346.625	816.75
346.853	788.75
347.08	799.75
347.308	771.75
347.535	801.75
347.763	819.75
347.99	790.75
348.218	793.75
348.445	765.75
348.673	781.75
348.9	803.75
349.128	792.75
349.355	767.75
349.583	776.75
349.81	793.75
350.037	786.75
350.265	764.75
350.492	781.75
350.72	737.75
350.947	762.75
351.174	791.75
351.402	758.75
351.629	759.75
351.856	793.75
352.083	759.75
352.311	744.75
352.538	786.75
352.765	751.75
352.992	761.75
353.22	746.75
353.447	773.75
353.674	775.75
353.901	748.75
354.128	763.75
354.355	771.75
354.583	787.75
354.81	748.75
355.037	757.75
355.264	769.75
355.491	776.75
355.718	791.75
355.945	767.75
356.172	779.75
356.399	774.75
356.626	775.75
356.853	782.75
357.08	763.75
357.307	753.75
357.534	767.75
357.761	779.75
357.988	754.75
358.215	764.75
358.441	751.75
358.668	752.75
358.895	770.75
359.122	775.75
359.349	766.75
359.576	759.75
359.802	767.75
360.029	748.75
360.256	769.75
360.483	788.75
360.709	773.75
360.936	760.75
361.163	771.75
361.39	744.75
361.616	759.75
361.843	755.75
362.07	775.75
362.296	767.75
362.523	756.75
362.749	766.75
362.976	764.75
363.203	761.75
363.429	746.75
363.656	752.75
363.882	755.75
364.109	756.75
364.335	753.75
364.562	735.75
364.788	756.75
365.015	755.75
365.241	774.75
365.468	751.75
365.694	748.75
365.92	744.75
366.147	742.75
366.373	745.75
366.599	759.75
366.826	777.75
367.052	764.75
367.278	754.75
367.505	752.75
367.731	745.75
367.957	736.75
368.184	794.75
368.41	785.75
368.636	763.75
368.862	763.75
369.089	791.75
369.315	769.75
369.541	799.75
369.767	767.75
369.993	811.75
370.219	839.75
370.445	808.75
370.672	815.75
370.898	805.75
371.124	814.75
371.35	832.75
371.576	842.75
371.802	809.75
372.028	838.75
372.254	817.75
372.48	830.75
372.706	862.75
372.932	869.75
373.158	888.75
373.384	869.75
373.61	833.75
373.835	836.75
374.061	825.75
374.287	850.75
374.513	838.75
374.739	871.75
374.965	891.75
375.191	908.75
375.416	913.75
375.642	885.75
375.868	880.75
376.094	825.75
376.319	855.75
376.545	836.75
376.771	849.75
376.997	854.75
377.222	829.75
377.448	842.75
377.674	819.75
377.899	818.75
378.125	831.75
378.35	819.75
378.576	819.75
378.802	826.75
379.027	821.75
379.253	807.75
379.478	821.75
379.704	826.75
379.929	808.75
380.155	831.75
380.38	835.75
380.606	820.75
380.831	835.75
381.057	833.75
381.282	832.75
381.507	807.75
381.733	834.75
381.958	831.75
382.184	848.75
382.409	844.75
382.634	880.75
382.86	869.75
383.085	868.75
383.31	893.75
383.535	895.75
383.761	900.75
383.986	945.75
384.211	966.75
384.436	959.75
384.662	995.75
384.887	1003.75
385.112	982.75
385.337	991.75
385.562	1011.75
385.787	998.75
386.013	1011.75
386.238	985.75
386.463	991.75
386.688	1017.75
386.913	947.75
387.138	973.75
387.363	1008.75
387.588	977.75
387.813	981.75
388.038	982.75
388.263	983.75
388.488	973.75
388.713	967.75
388.938	960.75
389.163	963.75
389.387	981.75
389.612	964.75
389.837	967.75
390.062	941.75
390.287	967.75
390.512	955.75
390.736	982.75
390.961	994.75
391.186	1009.75
391.411	1049.75
391.636	1079.75
391.86	1108.75
392.085	1143.75
392.31	1108.75
392.534	1056.75
392.759	1062.75
392.984	1052.75
393.208	1044.75
393.433	1079.75
393.658	1060.75
393.882	1044.75
394.107	1082.75
394.331	1082.75
394.556	1050.75
394.78	1071.75
395.005	1018.75
395.229	1052.75
395.454	1099.75
395.678	1132.75
395.903	1145.75
396.127	1071.75
396.352	1081.75
396.576	1026.75
396.801	1019.75
397.025	1052.75
397.249	1081.75
397.474	1093.75
397.698	1107.75
397.922	1114.75
398.147	1099.75
398.371	1127.75
398.595	1177.75
398.82	1216.75
399.044	1287.75
399.268	1443.75
399.492	1706.75
399.717	1986.75
399.941	1892.75
400.165	1711.75
400.389	1513.75
400.613	1320.75
400.837	1255.75
401.062	1291.75
401.286	1221.75
401.51	1244.75
401.734	1258.75
401.958	1258.75
402.182	1285.75
402.406	1293.75
402.63	1289.75
402.854	1382.75
403.078	1341.75
403.302	1378.75
403.526	1425.75
403.75	1491.75
403.974	1506.75
404.198	1463.75
404.422	1495.75
404.645	1445.75
404.869	1428.75
405.093	1417.75
405.317	1378.75
405.541	1405.75
405.765	1392.75
405.988	1357.75
406.212	1371.75
406.436	1354.75
406.66	1411.75
406.883	1410.75
407.107	1513.75
407.331	1598.75
407.555	1635.75
407.778	1634.75
408.002	1595.75
408.226	1507.75
408.449	1494.75
408.673	1428.75
408.896	1432.75
409.12	1435.75
409.344	1457.75
409.567	1459.75
409.791	1452.75
410.014	1445.75
410.238	1411.75
410.461	1420.75
410.685	1402.75
410.908	1382.75
411.132	1360.75
411.355	1277.75
411.578	1301.75
411.802	1330.75
412.025	1316.75
412.249	1344.75
412.472	1288.75
412.695	1259.75
412.919	1236.75
413.142	1268.75
413.365	1232.75
413.589	1258.75
413.812	1247.75
414.035	1270.75
414.258	1243.75
414.482	1284.75
414.705	1299.75
414.928	1283.75
415.151	1275.75
415.374	1259.75
415.597	1257.75
415.821	1229.75
416.044	1228.75
416.267	1233.75
416.49	1201.75
416.713	1218.75
416.936	1250.75
417.159	1227.75
417.382	1224.75
417.605	1226.75
417.828	1230.75
418.051	1267.75
418.274	1247.75
418.497	1273.75
418.72	1288.75
418.943	1294.75
419.166	1387.75
419.389	1467.75
419.611	1407.75
419.834	1354.75
420.057	1301.75
420.28	1255.75
420.503	1223.75
420.726	1251.75
420.948	1236.75
421.171	1217.75
421.394	1262.75
421.617	1231.75
421.839	1263.75
422.062	1251.75
422.285	1217.75
422.507	1295.75
422.73	1277.75
422.953	1291.75
423.175	1309.75
423.398	1308.75
423.621	1331.75
423.843	1354.75
424.066	1366.75
424.288	1340.75
424.511	1342.75
424.733	1313.75
424.956	1297.75
425.178	1238.75
425.401	1277.75
425.623	1271.75
425.846	1193.75
426.068	1201.75
426.291	1197.75
426.513	1215.75
426.735	1181.75
426.958	1159.75
427.18	1147.75
427.402	1142.75
427.625	1131.75
427.847	1110.75
428.069	1081.75
428.292	1117.75
428.514	1123.75
428.736	1107.75
428.958	1122.75
429.181	1079.75
429.403	1109.75
429.625	1066.75
429.847	1083.75
430.069	1087.75
430.292	1067.75
430.514	1098.75
430.736	1092.75
430.958	1100.75
431.18	1064.75
431.402	1081.75
431.624	1091.75
431.846	1113.75
432.068	1129.75
432.29	1114.75
432.512	1095.75
432.734	1078.75
432.956	1092.75
433.178	1086.75
433.4	1101.75
433.622	1106.75
433.844	1151.75
434.066	1093.75
434.287	1136.75
434.509	1191.75
434.731	1238.75
434.953	1245.75
435.175	1274.75
435.397	1225.75
435.618	1189.75
435.84	1150.75
436.062	1139.75
436.284	1136.75
436.505	1107.75
436.727	1121.75
436.949	1119.75
437.17	1101.75
437.392	1103.75
437.614	1096.75
437.835	1059.75
438.057	1067.75
438.278	1028.75
438.5	1059.75
438.721	1102.75
438.943	1082.75
439.165	1068.75
439.386	1096.75
439.608	1082.75
439.829	1096.75
440.05	1134.75
440.272	1130.75
440.493	1133.75
440.715	1137.75
440.936	1179.75
441.158	1163.75
441.379	1186.75
441.6	1237.75
441.822	1255.75
442.043	1279.75
442.264	1245.75
442.486	1241.75
442.707	1263.75
442.928	1247.75
443.149	1242.75
443.371	1219.75
443.592	1243.75
443.813	1286.75
444.034	1279.75
444.255	1323.75
444.476	1385.75
444.698	1490.75
444.919	1531.75
445.14	1635.75
445.361	1447.75
445.582	1323.75
445.803	1211.75
446.024	1201.75
446.245	1172.75
446.466	1149.75
446.687	1116.75
446.908	1137.75
447.129	1098.75
447.35	1081.75
447.571	1077.75
447.792	1054.75
448.013	1060.75
448.234	1050.75
448.455	1020.75
448.675	1022.75
448.896	1034.75
449.117	1040.75
449.338	1000.75
449.559	1024.75
449.779	982.75
450	992.75
450.221	1045.75
450.442	1027.75
450.662	1022.75
450.883	1056.75
451.104	1064.75
451.324	1046.75
451.545	1048.75
451.766	1062.75
451.986	1049.75
452.207	1032.75
452.428	1064.75
452.648	1023.75
452.869	989.75
453.089	1006.75
453.31	1017.75
453.53	998.75
453.751	997.75
453.971	985.75
454.192	992.75
454.412	988.75
454.633	962.75
454.853	970.75
455.073	978.75
455.294	953.75
455.514	951.75
455.734	964.75
455.955	941.75
456.175	957.75
456.395	931.75
456.616	947.75
456.836	919.75
457.056	938.75
457.276	951.75
457.497	971.75
457.717	962.75
457.937	970.75
458.157	950.75
458.377	959.75
458.598	970.75
458.818	1013.75
459.038	1068.75
459.258	1071.75
459.478	1137.75
459.698	1135.75
459.918	1162.75
460.138	1253.75
460.358	1319.75
460.578	1330.75
460.798	1352.75
461.018	1359.75
461.238	1317.75
461.458	1322.75
461.678	1267.75
461.898	1323.75
462.118	1349.75
462.338	1416.75
462.558	1419.75
462.777	1476.75
462.997	1623.75
463.217	1821.75
463.437	1811.75
463.657	1651.75
463.876	1555.75
464.096	1545.75
464.316	1564.75
464.536	1586.75
464.755	1506.75
464.975	1477.75
465.195	1372.75
465.414	1281.75
465.634	1179.75
465.854	1168.75
466.073	1136.75
466.293	1130.75
466.512	1073.75
466.732	1072.75
466.951	1046.75
467.171	1075.75
467.391	1075.75
467.61	1088.75
467.829	1064.75
468.049	1057.75
468.268	1019.75
468.488	1033.75
468.707	975.75
468.927	1017.75
469.146	1007.75
469.365	1015.75
469.585	1018.75
469.804	1075.75
470.023	1107.75
470.243	1116.75
470.462	1107.75
470.681	1124.75
470.901	1110.75
471.12	1063.75
471.339	1071.75
471.558	1039.75
471.777	1036.75
471.997	1011.75
472.216	1004.75
472.435	1007.75
472.654	981.75
472.873	971.75
473.092	979.75
473.311	993.75
473.53	994.75
473.749	980.75
473.968	982.75
474.187	979.75
474.406	965.75
474.625	997.75
474.844	978.75
475.063	994.75
475.282	1012.75
475.501	996.75
475.72	1019.75
475.939	992.75
476.158	1005.75
476.377	1054.75
476.596	1017.75
476.814	1048.75
477.033	1049.75
477.252	1064.75
477.471	1073.75
477.69	1107.75
477.908	1140.75
478.127	1157.75
478.346	1195.75
478.564	1220.75
478.783	1230.75
479.002	1244.75
479.22	1257.75
479.439	1245.75
479.658	1224.75
479.876	1239.75
480.095	1263.75
480.313	1336.75
480.532	1356.75
480.751	1339.75
480.969	1275.75
481.188	1226.75
481.406	1189.75
481.624	1179.75
481.843	1170.75
482.061	1141.75
482.28	1115.75
482.498	1115.75
482.717	1118.75
482.935	1123.75
483.153	1135.75
483.372	1124.75
483.59	1147.75
483.808	1109.75
484.027	1113.75
484.245	1136.75
484.463	1139.75
484.681	1166.75
484.9	1156.75
485.118	1173.75
485.336	1159.75
485.554	1165.75
485.772	1224.75
485.99	1219.75
486.209	1174.75
486.427	1231.75
486.645	1205.75
486.863	1222.75
487.081	1189.75
487.299	1192.75
487.517	1182.75
487.735	1200.75
487.953	1193.75
488.171	1199.75
488.389	1183.75
488.607	1149.75
488.825	1161.75
489.043	1157.75
489.261	1200.75
489.479	1183.75
489.696	1159.75
489.914	1221.75
490.132	1207.75
490.35	1199.75
490.568	1184.75
490.786	1192.75
491.003	1213.75
491.221	1212.75
491.439	1199.75
491.657	1234.75
491.874	1229.75
492.092	1226.75
492.31	1222.75
492.527	1232.75
492.745	1227.75
492.963	1255.75
493.18	1207.75
493.398	1244.75
493.615	1270.75
493.833	1266.75
494.05	1232.75
494.268	1270.75
494.485	1257.75
494.703	1232.75
494.92	1267.75
495.138	1255.75
495.355	1245.75
495.573	1233.75
495.79	1251.75
496.008	1292.75
496.225	1319.75
496.442	1290.75
496.66	1339.75
496.877	1350.75
497.094	1380.75
497.312	1357.75
497.529	1426.75
497.746	1421.75
497.963	1450.75
498.181	1508.75
498.398	1572.75
498.615	1654.75
498.832	1819.75
499.049	1944.75
499.267	2104.75
499.484	2321.75
499.701	2595.75
499.918	2904.75
500.135	3375.75
500.352	3857.75
500.569	4092.75
500.786	4017.75
501.003	3764.75
501.22	3286.75
501.437	2835.75
501.654	2490.75
501.871	2261.75
502.088	2048.75
502.305	1905.75
502.522	1842.75
502.739	1746.75
502.956	1649.75
503.172	1547.75
503.389	1476.75
503.606	1450.75
503.823	1423.75
504.04	1418.75
504.256	1480.75
504.473	1519.75
504.69	1563.75
504.907	1514.75
505.123	1407.75
505.34	1336.75
505.557	1263.75
505.773	1211.75
505.99	1199.75
506.207	1161.75
506.423	1160.75
506.64	1132.75
506.856	1106.75
507.073	1119.75
507.289	1153.75
507.506	1113.75
507.722	1119.75
507.939	1097.75
508.155	1071.75
508.372	1065.75
508.588	1046.75
508.805	1057.75
509.021	1037.75
509.238	1052.75
509.454	1033.75
509.67	999.75
509.887	1018.75
510.103	1023.75
510.319	1043.75
510.536	967.75
510.752	1000.75
510.968	991.75
511.184	996.75
511.401	1010.75
511.617	993.75
511.833	996.75
512.049	1002.75
512.265	999.75
512.481	1001.75
512.698	1036.75
512.914	993.75
513.13	986.75
513.346	999.75
513.562	1021.75
513.778	1008.75
513.994	1002.75
514.21	1003.75
514.426	1029.75
514.642	1047.75
514.858	1013.75
515.074	1052.75
515.29	1040.75
515.506	1042.75
515.721	1090.75
515.937	1120.75
516.153	1127.75
516.369	1131.75
516.585	1168.75
516.801	1198.75
517.016	1285.75
517.232	1299.75
517.448	1368.75
517.664	1447.75
517.879	1481.75
518.095	1463.75
518.311	1422.75
518.527	1335.75
518.742	1238.75
518.958	1256.75
519.173	1169.75
519.389	1155.75
519.605	1123.75
519.82	1095.75
520.036	1098.75
520.251	1040.75
520.467	1041.75
520.682	1037.75
520.898	1018.75
521.113	1004.75
521.329	1035.75
521.544	992.75
521.76	976.75
521.975	970.75
522.19	940.75
522.406	951.75
522.621	933.75
522.836	922.75
523.052	941.75
523.267	928.75
523.482	915.75
523.698	964.75
523.913	922.75
524.128	923.75
524.343	938.75
524.559	943.75
524.774	924.75
524.989	920.75
525.204	909.75
525.419	913.75
525.634	917.75
525.849	913.75
526.064	913.75
526.28	943.75
526.495	913.75
526.71	930.75
526.925	877.75
527.14	917.75
527.355	903.75
527.57	922.75
527.785	906.75
527.999	909.75
528.214	909.75
528.429	924.75
528.644	918.75
528.859	940.75
529.074	917.75
529.289	900.75
529.503	904.75
529.718	912.75
529.933	906.75
530.148	905.75
530.363	901.75
530.577	904.75
530.792	911.75
531.007	921.75
531.221	907.75
531.436	949.75
531.651	907.75
531.865	912.75
532.08	947.75
532.295	907.75
532.509	923.75
532.724	919.75
532.938	923.75
533.153	897.75
533.367	898.75
533.582	927.75
533.796	920.75
534.011	909.75
534.225	925.75
534.44	897.75
534.654	892.75
534.868	871.75
535.083	885.75
535.297	895.75
535.511	876.75
535.726	872.75
535.94	888.75
536.154	877.75
536.369	859.75
536.583	857.75
536.797	830.75
537.011	841.75
537.225	809.75
537.44	833.75
537.654	862.75
537.868	843.75
538.082	851.75
538.296	840.75
538.51	839.75
538.724	828.75
538.938	855.75
539.153	824.75
539.367	804.75
539.581	799.75
539.795	796.75
540.009	821.75
540.222	827.75
540.436	802.75
540.65	792.75
540.864	805.75
541.078	804.75
541.292	821.75
541.506	820.75
541.72	837.75
541.934	824.75
542.147	830.75
542.361	818.75
542.575	777.75
542.789	797.75
543.002	812.75
543.216	808.75
543.43	785.75
543.644	795.75
543.857	823.75
544.071	820.75
544.285	837.75
544.498	806.75
544.712	796.75
544.925	819.75
545.139	849.75
545.352	851.75
545.566	844.75
545.779	844.75
545.993	839.75
546.206	850.75
546.42	863.75
546.633	811.75
546.847	840.75
547.06	846.75
547.274	838.75
547.487	831.75
547.7	826.75
547.914	808.75
548.127	845.75
548.34	851.75
548.554	860.75
548.767	830.75
548.98	868.75
549.193	832.75
549.407	861.75
549.62	867.75
549.833	863.75
550.046	868.75
550.259	851.75
550.473	843.75
550.686	818.75
550.899	835.75
551.112	816.75
551.325	811.75
551.538	801.75
551.751	810.75
551.964	796.75
552.177	831.75
552.39	828.75
552.603	851.75
552.816	883.75
553.029	907.75
553.242	910.75
553.455	953.75
553.667	964.75
553.88	908.75
554.093	875.75
554.306	863.75
554.519	868.75
554.732	828.75
554.944	815.75
555.157	819.75
555.37	792.75
555.583	773.75
555.795	745.75
556.008	740.75
556.221	768.75
556.433	748.75
556.646	745.75
556.859	711.75
557.071	725.75
557.284	728.75
557.496	717.75
557.709	714.75
557.921	712.75
558.134	723.75
558.346	695.75
558.559	714.75
558.771	695.75
558.984	673.75
559.196	671.75
559.409	684.75
559.621	670.75
559.833	681.75
560.046	677.75
560.258	665.75
560.47	681.75
560.683	649.75
560.895	707.75
561.107	691.75
561.32	676.75
561.532	678.75
561.744	691.75
561.956	667.75
562.168	669.75
562.381	671.75
562.593	671.75
562.805	675.75
563.017	676.75
563.229	687.75
563.441	674.75
563.653	725.75
563.865	681.75
564.077	709.75
564.289	705.75
564.501	709.75
564.713	723.75
564.925	747.75
565.137	751.75
565.349	749.75
565.561	772.75
565.773	797.75
565.985	841.75
566.197	883.75
566.408	967.75
566.62	1058.75
566.832	1173.75
567.044	1175.75
567.255	1135.75
567.467	1163.75
567.679	1243.75
567.891	1361.75
568.102	1450.75
568.314	1329.75
568.526	1166.75
568.737	1083.75
568.949	1008.75
569.161	883.75
569.372	823.75
569.584	787.75
569.795	740.75
570.007	723.75
570.218	696.75
570.43	732.75
570.641	689.75
570.853	719.75
571.064	718.75
571.276	707.75
571.487	699.75
571.698	667.75
571.91	639.75
572.121	620.75
572.333	592.75
572.544	573.75
572.755	587.75
572.966	585.75
573.178	573.75
573.389	579.75
573.6	571.75
573.811	563.75
574.023	591.75
574.234	553.75
574.445	561.75
574.656	565.75
574.867	546.75
575.078	561.75
575.289	578.75
575.501	541.75
575.712	511.75
575.923	535.75
576.134	530.75
576.345	523.75
576.556	547.75
576.767	547.75
576.978	517.75
577.188	540.75
577.399	505.75
577.61	511.75
577.821	488.75
578.032	498.75
578.243	524.75
578.454	532.75
578.665	521.75
578.875	499.75
579.086	495.75
579.297	487.75
579.508	526.75
579.718	519.75
579.929	507.75
580.14	469.75
580.35	486.75
580.561	463.75
580.772	481.75
580.982	474.75
581.193	455.75
581.403	464.75
581.614	484.75
581.825	483.75
582.035	460.75
582.246	497.75
582.456	458.75
582.667	471.75
582.877	480.75
583.087	479.75
583.298	455.75
583.508	460.75
583.719	465.75
583.929	455.75
584.139	454.75
584.35	438.75
584.56	469.75
584.77	457.75
584.981	461.75
585.191	426.75
585.401	450.75
585.611	468.75
585.821	451.75
586.032	456.75
586.242	470.75
586.452	440.75
586.662	437.75
586.872	446.75
587.082	454.75
587.292	435.75
587.502	451.75
587.713	446.75
587.923	449.75
588.133	454.75
588.343	455.75
588.553	440.75
588.762	455.75
588.972	460.75
589.182	451.75
589.392	466.75
589.602	444.75
589.812	457.75
590.022	454.75
590.232	440.75
590.441	447.75
590.651	460.75
590.861	479.75
591.071	460.75
591.281	479.75
591.49	456.75
591.7	481.75
591.91	477.75
592.119	469.75
592.329	508.75
592.539	514.75
592.748	508.75
592.958	540.75
593.167	563.75
593.377	545.75
593.587	579.75
593.796	587.75
594.006	601.75
594.215	607.75
594.424	587.75
594.634	585.75
594.843	569.75
595.053	536.75
595.262	540.75
595.472	515.75
595.681	492.75
595.89	484.75
596.1	453.75
596.309	444.75
596.518	433.75
596.727	427.75
596.937	420.75
597.146	417.75
597.355	413.75
597.564	408.75
597.774	412.75
597.983	395.75
598.192	380.75
598.401	402.75
598.61	395.75
598.819	398.75
599.028	389.75
599.237	388.75
599.446	369.75
599.655	375.75
599.864	373.75
600.073	380.75
600.282	373.75
600.491	367.75
600.7	382.75
600.909	381.75
601.118	377.75
601.327	385.75
601.536	381.75
601.745	369.75
601.953	369.75
602.162	379.75
602.371	367.75
602.58	380.75
602.789	367.75
602.997	361.75
603.206	383.75
603.415	348.75
603.623	358.75
603.832	355.75
604.041	374.75
604.249	332.75
604.458	339.75
604.666	349.75
604.875	335.75
605.084	333.75
605.292	342.75
605.501	348.75
605.709	355.75
605.918	347.75
606.126	331.75
606.334	333.75
606.543	340.75
606.751	363.75
606.96	334.75
607.168	335.75
607.376	347.75
607.585	347.75
607.793	342.75
608.001	344.75
608.21	346.75
608.418	329.75
608.626	345.75
608.834	339.75
609.043	346.75
609.251	340.75
609.459	347.75
609.667	319.75
609.875	327.75
610.083	336.75
610.291	325.75
610.499	341.75
610.707	320.75
610.916	339.75
611.124	327.75
611.332	343.75
611.54	331.75
611.748	326.75
611.955	315.75
612.163	320.75
612.371	329.75
612.579	331.75
612.787	307.75
612.995	328.75
613.203	333.75
613.411	338.75
613.618	337.75
613.826	323.75
614.034	331.75
614.242	327.75
614.449	308.75
614.657	316.75
614.865	320.75
615.072	318.75
615.28	319.75
615.488	324.75
615.695	328.75
615.903	303.75
616.111	331.75
616.318	334.75
616.526	317.75
616.733	321.75
616.941	317.75
617.148	330.75
617.356	326.75
617.563	322.75
617.771	331.75
617.978	319.75
618.185	330.75
618.393	329.75
618.6	315.75
618.807	319.75
619.015	327.75
619.222	327.75
619.429	323.75
619.637	303.75
619.844	313.75
620.051	311.75
620.258	323.75
620.466	300.75
620.673	283.75
620.88	291.75
621.087	297.75
621.294	298.75
621.501	311.75
621.708	293.75
621.915	292.75
622.122	293.75
622.329	299.75
622.536	291.75
622.743	303.75
622.95	314.75
623.157	284.75
623.364	272.75
623.571	289.75
623.778	290.75
623.985	282.75
624.192	287.75
624.399	273.75
624.606	299.75
624.812	293.75
625.019	284.75
625.226	273.75
625.433	290.75
625.639	281.75
625.846	296.75
626.053	269.75
626.259	271.75
626.466	272.75
626.673	270.75
626.879	264.75
627.086	275.75
627.293	243.75
627.499	275.75
627.706	271.75
627.912	258.75
628.119	283.75
628.325	257.75
628.532	280.75
628.738	265.75
628.945	258.75
629.151	266.75
629.357	259.75
629.564	257.75
629.77	247.75
629.976	265.75
630.183	255.75
630.389	242.75
630.595	242.75
630.802	248.75
631.008	224.75
631.214	252.75
631.42	230.75
631.627	244.75
631.833	260.75
632.039	254.75
632.245	247.75
632.451	238.75
632.657	250.75
632.863	254.75
633.069	239.75
633.275	243.75
633.481	244.75
633.688	215.75
633.893	240.75
634.099	227.75
634.305	225.75
634.511	234.75
634.717	228.75
634.923	243.75
635.129	235.75
635.335	227.75
635.541	236.75
635.747	225.75
635.952	227.75
636.158	231.75
636.364	226.75
636.57	241.75
636.775	230.75
636.981	220.75
637.187	242.75
637.392	227.75
637.598	224.75
637.804	233.75
638.009	246.75
638.215	233.75
638.421	212.75
638.626	210.75
638.832	217.75
639.037	204.75
639.243	205.75
639.448	214.75
639.654	228.75
639.859	218.75
640.065	210.75
640.27	206.75
640.475	216.75
640.681	216.75
640.886	208.75
641.091	202.75
641.297	218.75
641.502	206.75
641.707	208.75
641.913	225.75
642.118	226.75
642.323	219.75
642.528	201.75
642.733	199.75
642.939	205.75
643.144	215.75
643.349	203.75
643.554	195.75
643.759	192.75
643.964	196.75
644.169	214.75
644.374	199.75
644.579	195.75
644.784	215.75
644.989	198.75
645.194	210.75
645.399	194.75
645.604	205.75
645.809	202.75
646.014	195.75
646.219	199.75
646.423	198.75
646.628	216.75
646.833	213.75
647.038	222.75
647.243	203.75
647.447	221.75
647.652	211.75
647.857	215.75
648.062	225.75
648.266	233.75
648.471	228.75
648.676	221.75
648.88	207.75
649.085	198.75
649.289	204.75
649.494	210.75
649.698	197.75
649.903	212.75
650.107	189.75
650.312	192.75
650.516	198.75
650.721	186.75
650.925	187.75
651.13	189.75
651.334	189.75
651.539	183.75
651.743	170.75
651.947	163.75
652.152	173.75
652.356	167.75
652.56	160.75
652.764	185.75
652.969	172.75
653.173	166.75
653.377	161.75
653.581	150.75
653.785	169.75
653.99	155.75
654.194	164.75
654.398	157.75
654.602	161.75
654.806	153.75
655.01	161.75
655.214	148.75
655.418	138.75
655.622	145.75
655.826	159.75
656.03	148.75
656.234	145.75
656.438	151.75
656.642	165.75
656.846	137.75
657.049	131.75
657.253	144.75
657.457	136.75
657.661	137.75
657.865	128.75
658.068	122.75
658.272	118.75
658.476	109.75
658.68	112.75
658.883	105.75
659.087	101.75
659.291	108.75
659.494	104.75
659.698	104.75
659.901	124.75
660.105	98.75
660.309	103.75
660.512	99.75
660.716	95.75
660.919	89.75
661.123	99.75
661.326	89.75
661.53	78.75
661.733	94.75
661.936	78.75
662.14	85.75
662.343	88.75
662.546	102.75
662.75	87.75
662.953	81.75
663.156	83.75
663.36	100.75
663.563	85.75
663.766	84.75
663.969	75.75
664.173	83.75
664.376	82.75
664.579	75.75
664.782	85.75
664.985	69.75
665.188	85.75
665.391	88.75
665.594	73.75
665.797	71.75
666	77.75
666.203	80.75
666.406	78.75
666.609	71.75
666.812	73.75
667.015	77.75
667.218	78.75
667.421	83.75
667.624	72.75
667.827	82.75
668.03	72.75
668.232	82.75
668.435	93.75
668.638	85.75
668.841	88.75
669.043	77.75
669.246	79.75
669.449	78.75
669.651	88.75
669.854	78.75
670.057	90.75
670.259	81.75
670.462	83.75
670.665	84.75
670.867	87.75
671.07	93.75
671.272	83.75
671.475	77.75
671.677	77.75
671.88	64.75
672.082	96.75
672.284	86.75
672.487	82.75
672.689	76.75
672.892	72.75
