Data from Ni(NO3)2@0.0625M.TitratingCurve.Agarose3%dH2O.NegLispCup.LampEnergy10.LIBS07252019_HRD10591_18-15-34-570.txt Node
Date: Thu Jul 25 18:15:34 EDT 2019
User: cochatt
Spectrometer: HR+D1059
Trigger mode: 1
Integration Time (sec): 1.000000E-1
Scans to average: 1
Electric dark correction enabled: true
Nonlinearity correction enabled: false
Boxcar width: 0
XAxis mode: Wavelengths
Number of Pixels in Spectrum: 2048
>>>>>Begin Spectral Data<<<<<
223.165	-11.31
223.4	-11.31
223.635	-11.31
223.869	-12.31
224.104	-14.31
224.338	-7.31
224.573	-19.31
224.808	-18.31
225.042	-10.31
225.277	-3.31
225.511	8.69
225.746	5.69
225.98	4.69
226.215	2.69
226.449	-3.31
226.683	20.69
226.918	34.69
227.152	22.69
227.387	40.69
227.621	45.69
227.856	35.69
228.09	43.69
228.324	58.69
228.559	54.69
228.793	80.69
229.027	100.69
229.262	99.69
229.496	114.69
229.73	119.69
229.964	109.69
230.199	118.69
230.433	124.69
230.667	137.69
230.901	136.69
231.136	134.69
231.37	130.69
231.604	132.69
231.838	140.69
232.072	145.69
232.306	130.69
232.541	121.69
232.775	139.69
233.009	117.69
233.243	134.69
233.477	126.69
233.711	149.69
233.945	142.69
234.179	147.69
234.413	135.69
234.647	137.69
234.881	145.69
235.115	156.69
235.349	137.69
235.583	141.69
235.817	133.69
236.051	153.69
236.285	134.69
236.519	141.69
236.753	142.69
236.987	149.69
237.221	133.69
237.455	137.69
237.689	160.69
237.922	147.69
238.156	166.69
238.39	131.69
238.624	165.69
238.858	132.69
239.091	148.69
239.325	145.69
239.559	174.69
239.793	148.69
240.027	167.69
240.26	158.69
240.494	165.69
240.728	162.69
240.961	163.69
241.195	167.69
241.429	180.69
241.662	174.69
241.896	183.69
242.13	172.69
242.363	193.69
242.597	170.69
242.83	182.69
243.064	165.69
243.298	170.69
243.531	181.69
243.765	182.69
243.998	173.69
244.232	183.69
244.465	187.69
244.699	197.69
244.932	182.69
245.166	173.69
245.399	190.69
245.633	188.69
245.866	199.69
246.099	184.69
246.333	196.69
246.566	191.69
246.8	198.69
247.033	199.69
247.266	195.69
247.5	226.69
247.733	217.69
247.966	216.69
248.2	209.69
248.433	206.69
248.666	202.69
248.899	208.69
249.133	212.69
249.366	223.69
249.599	225.69
249.832	226.69
250.066	209.69
250.299	204.69
250.532	215.69
250.765	209.69
250.998	239.69
251.231	245.69
251.465	214.69
251.698	228.69
251.931	230.69
252.164	221.69
252.397	235.69
252.63	238.69
252.863	240.69
253.096	237.69
253.329	217.69
253.562	218.69
253.795	249.69
254.028	251.69
254.261	236.69
254.494	243.69
254.727	229.69
254.96	238.69
255.193	235.69
255.426	242.69
255.659	235.69
255.892	246.69
256.124	242.69
256.357	262.69
256.59	265.69
256.823	249.69
257.056	260.69
257.289	244.69
257.521	264.69
257.754	264.69
257.987	252.69
258.22	263.69
258.452	262.69
258.685	269.69
258.918	270.69
259.151	251.69
259.383	266.69
259.616	262.69
259.849	265.69
260.081	262.69
260.314	292.69
260.547	276.69
260.779	284.69
261.012	280.69
261.244	296.69
261.477	280.69
261.71	268.69
261.942	282.69
262.175	295.69
262.407	274.69
262.64	286.69
262.872	293.69
263.105	288.69
263.337	301.69
263.57	276.69
263.802	281.69
264.035	286.69
264.267	297.69
264.499	302.69
264.732	279.69
264.964	311.69
265.197	325.69
265.429	309.69
265.661	316.69
265.894	319.69
266.126	316.69
266.358	306.69
266.591	334.69
266.823	310.69
267.055	284.69
267.287	313.69
267.52	305.69
267.752	331.69
267.984	338.69
268.216	328.69
268.448	320.69
268.681	315.69
268.913	327.69
269.145	317.69
269.377	314.69
269.609	327.69
269.841	326.69
270.073	337.69
270.306	340.69
270.538	315.69
270.77	329.69
271.002	338.69
271.234	311.69
271.466	326.69
271.698	334.69
271.93	321.69
272.162	332.69
272.394	341.69
272.626	347.69
272.858	346.69
273.09	344.69
273.322	336.69
273.553	343.69
273.785	339.69
274.017	350.69
274.249	347.69
274.481	342.69
274.713	347.69
274.945	349.69
275.176	358.69
275.408	353.69
275.64	368.69
275.872	343.69
276.104	342.69
276.335	346.69
276.567	370.69
276.799	368.69
277.031	374.69
277.262	361.69
277.494	355.69
277.726	373.69
277.957	368.69
278.189	352.69
278.421	357.69
278.652	372.69
278.884	373.69
279.115	356.69
279.347	374.69
279.579	385.69
279.81	386.69
280.042	365.69
280.273	398.69
280.505	390.69
280.736	403.69
280.968	386.69
281.199	402.69
281.431	407.69
281.662	411.69
281.894	406.69
282.125	404.69
282.356	393.69
282.588	397.69
282.819	419.69
283.051	393.69
283.282	413.69
283.513	427.69
283.745	416.69
283.976	406.69
284.207	414.69
284.439	427.69
284.67	419.69
284.901	430.69
285.132	428.69
285.364	433.69
285.595	424.69
285.826	430.69
286.057	435.69
286.288	444.69
286.52	455.69
286.751	445.69
286.982	429.69
287.213	440.69
287.444	450.69
287.675	437.69
287.906	428.69
288.138	451.69
288.369	452.69
288.6	455.69
288.831	443.69
289.062	461.69
289.293	442.69
289.524	437.69
289.755	441.69
289.986	453.69
290.217	460.69
290.448	460.69
290.679	446.69
290.91	432.69
291.141	444.69
291.371	457.69
291.602	463.69
291.833	457.69
292.064	475.69
292.295	451.69
292.526	465.69
292.757	482.69
292.987	453.69
293.218	448.69
293.449	453.69
293.68	456.69
293.91	450.69
294.141	458.69
294.372	455.69
294.603	475.69
294.833	475.69
295.064	492.69
295.295	440.69
295.525	462.69
295.756	479.69
295.987	471.69
296.217	474.69
296.448	487.69
296.679	472.69
296.909	472.69
297.14	507.69
297.37	470.69
297.601	491.69
297.831	485.69
298.062	473.69
298.292	506.69
298.523	519.69
298.753	508.69
298.984	515.69
299.214	496.69
299.445	522.69
299.675	511.69
299.905	490.69
300.136	481.69
300.366	515.69
300.597	526.69
300.827	545.69
301.057	543.69
301.288	551.69
301.518	518.69
301.748	532.69
301.979	523.69
302.209	528.69
302.439	508.69
302.669	532.69
302.9	522.69
303.13	524.69
303.36	524.69
303.59	523.69
303.82	516.69
304.051	535.69
304.281	508.69
304.511	545.69
304.741	526.69
304.971	506.69
305.201	518.69
305.431	549.69
305.661	545.69
305.891	498.69
306.121	502.69
306.352	522.69
306.582	510.69
306.812	515.69
307.042	512.69
307.272	514.69
307.502	508.69
307.731	513.69
307.961	512.69
308.191	514.69
308.421	536.69
308.651	499.69
308.881	520.69
309.111	521.69
309.341	515.69
309.571	521.69
309.8	518.69
310.03	534.69
310.26	498.69
310.49	491.69
310.72	522.69
310.949	520.69
311.179	513.69
311.409	522.69
311.639	542.69
311.868	539.69
312.098	539.69
312.328	541.69
312.557	522.69
312.787	533.69
313.017	528.69
313.246	538.69
313.476	551.69
313.706	555.69
313.935	572.69
314.165	565.69
314.394	568.69
314.624	549.69
314.853	560.69
315.083	542.69
315.312	549.69
315.542	557.69
315.771	536.69
316.001	538.69
316.23	548.69
316.46	540.69
316.689	542.69
316.919	548.69
317.148	536.69
317.377	552.69
317.607	561.69
317.836	560.69
318.065	555.69
318.295	534.69
318.524	544.69
318.753	541.69
318.983	540.69
319.212	562.69
319.441	538.69
319.67	546.69
319.9	548.69
320.129	560.69
320.358	541.69
320.587	546.69
320.816	572.69
321.046	556.69
321.275	534.69
321.504	554.69
321.733	550.69
321.962	539.69
322.191	551.69
322.42	540.69
322.649	565.69
322.878	569.69
323.108	564.69
323.337	576.69
323.566	578.69
323.795	567.69
324.024	546.69
324.253	552.69
324.482	587.69
324.71	569.69
324.939	585.69
325.168	569.69
325.397	560.69
325.626	574.69
325.855	574.69
326.084	611.69
326.313	601.69
326.542	607.69
326.77	618.69
326.999	587.69
327.228	594.69
327.457	600.69
327.686	593.69
327.914	609.69
328.143	618.69
328.372	600.69
328.6	621.69
328.829	613.69
329.058	606.69
329.287	596.69
329.515	633.69
329.744	610.69
329.972	612.69
330.201	615.69
330.43	642.69
330.658	622.69
330.887	635.69
331.115	630.69
331.344	644.69
331.572	653.69
331.801	674.69
332.03	676.69
332.258	698.69
332.486	707.69
332.715	729.69
332.943	762.69
333.172	788.69
333.4	847.69
333.629	845.69
333.857	820.69
334.085	805.69
334.314	789.69
334.542	778.69
334.771	786.69
334.999	764.69
335.227	760.69
335.455	749.69
335.684	741.69
335.912	720.69
336.14	748.69
336.369	741.69
336.597	730.69
336.825	741.69
337.053	717.69
337.281	711.69
337.51	694.69
337.738	706.69
337.966	690.69
338.194	690.69
338.422	665.69
338.65	663.69
338.878	679.69
339.106	678.69
339.334	673.69
339.562	665.69
339.79	661.69
340.018	661.69
340.246	637.69
340.474	657.69
340.702	640.69
340.93	654.69
341.158	646.69
341.386	637.69
341.614	644.69
341.842	660.69
342.07	629.69
342.298	626.69
342.526	632.69
342.754	629.69
342.981	615.69
343.209	648.69
343.437	690.69
343.665	730.69
343.893	778.69
344.12	787.69
344.348	768.69
344.576	728.69
344.804	700.69
345.031	666.69
345.259	667.69
345.487	654.69
345.714	615.69
345.942	642.69
346.17	648.69
346.397	622.69
346.625	634.69
346.853	639.69
347.08	622.69
347.308	619.69
347.535	635.69
347.763	631.69
347.99	618.69
348.218	620.69
348.445	645.69
348.673	612.69
348.9	626.69
349.128	630.69
349.355	609.69
349.583	621.69
349.81	633.69
350.037	624.69
350.265	580.69
350.492	606.69
350.72	613.69
350.947	613.69
351.174	589.69
351.402	612.69
351.629	608.69
351.856	597.69
352.083	615.69
352.311	619.69
352.538	619.69
352.765	641.69
352.992	608.69
353.22	564.69
353.447	591.69
353.674	597.69
353.901	592.69
354.128	597.69
354.355	595.69
354.583	604.69
354.81	622.69
355.037	593.69
355.264	605.69
355.491	602.69
355.718	597.69
355.945	608.69
356.172	606.69
356.399	633.69
356.626	613.69
356.853	594.69
357.08	618.69
357.307	598.69
357.534	610.69
357.761	608.69
357.988	615.69
358.215	606.69
358.441	626.69
358.668	609.69
358.895	611.69
359.122	610.69
359.349	590.69
359.576	609.69
359.802	617.69
360.029	608.69
360.256	595.69
360.483	610.69
360.709	615.69
360.936	625.69
361.163	636.69
361.39	609.69
361.616	615.69
361.843	605.69
362.07	616.69
362.296	611.69
362.523	595.69
362.749	591.69
362.976	586.69
363.203	598.69
363.429	592.69
363.656	614.69
363.882	592.69
364.109	604.69
364.335	597.69
364.562	598.69
364.788	578.69
365.015	608.69
365.241	593.69
365.468	576.69
365.694	589.69
365.92	590.69
366.147	608.69
366.373	606.69
366.599	609.69
366.826	600.69
367.052	596.69
367.278	580.69
367.505	608.69
367.731	609.69
367.957	611.69
368.184	628.69
368.41	628.69
368.636	603.69
368.862	606.69
369.089	614.69
369.315	602.69
369.541	619.69
369.767	601.69
369.993	662.69
370.219	646.69
370.445	624.69
370.672	654.69
370.898	653.69
371.124	644.69
371.35	663.69
371.576	650.69
371.802	661.69
372.028	636.69
372.254	648.69
372.48	664.69
372.706	671.69
372.932	670.69
373.158	706.69
373.384	652.69
373.61	650.69
373.835	668.69
374.061	629.69
374.287	674.69
374.513	710.69
374.739	694.69
374.965	712.69
375.191	736.69
375.416	735.69
375.642	717.69
375.868	680.69
376.094	701.69
376.319	680.69
376.545	688.69
376.771	679.69
376.997	659.69
377.222	640.69
377.448	645.69
377.674	665.69
377.899	645.69
378.125	638.69
378.35	656.69
378.576	650.69
378.802	642.69
379.027	635.69
379.253	645.69
379.478	636.69
379.704	658.69
379.929	655.69
380.155	652.69
380.38	652.69
380.606	612.69
380.831	658.69
381.057	665.69
381.282	666.69
381.507	678.69
381.733	643.69
381.958	658.69
382.184	669.69
382.409	696.69
382.634	713.69
382.86	703.69
383.085	704.69
383.31	727.69
383.535	745.69
383.761	717.69
383.986	731.69
384.211	738.69
384.436	772.69
384.662	772.69
384.887	779.69
385.112	797.69
385.337	810.69
385.562	827.69
385.787	804.69
386.013	784.69
386.238	786.69
386.463	822.69
386.688	805.69
386.913	778.69
387.138	771.69
387.363	768.69
387.588	749.69
387.813	772.69
388.038	794.69
388.263	757.69
388.488	804.69
388.713	775.69
388.938	776.69
389.163	745.69
389.387	792.69
389.612	756.69
389.837	780.69
390.062	777.69
390.287	773.69
390.512	774.69
390.736	774.69
390.961	809.69
391.186	820.69
391.411	852.69
391.636	838.69
391.86	901.69
392.085	893.69
392.31	859.69
392.534	868.69
392.759	840.69
392.984	829.69
393.208	854.69
393.433	830.69
393.658	845.69
393.882	841.69
394.107	836.69
394.331	827.69
394.556	842.69
394.78	853.69
395.005	838.69
395.229	847.69
395.454	884.69
395.678	891.69
395.903	893.69
396.127	865.69
396.352	834.69
396.576	830.69
396.801	837.69
397.025	851.69
397.249	859.69
397.474	874.69
397.698	886.69
397.922	890.69
398.147	884.69
398.371	910.69
398.595	923.69
398.82	964.69
399.044	1048.69
399.268	1170.69
399.492	1351.69
399.717	1499.69
399.941	1514.69
400.165	1283.69
400.389	1180.69
400.613	1081.69
400.837	1009.69
401.062	1003.69
401.286	1012.69
401.51	956.69
401.734	982.69
401.958	1002.69
402.182	994.69
402.406	1040.69
402.63	1008.69
402.854	1045.69
403.078	1066.69
403.302	1125.69
403.526	1126.69
403.75	1147.69
403.974	1166.69
404.198	1137.69
404.422	1195.69
404.645	1187.69
404.869	1094.69
405.093	1130.69
405.317	1092.69
405.541	1110.69
405.765	1107.69
405.988	1084.69
406.212	1066.69
406.436	1076.69
406.66	1094.69
406.883	1145.69
407.107	1190.69
407.331	1264.69
407.555	1308.69
407.778	1251.69
408.002	1245.69
408.226	1186.69
408.449	1173.69
408.673	1156.69
408.896	1142.69
409.12	1127.69
409.344	1105.69
409.567	1099.69
409.791	1110.69
410.014	1125.69
410.238	1101.69
410.461	1121.69
410.685	1083.69
410.908	1076.69
411.132	1085.69
411.355	1029.69
411.578	1044.69
411.802	979.69
412.025	1021.69
412.249	1040.69
412.472	1025.69
412.695	1015.69
412.919	985.69
413.142	988.69
413.365	968.69
413.589	990.69
413.812	999.69
414.035	960.69
414.258	998.69
414.482	982.69
414.705	1001.69
414.928	982.69
415.151	1012.69
415.374	1002.69
415.597	978.69
415.821	974.69
416.044	965.69
416.267	947.69
416.49	957.69
416.713	927.69
416.936	978.69
417.159	961.69
417.382	953.69
417.605	948.69
417.828	953.69
418.051	979.69
418.274	994.69
418.497	978.69
418.72	994.69
418.943	1030.69
419.166	1052.69
419.389	1112.69
419.611	1106.69
419.834	1058.69
420.057	1015.69
420.28	980.69
420.503	996.69
420.726	968.69
420.948	980.69
421.171	973.69
421.394	978.69
421.617	946.69
421.839	993.69
422.062	979.69
422.285	982.69
422.507	1021.69
422.73	978.69
422.953	1007.69
423.175	1027.69
423.398	1074.69
423.621	1052.69
423.843	1064.69
424.066	1062.69
424.288	1044.69
424.511	1004.69
424.733	1016.69
424.956	988.69
425.178	1015.69
425.401	994.69
425.623	967.69
425.846	925.69
426.068	947.69
426.291	933.69
426.513	915.69
426.735	894.69
426.958	907.69
427.18	906.69
427.402	902.69
427.625	859.69
427.847	873.69
428.069	868.69
428.292	887.69
428.514	867.69
428.736	880.69
428.958	867.69
429.181	844.69
429.403	850.69
429.625	851.69
429.847	829.69
430.069	842.69
430.292	828.69
430.514	811.69
430.736	875.69
430.958	820.69
431.18	845.69
431.402	836.69
431.624	856.69
431.846	880.69
432.068	875.69
432.29	877.69
432.512	856.69
432.734	900.69
432.956	847.69
433.178	857.69
433.4	847.69
433.622	894.69
433.844	861.69
434.066	905.69
434.287	901.69
434.509	953.69
434.731	974.69
434.953	984.69
435.175	1004.69
435.397	961.69
435.618	902.69
435.84	907.69
436.062	878.69
436.284	861.69
436.505	863.69
436.727	890.69
436.949	892.69
437.17	859.69
437.392	897.69
437.614	861.69
437.835	846.69
438.057	820.69
438.278	816.69
438.5	827.69
438.721	840.69
438.943	844.69
439.165	829.69
439.386	842.69
439.608	856.69
439.829	836.69
440.05	859.69
440.272	870.69
440.493	878.69
440.715	888.69
440.936	899.69
441.158	932.69
441.379	934.69
441.6	988.69
441.822	972.69
442.043	971.69
442.264	937.69
442.486	936.69
442.707	951.69
442.928	948.69
443.149	963.69
443.371	960.69
443.592	998.69
443.813	971.69
444.034	973.69
444.255	1037.69
444.476	1082.69
444.698	1143.69
444.919	1187.69
445.14	1241.69
445.361	1106.69
445.582	986.69
445.803	964.69
446.024	938.69
446.245	892.69
446.466	883.69
446.687	875.69
446.908	864.69
447.129	820.69
447.35	816.69
447.571	821.69
447.792	828.69
448.013	832.69
448.234	796.69
448.455	793.69
448.675	781.69
448.896	819.69
449.117	773.69
449.338	792.69
449.559	760.69
449.779	790.69
450	774.69
450.221	797.69
450.442	829.69
450.662	788.69
450.883	780.69
451.104	818.69
451.324	813.69
451.545	820.69
451.766	811.69
451.986	788.69
452.207	781.69
452.428	793.69
452.648	798.69
452.869	801.69
453.089	781.69
453.31	772.69
453.53	788.69
453.751	788.69
453.971	760.69
454.192	784.69
454.412	736.69
454.633	754.69
454.853	766.69
455.073	749.69
455.294	749.69
455.514	730.69
455.734	775.69
455.955	736.69
456.175	754.69
456.395	744.69
456.616	729.69
456.836	713.69
457.056	734.69
457.276	732.69
457.497	726.69
457.717	746.69
457.937	759.69
458.157	768.69
458.377	753.69
458.598	797.69
458.818	809.69
459.038	819.69
459.258	854.69
459.478	873.69
459.698	894.69
459.918	905.69
460.138	987.69
460.358	1042.69
460.578	1016.69
460.798	1059.69
461.018	1039.69
461.238	994.69
461.458	980.69
461.678	1020.69
461.898	1036.69
462.118	1051.69
462.338	1123.69
462.558	1113.69
462.777	1165.69
462.997	1267.69
463.217	1429.69
463.437	1412.69
463.657	1276.69
463.876	1198.69
464.096	1195.69
464.316	1188.69
464.536	1200.69
464.755	1153.69
464.975	1095.69
465.195	1074.69
465.414	1016.69
465.634	929.69
465.854	905.69
466.073	884.69
466.293	853.69
466.512	834.69
466.732	832.69
466.951	830.69
467.171	837.69
467.391	835.69
467.61	822.69
467.829	829.69
468.049	813.69
468.268	804.69
468.488	783.69
468.707	799.69
468.927	826.69
469.146	798.69
469.365	810.69
469.585	834.69
469.804	828.69
470.023	852.69
470.243	848.69
470.462	851.69
470.681	877.69
470.901	879.69
471.12	837.69
471.339	832.69
471.558	800.69
471.777	781.69
471.997	795.69
472.216	820.69
472.435	777.69
472.654	753.69
472.873	760.69
473.092	764.69
473.311	784.69
473.53	804.69
473.749	774.69
473.968	792.69
474.187	763.69
474.406	762.69
474.625	768.69
474.844	783.69
475.063	769.69
475.282	788.69
475.501	792.69
475.72	777.69
475.939	778.69
476.158	789.69
476.377	805.69
476.596	792.69
476.814	822.69
477.033	812.69
477.252	844.69
477.471	847.69
477.69	865.69
477.908	917.69
478.127	907.69
478.346	932.69
478.564	965.69
478.783	946.69
479.002	995.69
479.22	995.69
479.439	968.69
479.658	966.69
479.876	961.69
480.095	1009.69
480.313	1010.69
480.532	1086.69
480.751	1072.69
480.969	1001.69
481.188	979.69
481.406	956.69
481.624	946.69
481.843	898.69
482.061	889.69
482.28	866.69
482.498	847.69
482.717	858.69
482.935	887.69
483.153	894.69
483.372	901.69
483.59	913.69
483.808	914.69
484.027	894.69
484.245	929.69
484.463	902.69
484.681	933.69
484.9	921.69
485.118	914.69
485.336	954.69
485.554	924.69
485.772	929.69
485.99	947.69
486.209	979.69
486.427	962.69
486.645	956.69
486.863	954.69
487.081	955.69
487.299	928.69
487.517	934.69
487.735	956.69
487.953	920.69
488.171	933.69
488.389	906.69
488.607	934.69
488.825	932.69
489.043	937.69
489.261	914.69
489.479	909.69
489.696	907.69
489.914	895.69
490.132	920.69
490.35	934.69
490.568	932.69
490.786	926.69
491.003	922.69
491.221	925.69
491.439	936.69
491.657	939.69
491.874	918.69
492.092	951.69
492.31	946.69
492.527	963.69
492.745	971.69
492.963	961.69
493.18	960.69
493.398	940.69
493.615	974.69
493.833	966.69
494.05	965.69
494.268	969.69
494.485	1017.69
494.703	990.69
494.92	966.69
495.138	985.69
495.355	977.69
495.573	990.69
495.79	995.69
496.008	996.69
496.225	1003.69
496.442	994.69
496.66	1029.69
496.877	1021.69
497.094	1039.69
497.312	1042.69
497.529	1057.69
497.746	1085.69
497.963	1140.69
498.181	1189.69
498.398	1233.69
498.615	1289.69
498.832	1397.69
499.049	1476.69
499.267	1642.69
499.484	1774.69
499.701	2007.69
499.918	2205.69
500.135	2558.69
500.352	2945.69
500.569	3040.69
500.786	3040.69
501.003	2771.69
501.22	2474.69
501.437	2144.69
501.654	1915.69
501.871	1684.69
502.088	1577.69
502.305	1490.69
502.522	1417.69
502.739	1353.69
502.956	1286.69
503.172	1146.69
503.389	1156.69
503.606	1111.69
503.823	1092.69
504.04	1131.69
504.256	1117.69
504.473	1169.69
504.69	1179.69
504.907	1144.69
505.123	1052.69
505.34	1009.69
505.557	936.69
505.773	921.69
505.99	913.69
506.207	921.69
506.423	928.69
506.64	872.69
506.856	838.69
507.073	867.69
507.289	821.69
507.506	860.69
507.722	839.69
507.939	845.69
508.155	839.69
508.372	833.69
508.588	837.69
508.805	823.69
509.021	807.69
509.238	818.69
509.454	776.69
509.67	793.69
509.887	806.69
510.103	806.69
510.319	786.69
510.536	794.69
510.752	800.69
510.968	800.69
511.184	781.69
511.401	788.69
511.617	798.69
511.833	810.69
512.049	786.69
512.265	801.69
512.481	772.69
512.698	787.69
512.914	785.69
513.13	768.69
513.346	796.69
513.562	807.69
513.778	781.69
513.994	786.69
514.21	782.69
514.426	802.69
514.642	822.69
514.858	816.69
515.074	799.69
515.29	802.69
515.506	822.69
515.721	849.69
515.937	826.69
516.153	853.69
516.369	861.69
516.585	898.69
516.801	948.69
517.016	1002.69
517.232	1009.69
517.448	1084.69
517.664	1099.69
517.879	1113.69
518.095	1125.69
518.311	1100.69
518.527	1046.69
518.742	966.69
518.958	957.69
519.173	932.69
519.389	873.69
519.605	855.69
519.82	851.69
520.036	830.69
520.251	807.69
520.467	794.69
520.682	776.69
520.898	813.69
521.113	803.69
521.329	782.69
521.544	765.69
521.76	786.69
521.975	750.69
522.19	763.69
522.406	757.69
522.621	757.69
522.836	759.69
523.052	746.69
523.267	749.69
523.482	738.69
523.698	713.69
523.913	728.69
524.128	750.69
524.343	718.69
524.559	705.69
524.774	708.69
524.989	731.69
525.204	715.69
525.419	718.69
525.634	714.69
525.849	708.69
526.064	717.69
526.28	699.69
526.495	708.69
526.71	704.69
526.925	715.69
527.14	698.69
527.355	740.69
527.57	741.69
527.785	693.69
527.999	690.69
528.214	685.69
528.429	729.69
528.644	725.69
528.859	686.69
529.074	701.69
529.289	705.69
529.503	724.69
529.718	674.69
529.933	716.69
530.148	699.69
530.363	713.69
530.577	714.69
530.792	700.69
531.007	694.69
531.221	709.69
531.436	685.69
531.651	700.69
531.865	734.69
532.08	705.69
532.295	725.69
532.509	730.69
532.724	713.69
532.938	707.69
533.153	707.69
533.367	705.69
533.582	720.69
533.796	741.69
534.011	725.69
534.225	690.69
534.44	682.69
534.654	701.69
534.868	676.69
535.083	688.69
535.297	688.69
535.511	693.69
535.726	670.69
535.94	698.69
536.154	666.69
536.369	654.69
536.583	656.69
536.797	652.69
537.011	674.69
537.225	648.69
537.44	657.69
537.654	683.69
537.868	667.69
538.082	656.69
538.296	635.69
538.51	626.69
538.724	638.69
538.938	641.69
539.153	644.69
539.367	634.69
539.581	646.69
539.795	637.69
540.009	640.69
540.222	635.69
540.436	642.69
540.65	654.69
540.864	633.69
541.078	644.69
541.292	637.69
541.506	661.69
541.72	660.69
541.934	648.69
542.147	624.69
542.361	654.69
542.575	621.69
542.789	636.69
543.002	629.69
543.216	632.69
543.43	608.69
543.644	598.69
543.857	645.69
544.071	638.69
544.285	668.69
544.498	636.69
544.712	609.69
544.925	628.69
545.139	644.69
545.352	641.69
545.566	633.69
545.779	651.69
545.993	661.69
546.206	660.69
546.42	667.69
546.633	651.69
546.847	633.69
547.06	634.69
547.274	633.69
547.487	637.69
547.7	641.69
547.914	665.69
548.127	672.69
548.34	637.69
548.554	648.69
548.767	642.69
548.98	660.69
549.193	688.69
549.407	673.69
549.62	653.69
549.833	679.69
550.046	659.69
550.259	658.69
550.473	652.69
550.686	649.69
550.899	632.69
551.112	631.69
551.325	648.69
551.538	645.69
551.751	631.69
551.964	642.69
552.177	650.69
552.39	651.69
552.603	667.69
552.816	684.69
553.029	710.69
553.242	712.69
553.455	712.69
553.667	730.69
553.88	699.69
554.093	698.69
554.306	669.69
554.519	655.69
554.732	631.69
554.944	627.69
555.157	610.69
555.37	630.69
555.583	617.69
555.795	601.69
556.008	567.69
556.221	584.69
556.433	586.69
556.646	600.69
556.859	588.69
557.071	568.69
557.284	552.69
557.496	569.69
557.709	553.69
557.921	556.69
558.134	539.69
558.346	565.69
558.559	579.69
558.771	546.69
558.984	528.69
559.196	549.69
559.409	549.69
559.621	532.69
559.833	540.69
560.046	526.69
560.258	533.69
560.47	525.69
560.683	528.69
560.895	524.69
561.107	538.69
561.32	541.69
561.532	517.69
561.744	540.69
561.956	549.69
562.168	526.69
562.381	528.69
562.593	539.69
562.805	555.69
563.017	553.69
563.229	558.69
563.441	556.69
563.653	537.69
563.865	553.69
564.077	550.69
564.289	556.69
564.501	571.69
564.713	555.69
564.925	590.69
565.137	591.69
565.349	594.69
565.561	613.69
565.773	615.69
565.985	648.69
566.197	685.69
566.408	740.69
566.62	828.69
566.832	873.69
567.044	904.69
567.255	892.69
567.467	925.69
567.679	972.69
567.891	1063.69
568.102	1072.69
568.314	1030.69
568.526	898.69
568.737	812.69
568.949	726.69
569.161	704.69
569.372	622.69
569.584	610.69
569.795	603.69
570.007	581.69
570.218	559.69
570.43	550.69
570.641	542.69
570.853	548.69
571.064	581.69
571.276	586.69
571.487	542.69
571.698	518.69
571.91	509.69
572.121	525.69
572.333	493.69
572.544	482.69
572.755	451.69
572.966	478.69
573.178	473.69
573.389	459.69
573.6	436.69
573.811	443.69
574.023	451.69
574.234	448.69
574.445	452.69
574.656	443.69
574.867	452.69
575.078	454.69
575.289	445.69
575.501	426.69
575.712	414.69
575.923	426.69
576.134	449.69
576.345	428.69
576.556	440.69
576.767	413.69
576.978	416.69
577.188	424.69
577.399	414.69
577.61	426.69
577.821	403.69
578.032	403.69
578.243	405.69
578.454	404.69
578.665	407.69
578.875	415.69
579.086	392.69
579.297	406.69
579.508	403.69
579.718	404.69
579.929	393.69
580.14	384.69
580.35	373.69
580.561	378.69
580.772	394.69
580.982	376.69
581.193	395.69
581.403	393.69
581.614	399.69
581.825	391.69
582.035	387.69
582.246	374.69
582.456	372.69
582.667	373.69
582.877	381.69
583.087	376.69
583.298	354.69
583.508	372.69
583.719	363.69
583.929	365.69
584.139	358.69
584.35	363.69
584.56	364.69
584.77	366.69
584.981	372.69
585.191	362.69
585.401	358.69
585.611	337.69
585.821	370.69
586.032	357.69
586.242	347.69
586.452	368.69
586.662	361.69
586.872	368.69
587.082	354.69
587.292	347.69
587.502	360.69
587.713	368.69
587.923	373.69
588.133	362.69
588.343	358.69
588.553	355.69
588.762	373.69
588.972	356.69
589.182	359.69
589.392	361.69
589.602	340.69
589.812	350.69
590.022	361.69
590.232	364.69
590.441	349.69
590.651	373.69
590.861	377.69
591.071	373.69
591.281	394.69
591.49	361.69
591.7	374.69
591.91	366.69
592.119	402.69
592.329	379.69
592.539	404.69
592.748	430.69
592.958	426.69
593.167	460.69
593.377	451.69
593.587	468.69
593.796	470.69
594.006	466.69
594.215	487.69
594.424	492.69
594.634	445.69
594.843	432.69
595.053	406.69
595.262	426.69
595.472	398.69
595.681	380.69
595.89	376.69
596.1	363.69
596.309	363.69
596.518	340.69
596.727	369.69
596.937	330.69
597.146	340.69
597.355	336.69
597.564	324.69
597.774	318.69
597.983	334.69
598.192	342.69
598.401	315.69
598.61	316.69
598.819	303.69
599.028	302.69
599.237	309.69
599.446	304.69
599.655	310.69
599.864	302.69
600.073	309.69
600.282	331.69
600.491	299.69
600.7	300.69
600.909	291.69
601.118	311.69
601.327	308.69
601.536	291.69
601.745	297.69
601.953	293.69
602.162	299.69
602.371	304.69
602.58	310.69
602.789	296.69
602.997	285.69
603.206	313.69
603.415	280.69
603.623	301.69
603.832	276.69
604.041	289.69
604.249	276.69
604.458	295.69
604.666	288.69
604.875	288.69
605.084	297.69
605.292	287.69
605.501	298.69
605.709	288.69
605.918	285.69
606.126	287.69
606.334	276.69
606.543	276.69
606.751	287.69
606.96	281.69
607.168	270.69
607.376	272.69
607.585	285.69
607.793	286.69
608.001	278.69
608.21	291.69
608.418	264.69
608.626	261.69
608.834	276.69
609.043	270.69
609.251	278.69
609.459	269.69
609.667	261.69
609.875	281.69
610.083	270.69
610.291	258.69
610.499	290.69
610.707	279.69
610.916	266.69
611.124	257.69
611.332	267.69
611.54	269.69
611.748	261.69
611.955	268.69
612.163	275.69
612.371	261.69
612.579	278.69
612.787	268.69
612.995	286.69
613.203	256.69
613.411	252.69
613.618	263.69
613.826	258.69
614.034	253.69
614.242	276.69
614.449	256.69
614.657	277.69
614.865	258.69
615.072	266.69
615.28	279.69
615.488	256.69
615.695	254.69
615.903	278.69
616.111	279.69
616.318	278.69
616.526	300.69
616.733	268.69
616.941	265.69
617.148	280.69
617.356	243.69
617.563	269.69
617.771	285.69
617.978	286.69
618.185	264.69
618.393	262.69
618.6	269.69
618.807	274.69
619.015	284.69
619.222	258.69
619.429	262.69
619.637	267.69
619.844	258.69
620.051	257.69
620.258	259.69
620.466	248.69
620.673	262.69
620.88	256.69
621.087	233.69
621.294	258.69
621.501	242.69
621.708	232.69
621.915	251.69
622.122	243.69
622.329	216.69
622.536	237.69
622.743	238.69
622.95	226.69
623.157	257.69
623.364	238.69
623.571	240.69
623.778	255.69
623.985	248.69
624.192	249.69
624.399	237.69
624.606	243.69
624.812	218.69
625.019	242.69
625.226	230.69
625.433	238.69
625.639	236.69
625.846	235.69
626.053	242.69
626.259	233.69
626.466	230.69
626.673	243.69
626.879	245.69
627.086	231.69
627.293	207.69
627.499	222.69
627.706	230.69
627.912	215.69
628.119	222.69
628.325	229.69
628.532	225.69
628.738	230.69
628.945	217.69
629.151	220.69
629.357	219.69
629.564	226.69
629.77	222.69
629.976	203.69
630.183	214.69
630.389	210.69
630.595	221.69
630.802	208.69
631.008	210.69
631.214	214.69
631.42	215.69
631.627	216.69
631.833	219.69
632.039	205.69
632.245	205.69
632.451	230.69
632.657	202.69
632.863	203.69
633.069	196.69
633.275	205.69
633.481	218.69
633.688	209.69
633.893	221.69
634.099	204.69
634.305	205.69
634.511	197.69
634.717	212.69
634.923	205.69
635.129	197.69
635.335	193.69
635.541	192.69
635.747	193.69
635.952	190.69
636.158	196.69
636.364	210.69
636.57	185.69
636.775	191.69
636.981	203.69
637.187	202.69
637.392	200.69
637.598	189.69
637.804	195.69
638.009	199.69
638.215	204.69
638.421	181.69
638.626	180.69
638.832	197.69
639.037	183.69
639.243	190.69
639.448	197.69
639.654	195.69
639.859	193.69
640.065	190.69
640.27	212.69
640.475	198.69
640.681	202.69
640.886	181.69
641.091	178.69
641.297	193.69
641.502	164.69
641.707	165.69
641.913	190.69
642.118	177.69
642.323	184.69
642.528	183.69
642.733	197.69
642.939	170.69
643.144	194.69
643.349	186.69
643.554	182.69
643.759	164.69
643.964	182.69
644.169	187.69
644.374	183.69
644.579	183.69
644.784	171.69
644.989	202.69
645.194	179.69
645.399	176.69
645.604	182.69
645.809	173.69
646.014	187.69
646.219	170.69
646.423	198.69
646.628	180.69
646.833	186.69
647.038	177.69
647.243	189.69
647.447	173.69
647.652	173.69
647.857	199.69
648.062	182.69
648.266	182.69
648.471	185.69
648.676	177.69
648.88	199.69
649.085	203.69
649.289	187.69
649.494	185.69
649.698	191.69
649.903	177.69
650.107	197.69
650.312	171.69
650.516	168.69
650.721	189.69
650.925	168.69
651.13	170.69
651.334	157.69
651.539	162.69
651.743	169.69
651.947	174.69
652.152	172.69
652.356	148.69
652.56	162.69
652.764	166.69
652.969	166.69
653.173	162.69
653.377	148.69
653.581	141.69
653.785	162.69
653.99	152.69
654.194	142.69
654.398	145.69
654.602	152.69
654.806	161.69
655.01	155.69
655.214	148.69
655.418	140.69
655.622	146.69
655.826	160.69
656.03	146.69
656.234	153.69
656.438	169.69
656.642	163.69
656.846	169.69
657.049	149.69
657.253	144.69
657.457	149.69
657.661	134.69
657.865	127.69
658.068	121.69
658.272	116.69
658.476	121.69
658.68	108.69
658.883	102.69
659.087	100.69
659.291	110.69
659.494	100.69
659.698	93.69
659.901	108.69
660.105	94.69
660.309	102.69
660.512	98.69
660.716	89.69
660.919	100.69
661.123	104.69
661.326	85.69
661.53	95.69
661.733	102.69
661.936	95.69
662.14	89.69
662.343	96.69
662.546	100.69
662.75	93.69
662.953	99.69
663.156	92.69
663.36	75.69
663.563	84.69
663.766	81.69
663.969	81.69
664.173	78.69
664.376	85.69
664.579	65.69
664.782	82.69
664.985	89.69
665.188	77.69
665.391	86.69
665.594	83.69
665.797	79.69
666	88.69
666.203	96.69
666.406	60.69
666.609	77.69
666.812	85.69
667.015	78.69
667.218	86.69
667.421	98.69
667.624	74.69
667.827	87.69
668.03	85.69
668.232	92.69
668.435	87.69
668.638	84.69
668.841	77.69
669.043	101.69
669.246	74.69
669.449	96.69
669.651	81.69
669.854	74.69
670.057	77.69
670.259	85.69
670.462	83.69
670.665	86.69
670.867	84.69
671.07	81.69
671.272	65.69
671.475	77.69
671.677	74.69
671.88	78.69
672.082	82.69
672.284	82.69
672.487	84.69
672.689	66.69
672.892	88.69
