Data from Ni(NO3)2@0.25M.TitratingCurve.Agarose3%dH2O.NegLispCup.LampEnergy10.LIBS07252019_HRD10591_18-04-20-566.txt Node
Date: Thu Jul 25 18:04:20 EDT 2019
User: cochatt
Spectrometer: HR+D1059
Trigger mode: 1
Integration Time (sec): 1.000000E-1
Scans to average: 1
Electric dark correction enabled: true
Nonlinearity correction enabled: false
Boxcar width: 0
XAxis mode: Wavelengths
Number of Pixels in Spectrum: 2048
>>>>>Begin Spectral Data<<<<<
223.165	-23.62
223.4	-23.62
223.635	-23.62
223.869	-12.62
224.104	-20.62
224.338	-11.62
224.573	-17.62
224.808	-2.62
225.042	-15.62
225.277	-5.62
225.511	0.38
225.746	8.38
225.98	15.38
226.215	9.38
226.449	22.38
226.683	6.38
226.918	21.38
227.152	26.38
227.387	26.38
227.621	34.38
227.856	39.38
228.09	43.38
228.324	54.38
228.559	56.38
228.793	76.38
229.027	113.38
229.262	109.38
229.496	120.38
229.73	121.38
229.964	120.38
230.199	125.38
230.433	133.38
230.667	138.38
230.901	142.38
231.136	137.38
231.37	131.38
231.604	143.38
231.838	145.38
232.072	142.38
232.306	144.38
232.541	150.38
232.775	131.38
233.009	147.38
233.243	149.38
233.477	151.38
233.711	128.38
233.945	139.38
234.179	127.38
234.413	152.38
234.647	145.38
234.881	138.38
235.115	142.38
235.349	133.38
235.583	141.38
235.817	132.38
236.051	136.38
236.285	153.38
236.519	128.38
236.753	128.38
236.987	131.38
237.221	150.38
237.455	148.38
237.689	148.38
237.922	154.38
238.156	154.38
238.39	160.38
238.624	178.38
238.858	146.38
239.091	159.38
239.325	166.38
239.559	160.38
239.793	163.38
240.027	158.38
240.26	166.38
240.494	167.38
240.728	171.38
240.961	174.38
241.195	177.38
241.429	173.38
241.662	172.38
241.896	180.38
242.13	198.38
242.363	174.38
242.597	175.38
242.83	186.38
243.064	180.38
243.298	181.38
243.531	190.38
243.765	188.38
243.998	193.38
244.232	201.38
244.465	189.38
244.699	197.38
244.932	186.38
245.166	201.38
245.399	206.38
245.633	211.38
245.866	187.38
246.099	197.38
246.333	211.38
246.566	204.38
246.8	207.38
247.033	199.38
247.266	204.38
247.5	197.38
247.733	218.38
247.966	232.38
248.2	219.38
248.433	205.38
248.666	229.38
248.899	223.38
249.133	241.38
249.366	236.38
249.599	236.38
249.832	237.38
250.066	250.38
250.299	238.38
250.532	239.38
250.765	247.38
250.998	262.38
251.231	260.38
251.465	251.38
251.698	256.38
251.931	262.38
252.164	277.38
252.397	259.38
252.63	263.38
252.863	279.38
253.096	279.38
253.329	257.38
253.562	290.38
253.795	266.38
254.028	285.38
254.261	269.38
254.494	272.38
254.727	271.38
254.96	277.38
255.193	297.38
255.426	291.38
255.659	307.38
255.892	293.38
256.124	290.38
256.357	311.38
256.59	290.38
256.823	293.38
257.056	317.38
257.289	310.38
257.521	312.38
257.754	300.38
257.987	316.38
258.22	311.38
258.452	309.38
258.685	318.38
258.918	301.38
259.151	310.38
259.383	337.38
259.616	328.38
259.849	321.38
260.081	338.38
260.314	329.38
260.547	326.38
260.779	332.38
261.012	335.38
261.244	334.38
261.477	343.38
261.71	318.38
261.942	351.38
262.175	351.38
262.407	343.38
262.64	346.38
262.872	358.38
263.105	367.38
263.337	359.38
263.57	372.38
263.802	379.38
264.035	360.38
264.267	368.38
264.499	358.38
264.732	385.38
264.964	372.38
265.197	375.38
265.429	362.38
265.661	378.38
265.894	378.38
266.126	373.38
266.358	379.38
266.591	389.38
266.823	398.38
267.055	370.38
267.287	378.38
267.52	395.38
267.752	380.38
267.984	396.38
268.216	387.38
268.448	390.38
268.681	390.38
268.913	399.38
269.145	372.38
269.377	390.38
269.609	391.38
269.841	408.38
270.073	390.38
270.306	416.38
270.538	409.38
270.77	406.38
271.002	421.38
271.234	422.38
271.466	382.38
271.698	420.38
271.93	394.38
272.162	420.38
272.394	408.38
272.626	416.38
272.858	404.38
273.09	437.38
273.322	418.38
273.553	436.38
273.785	427.38
274.017	425.38
274.249	420.38
274.481	456.38
274.713	431.38
274.945	446.38
275.176	420.38
275.408	432.38
275.64	396.38
275.872	444.38
276.104	443.38
276.335	430.38
276.567	434.38
276.799	442.38
277.031	433.38
277.262	435.38
277.494	422.38
277.726	443.38
277.957	456.38
278.189	454.38
278.421	430.38
278.652	442.38
278.884	443.38
279.115	453.38
279.347	457.38
279.579	469.38
279.81	476.38
280.042	456.38
280.273	481.38
280.505	448.38
280.736	470.38
280.968	453.38
281.199	465.38
281.431	470.38
281.662	458.38
281.894	467.38
282.125	482.38
282.356	472.38
282.588	457.38
282.819	462.38
283.051	473.38
283.282	479.38
283.513	470.38
283.745	489.38
283.976	478.38
284.207	463.38
284.439	477.38
284.67	487.38
284.901	472.38
285.132	504.38
285.364	485.38
285.595	499.38
285.826	472.38
286.057	505.38
286.288	491.38
286.52	491.38
286.751	463.38
286.982	495.38
287.213	498.38
287.444	493.38
287.675	516.38
287.906	500.38
288.138	487.38
288.369	496.38
288.6	501.38
288.831	524.38
289.062	507.38
289.293	532.38
289.524	515.38
289.755	499.38
289.986	508.38
290.217	511.38
290.448	496.38
290.679	531.38
290.91	512.38
291.141	495.38
291.371	515.38
291.602	506.38
291.833	524.38
292.064	504.38
292.295	520.38
292.526	511.38
292.757	518.38
292.987	489.38
293.218	506.38
293.449	522.38
293.68	512.38
293.91	509.38
294.141	510.38
294.372	491.38
294.603	511.38
294.833	532.38
295.064	503.38
295.295	519.38
295.525	506.38
295.756	529.38
295.987	516.38
296.217	542.38
296.448	524.38
296.679	535.38
296.909	532.38
297.14	520.38
297.37	512.38
297.601	532.38
297.831	526.38
298.062	546.38
298.292	570.38
298.523	568.38
298.753	558.38
298.984	546.38
299.214	568.38
299.445	554.38
299.675	567.38
299.905	570.38
300.136	575.38
300.366	587.38
300.597	586.38
300.827	574.38
301.057	589.38
301.288	575.38
301.518	585.38
301.748	579.38
301.979	585.38
302.209	591.38
302.439	581.38
302.669	595.38
302.9	571.38
303.13	567.38
303.36	592.38
303.59	565.38
303.82	584.38
304.051	613.38
304.281	584.38
304.511	567.38
304.741	590.38
304.971	581.38
305.201	602.38
305.431	604.38
305.661	619.38
305.891	598.38
306.121	568.38
306.352	586.38
306.582	592.38
306.812	597.38
307.042	607.38
307.272	587.38
307.502	579.38
307.731	575.38
307.961	591.38
308.191	599.38
308.421	592.38
308.651	586.38
308.881	611.38
309.111	610.38
309.341	591.38
309.571	610.38
309.8	603.38
310.03	594.38
310.26	621.38
310.49	613.38
310.72	608.38
310.949	614.38
311.179	602.38
311.409	613.38
311.639	631.38
311.868	612.38
312.098	599.38
312.328	603.38
312.557	618.38
312.787	617.38
313.017	640.38
313.246	653.38
313.476	644.38
313.706	642.38
313.935	660.38
314.165	654.38
314.394	658.38
314.624	646.38
314.853	638.38
315.083	664.38
315.312	652.38
315.542	674.38
315.771	650.38
316.001	635.38
316.23	678.38
316.46	658.38
316.689	678.38
316.919	671.38
317.148	701.38
317.377	665.38
317.607	646.38
317.836	670.38
318.065	709.38
318.295	663.38
318.524	694.38
318.753	711.38
318.983	673.38
319.212	648.38
319.441	698.38
319.67	686.38
319.9	682.38
320.129	669.38
320.358	681.38
320.587	735.38
320.816	704.38
321.046	720.38
321.275	716.38
321.504	708.38
321.733	713.38
321.962	740.38
322.191	700.38
322.42	734.38
322.649	702.38
322.878	712.38
323.108	727.38
323.337	734.38
323.566	758.38
323.795	739.38
324.024	733.38
324.253	756.38
324.482	743.38
324.71	768.38
324.939	739.38
325.168	762.38
325.397	758.38
325.626	776.38
325.855	779.38
326.084	794.38
326.313	809.38
326.542	796.38
326.77	812.38
326.999	816.38
327.228	793.38
327.457	795.38
327.686	808.38
327.914	818.38
328.143	821.38
328.372	819.38
328.6	795.38
328.829	810.38
329.058	802.38
329.287	844.38
329.515	830.38
329.744	842.38
329.972	842.38
330.201	855.38
330.43	877.38
330.658	865.38
330.887	862.38
331.115	849.38
331.344	870.38
331.572	866.38
331.801	892.38
332.03	886.38
332.258	888.38
332.486	921.38
332.715	924.38
332.943	956.38
333.172	983.38
333.4	977.38
333.629	1007.38
333.857	1007.38
334.085	1001.38
334.314	1010.38
334.542	1051.38
334.771	1017.38
334.999	1022.38
335.227	1034.38
335.455	1005.38
335.684	1014.38
335.912	1016.38
336.14	1011.38
336.369	998.38
336.597	1018.38
336.825	1034.38
337.053	1037.38
337.281	993.38
337.51	981.38
337.738	1000.38
337.966	992.38
338.194	954.38
338.422	948.38
338.65	938.38
338.878	931.38
339.106	943.38
339.334	934.38
339.562	954.38
339.79	907.38
340.018	931.38
340.246	926.38
340.474	931.38
340.702	949.38
340.93	942.38
341.158	967.38
341.386	962.38
341.614	962.38
341.842	953.38
342.07	900.38
342.298	902.38
342.526	932.38
342.754	921.38
342.981	937.38
343.209	933.38
343.437	978.38
343.665	980.38
343.893	969.38
344.12	1010.38
344.348	1018.38
344.576	1011.38
344.804	989.38
345.031	964.38
345.259	962.38
345.487	961.38
345.714	967.38
345.942	919.38
346.17	940.38
346.397	924.38
346.625	918.38
346.853	901.38
347.08	907.38
347.308	905.38
347.535	907.38
347.763	899.38
347.99	899.38
348.218	894.38
348.445	904.38
348.673	900.38
348.9	894.38
349.128	899.38
349.355	894.38
349.583	881.38
349.81	888.38
350.037	874.38
350.265	853.38
350.492	847.38
350.72	847.38
350.947	875.38
351.174	888.38
351.402	910.38
351.629	902.38
351.856	923.38
352.083	869.38
352.311	894.38
352.538	884.38
352.765	892.38
352.992	856.38
353.22	840.38
353.447	842.38
353.674	843.38
353.901	844.38
354.128	840.38
354.355	831.38
354.583	828.38
354.81	871.38
355.037	892.38
355.264	862.38
355.491	857.38
355.718	860.38
355.945	844.38
356.172	856.38
356.399	855.38
356.626	888.38
356.853	910.38
357.08	880.38
357.307	896.38
357.534	856.38
357.761	861.38
357.988	875.38
358.215	883.38
358.441	864.38
358.668	824.38
358.895	847.38
359.122	826.38
359.349	838.38
359.576	848.38
359.802	845.38
360.029	839.38
360.256	850.38
360.483	850.38
360.709	885.38
360.936	859.38
361.163	867.38
361.39	848.38
361.616	870.38
361.843	879.38
362.07	906.38
362.296	895.38
362.523	860.38
362.749	877.38
362.976	838.38
363.203	842.38
363.429	842.38
363.656	853.38
363.882	853.38
364.109	825.38
364.335	844.38
364.562	841.38
364.788	852.38
365.015	859.38
365.241	852.38
365.468	866.38
365.694	847.38
365.92	846.38
366.147	843.38
366.373	855.38
366.599	841.38
366.826	825.38
367.052	841.38
367.278	881.38
367.505	832.38
367.731	878.38
367.957	839.38
368.184	809.38
368.41	856.38
368.636	869.38
368.862	861.38
369.089	855.38
369.315	873.38
369.541	839.38
369.767	877.38
369.993	866.38
370.219	867.38
370.445	890.38
370.672	884.38
370.898	901.38
371.124	908.38
371.35	890.38
371.576	904.38
371.802	883.38
372.028	895.38
372.254	893.38
372.48	916.38
372.706	923.38
372.932	915.38
373.158	911.38
373.384	912.38
373.61	903.38
373.835	908.38
374.061	904.38
374.287	895.38
374.513	924.38
374.739	921.38
374.965	941.38
375.191	935.38
375.416	946.38
375.642	935.38
375.868	921.38
376.094	898.38
376.319	897.38
376.545	895.38
376.771	898.38
376.997	910.38
377.222	903.38
377.448	892.38
377.674	871.38
377.899	893.38
378.125	890.38
378.35	890.38
378.576	872.38
378.802	845.38
379.027	864.38
379.253	882.38
379.478	874.38
379.704	852.38
379.929	876.38
380.155	889.38
380.38	870.38
380.606	882.38
380.831	874.38
381.057	888.38
381.282	848.38
381.507	883.38
381.733	890.38
381.958	855.38
382.184	880.38
382.409	920.38
382.634	918.38
382.86	876.38
383.085	896.38
383.31	916.38
383.535	930.38
383.761	904.38
383.986	931.38
384.211	926.38
384.436	960.38
384.662	959.38
384.887	958.38
385.112	983.38
385.337	978.38
385.562	949.38
385.787	997.38
386.013	1003.38
386.238	1029.38
386.463	1007.38
386.688	991.38
386.913	1003.38
387.138	990.38
387.363	994.38
387.588	969.38
387.813	1016.38
388.038	1002.38
388.263	1030.38
388.488	1031.38
388.713	995.38
388.938	1002.38
389.163	964.38
389.387	974.38
389.612	994.38
389.837	979.38
390.062	1013.38
390.287	990.38
390.512	995.38
390.736	1011.38
390.961	1034.38
391.186	1050.38
391.411	1051.38
391.636	1030.38
391.86	1096.38
392.085	1089.38
392.31	1086.38
392.534	1064.38
392.759	1077.38
392.984	1070.38
393.208	1048.38
393.433	1060.38
393.658	1061.38
393.882	1067.38
394.107	1056.38
394.331	1052.38
394.556	1067.38
394.78	1046.38
395.005	1064.38
395.229	1059.38
395.454	1076.38
395.678	1105.38
395.903	1136.38
396.127	1107.38
396.352	1053.38
396.576	1076.38
396.801	1044.38
397.025	1077.38
397.249	1138.38
397.474	1114.38
397.698	1146.38
397.922	1154.38
398.147	1163.38
398.371	1161.38
398.595	1187.38
398.82	1221.38
399.044	1255.38
399.268	1349.38
399.492	1435.38
399.717	1549.38
399.941	1534.38
400.165	1479.38
400.389	1413.38
400.613	1379.38
400.837	1322.38
401.062	1261.38
401.286	1249.38
401.51	1264.38
401.734	1241.38
401.958	1246.38
402.182	1273.38
402.406	1259.38
402.63	1240.38
402.854	1275.38
403.078	1242.38
403.302	1237.38
403.526	1278.38
403.75	1280.38
403.974	1320.38
404.198	1322.38
404.422	1282.38
404.645	1303.38
404.869	1300.38
405.093	1290.38
405.317	1308.38
405.541	1319.38
405.765	1332.38
405.988	1340.38
406.212	1350.38
406.436	1332.38
406.66	1400.38
406.883	1366.38
407.107	1416.38
407.331	1503.38
407.555	1490.38
407.778	1520.38
408.002	1491.38
408.226	1450.38
408.449	1433.38
408.673	1421.38
408.896	1380.38
409.12	1410.38
409.344	1398.38
409.567	1374.38
409.791	1391.38
410.014	1364.38
410.238	1352.38
410.461	1342.38
410.685	1338.38
410.908	1367.38
411.132	1352.38
411.355	1311.38
411.578	1322.38
411.802	1335.38
412.025	1304.38
412.249	1309.38
412.472	1339.38
412.695	1261.38
412.919	1292.38
413.142	1262.38
413.365	1300.38
413.589	1295.38
413.812	1292.38
414.035	1267.38
414.258	1271.38
414.482	1279.38
414.705	1273.38
414.928	1286.38
415.151	1311.38
415.374	1271.38
415.597	1240.38
415.821	1232.38
416.044	1255.38
416.267	1257.38
416.49	1223.38
416.713	1236.38
416.936	1227.38
417.159	1239.38
417.382	1237.38
417.605	1243.38
417.828	1238.38
418.051	1254.38
418.274	1282.38
418.497	1210.38
418.72	1264.38
418.943	1229.38
419.166	1318.38
419.389	1397.38
419.611	1400.38
419.834	1348.38
420.057	1290.38
420.28	1276.38
420.503	1223.38
420.726	1249.38
420.948	1198.38
421.171	1221.38
421.394	1258.38
421.617	1236.38
421.839	1242.38
422.062	1231.38
422.285	1220.38
422.507	1261.38
422.73	1245.38
422.953	1269.38
423.175	1271.38
423.398	1276.38
423.621	1266.38
423.843	1283.38
424.066	1259.38
424.288	1291.38
424.511	1274.38
424.733	1266.38
424.956	1250.38
425.178	1255.38
425.401	1275.38
425.623	1242.38
425.846	1230.38
426.068	1241.38
426.291	1240.38
426.513	1226.38
426.735	1221.38
426.958	1186.38
427.18	1190.38
427.402	1199.38
427.625	1194.38
427.847	1197.38
428.069	1169.38
428.292	1201.38
428.514	1159.38
428.736	1181.38
428.958	1202.38
429.181	1211.38
429.403	1183.38
429.625	1200.38
429.847	1188.38
430.069	1193.38
430.292	1196.38
430.514	1192.38
430.736	1187.38
430.958	1175.38
431.18	1162.38
431.402	1204.38
431.624	1148.38
431.846	1177.38
432.068	1199.38
432.29	1216.38
432.512	1180.38
432.734	1189.38
432.956	1189.38
433.178	1229.38
433.4	1253.38
433.622	1247.38
433.844	1264.38
434.066	1232.38
434.287	1231.38
434.509	1235.38
434.731	1272.38
434.953	1267.38
435.175	1308.38
435.397	1321.38
435.618	1253.38
435.84	1255.38
436.062	1233.38
436.284	1211.38
436.505	1215.38
436.727	1168.38
436.949	1191.38
437.17	1190.38
437.392	1181.38
437.614	1207.38
437.835	1155.38
438.057	1169.38
438.278	1188.38
438.5	1141.38
438.721	1150.38
438.943	1189.38
439.165	1182.38
439.386	1165.38
439.608	1205.38
439.829	1221.38
440.05	1229.38
440.272	1203.38
440.493	1226.38
440.715	1222.38
440.936	1205.38
441.158	1261.38
441.379	1250.38
441.6	1303.38
441.822	1269.38
442.043	1273.38
442.264	1287.38
442.486	1255.38
442.707	1275.38
442.928	1255.38
443.149	1276.38
443.371	1308.38
443.592	1320.38
443.813	1312.38
444.034	1301.38
444.255	1343.38
444.476	1342.38
444.698	1380.38
444.919	1434.38
445.14	1517.38
445.361	1417.38
445.582	1365.38
445.803	1285.38
446.024	1260.38
446.245	1252.38
446.466	1236.38
446.687	1236.38
446.908	1246.38
447.129	1215.38
447.35	1192.38
447.571	1183.38
447.792	1166.38
448.013	1166.38
448.234	1155.38
448.455	1138.38
448.675	1154.38
448.896	1129.38
449.117	1143.38
449.338	1134.38
449.559	1112.38
449.779	1107.38
450	1082.38
450.221	1123.38
450.442	1138.38
450.662	1144.38
450.883	1140.38
451.104	1130.38
451.324	1128.38
451.545	1131.38
451.766	1117.38
451.986	1108.38
452.207	1111.38
452.428	1083.38
452.648	1087.38
452.869	1110.38
453.089	1087.38
453.31	1085.38
453.53	1051.38
453.751	1064.38
453.971	1072.38
454.192	1098.38
454.412	1062.38
454.633	1069.38
454.853	1086.38
455.073	1067.38
455.294	1046.38
455.514	1066.38
455.734	1051.38
455.955	1048.38
456.175	1038.38
456.395	1047.38
456.616	1046.38
456.836	1056.38
457.056	1076.38
457.276	1025.38
457.497	1070.38
457.717	1074.38
457.937	1074.38
458.157	1076.38
458.377	1075.38
458.598	1107.38
458.818	1138.38
459.038	1149.38
459.258	1180.38
459.478	1188.38
459.698	1229.38
459.918	1244.38
460.138	1285.38
460.358	1330.38
460.578	1312.38
460.798	1322.38
461.018	1353.38
461.238	1318.38
461.458	1359.38
461.678	1364.38
461.898	1396.38
462.118	1361.38
462.338	1462.38
462.558	1487.38
462.777	1466.38
462.997	1556.38
463.217	1604.38
463.437	1620.38
463.657	1555.38
463.876	1532.38
464.096	1519.38
464.316	1513.38
464.536	1510.38
464.755	1447.38
464.975	1415.38
465.195	1374.38
465.414	1364.38
465.634	1312.38
465.854	1281.38
466.073	1240.38
466.293	1263.38
466.512	1197.38
466.732	1205.38
466.951	1197.38
467.171	1165.38
467.391	1166.38
467.61	1162.38
467.829	1188.38
468.049	1152.38
468.268	1149.38
468.488	1183.38
468.707	1142.38
468.927	1140.38
469.146	1135.38
469.365	1172.38
469.585	1166.38
469.804	1164.38
470.023	1206.38
470.243	1181.38
470.462	1173.38
470.681	1183.38
470.901	1187.38
471.12	1186.38
471.339	1195.38
471.558	1183.38
471.777	1165.38
471.997	1166.38
472.216	1142.38
472.435	1152.38
472.654	1135.38
472.873	1117.38
473.092	1148.38
473.311	1175.38
473.53	1142.38
473.749	1147.38
473.968	1133.38
474.187	1138.38
474.406	1152.38
474.625	1132.38
474.844	1140.38
475.063	1156.38
475.282	1146.38
475.501	1168.38
475.72	1181.38
475.939	1155.38
476.158	1216.38
476.377	1188.38
476.596	1188.38
476.814	1206.38
477.033	1174.38
477.252	1250.38
477.471	1253.38
477.69	1269.38
477.908	1287.38
478.127	1288.38
478.346	1304.38
478.564	1300.38
478.783	1323.38
479.002	1385.38
479.22	1373.38
479.439	1391.38
479.658	1416.38
479.876	1374.38
480.095	1368.38
480.313	1407.38
480.532	1398.38
480.751	1429.38
480.969	1386.38
481.188	1346.38
481.406	1331.38
481.624	1340.38
481.843	1321.38
482.061	1318.38
482.28	1350.38
482.498	1294.38
482.717	1304.38
482.935	1324.38
483.153	1350.38
483.372	1369.38
483.59	1320.38
483.808	1348.38
484.027	1346.38
484.245	1350.38
484.463	1341.38
484.681	1360.38
484.9	1378.38
485.118	1381.38
485.336	1347.38
485.554	1351.38
485.772	1347.38
485.99	1374.38
486.209	1343.38
486.427	1390.38
486.645	1369.38
486.863	1400.38
487.081	1391.38
487.299	1342.38
487.517	1373.38
487.735	1380.38
487.953	1394.38
488.171	1376.38
488.389	1389.38
488.607	1361.38
488.825	1363.38
489.043	1358.38
489.261	1373.38
489.479	1319.38
489.696	1373.38
489.914	1375.38
490.132	1378.38
490.35	1399.38
490.568	1396.38
490.786	1400.38
491.003	1415.38
491.221	1400.38
491.439	1439.38
491.657	1418.38
491.874	1452.38
492.092	1438.38
492.31	1436.38
492.527	1437.38
492.745	1441.38
492.963	1429.38
493.18	1435.38
493.398	1439.38
493.615	1445.38
493.833	1444.38
494.05	1476.38
494.268	1485.38
494.485	1507.38
494.703	1491.38
494.92	1506.38
495.138	1511.38
495.355	1500.38
495.573	1490.38
495.79	1484.38
496.008	1528.38
496.225	1526.38
496.442	1559.38
496.66	1578.38
496.877	1542.38
497.094	1602.38
497.312	1631.38
497.529	1658.38
497.746	1677.38
497.963	1730.38
498.181	1834.38
498.398	1880.38
498.615	1918.38
498.832	1961.38
499.049	2082.38
499.267	2185.38
499.484	2274.38
499.701	2446.38
499.918	2580.38
500.135	2787.38
500.352	2925.38
500.569	3000.38
500.786	2960.38
501.003	2872.38
501.22	2714.38
501.437	2620.38
501.654	2411.38
501.871	2343.38
502.088	2205.38
502.305	2064.38
502.522	2022.38
502.739	1934.38
502.956	1891.38
503.172	1811.38
503.389	1740.38
503.606	1715.38
503.823	1679.38
504.04	1698.38
504.256	1664.38
504.473	1607.38
504.69	1624.38
504.907	1598.38
505.123	1588.38
505.34	1538.38
505.557	1495.38
505.773	1466.38
505.99	1431.38
506.207	1373.38
506.423	1400.38
506.64	1359.38
506.856	1360.38
507.073	1346.38
507.289	1342.38
507.506	1340.38
507.722	1314.38
507.939	1303.38
508.155	1306.38
508.372	1289.38
508.588	1318.38
508.805	1230.38
509.021	1233.38
509.238	1260.38
509.454	1247.38
509.67	1230.38
509.887	1219.38
510.103	1198.38
510.319	1194.38
510.536	1214.38
510.752	1188.38
510.968	1210.38
511.184	1204.38
511.401	1188.38
511.617	1220.38
511.833	1215.38
512.049	1209.38
512.265	1219.38
512.481	1220.38
512.698	1209.38
512.914	1176.38
513.13	1194.38
513.346	1218.38
513.562	1195.38
513.778	1233.38
513.994	1173.38
514.21	1196.38
514.426	1233.38
514.642	1189.38
514.858	1226.38
515.074	1222.38
515.29	1247.38
515.506	1242.38
515.721	1248.38
515.937	1291.38
516.153	1290.38
516.369	1290.38
516.585	1326.38
516.801	1287.38
517.016	1361.38
517.232	1373.38
517.448	1452.38
517.664	1428.38
517.879	1430.38
518.095	1452.38
518.311	1423.38
518.527	1382.38
518.742	1350.38
518.958	1367.38
519.173	1336.38
519.389	1306.38
519.605	1254.38
519.82	1239.38
520.036	1208.38
520.251	1210.38
520.467	1198.38
520.682	1208.38
520.898	1191.38
521.113	1154.38
521.329	1188.38
521.544	1149.38
521.76	1162.38
521.975	1144.38
522.19	1149.38
522.406	1114.38
522.621	1141.38
522.836	1118.38
523.052	1117.38
523.267	1131.38
523.482	1098.38
523.698	1107.38
523.913	1081.38
524.128	1083.38
524.343	1075.38
524.559	1111.38
524.774	1075.38
524.989	1095.38
525.204	1092.38
525.419	1100.38
525.634	1090.38
525.849	1089.38
526.064	1075.38
526.28	1087.38
526.495	1054.38
526.71	1057.38
526.925	1054.38
527.14	1074.38
527.355	1071.38
527.57	1054.38
527.785	1057.38
527.999	1066.38
528.214	1048.38
528.429	1070.38
528.644	1070.38
528.859	1056.38
529.074	1084.38
529.289	1061.38
529.503	1061.38
529.718	1071.38
529.933	1035.38
530.148	1053.38
530.363	1048.38
530.577	1029.38
530.792	1038.38
531.007	1027.38
531.221	1060.38
531.436	1032.38
531.651	1040.38
531.865	1053.38
532.08	1021.38
532.295	1063.38
532.509	1012.38
532.724	1065.38
532.938	1051.38
533.153	1055.38
533.367	1044.38
533.582	1056.38
533.796	1048.38
534.011	1068.38
534.225	1026.38
534.44	1014.38
534.654	1049.38
534.868	1049.38
535.083	1033.38
535.297	984.38
535.511	1008.38
535.726	1014.38
535.94	997.38
536.154	1004.38
536.369	964.38
536.583	1007.38
536.797	1004.38
537.011	1000.38
537.225	980.38
537.44	991.38
537.654	995.38
537.868	1017.38
538.082	953.38
538.296	965.38
538.51	956.38
538.724	982.38
538.938	980.38
539.153	958.38
539.367	979.38
539.581	950.38
539.795	948.38
540.009	960.38
540.222	942.38
540.436	946.38
540.65	934.38
540.864	923.38
541.078	975.38
541.292	949.38
541.506	984.38
541.72	994.38
541.934	970.38
542.147	958.38
542.361	964.38
542.575	942.38
542.789	938.38
543.002	929.38
543.216	932.38
543.43	923.38
543.644	920.38
543.857	969.38
544.071	943.38
544.285	961.38
544.498	954.38
544.712	963.38
544.925	979.38
545.139	982.38
545.352	938.38
545.566	958.38
545.779	959.38
545.993	978.38
546.206	978.38
546.42	940.38
546.633	948.38
546.847	961.38
547.06	975.38
547.274	957.38
547.487	954.38
547.7	939.38
547.914	982.38
548.127	951.38
548.34	998.38
548.554	947.38
548.767	966.38
548.98	969.38
549.193	983.38
549.407	942.38
549.62	983.38
549.833	932.38
550.046	964.38
550.259	958.38
550.473	939.38
550.686	979.38
550.899	939.38
551.112	944.38
551.325	933.38
551.538	959.38
551.751	924.38
551.964	907.38
552.177	964.38
552.39	946.38
552.603	965.38
552.816	977.38
553.029	978.38
553.242	988.38
553.455	1007.38
553.667	1004.38
553.88	997.38
554.093	964.38
554.306	957.38
554.519	944.38
554.732	954.38
554.944	937.38
555.157	904.38
555.37	900.38
555.583	866.38
555.795	907.38
556.008	874.38
556.221	866.38
556.433	853.38
556.646	864.38
556.859	841.38
557.071	810.38
557.284	818.38
557.496	841.38
557.709	831.38
557.921	827.38
558.134	809.38
558.346	814.38
558.559	823.38
558.771	812.38
558.984	818.38
559.196	815.38
559.409	820.38
559.621	810.38
559.833	796.38
560.046	808.38
560.258	832.38
560.47	809.38
560.683	818.38
560.895	809.38
561.107	815.38
561.32	828.38
561.532	824.38
561.744	799.38
561.956	807.38
562.168	784.38
562.381	792.38
562.593	819.38
562.805	816.38
563.017	809.38
563.229	792.38
563.441	807.38
563.653	822.38
563.865	799.38
564.077	827.38
564.289	838.38
564.501	860.38
564.713	835.38
564.925	874.38
565.137	887.38
565.349	890.38
565.561	883.38
565.773	924.38
565.985	951.38
566.197	972.38
566.408	1005.38
566.62	1068.38
566.832	1055.38
567.044	1070.38
567.255	1082.38
567.467	1115.38
567.679	1116.38
567.891	1120.38
568.102	1108.38
568.314	1086.38
568.526	1026.38
568.737	1002.38
568.949	942.38
569.161	916.38
569.372	882.38
569.584	841.38
569.795	872.38
570.007	818.38
570.218	823.38
570.43	811.38
570.641	788.38
570.853	812.38
571.064	779.38
571.276	750.38
571.487	743.38
571.698	721.38
571.91	711.38
572.121	711.38
572.333	692.38
572.544	693.38
572.755	700.38
572.966	681.38
573.178	656.38
573.389	686.38
573.6	674.38
573.811	648.38
574.023	654.38
574.234	647.38
574.445	637.38
574.656	643.38
574.867	646.38
575.078	669.38
575.289	654.38
575.501	654.38
575.712	643.38
575.923	616.38
576.134	603.38
576.345	610.38
576.556	597.38
576.767	607.38
576.978	580.38
577.188	601.38
577.399	606.38
577.61	586.38
577.821	599.38
578.032	561.38
578.243	576.38
578.454	578.38
578.665	596.38
578.875	569.38
579.086	582.38
579.297	588.38
579.508	577.38
579.718	571.38
579.929	563.38
580.14	552.38
580.35	561.38
580.561	564.38
580.772	539.38
580.982	559.38
581.193	544.38
581.403	543.38
581.614	575.38
581.825	549.38
582.035	558.38
582.246	518.38
582.456	543.38
582.667	548.38
582.877	537.38
583.087	526.38
583.298	556.38
583.508	534.38
583.719	532.38
583.929	527.38
584.139	540.38
584.35	532.38
584.56	540.38
584.77	524.38
584.981	528.38
585.191	536.38
585.401	533.38
585.611	512.38
585.821	526.38
586.032	514.38
586.242	526.38
586.452	522.38
586.662	529.38
586.872	517.38
587.082	539.38
587.292	520.38
587.502	516.38
587.713	522.38
587.923	523.38
588.133	502.38
588.343	502.38
588.553	499.38
588.762	507.38
588.972	522.38
589.182	533.38
589.392	542.38
589.602	526.38
589.812	541.38
590.022	543.38
590.232	507.38
590.441	516.38
590.651	516.38
590.861	531.38
591.071	524.38
591.281	517.38
591.49	540.38
591.7	528.38
591.91	535.38
592.119	535.38
592.329	509.38
592.539	541.38
592.748	554.38
592.958	575.38
593.167	547.38
593.377	581.38
593.587	567.38
593.796	554.38
594.006	552.38
594.215	565.38
594.424	566.38
594.634	577.38
594.843	549.38
595.053	543.38
595.262	518.38
595.472	493.38
595.681	502.38
595.89	492.38
596.1	489.38
596.309	487.38
596.518	490.38
596.727	483.38
596.937	479.38
597.146	457.38
597.355	448.38
597.564	459.38
597.774	454.38
597.983	437.38
598.192	456.38
598.401	450.38
598.61	445.38
598.819	432.38
599.028	441.38
599.237	440.38
599.446	436.38
599.655	435.38
599.864	419.38
600.073	434.38
600.282	432.38
600.491	424.38
600.7	427.38
600.909	433.38
601.118	430.38
601.327	415.38
601.536	426.38
601.745	418.38
601.953	421.38
602.162	413.38
602.371	422.38
602.58	417.38
602.789	418.38
602.997	418.38
603.206	437.38
603.415	412.38
603.623	392.38
603.832	402.38
604.041	398.38
604.249	390.38
604.458	399.38
604.666	386.38
604.875	394.38
605.084	382.38
605.292	389.38
605.501	406.38
605.709	387.38
605.918	399.38
606.126	389.38
606.334	392.38
606.543	404.38
606.751	404.38
606.96	406.38
607.168	400.38
607.376	384.38
607.585	381.38
607.793	386.38
608.001	410.38
608.21	363.38
608.418	368.38
608.626	384.38
608.834	396.38
609.043	392.38
609.251	359.38
609.459	380.38
609.667	394.38
609.875	373.38
610.083	365.38
610.291	374.38
610.499	376.38
610.707	367.38
610.916	368.38
611.124	356.38
611.332	363.38
611.54	373.38
611.748	369.38
611.955	380.38
612.163	358.38
612.371	384.38
612.579	356.38
612.787	368.38
612.995	364.38
613.203	370.38
613.411	366.38
613.618	368.38
613.826	371.38
614.034	356.38
614.242	366.38
614.449	372.38
614.657	356.38
614.865	361.38
615.072	357.38
615.28	355.38
615.488	382.38
615.695	374.38
615.903	352.38
616.111	363.38
616.318	352.38
616.526	378.38
616.733	344.38
616.941	343.38
617.148	359.38
617.356	357.38
617.563	332.38
617.771	363.38
617.978	353.38
618.185	360.38
618.393	349.38
618.6	354.38
618.807	347.38
619.015	360.38
619.222	347.38
619.429	326.38
619.637	336.38
619.844	351.38
620.051	348.38
620.258	329.38
620.466	328.38
620.673	334.38
620.88	331.38
621.087	342.38
621.294	332.38
621.501	327.38
621.708	318.38
621.915	332.38
622.122	342.38
622.329	340.38
622.536	334.38
622.743	327.38
622.95	339.38
623.157	345.38
623.364	323.38
623.571	326.38
623.778	343.38
623.985	350.38
624.192	317.38
624.399	319.38
624.606	326.38
624.812	310.38
625.019	318.38
625.226	326.38
625.433	311.38
625.639	300.38
625.846	294.38
626.053	316.38
626.259	334.38
626.466	312.38
626.673	293.38
626.879	300.38
627.086	296.38
627.293	290.38
627.499	310.38
627.706	298.38
627.912	284.38
628.119	318.38
628.325	275.38
628.532	306.38
628.738	293.38
628.945	301.38
629.151	312.38
629.357	287.38
629.564	287.38
629.77	289.38
629.976	303.38
630.183	266.38
630.389	278.38
630.595	280.38
630.802	272.38
631.008	285.38
631.214	289.38
631.42	265.38
631.627	283.38
631.833	286.38
632.039	277.38
632.245	283.38
632.451	294.38
632.657	270.38
632.863	281.38
633.069	288.38
633.275	280.38
633.481	278.38
633.688	261.38
633.893	258.38
634.099	276.38
634.305	271.38
634.511	274.38
634.717	264.38
634.923	270.38
635.129	268.38
635.335	270.38
635.541	244.38
635.747	265.38
635.952	275.38
636.158	265.38
636.364	285.38
636.57	262.38
636.775	249.38
636.981	258.38
637.187	262.38
637.392	263.38
637.598	267.38
637.804	250.38
638.009	244.38
638.215	255.38
638.421	265.38
638.626	261.38
638.832	238.38
639.037	264.38
639.243	249.38
639.448	251.38
639.654	256.38
639.859	261.38
640.065	242.38
640.27	252.38
640.475	258.38
640.681	242.38
640.886	258.38
641.091	235.38
641.297	236.38
641.502	230.38
641.707	258.38
641.913	270.38
642.118	247.38
642.323	252.38
642.528	239.38
642.733	260.38
642.939	246.38
643.144	254.38
643.349	239.38
643.554	250.38
643.759	241.38
643.964	249.38
644.169	233.38
644.374	236.38
644.579	233.38
644.784	250.38
644.989	233.38
645.194	237.38
645.399	242.38
645.604	251.38
645.809	239.38
646.014	244.38
646.219	245.38
646.423	239.38
646.628	243.38
646.833	250.38
647.038	238.38
647.243	237.38
647.447	248.38
647.652	231.38
647.857	240.38
648.062	255.38
648.266	230.38
648.471	235.38
648.676	230.38
648.88	245.38
649.085	247.38
649.289	227.38
649.494	228.38
649.698	234.38
649.903	216.38
650.107	231.38
650.312	225.38
650.516	221.38
650.721	218.38
650.925	238.38
651.13	217.38
651.334	226.38
651.539	209.38
651.743	216.38
651.947	222.38
652.152	219.38
652.356	208.38
652.56	216.38
652.764	211.38
652.969	185.38
653.173	204.38
653.377	189.38
653.581	194.38
653.785	196.38
653.99	195.38
654.194	170.38
654.398	191.38
654.602	189.38
654.806	188.38
655.01	183.38
655.214	194.38
655.418	174.38
655.622	192.38
655.826	193.38
656.03	179.38
656.234	182.38
656.438	186.38
656.642	165.38
656.846	150.38
657.049	160.38
657.253	130.38
657.457	144.38
657.661	154.38
657.865	139.38
658.068	148.38
658.272	143.38
658.476	124.38
658.68	123.38
658.883	126.38
659.087	123.38
659.291	117.38
659.494	131.38
659.698	98.38
659.901	107.38
660.105	122.38
660.309	102.38
660.512	122.38
660.716	111.38
660.919	122.38
661.123	122.38
661.326	100.38
661.53	95.38
661.733	102.38
661.936	98.38
662.14	93.38
662.343	89.38
662.546	78.38
662.75	100.38
662.953	93.38
663.156	86.38
663.36	94.38
663.563	84.38
663.766	106.38
663.969	95.38
664.173	84.38
664.376	78.38
664.579	95.38
664.782	71.38
664.985	86.38
665.188	88.38
665.391	86.38
665.594	88.38
665.797	92.38
666	92.38
666.203	86.38
666.406	88.38
666.609	90.38
666.812	87.38
667.015	81.38
667.218	96.38
667.421	74.38
667.624	74.38
667.827	86.38
668.03	77.38
668.232	86.38
668.435	80.38
668.638	72.38
668.841	80.38
669.043	92.38
669.246	91.38
669.449	99.38
669.651	87.38
669.854	78.38
670.057	87.38
670.259	87.38
670.462	83.38
670.665	83.38
670.867	72.38
671.07	86.38
671.272	91.38
671.475	96.38
671.677	83.38
671.88	77.38
672.082	86.38
672.284	78.38
672.487	82.38
672.689	73.38
672.892	86.38
