Data from Ni(NO3)2Standard.Agarose3%.GreenCap.LampEnergy5.5.E.O_HRD10591_14-42-10-188.txt Node
Date: Mon Jul 22 14:42:10 EDT 2019
User: cochatt
Spectrometer: HR+D1059
Trigger mode: 1
Integration Time (sec): 1.000000E-1
Scans to average: 1
Electric dark correction enabled: true
Nonlinearity correction enabled: false
Boxcar width: 0
XAxis mode: Wavelengths
Number of Pixels in Spectrum: 2048
>>>>>Begin Spectral Data<<<<<
223.165	-25.12
223.4	-25.12
223.635	-25.12
223.869	-16.12
224.104	-9.12
224.338	-17.12
224.573	-16.12
224.808	-3.12
225.042	-5.12
225.277	-14.12
225.511	2.88
225.746	3.88
225.98	-0.12
226.215	8.88
226.449	14.88
226.683	10.88
226.918	25.88
227.152	38.88
227.387	21.88
227.621	41.88
227.856	57.88
228.09	60.88
228.324	60.88
228.559	59.88
228.793	60.88
229.027	67.88
229.262	77.88
229.496	71.88
229.73	72.88
229.964	71.88
230.199	73.88
230.433	72.88
230.667	77.88
230.901	77.88
231.136	76.88
231.37	85.88
231.604	85.88
231.838	82.88
232.072	87.88
232.306	81.88
232.541	73.88
232.775	87.88
233.009	74.88
233.243	86.88
233.477	95.88
233.711	84.88
233.945	76.88
234.179	77.88
234.413	84.88
234.647	87.88
234.881	82.88
235.115	82.88
235.349	79.88
235.583	76.88
235.817	85.88
236.051	79.88
236.285	78.88
236.519	89.88
236.753	80.88
236.987	76.88
237.221	84.88
237.455	85.88
237.689	75.88
237.922	78.88
238.156	80.88
238.39	85.88
238.624	77.88
238.858	83.88
239.091	84.88
239.325	74.88
239.559	77.88
239.793	77.88
240.027	74.88
240.26	68.88
240.494	72.88
240.728	85.88
240.961	82.88
241.195	91.88
241.429	79.88
241.662	85.88
241.896	85.88
242.13	75.88
242.363	80.88
242.597	80.88
242.83	69.88
243.064	80.88
243.298	75.88
243.531	81.88
243.765	72.88
243.998	71.88
244.232	78.88
244.465	91.88
244.699	89.88
244.932	87.88
245.166	91.88
245.399	83.88
245.633	88.88
245.866	76.88
246.099	79.88
246.333	85.88
246.566	90.88
246.8	78.88
247.033	79.88
247.266	77.88
247.5	74.88
247.733	90.88
247.966	87.88
248.2	88.88
248.433	80.88
248.666	78.88
248.899	91.88
249.133	74.88
249.366	85.88
249.599	83.88
249.832	86.88
250.066	70.88
250.299	77.88
250.532	74.88
250.765	74.88
250.998	71.88
251.231	75.88
251.465	84.88
251.698	72.88
251.931	76.88
252.164	81.88
252.397	75.88
252.63	87.88
252.863	87.88
253.096	79.88
253.329	91.88
253.562	85.88
253.795	71.88
254.028	78.88
254.261	99.88
254.494	83.88
254.727	88.88
254.96	81.88
255.193	76.88
255.426	88.88
255.659	88.88
255.892	81.88
256.124	89.88
256.357	67.88
256.59	85.88
256.823	82.88
257.056	84.88
257.289	88.88
257.521	86.88
257.754	76.88
257.987	85.88
258.22	92.88
258.452	87.88
258.685	80.88
258.918	78.88
259.151	84.88
259.383	91.88
259.616	84.88
259.849	83.88
260.081	99.88
260.314	75.88
260.547	86.88
260.779	93.88
261.012	88.88
261.244	80.88
261.477	87.88
261.71	80.88
261.942	86.88
262.175	89.88
262.407	78.88
262.64	84.88
262.872	97.88
263.105	80.88
263.337	87.88
263.57	86.88
263.802	83.88
264.035	99.88
264.267	74.88
264.499	107.88
264.732	93.88
264.964	90.88
265.197	87.88
265.429	85.88
265.661	82.88
265.894	93.88
266.126	80.88
266.358	81.88
266.591	93.88
266.823	73.88
267.055	80.88
267.287	79.88
267.52	98.88
267.752	101.88
267.984	101.88
268.216	83.88
268.448	94.88
268.681	85.88
268.913	92.88
269.145	75.88
269.377	88.88
269.609	83.88
269.841	88.88
270.073	91.88
270.306	83.88
270.538	89.88
270.77	87.88
271.002	87.88
271.234	95.88
271.466	77.88
271.698	84.88
271.93	82.88
272.162	87.88
272.394	89.88
272.626	86.88
272.858	77.88
273.09	84.88
273.322	82.88
273.553	94.88
273.785	75.88
274.017	88.88
274.249	94.88
274.481	86.88
274.713	74.88
274.945	79.88
275.176	84.88
275.408	74.88
275.64	91.88
275.872	88.88
276.104	78.88
276.335	85.88
276.567	93.88
276.799	85.88
277.031	82.88
277.262	79.88
277.494	72.88
277.726	86.88
277.957	74.88
278.189	84.88
278.421	99.88
278.652	97.88
278.884	95.88
279.115	83.88
279.347	87.88
279.579	65.88
279.81	80.88
280.042	76.88
280.273	78.88
280.505	88.88
280.736	88.88
280.968	86.88
281.199	83.88
281.431	74.88
281.662	83.88
281.894	89.88
282.125	94.88
282.356	97.88
282.588	93.88
282.819	82.88
283.051	83.88
283.282	79.88
283.513	73.88
283.745	82.88
283.976	89.88
284.207	87.88
284.439	79.88
284.67	87.88
284.901	83.88
285.132	98.88
285.364	91.88
285.595	93.88
285.826	94.88
286.057	86.88
286.288	99.88
286.52	80.88
286.751	86.88
286.982	90.88
287.213	89.88
287.444	94.88
287.675	88.88
287.906	87.88
288.138	91.88
288.369	82.88
288.6	86.88
288.831	82.88
289.062	93.88
289.293	95.88
289.524	85.88
289.755	69.88
289.986	84.88
290.217	87.88
290.448	82.88
290.679	95.88
290.91	94.88
291.141	98.88
291.371	85.88
291.602	86.88
291.833	91.88
292.064	96.88
292.295	94.88
292.526	86.88
292.757	80.88
292.987	84.88
293.218	93.88
293.449	87.88
293.68	89.88
293.91	87.88
294.141	79.88
294.372	91.88
294.603	80.88
294.833	81.88
295.064	89.88
295.295	82.88
295.525	85.88
295.756	83.88
295.987	95.88
296.217	91.88
296.448	94.88
296.679	84.88
296.909	78.88
297.14	92.88
297.37	83.88
297.601	88.88
297.831	76.88
298.062	85.88
298.292	78.88
298.523	80.88
298.753	98.88
298.984	88.88
299.214	85.88
299.445	100.88
299.675	84.88
299.905	78.88
300.136	93.88
300.366	94.88
300.597	88.88
300.827	93.88
301.057	79.88
301.288	83.88
301.518	94.88
301.748	80.88
301.979	70.88
302.209	86.88
302.439	91.88
302.669	100.88
302.9	104.88
303.13	88.88
303.36	97.88
303.59	83.88
303.82	95.88
304.051	88.88
304.281	95.88
304.511	95.88
304.741	91.88
304.971	96.88
305.201	96.88
305.431	87.88
305.661	98.88
305.891	101.88
306.121	67.88
306.352	79.88
306.582	73.88
306.812	71.88
307.042	90.88
307.272	90.88
307.502	87.88
307.731	96.88
307.961	90.88
308.191	83.88
308.421	75.88
308.651	86.88
308.881	89.88
309.111	83.88
309.341	75.88
309.571	86.88
309.8	97.88
310.03	88.88
310.26	83.88
310.49	88.88
310.72	94.88
310.949	95.88
311.179	101.88
311.409	88.88
311.639	78.88
311.868	85.88
312.098	89.88
312.328	95.88
312.557	90.88
312.787	92.88
313.017	100.88
313.246	83.88
313.476	109.88
313.706	89.88
313.935	97.88
314.165	78.88
314.394	90.88
314.624	79.88
314.853	70.88
315.083	75.88
315.312	87.88
315.542	94.88
315.771	92.88
316.001	90.88
316.23	80.88
316.46	94.88
316.689	91.88
316.919	84.88
317.148	103.88
317.377	103.88
317.607	88.88
317.836	92.88
318.065	93.88
318.295	97.88
318.524	102.88
318.753	91.88
318.983	98.88
319.212	93.88
319.441	85.88
319.67	91.88
319.9	86.88
320.129	99.88
320.358	100.88
320.587	88.88
320.816	83.88
321.046	86.88
321.275	96.88
321.504	89.88
321.733	99.88
321.962	84.88
322.191	81.88
322.42	93.88
322.649	88.88
322.878	101.88
323.108	92.88
323.337	92.88
323.566	85.88
323.795	103.88
324.024	96.88
324.253	82.88
324.482	87.88
324.71	92.88
324.939	94.88
325.168	84.88
325.397	76.88
325.626	95.88
325.855	95.88
326.084	74.88
326.313	93.88
326.542	84.88
326.77	86.88
326.999	86.88
327.228	88.88
327.457	96.88
327.686	87.88
327.914	94.88
328.143	73.88
328.372	79.88
328.6	102.88
328.829	81.88
329.058	95.88
329.287	96.88
329.515	87.88
329.744	98.88
329.972	90.88
330.201	86.88
330.43	83.88
330.658	89.88
330.887	85.88
331.115	89.88
331.344	98.88
331.572	91.88
331.801	91.88
332.03	76.88
332.258	96.88
332.486	74.88
332.715	84.88
332.943	87.88
333.172	76.88
333.4	96.88
333.629	100.88
333.857	92.88
334.085	91.88
334.314	90.88
334.542	89.88
334.771	100.88
334.999	88.88
335.227	76.88
335.455	75.88
335.684	99.88
335.912	94.88
336.14	84.88
336.369	87.88
336.597	75.88
336.825	73.88
337.053	94.88
337.281	87.88
337.51	93.88
337.738	103.88
337.966	106.88
338.194	84.88
338.422	84.88
338.65	71.88
338.878	95.88
339.106	87.88
339.334	94.88
339.562	90.88
339.79	94.88
340.018	86.88
340.246	105.88
340.474	91.88
340.702	77.88
340.93	87.88
341.158	92.88
341.386	84.88
341.614	90.88
341.842	99.88
342.07	101.88
342.298	88.88
342.526	89.88
342.754	72.88
342.981	102.88
343.209	91.88
343.437	93.88
343.665	87.88
343.893	105.88
344.12	87.88
344.348	85.88
344.576	90.88
344.804	81.88
345.031	89.88
345.259	93.88
345.487	87.88
345.714	79.88
345.942	92.88
346.17	95.88
346.397	88.88
346.625	86.88
346.853	91.88
347.08	85.88
347.308	83.88
347.535	90.88
347.763	95.88
347.99	91.88
348.218	88.88
348.445	88.88
348.673	102.88
348.9	92.88
349.128	86.88
349.355	92.88
349.583	94.88
349.81	91.88
350.037	82.88
350.265	93.88
350.492	92.88
350.72	90.88
350.947	85.88
351.174	76.88
351.402	80.88
351.629	96.88
351.856	87.88
352.083	96.88
352.311	88.88
352.538	87.88
352.765	92.88
352.992	87.88
353.22	98.88
353.447	90.88
353.674	86.88
353.901	87.88
354.128	87.88
354.355	79.88
354.583	74.88
354.81	96.88
355.037	100.88
355.264	75.88
355.491	92.88
355.718	89.88
355.945	90.88
356.172	73.88
356.399	86.88
356.626	88.88
356.853	97.88
357.08	88.88
357.307	99.88
357.534	77.88
357.761	85.88
357.988	90.88
358.215	94.88
358.441	84.88
358.668	86.88
358.895	92.88
359.122	93.88
359.349	86.88
359.576	74.88
359.802	85.88
360.029	99.88
360.256	87.88
360.483	86.88
360.709	88.88
360.936	100.88
361.163	75.88
361.39	87.88
361.616	89.88
361.843	88.88
362.07	91.88
362.296	85.88
362.523	103.88
362.749	89.88
362.976	83.88
363.203	73.88
363.429	84.88
363.656	103.88
363.882	79.88
364.109	87.88
364.335	85.88
364.562	85.88
364.788	96.88
365.015	81.88
365.241	86.88
365.468	97.88
365.694	88.88
365.92	85.88
366.147	89.88
366.373	96.88
366.599	85.88
366.826	90.88
367.052	91.88
367.278	91.88
367.505	84.88
367.731	93.88
367.957	100.88
368.184	77.88
368.41	97.88
368.636	92.88
368.862	80.88
369.089	83.88
369.315	100.88
369.541	80.88
369.767	93.88
369.993	98.88
370.219	80.88
370.445	85.88
370.672	84.88
370.898	77.88
371.124	96.88
371.35	91.88
371.576	96.88
371.802	92.88
372.028	90.88
372.254	79.88
372.48	95.88
372.706	81.88
372.932	84.88
373.158	90.88
373.384	95.88
373.61	88.88
373.835	79.88
374.061	85.88
374.287	77.88
374.513	96.88
374.739	104.88
374.965	88.88
375.191	88.88
375.416	89.88
375.642	92.88
375.868	83.88
376.094	87.88
376.319	106.88
376.545	92.88
376.771	85.88
376.997	83.88
377.222	93.88
377.448	93.88
377.674	85.88
377.899	89.88
378.125	79.88
378.35	99.88
378.576	75.88
378.802	82.88
379.027	94.88
379.253	101.88
379.478	79.88
379.704	102.88
379.929	83.88
380.155	91.88
380.38	83.88
380.606	93.88
380.831	91.88
381.057	93.88
381.282	89.88
381.507	76.88
381.733	91.88
381.958	84.88
382.184	86.88
382.409	78.88
382.634	102.88
382.86	97.88
383.085	103.88
383.31	83.88
383.535	88.88
383.761	88.88
383.986	91.88
384.211	85.88
384.436	96.88
384.662	80.88
384.887	96.88
385.112	72.88
385.337	83.88
385.562	101.88
385.787	88.88
386.013	103.88
386.238	92.88
386.463	83.88
386.688	75.88
386.913	85.88
387.138	82.88
387.363	96.88
387.588	91.88
387.813	74.88
388.038	90.88
388.263	93.88
388.488	99.88
388.713	83.88
388.938	87.88
389.163	81.88
389.387	89.88
389.612	71.88
389.837	86.88
390.062	98.88
390.287	86.88
390.512	86.88
390.736	79.88
390.961	95.88
391.186	87.88
391.411	86.88
391.636	92.88
391.86	87.88
392.085	94.88
392.31	103.88
392.534	76.88
392.759	86.88
392.984	83.88
393.208	82.88
393.433	72.88
393.658	91.88
393.882	95.88
394.107	85.88
394.331	80.88
394.556	79.88
394.78	87.88
395.005	70.88
395.229	82.88
395.454	88.88
395.678	95.88
395.903	112.88
396.127	75.88
396.352	91.88
396.576	82.88
396.801	72.88
397.025	98.88
397.249	95.88
397.474	85.88
397.698	89.88
397.922	93.88
398.147	92.88
398.371	86.88
398.595	90.88
398.82	78.88
399.044	99.88
399.268	83.88
399.492	96.88
399.717	83.88
399.941	95.88
400.165	84.88
400.389	90.88
400.613	94.88
400.837	78.88
401.062	75.88
401.286	81.88
401.51	92.88
401.734	89.88
401.958	97.88
402.182	83.88
402.406	99.88
402.63	101.88
402.854	84.88
403.078	90.88
403.302	90.88
403.526	87.88
403.75	84.88
403.974	89.88
404.198	87.88
404.422	92.88
404.645	89.88
404.869	100.88
405.093	93.88
405.317	84.88
405.541	77.88
405.765	89.88
405.988	106.88
406.212	90.88
406.436	84.88
406.66	93.88
406.883	86.88
407.107	77.88
407.331	83.88
407.555	75.88
407.778	91.88
408.002	88.88
408.226	88.88
408.449	88.88
408.673	87.88
408.896	98.88
409.12	96.88
409.344	100.88
409.567	86.88
409.791	97.88
410.014	87.88
410.238	95.88
410.461	88.88
410.685	87.88
410.908	86.88
411.132	98.88
411.355	99.88
411.578	82.88
411.802	88.88
412.025	81.88
412.249	80.88
412.472	98.88
412.695	73.88
412.919	98.88
413.142	94.88
413.365	87.88
413.589	83.88
413.812	87.88
414.035	90.88
414.258	85.88
414.482	94.88
414.705	92.88
414.928	100.88
415.151	90.88
415.374	87.88
415.597	90.88
415.821	93.88
416.044	90.88
416.267	101.88
416.49	93.88
416.713	75.88
416.936	93.88
417.159	95.88
417.382	85.88
417.605	72.88
417.828	74.88
418.051	80.88
418.274	97.88
418.497	86.88
418.72	94.88
418.943	91.88
419.166	86.88
419.389	87.88
419.611	98.88
419.834	74.88
420.057	93.88
420.28	94.88
420.503	86.88
420.726	72.88
420.948	98.88
421.171	85.88
421.394	88.88
421.617	85.88
421.839	83.88
422.062	100.88
422.285	81.88
422.507	74.88
422.73	83.88
422.953	105.88
423.175	79.88
423.398	93.88
423.621	99.88
423.843	91.88
424.066	96.88
424.288	74.88
424.511	86.88
424.733	88.88
424.956	70.88
425.178	84.88
425.401	92.88
425.623	85.88
425.846	95.88
426.068	91.88
426.291	89.88
426.513	85.88
426.735	92.88
426.958	97.88
427.18	91.88
427.402	115.88
427.625	93.88
427.847	97.88
428.069	90.88
428.292	85.88
428.514	78.88
428.736	85.88
428.958	79.88
429.181	77.88
429.403	77.88
429.625	84.88
429.847	84.88
430.069	85.88
430.292	89.88
430.514	79.88
430.736	91.88
430.958	80.88
431.18	89.88
431.402	93.88
431.624	91.88
431.846	89.88
432.068	78.88
432.29	101.88
432.512	83.88
432.734	80.88
432.956	88.88
433.178	92.88
433.4	99.88
433.622	78.88
433.844	82.88
434.066	95.88
434.287	94.88
434.509	75.88
434.731	89.88
434.953	82.88
435.175	85.88
435.397	85.88
435.618	101.88
435.84	97.88
436.062	71.88
436.284	88.88
436.505	83.88
436.727	95.88
436.949	91.88
437.17	84.88
437.392	76.88
437.614	84.88
437.835	77.88
438.057	93.88
438.278	89.88
438.5	94.88
438.721	84.88
438.943	90.88
439.165	84.88
439.386	81.88
439.608	84.88
439.829	101.88
440.05	93.88
440.272	73.88
440.493	83.88
440.715	99.88
440.936	81.88
441.158	83.88
441.379	94.88
441.6	86.88
441.822	96.88
442.043	91.88
442.264	88.88
442.486	92.88
442.707	98.88
442.928	98.88
443.149	88.88
443.371	81.88
443.592	80.88
443.813	92.88
444.034	76.88
444.255	87.88
444.476	85.88
444.698	79.88
444.919	82.88
445.14	226.88
445.361	155.88
445.582	84.88
445.803	83.88
446.024	93.88
446.245	86.88
446.466	93.88
446.687	82.88
446.908	85.88
447.129	78.88
447.35	91.88
447.571	94.88
447.792	96.88
448.013	91.88
448.234	86.88
448.455	72.88
448.675	90.88
448.896	86.88
449.117	82.88
449.338	76.88
449.559	83.88
449.779	94.88
450	86.88
450.221	90.88
450.442	93.88
450.662	95.88
450.883	91.88
451.104	89.88
451.324	79.88
451.545	85.88
451.766	87.88
451.986	88.88
452.207	94.88
452.428	90.88
452.648	98.88
452.869	85.88
453.089	99.88
453.31	80.88
453.53	93.88
453.751	90.88
453.971	90.88
454.192	94.88
454.412	97.88
454.633	90.88
454.853	83.88
455.073	92.88
455.294	77.88
455.514	98.88
455.734	92.88
455.955	79.88
456.175	78.88
456.395	77.88
456.616	86.88
456.836	90.88
457.056	79.88
457.276	82.88
457.497	95.88
457.717	89.88
457.937	79.88
458.157	91.88
458.377	86.88
458.598	89.88
458.818	93.88
459.038	87.88
459.258	76.88
459.478	87.88
459.698	88.88
459.918	70.88
460.138	96.88
460.358	92.88
460.578	83.88
460.798	90.88
461.018	90.88
461.238	90.88
461.458	94.88
461.678	90.88
461.898	97.88
462.118	100.88
462.338	93.88
462.558	90.88
462.777	93.88
462.997	81.88
463.217	99.88
463.437	96.88
463.657	83.88
463.876	93.88
464.096	91.88
464.316	79.88
464.536	85.88
464.755	82.88
464.975	89.88
465.195	101.88
465.414	88.88
465.634	96.88
465.854	84.88
466.073	84.88
466.293	77.88
466.512	85.88
466.732	88.88
466.951	96.88
467.171	91.88
467.391	85.88
467.61	90.88
467.829	101.88
468.049	94.88
468.268	91.88
468.488	88.88
468.707	94.88
468.927	88.88
469.146	101.88
469.365	88.88
469.585	95.88
469.804	88.88
470.023	85.88
470.243	89.88
470.462	95.88
470.681	101.88
470.901	88.88
471.12	90.88
471.339	95.88
471.558	103.88
471.777	95.88
471.997	80.88
472.216	98.88
472.435	91.88
472.654	95.88
472.873	94.88
473.092	82.88
473.311	82.88
473.53	100.88
473.749	78.88
473.968	100.88
474.187	90.88
474.406	92.88
474.625	96.88
474.844	84.88
475.063	91.88
475.282	93.88
475.501	87.88
475.72	94.88
475.939	87.88
476.158	86.88
476.377	96.88
476.596	93.88
476.814	84.88
477.033	82.88
477.252	85.88
477.471	79.88
477.69	106.88
477.908	87.88
478.127	99.88
478.346	91.88
478.564	95.88
478.783	83.88
479.002	92.88
479.22	84.88
479.439	91.88
479.658	86.88
479.876	80.88
480.095	75.88
480.313	83.88
480.532	85.88
480.751	96.88
480.969	102.88
481.188	89.88
481.406	85.88
481.624	103.88
481.843	95.88
482.061	92.88
482.28	86.88
482.498	84.88
482.717	92.88
482.935	85.88
483.153	80.88
483.372	90.88
483.59	103.88
483.808	91.88
484.027	83.88
484.245	87.88
484.463	88.88
484.681	111.88
484.9	91.88
485.118	94.88
485.336	98.88
485.554	99.88
485.772	95.88
485.99	98.88
486.209	103.88
486.427	103.88
486.645	103.88
486.863	80.88
487.081	91.88
487.299	91.88
487.517	102.88
487.735	102.88
487.953	85.88
488.171	96.88
488.389	101.88
488.607	96.88
488.825	102.88
489.043	97.88
489.261	94.88
489.479	98.88
489.696	86.88
489.914	92.88
490.132	97.88
490.35	81.88
490.568	102.88
490.786	87.88
491.003	85.88
491.221	91.88
491.439	94.88
491.657	102.88
491.874	102.88
492.092	95.88
492.31	96.88
492.527	97.88
492.745	89.88
492.963	106.88
493.18	104.88
493.398	96.88
493.615	106.88
493.833	87.88
494.05	105.88
494.268	104.88
494.485	103.88
494.703	95.88
494.92	91.88
495.138	102.88
495.355	105.88
495.573	79.88
495.79	114.88
496.008	113.88
496.225	108.88
496.442	100.88
496.66	96.88
496.877	103.88
497.094	104.88
497.312	101.88
497.529	103.88
497.746	97.88
497.963	98.88
498.181	87.88
498.398	108.88
498.615	100.88
498.832	106.88
499.049	105.88
499.267	115.88
499.484	126.88
499.701	109.88
499.918	90.88
500.135	100.88
500.352	124.88
500.569	113.88
500.786	102.88
501.003	124.88
501.22	98.88
501.437	95.88
501.654	92.88
501.871	97.88
502.088	102.88
502.305	102.88
502.522	98.88
502.739	94.88
502.956	93.88
503.172	100.88
503.389	94.88
503.606	109.88
503.823	104.88
504.04	103.88
504.256	109.88
504.473	91.88
504.69	84.88
504.907	99.88
505.123	107.88
505.34	96.88
505.557	94.88
505.773	99.88
505.99	89.88
506.207	112.88
506.423	98.88
506.64	94.88
506.856	90.88
507.073	99.88
507.289	96.88
507.506	87.88
507.722	94.88
507.939	85.88
508.155	97.88
508.372	94.88
508.588	104.88
508.805	94.88
509.021	95.88
509.238	107.88
509.454	90.88
509.67	98.88
509.887	87.88
510.103	90.88
510.319	102.88
510.536	89.88
510.752	93.88
510.968	88.88
511.184	101.88
511.401	92.88
511.617	100.88
511.833	94.88
512.049	90.88
512.265	91.88
512.481	88.88
512.698	92.88
512.914	117.88
513.13	102.88
513.346	90.88
513.562	108.88
513.778	105.88
513.994	89.88
514.21	94.88
514.426	91.88
514.642	93.88
514.858	103.88
515.074	107.88
515.29	95.88
515.506	94.88
515.721	92.88
515.937	91.88
516.153	90.88
516.369	89.88
516.585	93.88
516.801	89.88
517.016	96.88
517.232	95.88
517.448	95.88
517.664	88.88
517.879	83.88
518.095	94.88
518.311	79.88
518.527	87.88
518.742	104.88
518.958	106.88
519.173	91.88
519.389	87.88
519.605	100.88
519.82	76.88
520.036	92.88
520.251	89.88
520.467	83.88
520.682	84.88
520.898	98.88
521.113	109.88
521.329	93.88
521.544	100.88
521.76	98.88
521.975	93.88
522.19	95.88
522.406	89.88
522.621	93.88
522.836	94.88
523.052	96.88
523.267	94.88
523.482	75.88
523.698	83.88
523.913	93.88
524.128	86.88
524.343	80.88
524.559	105.88
524.774	112.88
524.989	102.88
525.204	100.88
525.419	97.88
525.634	109.88
525.849	94.88
526.064	101.88
526.28	95.88
526.495	91.88
526.71	94.88
526.925	79.88
527.14	92.88
527.355	74.88
527.57	68.88
527.785	85.88
527.999	99.88
528.214	96.88
528.429	88.88
528.644	95.88
528.859	90.88
529.074	93.88
529.289	96.88
529.503	85.88
529.718	94.88
529.933	95.88
530.148	95.88
530.363	87.88
530.577	89.88
530.792	94.88
531.007	87.88
531.221	100.88
531.436	91.88
531.651	89.88
531.865	107.88
532.08	85.88
532.295	106.88
532.509	103.88
532.724	83.88
532.938	96.88
533.153	99.88
533.367	88.88
533.582	93.88
533.796	85.88
534.011	93.88
534.225	91.88
534.44	87.88
534.654	92.88
534.868	92.88
535.083	89.88
535.297	109.88
535.511	92.88
535.726	99.88
535.94	92.88
536.154	94.88
536.369	91.88
536.583	104.88
536.797	92.88
537.011	86.88
537.225	86.88
537.44	80.88
537.654	107.88
537.868	90.88
538.082	103.88
538.296	91.88
538.51	97.88
538.724	95.88
538.938	106.88
539.153	98.88
539.367	95.88
539.581	85.88
539.795	100.88
540.009	82.88
540.222	91.88
540.436	91.88
540.65	97.88
540.864	96.88
541.078	106.88
541.292	98.88
541.506	100.88
541.72	99.88
541.934	110.88
542.147	108.88
542.361	106.88
542.575	96.88
542.789	95.88
543.002	90.88
543.216	86.88
543.43	98.88
543.644	90.88
543.857	104.88
544.071	96.88
544.285	100.88
544.498	92.88
544.712	79.88
544.925	104.88
545.139	90.88
545.352	92.88
545.566	79.88
545.779	83.88
545.993	93.88
546.206	98.88
546.42	101.88
546.633	99.88
546.847	91.88
547.06	92.88
547.274	101.88
547.487	93.88
547.7	93.88
547.914	92.88
548.127	83.88
548.34	91.88
548.554	105.88
548.767	86.88
548.98	98.88
549.193	92.88
549.407	89.88
549.62	78.88
549.833	93.88
550.046	91.88
550.259	90.88
550.473	90.88
550.686	93.88
550.899	103.88
551.112	93.88
551.325	99.88
551.538	92.88
551.751	82.88
551.964	90.88
552.177	68.88
552.39	93.88
552.603	98.88
552.816	85.88
553.029	92.88
553.242	84.88
553.455	81.88
553.667	99.88
553.88	90.88
554.093	102.88
554.306	90.88
554.519	95.88
554.732	87.88
554.944	116.88
555.157	88.88
555.37	89.88
555.583	103.88
555.795	95.88
556.008	86.88
556.221	95.88
556.433	97.88
556.646	79.88
556.859	90.88
557.071	87.88
557.284	78.88
557.496	94.88
557.709	82.88
557.921	97.88
558.134	94.88
558.346	98.88
558.559	86.88
558.771	90.88
558.984	75.88
559.196	101.88
559.409	104.88
559.621	101.88
559.833	91.88
560.046	89.88
560.258	79.88
560.47	84.88
560.683	98.88
560.895	91.88
561.107	81.88
561.32	84.88
561.532	94.88
561.744	84.88
561.956	99.88
562.168	105.88
562.381	95.88
562.593	100.88
562.805	98.88
563.017	105.88
563.229	91.88
563.441	87.88
563.653	86.88
563.865	84.88
564.077	82.88
564.289	90.88
564.501	89.88
564.713	97.88
564.925	91.88
565.137	92.88
565.349	92.88
565.561	101.88
565.773	109.88
565.985	98.88
566.197	82.88
566.408	85.88
566.62	96.88
566.832	101.88
567.044	104.88
567.255	101.88
567.467	96.88
567.679	79.88
567.891	108.88
568.102	98.88
568.314	98.88
568.526	94.88
568.737	98.88
568.949	76.88
569.161	83.88
569.372	82.88
569.584	96.88
569.795	101.88
570.007	87.88
570.218	94.88
570.43	99.88
570.641	91.88
570.853	88.88
571.064	92.88
571.276	86.88
571.487	89.88
571.698	91.88
571.91	99.88
572.121	101.88
572.333	99.88
572.544	81.88
572.755	80.88
572.966	90.88
573.178	96.88
573.389	83.88
573.6	90.88
573.811	92.88
574.023	87.88
574.234	96.88
574.445	85.88
574.656	87.88
574.867	82.88
575.078	89.88
575.289	98.88
575.501	84.88
575.712	91.88
575.923	87.88
576.134	87.88
576.345	88.88
576.556	90.88
576.767	77.88
576.978	93.88
577.188	93.88
577.399	87.88
577.61	85.88
577.821	94.88
578.032	90.88
578.243	87.88
578.454	90.88
578.665	90.88
578.875	90.88
579.086	99.88
579.297	91.88
579.508	106.88
579.718	92.88
579.929	93.88
580.14	104.88
580.35	90.88
580.561	73.88
580.772	84.88
580.982	96.88
581.193	84.88
581.403	78.88
581.614	78.88
581.825	102.88
582.035	92.88
582.246	76.88
582.456	101.88
582.667	96.88
582.877	92.88
583.087	92.88
583.298	96.88
583.508	82.88
583.719	90.88
583.929	76.88
584.139	77.88
584.35	91.88
584.56	111.88
584.77	97.88
584.981	90.88
585.191	91.88
585.401	97.88
585.611	90.88
585.821	93.88
586.032	93.88
586.242	93.88
586.452	93.88
586.662	85.88
586.872	95.88
587.082	91.88
587.292	86.88
587.502	99.88
587.713	96.88
587.923	69.88
588.133	82.88
588.343	91.88
588.553	88.88
588.762	92.88
588.972	95.88
589.182	84.88
589.392	101.88
589.602	86.88
589.812	87.88
590.022	92.88
590.232	77.88
590.441	97.88
590.651	103.88
590.861	100.88
591.071	113.88
591.281	88.88
591.49	93.88
591.7	91.88
591.91	87.88
592.119	90.88
592.329	99.88
592.539	87.88
592.748	87.88
592.958	79.88
593.167	95.88
593.377	91.88
593.587	82.88
593.796	101.88
594.006	90.88
594.215	87.88
594.424	70.88
594.634	83.88
594.843	100.88
595.053	79.88
595.262	85.88
595.472	94.88
595.681	90.88
595.89	85.88
596.1	98.88
596.309	78.88
596.518	96.88
596.727	88.88
596.937	92.88
597.146	75.88
597.355	83.88
597.564	86.88
597.774	91.88
597.983	86.88
598.192	91.88
598.401	80.88
598.61	95.88
598.819	92.88
599.028	73.88
599.237	86.88
599.446	84.88
599.655	101.88
599.864	81.88
600.073	101.88
600.282	80.88
600.491	92.88
600.7	82.88
600.909	87.88
601.118	99.88
601.327	81.88
601.536	84.88
601.745	90.88
601.953	101.88
602.162	99.88
602.371	98.88
602.58	79.88
602.789	68.88
602.997	76.88
603.206	107.88
603.415	93.88
603.623	91.88
603.832	96.88
604.041	99.88
604.249	77.88
604.458	89.88
604.666	92.88
604.875	82.88
605.084	91.88
605.292	92.88
605.501	89.88
605.709	72.88
605.918	71.88
606.126	91.88
606.334	99.88
606.543	76.88
606.751	89.88
606.96	86.88
607.168	102.88
607.376	84.88
607.585	72.88
607.793	88.88
608.001	83.88
608.21	86.88
608.418	84.88
608.626	81.88
608.834	86.88
609.043	93.88
609.251	79.88
609.459	83.88
609.667	100.88
609.875	82.88
610.083	72.88
610.291	86.88
610.499	89.88
610.707	96.88
610.916	93.88
611.124	88.88
611.332	89.88
611.54	96.88
611.748	92.88
611.955	87.88
612.163	83.88
612.371	101.88
612.579	81.88
612.787	85.88
612.995	87.88
613.203	82.88
613.411	80.88
613.618	76.88
613.826	87.88
614.034	79.88
614.242	85.88
614.449	96.88
614.657	82.88
614.865	95.88
615.072	102.88
615.28	80.88
615.488	93.88
615.695	71.88
615.903	79.88
616.111	96.88
616.318	88.88
616.526	80.88
616.733	80.88
616.941	80.88
617.148	96.88
617.356	86.88
617.563	93.88
617.771	83.88
617.978	85.88
618.185	90.88
618.393	110.88
618.6	86.88
618.807	84.88
619.015	81.88
619.222	81.88
619.429	65.88
619.637	81.88
619.844	97.88
620.051	92.88
620.258	85.88
620.466	102.88
620.673	75.88
620.88	86.88
621.087	87.88
621.294	91.88
621.501	80.88
621.708	102.88
621.915	81.88
622.122	77.88
622.329	82.88
622.536	98.88
622.743	96.88
622.95	90.88
623.157	86.88
623.364	91.88
623.571	78.88
623.778	91.88
623.985	91.88
624.192	71.88
624.399	76.88
624.606	91.88
624.812	95.88
625.019	80.88
625.226	84.88
625.433	106.88
625.639	91.88
625.846	86.88
626.053	84.88
626.259	91.88
626.466	88.88
626.673	84.88
626.879	80.88
627.086	87.88
627.293	79.88
627.499	102.88
627.706	74.88
627.912	75.88
628.119	89.88
628.325	88.88
628.532	93.88
628.738	72.88
628.945	86.88
629.151	88.88
629.357	86.88
629.564	80.88
629.77	92.88
629.976	81.88
630.183	90.88
630.389	83.88
630.595	88.88
630.802	79.88
631.008	84.88
631.214	85.88
631.42	82.88
631.627	90.88
631.833	84.88
632.039	90.88
632.245	78.88
632.451	69.88
632.657	72.88
632.863	92.88
633.069	85.88
633.275	88.88
633.481	97.88
633.688	90.88
633.893	86.88
634.099	87.88
634.305	80.88
634.511	90.88
634.717	95.88
634.923	89.88
635.129	80.88
635.335	90.88
635.541	62.88
635.747	84.88
635.952	88.88
636.158	84.88
636.364	81.88
636.57	81.88
636.775	76.88
636.981	85.88
637.187	86.88
637.392	87.88
637.598	103.88
637.804	106.88
638.009	80.88
638.215	88.88
638.421	90.88
638.626	83.88
638.832	76.88
639.037	96.88
639.243	80.88
639.448	84.88
639.654	107.88
639.859	82.88
640.065	80.88
640.27	105.88
640.475	98.88
640.681	86.88
640.886	82.88
641.091	88.88
641.297	84.88
641.502	95.88
641.707	87.88
641.913	83.88
642.118	80.88
642.323	78.88
642.528	88.88
642.733	83.88
642.939	85.88
643.144	81.88
643.349	91.88
643.554	87.88
643.759	88.88
643.964	93.88
644.169	87.88
644.374	84.88
644.579	92.88
644.784	85.88
644.989	80.88
645.194	88.88
645.399	79.88
645.604	72.88
645.809	81.88
646.014	98.88
646.219	88.88
646.423	89.88
646.628	95.88
646.833	83.88
647.038	91.88
647.243	81.88
647.447	86.88
647.652	76.88
647.857	86.88
648.062	94.88
648.266	83.88
648.471	76.88
648.676	74.88
648.88	82.88
649.085	92.88
649.289	82.88
649.494	83.88
649.698	84.88
649.903	89.88
650.107	96.88
650.312	88.88
650.516	81.88
650.721	87.88
650.925	92.88
651.13	89.88
651.334	82.88
651.539	73.88
651.743	79.88
651.947	85.88
652.152	86.88
652.356	91.88
652.56	93.88
652.764	83.88
652.969	101.88
653.173	88.88
653.377	84.88
653.581	83.88
653.785	85.88
653.99	90.88
654.194	79.88
654.398	95.88
654.602	94.88
654.806	89.88
655.01	84.88
655.214	90.88
655.418	79.88
655.622	72.88
655.826	76.88
656.03	74.88
656.234	76.88
656.438	88.88
656.642	94.88
656.846	84.88
657.049	90.88
657.253	88.88
657.457	93.88
657.661	92.88
657.865	74.88
658.068	82.88
658.272	82.88
658.476	90.88
658.68	91.88
658.883	86.88
659.087	84.88
659.291	84.88
659.494	87.88
659.698	91.88
659.901	87.88
660.105	94.88
660.309	72.88
660.512	73.88
660.716	87.88
660.919	80.88
661.123	77.88
661.326	82.88
661.53	82.88
661.733	81.88
661.936	95.88
662.14	86.88
662.343	94.88
662.546	84.88
662.75	95.88
662.953	80.88
663.156	86.88
663.36	102.88
663.563	93.88
663.766	86.88
663.969	84.88
664.173	81.88
664.376	81.88
664.579	97.88
664.782	85.88
664.985	70.88
665.188	75.88
665.391	87.88
665.594	78.88
665.797	86.88
666	95.88
666.203	76.88
666.406	85.88
666.609	77.88
666.812	87.88
667.015	84.88
667.218	79.88
667.421	79.88
667.624	67.88
667.827	74.88
668.03	78.88
668.232	78.88
668.435	83.88
668.638	86.88
668.841	83.88
669.043	90.88
669.246	79.88
669.449	79.88
669.651	92.88
669.854	96.88
670.057	76.88
670.259	84.88
670.462	94.88
670.665	86.88
670.867	91.88
671.07	76.88
671.272	81.88
671.475	89.88
671.677	79.88
671.88	75.88
672.082	83.88
672.284	102.88
672.487	73.88
672.689	77.88
672.892	88.88
