Data from Ni(NO3)2@0.0625M.TitratingCurve.Agarose3%dH2O.NegLispCup.LampEnergy10.LIBS07252019_HRD10591_18-14-04-568.txt Node
Date: Thu Jul 25 18:14:04 EDT 2019
User: cochatt
Spectrometer: HR+D1059
Trigger mode: 1
Integration Time (sec): 1.000000E-1
Scans to average: 1
Electric dark correction enabled: true
Nonlinearity correction enabled: false
Boxcar width: 0
XAxis mode: Wavelengths
Number of Pixels in Spectrum: 2048
>>>>>Begin Spectral Data<<<<<
223.165	-22.56
223.4	-22.56
223.635	-22.56
223.869	-17.56
224.104	-19.56
224.338	3.44
224.573	-19.56
224.808	-13.56
225.042	-12.56
225.277	2.44
225.511	-4.56
225.746	9.44
225.98	3.44
226.215	10.44
226.449	13.44
226.683	11.44
226.918	29.44
227.152	26.44
227.387	35.44
227.621	39.44
227.856	58.44
228.09	51.44
228.324	39.44
228.559	60.44
228.793	78.44
229.027	119.44
229.262	119.44
229.496	119.44
229.73	124.44
229.964	137.44
230.199	116.44
230.433	141.44
230.667	139.44
230.901	135.44
231.136	142.44
231.37	138.44
231.604	149.44
231.838	135.44
232.072	136.44
232.306	157.44
232.541	138.44
232.775	142.44
233.009	162.44
233.243	152.44
233.477	143.44
233.711	149.44
233.945	150.44
234.179	147.44
234.413	157.44
234.647	156.44
234.881	154.44
235.115	163.44
235.349	164.44
235.583	158.44
235.817	150.44
236.051	143.44
236.285	157.44
236.519	145.44
236.753	155.44
236.987	148.44
237.221	159.44
237.455	162.44
237.689	173.44
237.922	164.44
238.156	164.44
238.39	171.44
238.624	177.44
238.858	178.44
239.091	163.44
239.325	160.44
239.559	162.44
239.793	175.44
240.027	164.44
240.26	164.44
240.494	188.44
240.728	179.44
240.961	168.44
241.195	181.44
241.429	182.44
241.662	188.44
241.896	190.44
242.13	204.44
242.363	202.44
242.597	192.44
242.83	191.44
243.064	201.44
243.298	198.44
243.531	213.44
243.765	204.44
243.998	188.44
244.232	214.44
244.465	214.44
244.699	218.44
244.932	223.44
245.166	203.44
245.399	202.44
245.633	235.44
245.866	212.44
246.099	231.44
246.333	235.44
246.566	230.44
246.8	222.44
247.033	232.44
247.266	234.44
247.5	228.44
247.733	226.44
247.966	226.44
248.2	216.44
248.433	235.44
248.666	218.44
248.899	242.44
249.133	248.44
249.366	260.44
249.599	235.44
249.832	230.44
250.066	243.44
250.299	258.44
250.532	264.44
250.765	241.44
250.998	244.44
251.231	248.44
251.465	264.44
251.698	269.44
251.931	254.44
252.164	279.44
252.397	277.44
252.63	275.44
252.863	272.44
253.096	261.44
253.329	270.44
253.562	288.44
253.795	271.44
254.028	282.44
254.261	279.44
254.494	283.44
254.727	278.44
254.96	290.44
255.193	274.44
255.426	271.44
255.659	273.44
255.892	299.44
256.124	282.44
256.357	291.44
256.59	271.44
256.823	283.44
257.056	295.44
257.289	306.44
257.521	310.44
257.754	313.44
257.987	294.44
258.22	313.44
258.452	301.44
258.685	287.44
258.918	316.44
259.151	295.44
259.383	290.44
259.616	305.44
259.849	305.44
260.081	316.44
260.314	310.44
260.547	326.44
260.779	334.44
261.012	336.44
261.244	309.44
261.477	319.44
261.71	313.44
261.942	336.44
262.175	343.44
262.407	325.44
262.64	324.44
262.872	336.44
263.105	323.44
263.337	335.44
263.57	334.44
263.802	323.44
264.035	364.44
264.267	342.44
264.499	339.44
264.732	350.44
264.964	335.44
265.197	347.44
265.429	350.44
265.661	351.44
265.894	344.44
266.126	358.44
266.358	350.44
266.591	343.44
266.823	371.44
267.055	372.44
267.287	346.44
267.52	359.44
267.752	349.44
267.984	359.44
268.216	376.44
268.448	372.44
268.681	385.44
268.913	363.44
269.145	378.44
269.377	372.44
269.609	372.44
269.841	362.44
270.073	367.44
270.306	382.44
270.538	373.44
270.77	364.44
271.002	382.44
271.234	370.44
271.466	376.44
271.698	374.44
271.93	387.44
272.162	377.44
272.394	391.44
272.626	396.44
272.858	387.44
273.09	391.44
273.322	393.44
273.553	384.44
273.785	407.44
274.017	395.44
274.249	403.44
274.481	396.44
274.713	385.44
274.945	410.44
275.176	408.44
275.408	405.44
275.64	413.44
275.872	414.44
276.104	419.44
276.335	399.44
276.567	430.44
276.799	414.44
277.031	435.44
277.262	414.44
277.494	419.44
277.726	432.44
277.957	440.44
278.189	440.44
278.421	435.44
278.652	406.44
278.884	430.44
279.115	430.44
279.347	437.44
279.579	431.44
279.81	438.44
280.042	448.44
280.273	450.44
280.505	440.44
280.736	459.44
280.968	443.44
281.199	454.44
281.431	455.44
281.662	438.44
281.894	453.44
282.125	460.44
282.356	444.44
282.588	444.44
282.819	463.44
283.051	463.44
283.282	458.44
283.513	479.44
283.745	475.44
283.976	459.44
284.207	460.44
284.439	484.44
284.67	500.44
284.901	475.44
285.132	489.44
285.364	483.44
285.595	479.44
285.826	462.44
286.057	452.44
286.288	480.44
286.52	483.44
286.751	519.44
286.982	489.44
287.213	490.44
287.444	482.44
287.675	493.44
287.906	498.44
288.138	482.44
288.369	512.44
288.6	488.44
288.831	493.44
289.062	500.44
289.293	528.44
289.524	532.44
289.755	524.44
289.986	494.44
290.217	524.44
290.448	510.44
290.679	523.44
290.91	539.44
291.141	504.44
291.371	537.44
291.602	518.44
291.833	527.44
292.064	518.44
292.295	515.44
292.526	536.44
292.757	522.44
292.987	533.44
293.218	508.44
293.449	540.44
293.68	508.44
293.91	523.44
294.141	519.44
294.372	544.44
294.603	546.44
294.833	524.44
295.064	543.44
295.295	526.44
295.525	540.44
295.756	556.44
295.987	542.44
296.217	541.44
296.448	536.44
296.679	552.44
296.909	573.44
297.14	549.44
297.37	573.44
297.601	564.44
297.831	564.44
298.062	577.44
298.292	552.44
298.523	573.44
298.753	587.44
298.984	596.44
299.214	551.44
299.445	568.44
299.675	583.44
299.905	573.44
300.136	550.44
300.366	574.44
300.597	584.44
300.827	581.44
301.057	572.44
301.288	591.44
301.518	607.44
301.748	605.44
301.979	619.44
302.209	608.44
302.439	585.44
302.669	610.44
302.9	573.44
303.13	586.44
303.36	583.44
303.59	576.44
303.82	586.44
304.051	600.44
304.281	583.44
304.511	601.44
304.741	581.44
304.971	585.44
305.201	620.44
305.431	589.44
305.661	576.44
305.891	590.44
306.121	582.44
306.352	593.44
306.582	601.44
306.812	559.44
307.042	579.44
307.272	564.44
307.502	578.44
307.731	568.44
307.961	566.44
308.191	573.44
308.421	569.44
308.651	555.44
308.881	570.44
309.111	552.44
309.341	585.44
309.571	567.44
309.8	576.44
310.03	565.44
310.26	573.44
310.49	573.44
310.72	575.44
310.949	567.44
311.179	570.44
311.409	566.44
311.639	568.44
311.868	582.44
312.098	591.44
312.328	588.44
312.557	593.44
312.787	601.44
313.017	585.44
313.246	615.44
313.476	613.44
313.706	623.44
313.935	632.44
314.165	626.44
314.394	624.44
314.624	610.44
314.853	613.44
315.083	601.44
315.312	612.44
315.542	608.44
315.771	605.44
316.001	619.44
316.23	610.44
316.46	592.44
316.689	576.44
316.919	607.44
317.148	585.44
317.377	584.44
317.607	586.44
317.836	589.44
318.065	587.44
318.295	631.44
318.524	610.44
318.753	598.44
318.983	600.44
319.212	582.44
319.441	590.44
319.67	626.44
319.9	574.44
320.129	611.44
320.358	586.44
320.587	603.44
320.816	614.44
321.046	623.44
321.275	621.44
321.504	616.44
321.733	605.44
321.962	604.44
322.191	593.44
322.42	602.44
322.649	620.44
322.878	617.44
323.108	616.44
323.337	621.44
323.566	611.44
323.795	634.44
324.024	613.44
324.253	605.44
324.482	619.44
324.71	602.44
324.939	611.44
325.168	632.44
325.397	648.44
325.626	646.44
325.855	652.44
326.084	655.44
326.313	668.44
326.542	662.44
326.77	671.44
326.999	632.44
327.228	641.44
327.457	669.44
327.686	636.44
327.914	652.44
328.143	649.44
328.372	670.44
328.6	648.44
328.829	666.44
329.058	664.44
329.287	668.44
329.515	663.44
329.744	654.44
329.972	650.44
330.201	638.44
330.43	679.44
330.658	670.44
330.887	697.44
331.115	694.44
331.344	702.44
331.572	706.44
331.801	707.44
332.03	716.44
332.258	752.44
332.486	754.44
332.715	822.44
332.943	820.44
333.172	837.44
333.4	898.44
333.629	894.44
333.857	950.44
334.085	926.44
334.314	884.44
334.542	848.44
334.771	835.44
334.999	828.44
335.227	834.44
335.455	819.44
335.684	852.44
335.912	812.44
336.14	802.44
336.369	778.44
336.597	814.44
336.825	798.44
337.053	800.44
337.281	786.44
337.51	760.44
337.738	768.44
337.966	741.44
338.194	716.44
338.422	704.44
338.65	722.44
338.878	716.44
339.106	748.44
339.334	700.44
339.562	683.44
339.79	715.44
340.018	682.44
340.246	674.44
340.474	690.44
340.702	684.44
340.93	697.44
341.158	687.44
341.386	699.44
341.614	720.44
341.842	697.44
342.07	680.44
342.298	660.44
342.526	669.44
342.754	666.44
342.981	696.44
343.209	721.44
343.437	738.44
343.665	783.44
343.893	837.44
344.12	886.44
344.348	838.44
344.576	786.44
344.804	765.44
345.031	723.44
345.259	716.44
345.487	730.44
345.714	669.44
345.942	718.44
346.17	710.44
346.397	687.44
346.625	682.44
346.853	695.44
347.08	660.44
347.308	693.44
347.535	707.44
347.763	706.44
347.99	687.44
348.218	696.44
348.445	718.44
348.673	677.44
348.9	681.44
349.128	692.44
349.355	642.44
349.583	667.44
349.81	651.44
350.037	646.44
350.265	636.44
350.492	648.44
350.72	661.44
350.947	639.44
351.174	662.44
351.402	644.44
351.629	648.44
351.856	634.44
352.083	646.44
352.311	642.44
352.538	644.44
352.765	650.44
352.992	633.44
353.22	649.44
353.447	618.44
353.674	642.44
353.901	638.44
354.128	661.44
354.355	638.44
354.583	638.44
354.81	639.44
355.037	647.44
355.264	631.44
355.491	664.44
355.718	679.44
355.945	647.44
356.172	667.44
356.399	650.44
356.626	622.44
356.853	653.44
357.08	642.44
357.307	646.44
357.534	676.44
357.761	667.44
357.988	635.44
358.215	656.44
358.441	650.44
358.668	645.44
358.895	665.44
359.122	649.44
359.349	621.44
359.576	642.44
359.802	640.44
360.029	661.44
360.256	647.44
360.483	650.44
360.709	636.44
360.936	654.44
361.163	642.44
361.39	642.44
361.616	656.44
361.843	611.44
362.07	656.44
362.296	651.44
362.523	644.44
362.749	650.44
362.976	643.44
363.203	643.44
363.429	639.44
363.656	650.44
363.882	631.44
364.109	627.44
364.335	635.44
364.562	660.44
364.788	623.44
365.015	632.44
365.241	646.44
365.468	655.44
365.694	650.44
365.92	631.44
366.147	633.44
366.373	635.44
366.599	636.44
366.826	622.44
367.052	660.44
367.278	653.44
367.505	660.44
367.731	648.44
367.957	662.44
368.184	665.44
368.41	669.44
368.636	647.44
368.862	645.44
369.089	670.44
369.315	672.44
369.541	668.44
369.767	684.44
369.993	670.44
370.219	682.44
370.445	679.44
370.672	706.44
370.898	703.44
371.124	684.44
371.35	704.44
371.576	727.44
371.802	699.44
372.028	692.44
372.254	697.44
372.48	676.44
372.706	725.44
372.932	735.44
373.158	724.44
373.384	712.44
373.61	719.44
373.835	695.44
374.061	682.44
374.287	699.44
374.513	718.44
374.739	749.44
374.965	791.44
375.191	798.44
375.416	775.44
375.642	761.44
375.868	776.44
376.094	743.44
376.319	715.44
376.545	738.44
376.771	704.44
376.997	714.44
377.222	692.44
377.448	687.44
377.674	682.44
377.899	684.44
378.125	715.44
378.35	710.44
378.576	696.44
378.802	680.44
379.027	693.44
379.253	690.44
379.478	680.44
379.704	703.44
379.929	695.44
380.155	675.44
380.38	672.44
380.606	687.44
380.831	681.44
381.057	698.44
381.282	679.44
381.507	701.44
381.733	706.44
381.958	706.44
382.184	729.44
382.409	732.44
382.634	719.44
382.86	742.44
383.085	767.44
383.31	758.44
383.535	782.44
383.761	783.44
383.986	822.44
384.211	835.44
384.436	838.44
384.662	839.44
384.887	835.44
385.112	873.44
385.337	858.44
385.562	868.44
385.787	851.44
386.013	875.44
386.238	851.44
386.463	884.44
386.688	848.44
386.913	859.44
387.138	823.44
387.363	842.44
387.588	834.44
387.813	836.44
388.038	823.44
388.263	843.44
388.488	830.44
388.713	842.44
388.938	833.44
389.163	828.44
389.387	816.44
389.612	818.44
389.837	831.44
390.062	838.44
390.287	843.44
390.512	828.44
390.736	834.44
390.961	846.44
391.186	838.44
391.411	898.44
391.636	896.44
391.86	935.44
392.085	986.44
392.31	972.44
392.534	940.44
392.759	909.44
392.984	910.44
393.208	898.44
393.433	906.44
393.658	893.44
393.882	886.44
394.107	873.44
394.331	924.44
394.556	958.44
394.78	903.44
395.005	914.44
395.229	931.44
395.454	936.44
395.678	970.44
395.903	966.44
396.127	941.44
396.352	931.44
396.576	920.44
396.801	899.44
397.025	896.44
397.249	924.44
397.474	920.44
397.698	962.44
397.922	954.44
398.147	941.44
398.371	957.44
398.595	973.44
398.82	1016.44
399.044	1082.44
399.268	1230.44
399.492	1431.44
399.717	1645.44
399.941	1687.44
400.165	1474.44
400.389	1266.44
400.613	1197.44
400.837	1102.44
401.062	1090.44
401.286	1088.44
401.51	1038.44
401.734	1034.44
401.958	1029.44
402.182	1106.44
402.406	1110.44
402.63	1130.44
402.854	1141.44
403.078	1140.44
403.302	1185.44
403.526	1220.44
403.75	1232.44
403.974	1265.44
404.198	1290.44
404.422	1288.44
404.645	1279.44
404.869	1233.44
405.093	1204.44
405.317	1178.44
405.541	1195.44
405.765	1154.44
405.988	1164.44
406.212	1154.44
406.436	1172.44
406.66	1174.44
406.883	1236.44
407.107	1273.44
407.331	1379.44
407.555	1395.44
407.778	1378.44
408.002	1367.44
408.226	1321.44
408.449	1287.44
408.673	1245.44
408.896	1230.44
409.12	1193.44
409.344	1211.44
409.567	1190.44
409.791	1232.44
410.014	1224.44
410.238	1208.44
410.461	1207.44
410.685	1217.44
410.908	1178.44
411.132	1140.44
411.355	1104.44
411.578	1112.44
411.802	1108.44
412.025	1129.44
412.249	1145.44
412.472	1094.44
412.695	1080.44
412.919	1060.44
413.142	1064.44
413.365	1044.44
413.589	1091.44
413.812	1070.44
414.035	1023.44
414.258	1033.44
414.482	1084.44
414.705	1092.44
414.928	1071.44
415.151	1093.44
415.374	1061.44
415.597	1067.44
415.821	1074.44
416.044	1044.44
416.267	1021.44
416.49	1029.44
416.713	1031.44
416.936	1053.44
417.159	1030.44
417.382	1063.44
417.605	1053.44
417.828	1033.44
418.051	1058.44
418.274	1052.44
418.497	1047.44
418.72	1099.44
418.943	1100.44
419.166	1168.44
419.389	1245.44
419.611	1220.44
419.834	1148.44
420.057	1106.44
420.28	1063.44
420.503	1042.44
420.726	1049.44
420.948	1039.44
421.171	1039.44
421.394	1029.44
421.617	1011.44
421.839	1067.44
422.062	1065.44
422.285	1063.44
422.507	1122.44
422.73	1076.44
422.953	1076.44
423.175	1141.44
423.398	1127.44
423.621	1141.44
423.843	1115.44
424.066	1154.44
424.288	1127.44
424.511	1134.44
424.733	1116.44
424.956	1115.44
425.178	1078.44
425.401	1067.44
425.623	1054.44
425.846	1004.44
426.068	1009.44
426.291	998.44
426.513	990.44
426.735	979.44
426.958	962.44
427.18	949.44
427.402	951.44
427.625	940.44
427.847	928.44
428.069	968.44
428.292	991.44
428.514	930.44
428.736	927.44
428.958	920.44
429.181	925.44
429.403	890.44
429.625	909.44
429.847	903.44
430.069	898.44
430.292	950.44
430.514	893.44
430.736	867.44
430.958	906.44
431.18	894.44
431.402	924.44
431.624	931.44
431.846	974.44
432.068	961.44
432.29	958.44
432.512	936.44
432.734	942.44
432.956	937.44
433.178	951.44
433.4	958.44
433.622	946.44
433.844	953.44
434.066	966.44
434.287	1000.44
434.509	989.44
434.731	1014.44
434.953	1058.44
435.175	1068.44
435.397	1058.44
435.618	1000.44
435.84	975.44
436.062	942.44
436.284	926.44
436.505	932.44
436.727	914.44
436.949	939.44
437.17	967.44
437.392	946.44
437.614	921.44
437.835	896.44
438.057	887.44
438.278	869.44
438.5	877.44
438.721	907.44
438.943	912.44
439.165	894.44
439.386	910.44
439.608	925.44
439.829	961.44
440.05	928.44
440.272	946.44
440.493	933.44
440.715	976.44
440.936	987.44
441.158	980.44
441.379	991.44
441.6	1058.44
441.822	1062.44
442.043	1078.44
442.264	1062.44
442.486	1031.44
442.707	1052.44
442.928	1067.44
443.149	1055.44
443.371	1044.44
443.592	1058.44
443.813	1069.44
444.034	1071.44
444.255	1103.44
444.476	1155.44
444.698	1247.44
444.919	1311.44
445.14	1358.44
445.361	1186.44
445.582	1099.44
445.803	1036.44
446.024	1024.44
446.245	986.44
446.466	951.44
446.687	954.44
446.908	957.44
447.129	930.44
447.35	933.44
447.571	921.44
447.792	894.44
448.013	896.44
448.234	860.44
448.455	887.44
448.675	843.44
448.896	853.44
449.117	844.44
449.338	861.44
449.559	855.44
449.779	860.44
450	855.44
450.221	855.44
450.442	855.44
450.662	851.44
450.883	883.44
451.104	900.44
451.324	909.44
451.545	906.44
451.766	905.44
451.986	925.44
452.207	855.44
452.428	884.44
452.648	864.44
452.869	886.44
453.089	859.44
453.31	862.44
453.53	882.44
453.751	824.44
453.971	837.44
454.192	852.44
454.412	813.44
454.633	844.44
454.853	851.44
455.073	793.44
455.294	828.44
455.514	814.44
455.734	824.44
455.955	820.44
456.175	789.44
456.395	790.44
456.616	803.44
456.836	800.44
457.056	806.44
457.276	805.44
457.497	820.44
457.717	832.44
457.937	815.44
458.157	820.44
458.377	820.44
458.598	860.44
458.818	887.44
459.038	902.44
459.258	933.44
459.478	964.44
459.698	962.44
459.918	963.44
460.138	1037.44
460.358	1101.44
460.578	1118.44
460.798	1140.44
461.018	1156.44
461.238	1169.44
461.458	1100.44
461.678	1123.44
461.898	1112.44
462.118	1127.44
462.338	1217.44
462.558	1206.44
462.777	1257.44
462.997	1436.44
463.217	1545.44
463.437	1583.44
463.657	1421.44
463.876	1344.44
464.096	1332.44
464.316	1302.44
464.536	1338.44
464.755	1284.44
464.975	1252.44
465.195	1150.44
465.414	1118.44
465.634	1021.44
465.854	990.44
466.073	964.44
466.293	962.44
466.512	950.44
466.732	926.44
466.951	905.44
467.171	896.44
467.391	897.44
467.61	902.44
467.829	901.44
468.049	901.44
468.268	879.44
468.488	864.44
468.707	861.44
468.927	858.44
469.146	855.44
469.365	888.44
469.585	861.44
469.804	890.44
470.023	933.44
470.243	909.44
470.462	906.44
470.681	948.44
470.901	954.44
471.12	921.44
471.339	931.44
471.558	884.44
471.777	890.44
471.997	895.44
472.216	839.44
472.435	844.44
472.654	840.44
472.873	861.44
473.092	863.44
473.311	835.44
473.53	824.44
473.749	848.44
473.968	847.44
474.187	848.44
474.406	832.44
474.625	867.44
474.844	836.44
475.063	868.44
475.282	860.44
475.501	868.44
475.72	858.44
475.939	836.44
476.158	865.44
476.377	866.44
476.596	891.44
476.814	898.44
477.033	920.44
477.252	914.44
477.471	912.44
477.69	953.44
477.908	957.44
478.127	992.44
478.346	1010.44
478.564	1020.44
478.783	1015.44
479.002	1061.44
479.22	1075.44
479.439	1032.44
479.658	1060.44
479.876	1078.44
480.095	1082.44
480.313	1150.44
480.532	1155.44
480.751	1169.44
480.969	1091.44
481.188	1022.44
481.406	1040.44
481.624	997.44
481.843	972.44
482.061	969.44
482.28	962.44
482.498	993.44
482.717	975.44
482.935	948.44
483.153	984.44
483.372	981.44
483.59	949.44
483.808	955.44
484.027	967.44
484.245	967.44
484.463	974.44
484.681	1014.44
484.9	1003.44
485.118	989.44
485.336	1007.44
485.554	995.44
485.772	1007.44
485.99	1016.44
486.209	1073.44
486.427	1066.44
486.645	1019.44
486.863	1006.44
487.081	1026.44
487.299	992.44
487.517	1020.44
487.735	1008.44
487.953	1044.44
488.171	1031.44
488.389	982.44
488.607	991.44
488.825	1001.44
489.043	961.44
489.261	1004.44
489.479	991.44
489.696	1026.44
489.914	1010.44
490.132	997.44
490.35	994.44
490.568	998.44
490.786	1032.44
491.003	999.44
491.221	1019.44
491.439	1055.44
491.657	1008.44
491.874	1033.44
492.092	999.44
492.31	1032.44
492.527	992.44
492.745	1063.44
492.963	1056.44
493.18	1040.44
493.398	1067.44
493.615	1072.44
493.833	1065.44
494.05	1068.44
494.268	1082.44
494.485	1051.44
494.703	1048.44
494.92	1067.44
495.138	1074.44
495.355	1074.44
495.573	1055.44
495.79	1087.44
496.008	1117.44
496.225	1100.44
496.442	1099.44
496.66	1109.44
496.877	1117.44
497.094	1133.44
497.312	1164.44
497.529	1204.44
497.746	1200.44
497.963	1235.44
498.181	1307.44
498.398	1323.44
498.615	1403.44
498.832	1535.44
499.049	1678.44
499.267	1821.44
499.484	1981.44
499.701	2196.44
499.918	2425.44
500.135	2776.44
500.352	3359.44
500.569	3500.44
500.786	3448.44
501.003	3168.44
501.22	2822.44
501.437	2439.44
501.654	2131.44
501.871	1906.44
502.088	1715.44
502.305	1617.44
502.522	1524.44
502.739	1485.44
502.956	1406.44
503.172	1349.44
503.389	1308.44
503.606	1245.44
503.823	1190.44
504.04	1214.44
504.256	1242.44
504.473	1281.44
504.69	1332.44
504.907	1271.44
505.123	1202.44
505.34	1135.44
505.557	1078.44
505.773	1065.44
505.99	1010.44
506.207	1010.44
506.423	965.44
506.64	948.44
506.856	973.44
507.073	966.44
507.289	968.44
507.506	951.44
507.722	963.44
507.939	932.44
508.155	894.44
508.372	928.44
508.588	890.44
508.805	912.44
509.021	890.44
509.238	910.44
509.454	889.44
509.67	898.44
509.887	888.44
510.103	890.44
510.319	892.44
510.536	858.44
510.752	865.44
510.968	887.44
511.184	865.44
511.401	873.44
511.617	847.44
511.833	852.44
512.049	865.44
512.265	856.44
512.481	846.44
512.698	855.44
512.914	882.44
513.13	900.44
513.346	895.44
513.562	865.44
513.778	877.44
513.994	883.44
514.21	898.44
514.426	902.44
514.642	884.44
514.858	876.44
515.074	902.44
515.29	886.44
515.506	887.44
515.721	936.44
515.937	936.44
516.153	951.44
516.369	977.44
516.585	1002.44
516.801	1027.44
517.016	1082.44
517.232	1130.44
517.448	1193.44
517.664	1266.44
517.879	1303.44
518.095	1266.44
518.311	1187.44
518.527	1173.44
518.742	1129.44
518.958	1050.44
519.173	1015.44
519.389	1010.44
519.605	978.44
519.82	930.44
520.036	911.44
520.251	890.44
520.467	879.44
520.682	878.44
520.898	858.44
521.113	886.44
521.329	837.44
521.544	852.44
521.76	844.44
521.975	833.44
522.19	843.44
522.406	827.44
522.621	828.44
522.836	825.44
523.052	843.44
523.267	836.44
523.482	797.44
523.698	830.44
523.913	821.44
524.128	793.44
524.343	811.44
524.559	827.44
524.774	822.44
524.989	814.44
525.204	812.44
525.419	803.44
525.634	781.44
525.849	793.44
526.064	794.44
526.28	801.44
526.495	793.44
526.71	805.44
526.925	757.44
527.14	788.44
527.355	798.44
527.57	802.44
527.785	781.44
527.999	779.44
528.214	809.44
528.429	782.44
528.644	798.44
528.859	799.44
529.074	815.44
529.289	806.44
529.503	803.44
529.718	802.44
529.933	782.44
530.148	787.44
530.363	791.44
530.577	796.44
530.792	803.44
531.007	796.44
531.221	780.44
531.436	797.44
531.651	813.44
531.865	785.44
532.08	804.44
532.295	798.44
532.509	775.44
532.724	782.44
532.938	799.44
533.153	806.44
533.367	775.44
533.582	805.44
533.796	790.44
534.011	792.44
534.225	785.44
534.44	788.44
534.654	783.44
534.868	781.44
535.083	780.44
535.297	757.44
535.511	780.44
535.726	782.44
535.94	752.44
536.154	771.44
536.369	742.44
536.583	758.44
536.797	768.44
537.011	741.44
537.225	723.44
537.44	716.44
537.654	717.44
537.868	720.44
538.082	737.44
538.296	725.44
538.51	697.44
538.724	739.44
538.938	698.44
539.153	692.44
539.367	701.44
539.581	712.44
539.795	690.44
540.009	711.44
540.222	723.44
540.436	720.44
540.65	703.44
540.864	714.44
541.078	684.44
541.292	729.44
541.506	717.44
541.72	696.44
541.934	714.44
542.147	705.44
542.361	693.44
542.575	678.44
542.789	703.44
543.002	690.44
543.216	694.44
543.43	671.44
543.644	693.44
543.857	694.44
544.071	680.44
544.285	710.44
544.498	710.44
544.712	708.44
544.925	710.44
545.139	719.44
545.352	731.44
545.566	729.44
545.779	719.44
545.993	758.44
546.206	733.44
546.42	707.44
546.633	714.44
546.847	697.44
547.06	710.44
547.274	702.44
547.487	699.44
547.7	724.44
547.914	712.44
548.127	713.44
548.34	747.44
548.554	725.44
548.767	720.44
548.98	716.44
549.193	720.44
549.407	728.44
549.62	748.44
549.833	748.44
550.046	738.44
550.259	754.44
550.473	699.44
550.686	720.44
550.899	727.44
551.112	710.44
551.325	700.44
551.538	728.44
551.751	719.44
551.964	714.44
552.177	735.44
552.39	738.44
552.603	744.44
552.816	781.44
553.029	810.44
553.242	803.44
553.455	817.44
553.667	807.44
553.88	811.44
554.093	769.44
554.306	746.44
554.519	738.44
554.732	740.44
554.944	682.44
555.157	696.44
555.37	686.44
555.583	686.44
555.795	669.44
556.008	650.44
556.221	629.44
556.433	644.44
556.646	631.44
556.859	651.44
557.071	640.44
557.284	626.44
557.496	601.44
557.709	610.44
557.921	609.44
558.134	646.44
558.346	623.44
558.559	606.44
558.771	602.44
558.984	606.44
559.196	595.44
559.409	624.44
559.621	582.44
559.833	576.44
560.046	596.44
560.258	588.44
560.47	606.44
560.683	623.44
560.895	607.44
561.107	603.44
561.32	580.44
561.532	591.44
561.744	593.44
561.956	618.44
562.168	584.44
562.381	599.44
562.593	600.44
562.805	623.44
563.017	592.44
563.229	606.44
563.441	602.44
563.653	595.44
563.865	622.44
564.077	622.44
564.289	612.44
564.501	634.44
564.713	648.44
564.925	642.44
565.137	647.44
565.349	663.44
565.561	658.44
565.773	719.44
565.985	748.44
566.197	771.44
566.408	834.44
566.62	899.44
566.832	1004.44
567.044	1008.44
567.255	999.44
567.467	1037.44
567.679	1130.44
567.891	1218.44
568.102	1261.44
568.314	1220.44
568.526	1058.44
568.737	936.44
568.949	834.44
569.161	782.44
569.372	746.44
569.584	700.44
569.795	661.44
570.007	642.44
570.218	628.44
570.43	619.44
570.641	620.44
570.853	605.44
571.064	652.44
571.276	634.44
571.487	609.44
571.698	596.44
571.91	574.44
572.121	549.44
572.333	567.44
572.544	537.44
572.755	538.44
572.966	524.44
573.178	517.44
573.389	503.44
573.6	516.44
573.811	488.44
574.023	490.44
574.234	478.44
574.445	518.44
574.656	495.44
574.867	520.44
575.078	490.44
575.289	501.44
575.501	496.44
575.712	469.44
575.923	486.44
576.134	467.44
576.345	479.44
576.556	485.44
576.767	486.44
576.978	464.44
577.188	479.44
577.399	461.44
577.61	447.44
577.821	458.44
578.032	467.44
578.243	438.44
578.454	441.44
578.665	426.44
578.875	454.44
579.086	460.44
579.297	458.44
579.508	437.44
579.718	460.44
579.929	440.44
580.14	458.44
580.35	424.44
580.561	447.44
580.772	440.44
580.982	438.44
581.193	438.44
581.403	437.44
581.614	425.44
581.825	431.44
582.035	424.44
582.246	442.44
582.456	430.44
582.667	430.44
582.877	423.44
583.087	418.44
583.298	419.44
583.508	420.44
583.719	424.44
583.929	408.44
584.139	399.44
584.35	423.44
584.56	422.44
584.77	420.44
584.981	421.44
585.191	422.44
585.401	405.44
585.611	405.44
585.821	416.44
586.032	421.44
586.242	407.44
586.452	393.44
586.662	408.44
586.872	407.44
587.082	413.44
587.292	396.44
587.502	412.44
587.713	400.44
587.923	411.44
588.133	406.44
588.343	392.44
588.553	405.44
588.762	407.44
588.972	402.44
589.182	412.44
589.392	410.44
589.602	389.44
589.812	417.44
590.022	394.44
590.232	401.44
590.441	403.44
590.651	415.44
590.861	410.44
591.071	416.44
591.281	421.44
591.49	418.44
591.7	429.44
591.91	435.44
592.119	441.44
592.329	415.44
592.539	456.44
592.748	474.44
592.958	499.44
593.167	484.44
593.377	537.44
593.587	539.44
593.796	525.44
594.006	547.44
594.215	547.44
594.424	545.44
594.634	520.44
594.843	479.44
595.053	469.44
595.262	470.44
595.472	453.44
595.681	450.44
595.89	440.44
596.1	424.44
596.309	401.44
596.518	388.44
596.727	372.44
596.937	403.44
597.146	379.44
597.355	365.44
597.564	370.44
597.774	380.44
597.983	365.44
598.192	357.44
598.401	365.44
598.61	343.44
598.819	356.44
599.028	352.44
599.237	356.44
599.446	346.44
599.655	324.44
599.864	338.44
600.073	347.44
600.282	339.44
600.491	339.44
600.7	352.44
600.909	339.44
601.118	346.44
601.327	344.44
601.536	356.44
601.745	331.44
601.953	349.44
602.162	338.44
602.371	324.44
602.58	326.44
602.789	325.44
602.997	335.44
603.206	328.44
603.415	326.44
603.623	331.44
603.832	310.44
604.041	308.44
604.249	321.44
604.458	327.44
604.666	326.44
604.875	299.44
605.084	321.44
605.292	320.44
605.501	328.44
605.709	316.44
605.918	319.44
606.126	310.44
606.334	314.44
606.543	308.44
606.751	289.44
606.96	291.44
607.168	308.44
607.376	324.44
607.585	302.44
607.793	317.44
608.001	314.44
608.21	297.44
608.418	303.44
608.626	313.44
608.834	303.44
609.043	300.44
609.251	299.44
609.459	307.44
609.667	294.44
609.875	312.44
610.083	318.44
610.291	315.44
610.499	304.44
610.707	295.44
610.916	302.44
611.124	310.44
611.332	306.44
611.54	316.44
611.748	299.44
611.955	292.44
612.163	307.44
612.371	301.44
612.579	306.44
612.787	282.44
612.995	296.44
613.203	287.44
613.411	285.44
613.618	292.44
613.826	304.44
614.034	280.44
614.242	294.44
614.449	283.44
614.657	298.44
614.865	294.44
615.072	303.44
615.28	286.44
615.488	295.44
615.695	293.44
615.903	304.44
616.111	293.44
616.318	306.44
616.526	294.44
616.733	303.44
616.941	302.44
617.148	292.44
617.356	278.44
617.563	301.44
617.771	311.44
617.978	301.44
618.185	277.44
618.393	280.44
618.6	283.44
618.807	283.44
619.015	308.44
619.222	302.44
619.429	277.44
619.637	286.44
619.844	290.44
620.051	285.44
620.258	284.44
620.466	272.44
620.673	277.44
620.88	259.44
621.087	289.44
621.294	281.44
621.501	266.44
621.708	266.44
621.915	275.44
622.122	265.44
622.329	258.44
622.536	284.44
622.743	272.44
622.95	259.44
623.157	250.44
623.364	263.44
623.571	269.44
623.778	271.44
623.985	279.44
624.192	280.44
624.399	261.44
624.606	278.44
624.812	239.44
625.019	254.44
625.226	254.44
625.433	254.44
625.639	255.44
625.846	242.44
626.053	256.44
626.259	245.44
626.466	258.44
626.673	248.44
626.879	262.44
627.086	259.44
627.293	245.44
627.499	236.44
627.706	236.44
627.912	248.44
628.119	236.44
628.325	250.44
628.532	243.44
628.738	237.44
628.945	240.44
629.151	237.44
629.357	236.44
629.564	230.44
629.77	242.44
629.976	239.44
630.183	226.44
630.389	232.44
630.595	230.44
630.802	220.44
631.008	231.44
631.214	244.44
631.42	225.44
631.627	242.44
631.833	235.44
632.039	231.44
632.245	219.44
632.451	224.44
632.657	224.44
632.863	219.44
633.069	222.44
633.275	208.44
633.481	223.44
633.688	213.44
633.893	233.44
634.099	228.44
634.305	213.44
634.511	207.44
634.717	219.44
634.923	198.44
635.129	220.44
635.335	228.44
635.541	218.44
635.747	223.44
635.952	211.44
636.158	202.44
636.364	214.44
636.57	210.44
636.775	203.44
636.981	214.44
637.187	195.44
637.392	217.44
637.598	212.44
637.804	214.44
638.009	212.44
638.215	211.44
638.421	202.44
638.626	210.44
638.832	210.44
639.037	202.44
639.243	191.44
639.448	224.44
639.654	218.44
639.859	202.44
640.065	205.44
640.27	214.44
640.475	214.44
640.681	215.44
640.886	203.44
641.091	205.44
641.297	208.44
641.502	205.44
641.707	187.44
641.913	203.44
642.118	187.44
642.323	196.44
642.528	205.44
642.733	206.44
642.939	189.44
643.144	182.44
643.349	189.44
643.554	187.44
643.759	193.44
643.964	193.44
644.169	217.44
644.374	182.44
644.579	199.44
644.784	170.44
644.989	186.44
645.194	190.44
645.399	171.44
645.604	197.44
645.809	198.44
646.014	206.44
646.219	202.44
646.423	197.44
646.628	179.44
646.833	195.44
647.038	192.44
647.243	195.44
647.447	191.44
647.652	212.44
647.857	209.44
648.062	218.44
648.266	226.44
648.471	212.44
648.676	203.44
648.88	212.44
649.085	187.44
649.289	199.44
649.494	200.44
649.698	207.44
649.903	189.44
650.107	197.44
650.312	193.44
650.516	183.44
650.721	168.44
650.925	175.44
651.13	165.44
651.334	172.44
651.539	169.44
651.743	171.44
651.947	154.44
652.152	174.44
652.356	156.44
652.56	159.44
652.764	162.44
652.969	159.44
653.173	158.44
653.377	158.44
653.581	156.44
653.785	158.44
653.99	146.44
654.194	136.44
654.398	145.44
654.602	154.44
654.806	148.44
655.01	157.44
655.214	134.44
655.418	127.44
655.622	150.44
655.826	135.44
656.03	143.44
656.234	141.44
656.438	132.44
656.642	125.44
656.846	128.44
657.049	133.44
657.253	124.44
657.457	133.44
657.661	136.44
657.865	127.44
658.068	112.44
658.272	110.44
658.476	113.44
658.68	116.44
658.883	109.44
659.087	110.44
659.291	99.44
659.494	106.44
659.698	90.44
659.901	94.44
660.105	104.44
660.309	105.44
660.512	84.44
660.716	117.44
660.919	93.44
661.123	101.44
661.326	96.44
661.53	95.44
661.733	80.44
661.936	86.44
662.14	79.44
662.343	96.44
662.546	92.44
662.75	93.44
662.953	105.44
663.156	96.44
663.36	91.44
663.563	91.44
663.766	75.44
663.969	75.44
664.173	91.44
664.376	81.44
664.579	81.44
664.782	99.44
664.985	87.44
665.188	71.44
665.391	73.44
665.594	99.44
665.797	91.44
666	94.44
666.203	79.44
666.406	79.44
666.609	76.44
666.812	71.44
667.015	74.44
667.218	87.44
667.421	79.44
667.624	88.44
667.827	84.44
668.03	71.44
668.232	86.44
668.435	87.44
668.638	87.44
668.841	93.44
669.043	81.44
669.246	104.44
669.449	77.44
669.651	79.44
669.854	89.44
670.057	79.44
670.259	85.44
670.462	73.44
670.665	92.44
670.867	86.44
671.07	78.44
671.272	101.44
671.475	94.44
671.677	91.44
671.88	89.44
672.082	85.44
672.284	90.44
672.487	82.44
672.689	71.44
672.892	86.44
