Data from Ni(NO3)2@0.125M.TitratingCurve.Agarose3%dH2O.NegLispCup.LampEnergy10.LIBS07252019_HRD10591_18-08-37-567.txt Node
Date: Thu Jul 25 18:08:37 EDT 2019
User: cochatt
Spectrometer: HR+D1059
Trigger mode: 1
Integration Time (sec): 1.000000E-1
Scans to average: 1
Electric dark correction enabled: true
Nonlinearity correction enabled: false
Boxcar width: 0
XAxis mode: Wavelengths
Number of Pixels in Spectrum: 2048
>>>>>Begin Spectral Data<<<<<
223.165	-13.94
223.4	-13.94
223.635	-13.94
223.869	-6.94
224.104	-18.94
224.338	-24.94
224.573	-8.94
224.808	-5.94
225.042	-2.94
225.277	-3.94
225.511	-22.94
225.746	1.06
225.98	10.06
226.215	12.06
226.449	16.06
226.683	21.06
226.918	18.06
227.152	31.06
227.387	33.06
227.621	39.06
227.856	37.06
228.09	28.06
228.324	68.06
228.559	67.06
228.793	70.06
229.027	118.06
229.262	128.06
229.496	149.06
229.73	137.06
229.964	155.06
230.199	148.06
230.433	151.06
230.667	153.06
230.901	148.06
231.136	160.06
231.37	144.06
231.604	152.06
231.838	152.06
232.072	166.06
232.306	162.06
232.541	157.06
232.775	156.06
233.009	166.06
233.243	163.06
233.477	154.06
233.711	161.06
233.945	176.06
234.179	168.06
234.413	152.06
234.647	166.06
234.881	161.06
235.115	165.06
235.349	155.06
235.583	163.06
235.817	184.06
236.051	176.06
236.285	180.06
236.519	171.06
236.753	198.06
236.987	172.06
237.221	192.06
237.455	186.06
237.689	181.06
237.922	194.06
238.156	185.06
238.39	178.06
238.624	183.06
238.858	181.06
239.091	197.06
239.325	191.06
239.559	204.06
239.793	202.06
240.027	202.06
240.26	213.06
240.494	200.06
240.728	219.06
240.961	204.06
241.195	224.06
241.429	239.06
241.662	205.06
241.896	226.06
242.13	224.06
242.363	230.06
242.597	225.06
242.83	216.06
243.064	231.06
243.298	224.06
243.531	224.06
243.765	236.06
243.998	227.06
244.232	257.06
244.465	249.06
244.699	261.06
244.932	255.06
245.166	252.06
245.399	250.06
245.633	245.06
245.866	234.06
246.099	242.06
246.333	260.06
246.566	263.06
246.8	275.06
247.033	276.06
247.266	259.06
247.5	260.06
247.733	278.06
247.966	290.06
248.2	275.06
248.433	267.06
248.666	293.06
248.899	287.06
249.133	284.06
249.366	288.06
249.599	286.06
249.832	295.06
250.066	298.06
250.299	301.06
250.532	307.06
250.765	316.06
250.998	313.06
251.231	296.06
251.465	330.06
251.698	342.06
251.931	314.06
252.164	320.06
252.397	328.06
252.63	335.06
252.863	325.06
253.096	305.06
253.329	340.06
253.562	324.06
253.795	339.06
254.028	340.06
254.261	355.06
254.494	343.06
254.727	343.06
254.96	341.06
255.193	350.06
255.426	362.06
255.659	356.06
255.892	360.06
256.124	361.06
256.357	361.06
256.59	347.06
256.823	352.06
257.056	361.06
257.289	370.06
257.521	375.06
257.754	385.06
257.987	376.06
258.22	378.06
258.452	399.06
258.685	374.06
258.918	368.06
259.151	368.06
259.383	378.06
259.616	404.06
259.849	380.06
260.081	389.06
260.314	392.06
260.547	383.06
260.779	382.06
261.012	383.06
261.244	424.06
261.477	386.06
261.71	411.06
261.942	397.06
262.175	406.06
262.407	417.06
262.64	391.06
262.872	391.06
263.105	421.06
263.337	428.06
263.57	422.06
263.802	422.06
264.035	410.06
264.267	424.06
264.499	431.06
264.732	445.06
264.964	435.06
265.197	448.06
265.429	447.06
265.661	462.06
265.894	454.06
266.126	457.06
266.358	448.06
266.591	443.06
266.823	448.06
267.055	452.06
267.287	440.06
267.52	427.06
267.752	479.06
267.984	457.06
268.216	454.06
268.448	449.06
268.681	454.06
268.913	466.06
269.145	469.06
269.377	457.06
269.609	452.06
269.841	461.06
270.073	482.06
270.306	465.06
270.538	461.06
270.77	456.06
271.002	476.06
271.234	481.06
271.466	482.06
271.698	465.06
271.93	483.06
272.162	499.06
272.394	489.06
272.626	483.06
272.858	488.06
273.09	492.06
273.322	488.06
273.553	508.06
273.785	495.06
274.017	495.06
274.249	488.06
274.481	511.06
274.713	497.06
274.945	522.06
275.176	536.06
275.408	510.06
275.64	527.06
275.872	528.06
276.104	526.06
276.335	525.06
276.567	511.06
276.799	507.06
277.031	543.06
277.262	547.06
277.494	541.06
277.726	527.06
277.957	526.06
278.189	537.06
278.421	552.06
278.652	565.06
278.884	537.06
279.115	553.06
279.347	549.06
279.579	554.06
279.81	523.06
280.042	547.06
280.273	552.06
280.505	544.06
280.736	553.06
280.968	562.06
281.199	574.06
281.431	574.06
281.662	593.06
281.894	591.06
282.125	557.06
282.356	584.06
282.588	548.06
282.819	581.06
283.051	580.06
283.282	591.06
283.513	588.06
283.745	609.06
283.976	601.06
284.207	596.06
284.439	621.06
284.67	608.06
284.901	614.06
285.132	621.06
285.364	601.06
285.595	611.06
285.826	600.06
286.057	616.06
286.288	599.06
286.52	599.06
286.751	626.06
286.982	636.06
287.213	622.06
287.444	623.06
287.675	625.06
287.906	626.06
288.138	633.06
288.369	637.06
288.6	607.06
288.831	614.06
289.062	614.06
289.293	616.06
289.524	639.06
289.755	639.06
289.986	624.06
290.217	644.06
290.448	630.06
290.679	645.06
290.91	657.06
291.141	648.06
291.371	651.06
291.602	627.06
291.833	636.06
292.064	639.06
292.295	650.06
292.526	668.06
292.757	632.06
292.987	660.06
293.218	634.06
293.449	641.06
293.68	639.06
293.91	653.06
294.141	669.06
294.372	650.06
294.603	654.06
294.833	656.06
295.064	647.06
295.295	653.06
295.525	656.06
295.756	657.06
295.987	659.06
296.217	665.06
296.448	687.06
296.679	685.06
296.909	653.06
297.14	667.06
297.37	698.06
297.601	683.06
297.831	681.06
298.062	662.06
298.292	717.06
298.523	706.06
298.753	705.06
298.984	706.06
299.214	737.06
299.445	695.06
299.675	692.06
299.905	728.06
300.136	699.06
300.366	698.06
300.597	746.06
300.827	711.06
301.057	711.06
301.288	725.06
301.518	767.06
301.748	752.06
301.979	775.06
302.209	739.06
302.439	757.06
302.669	744.06
302.9	744.06
303.13	738.06
303.36	738.06
303.59	740.06
303.82	723.06
304.051	725.06
304.281	735.06
304.511	723.06
304.741	735.06
304.971	734.06
305.201	747.06
305.431	736.06
305.661	780.06
305.891	705.06
306.121	738.06
306.352	718.06
306.582	722.06
306.812	708.06
307.042	703.06
307.272	717.06
307.502	722.06
307.731	697.06
307.961	705.06
308.191	705.06
308.421	723.06
308.651	734.06
308.881	716.06
309.111	720.06
309.341	724.06
309.571	707.06
309.8	727.06
310.03	713.06
310.26	730.06
310.49	723.06
310.72	739.06
310.949	695.06
311.179	718.06
311.409	718.06
311.639	714.06
311.868	731.06
312.098	730.06
312.328	768.06
312.557	748.06
312.787	742.06
313.017	784.06
313.246	777.06
313.476	777.06
313.706	752.06
313.935	784.06
314.165	776.06
314.394	805.06
314.624	779.06
314.853	767.06
315.083	797.06
315.312	761.06
315.542	756.06
315.771	759.06
316.001	791.06
316.23	753.06
316.46	759.06
316.689	791.06
316.919	803.06
317.148	793.06
317.377	739.06
317.607	740.06
317.836	771.06
318.065	719.06
318.295	763.06
318.524	748.06
318.753	771.06
318.983	765.06
319.212	774.06
319.441	753.06
319.67	771.06
319.9	771.06
320.129	769.06
320.358	759.06
320.587	776.06
320.816	781.06
321.046	825.06
321.275	790.06
321.504	781.06
321.733	778.06
321.962	800.06
322.191	746.06
322.42	796.06
322.649	772.06
322.878	796.06
323.108	787.06
323.337	828.06
323.566	813.06
323.795	807.06
324.024	819.06
324.253	819.06
324.482	807.06
324.71	815.06
324.939	829.06
325.168	825.06
325.397	822.06
325.626	839.06
325.855	836.06
326.084	815.06
326.313	858.06
326.542	894.06
326.77	931.06
326.999	869.06
327.228	878.06
327.457	847.06
327.686	852.06
327.914	865.06
328.143	870.06
328.372	879.06
328.6	873.06
328.829	851.06
329.058	880.06
329.287	871.06
329.515	881.06
329.744	904.06
329.972	908.06
330.201	903.06
330.43	897.06
330.658	889.06
330.887	896.06
331.115	940.06
331.344	920.06
331.572	929.06
331.801	951.06
332.03	962.06
332.258	1014.06
332.486	1047.06
332.715	1048.06
332.943	1088.06
333.172	1136.06
333.4	1191.06
333.629	1225.06
333.857	1236.06
334.085	1226.06
334.314	1178.06
334.542	1157.06
334.771	1150.06
334.999	1140.06
335.227	1127.06
335.455	1121.06
335.684	1081.06
335.912	1123.06
336.14	1078.06
336.369	1087.06
336.597	1077.06
336.825	1075.06
337.053	1081.06
337.281	1038.06
337.51	1052.06
337.738	1028.06
337.966	978.06
338.194	1012.06
338.422	1002.06
338.65	967.06
338.878	981.06
339.106	993.06
339.334	970.06
339.562	939.06
339.79	962.06
340.018	955.06
340.246	902.06
340.474	951.06
340.702	910.06
340.93	957.06
341.158	938.06
341.386	948.06
341.614	979.06
341.842	958.06
342.07	907.06
342.298	929.06
342.526	936.06
342.754	913.06
342.981	927.06
343.209	919.06
343.437	968.06
343.665	1066.06
343.893	1146.06
344.12	1159.06
344.348	1128.06
344.576	1092.06
344.804	1045.06
345.031	1007.06
345.259	945.06
345.487	959.06
345.714	919.06
345.942	930.06
346.17	947.06
346.397	960.06
346.625	922.06
346.853	918.06
347.08	911.06
347.308	915.06
347.535	923.06
347.763	903.06
347.99	931.06
348.218	924.06
348.445	915.06
348.673	926.06
348.9	891.06
349.128	901.06
349.355	916.06
349.583	889.06
349.81	895.06
350.037	896.06
350.265	866.06
350.492	895.06
350.72	867.06
350.947	873.06
351.174	851.06
351.402	873.06
351.629	872.06
351.856	858.06
352.083	889.06
352.311	873.06
352.538	856.06
352.765	874.06
352.992	845.06
353.22	850.06
353.447	874.06
353.674	867.06
353.901	865.06
354.128	851.06
354.355	858.06
354.583	871.06
354.81	875.06
355.037	890.06
355.264	883.06
355.491	883.06
355.718	887.06
355.945	871.06
356.172	857.06
356.399	881.06
356.626	865.06
356.853	886.06
357.08	875.06
357.307	868.06
357.534	871.06
357.761	885.06
357.988	876.06
358.215	851.06
358.441	882.06
358.668	848.06
358.895	884.06
359.122	862.06
359.349	858.06
359.576	874.06
359.802	867.06
360.029	875.06
360.256	864.06
360.483	891.06
360.709	872.06
360.936	860.06
361.163	872.06
361.39	857.06
361.616	874.06
361.843	879.06
362.07	882.06
362.296	868.06
362.523	845.06
362.749	851.06
362.976	853.06
363.203	857.06
363.429	860.06
363.656	861.06
363.882	840.06
364.109	841.06
364.335	863.06
364.562	869.06
364.788	845.06
365.015	835.06
365.241	868.06
365.468	864.06
365.694	844.06
365.92	857.06
366.147	843.06
366.373	879.06
366.599	860.06
366.826	863.06
367.052	857.06
367.278	872.06
367.505	864.06
367.731	873.06
367.957	820.06
368.184	852.06
368.41	856.06
368.636	865.06
368.862	883.06
369.089	883.06
369.315	848.06
369.541	883.06
369.767	899.06
369.993	890.06
370.219	898.06
370.445	924.06
370.672	891.06
370.898	914.06
371.124	922.06
371.35	917.06
371.576	909.06
371.802	937.06
372.028	922.06
372.254	915.06
372.48	935.06
372.706	967.06
372.932	963.06
373.158	980.06
373.384	922.06
373.61	944.06
373.835	946.06
374.061	922.06
374.287	927.06
374.513	953.06
374.739	993.06
374.965	1007.06
375.191	1030.06
375.416	999.06
375.642	978.06
375.868	965.06
376.094	959.06
376.319	945.06
376.545	936.06
376.771	931.06
376.997	902.06
377.222	931.06
377.448	937.06
377.674	949.06
377.899	911.06
378.125	921.06
378.35	916.06
378.576	904.06
378.802	913.06
379.027	910.06
379.253	915.06
379.478	913.06
379.704	881.06
379.929	889.06
380.155	937.06
380.38	904.06
380.606	913.06
380.831	909.06
381.057	917.06
381.282	932.06
381.507	909.06
381.733	932.06
381.958	947.06
382.184	939.06
382.409	928.06
382.634	984.06
382.86	971.06
383.085	992.06
383.31	985.06
383.535	989.06
383.761	1024.06
383.986	1035.06
384.211	1052.06
384.436	1090.06
384.662	1087.06
384.887	1115.06
385.112	1099.06
385.337	1116.06
385.562	1132.06
385.787	1114.06
386.013	1132.06
386.238	1144.06
386.463	1128.06
386.688	1125.06
386.913	1079.06
387.138	1115.06
387.363	1063.06
387.588	1100.06
387.813	1073.06
388.038	1075.06
388.263	1092.06
388.488	1084.06
388.713	1099.06
388.938	1082.06
389.163	1074.06
389.387	1065.06
389.612	1081.06
389.837	1095.06
390.062	1077.06
390.287	1063.06
390.512	1055.06
390.736	1107.06
390.961	1102.06
391.186	1135.06
391.411	1177.06
391.636	1213.06
391.86	1239.06
392.085	1258.06
392.31	1277.06
392.534	1225.06
392.759	1205.06
392.984	1173.06
393.208	1168.06
393.433	1157.06
393.658	1161.06
393.882	1171.06
394.107	1201.06
394.331	1195.06
394.556	1198.06
394.78	1210.06
395.005	1197.06
395.229	1188.06
395.454	1261.06
395.678	1238.06
395.903	1246.06
396.127	1264.06
396.352	1190.06
396.576	1167.06
396.801	1155.06
397.025	1187.06
397.249	1211.06
397.474	1231.06
397.698	1251.06
397.922	1257.06
398.147	1228.06
398.371	1288.06
398.595	1331.06
398.82	1367.06
399.044	1473.06
399.268	1596.06
399.492	1882.06
399.717	2207.06
399.941	2163.06
400.165	1955.06
400.389	1712.06
400.613	1547.06
400.837	1481.06
401.062	1440.06
401.286	1409.06
401.51	1364.06
401.734	1385.06
401.958	1421.06
402.182	1455.06
402.406	1429.06
402.63	1491.06
402.854	1449.06
403.078	1480.06
403.302	1548.06
403.526	1592.06
403.75	1645.06
403.974	1658.06
404.198	1634.06
404.422	1619.06
404.645	1635.06
404.869	1584.06
405.093	1598.06
405.317	1552.06
405.541	1576.06
405.765	1532.06
405.988	1552.06
406.212	1579.06
406.436	1557.06
406.66	1564.06
406.883	1599.06
407.107	1664.06
407.331	1777.06
407.555	1868.06
407.778	1840.06
408.002	1760.06
408.226	1719.06
408.449	1695.06
408.673	1646.06
408.896	1600.06
409.12	1565.06
409.344	1615.06
409.567	1570.06
409.791	1609.06
410.014	1588.06
410.238	1569.06
410.461	1549.06
410.685	1518.06
410.908	1511.06
411.132	1513.06
411.355	1441.06
411.578	1449.06
411.802	1461.06
412.025	1492.06
412.249	1513.06
412.472	1515.06
412.695	1436.06
412.919	1422.06
413.142	1412.06
413.365	1387.06
413.589	1393.06
413.812	1383.06
414.035	1393.06
414.258	1371.06
414.482	1402.06
414.705	1451.06
414.928	1440.06
415.151	1447.06
415.374	1423.06
415.597	1406.06
415.821	1368.06
416.044	1359.06
416.267	1351.06
416.49	1362.06
416.713	1379.06
416.936	1412.06
417.159	1366.06
417.382	1386.06
417.605	1389.06
417.828	1397.06
418.051	1404.06
418.274	1384.06
418.497	1375.06
418.72	1423.06
418.943	1465.06
419.166	1543.06
419.389	1650.06
419.611	1622.06
419.834	1521.06
420.057	1505.06
420.28	1376.06
420.503	1376.06
420.726	1376.06
420.948	1376.06
421.171	1400.06
421.394	1416.06
421.617	1393.06
421.839	1431.06
422.062	1413.06
422.285	1408.06
422.507	1419.06
422.73	1452.06
422.953	1445.06
423.175	1466.06
423.398	1493.06
423.621	1445.06
423.843	1504.06
424.066	1525.06
424.288	1485.06
424.511	1485.06
424.733	1476.06
424.956	1461.06
425.178	1405.06
425.401	1431.06
425.623	1395.06
425.846	1384.06
426.068	1369.06
426.291	1334.06
426.513	1372.06
426.735	1345.06
426.958	1334.06
427.18	1284.06
427.402	1322.06
427.625	1308.06
427.847	1241.06
428.069	1266.06
428.292	1252.06
428.514	1237.06
428.736	1249.06
428.958	1267.06
429.181	1232.06
429.403	1243.06
429.625	1234.06
429.847	1216.06
430.069	1212.06
430.292	1228.06
430.514	1216.06
430.736	1257.06
430.958	1234.06
431.18	1242.06
431.402	1236.06
431.624	1228.06
431.846	1239.06
432.068	1227.06
432.29	1297.06
432.512	1238.06
432.734	1253.06
432.956	1284.06
433.178	1296.06
433.4	1284.06
433.622	1268.06
433.844	1290.06
434.066	1295.06
434.287	1243.06
434.509	1329.06
434.731	1373.06
434.953	1455.06
435.175	1499.06
435.397	1443.06
435.618	1348.06
435.84	1318.06
436.062	1309.06
436.284	1263.06
436.505	1226.06
436.727	1281.06
436.949	1245.06
437.17	1266.06
437.392	1254.06
437.614	1251.06
437.835	1202.06
438.057	1226.06
438.278	1197.06
438.5	1224.06
438.721	1212.06
438.943	1236.06
439.165	1225.06
439.386	1232.06
439.608	1249.06
439.829	1286.06
440.05	1281.06
440.272	1270.06
440.493	1299.06
440.715	1299.06
440.936	1316.06
441.158	1367.06
441.379	1409.06
441.6	1440.06
441.822	1448.06
442.043	1458.06
442.264	1417.06
442.486	1435.06
442.707	1403.06
442.928	1426.06
443.149	1422.06
443.371	1468.06
443.592	1448.06
443.813	1450.06
444.034	1441.06
444.255	1523.06
444.476	1601.06
444.698	1691.06
444.919	1742.06
445.14	1841.06
445.361	1672.06
445.582	1536.06
445.803	1380.06
446.024	1346.06
446.245	1331.06
446.466	1322.06
446.687	1275.06
446.908	1277.06
447.129	1267.06
447.35	1228.06
447.571	1224.06
447.792	1183.06
448.013	1213.06
448.234	1205.06
448.455	1179.06
448.675	1198.06
448.896	1187.06
449.117	1159.06
449.338	1187.06
449.559	1175.06
449.779	1146.06
450	1141.06
450.221	1169.06
450.442	1175.06
450.662	1185.06
450.883	1195.06
451.104	1199.06
451.324	1220.06
451.545	1196.06
451.766	1167.06
451.986	1149.06
452.207	1138.06
452.428	1150.06
452.648	1163.06
452.869	1142.06
453.089	1155.06
453.31	1152.06
453.53	1130.06
453.751	1129.06
453.971	1087.06
454.192	1141.06
454.412	1111.06
454.633	1124.06
454.853	1090.06
455.073	1092.06
455.294	1069.06
455.514	1104.06
455.734	1099.06
455.955	1065.06
456.175	1091.06
456.395	1075.06
456.616	1060.06
456.836	1101.06
457.056	1094.06
457.276	1058.06
457.497	1093.06
457.717	1071.06
457.937	1096.06
458.157	1108.06
458.377	1119.06
458.598	1157.06
458.818	1170.06
459.038	1212.06
459.258	1275.06
459.478	1299.06
459.698	1327.06
459.918	1380.06
460.138	1427.06
460.358	1510.06
460.578	1553.06
460.798	1559.06
461.018	1597.06
461.238	1514.06
461.458	1509.06
461.678	1470.06
461.898	1537.06
462.118	1539.06
462.338	1641.06
462.558	1700.06
462.777	1756.06
462.997	1908.06
463.217	2069.06
463.437	2140.06
463.657	1927.06
463.876	1823.06
464.096	1803.06
464.316	1797.06
464.536	1829.06
464.755	1732.06
464.975	1654.06
465.195	1610.06
465.414	1467.06
465.634	1377.06
465.854	1365.06
466.073	1302.06
466.293	1285.06
466.512	1271.06
466.732	1241.06
466.951	1244.06
467.171	1223.06
467.391	1251.06
467.61	1236.06
467.829	1260.06
468.049	1249.06
468.268	1174.06
468.488	1179.06
468.707	1155.06
468.927	1183.06
469.146	1163.06
469.365	1192.06
469.585	1180.06
469.804	1244.06
470.023	1250.06
470.243	1266.06
470.462	1260.06
470.681	1318.06
470.901	1281.06
471.12	1240.06
471.339	1227.06
471.558	1229.06
471.777	1202.06
471.997	1187.06
472.216	1181.06
472.435	1165.06
472.654	1155.06
472.873	1092.06
473.092	1122.06
473.311	1145.06
473.53	1129.06
473.749	1105.06
473.968	1136.06
474.187	1132.06
474.406	1132.06
474.625	1168.06
474.844	1157.06
475.063	1149.06
475.282	1166.06
475.501	1143.06
475.72	1171.06
475.939	1162.06
476.158	1200.06
476.377	1215.06
476.596	1196.06
476.814	1227.06
477.033	1219.06
477.252	1235.06
477.471	1275.06
477.69	1290.06
477.908	1329.06
478.127	1375.06
478.346	1362.06
478.564	1403.06
478.783	1407.06
479.002	1492.06
479.22	1443.06
479.439	1439.06
479.658	1445.06
479.876	1440.06
480.095	1499.06
480.313	1539.06
480.532	1591.06
480.751	1569.06
480.969	1475.06
481.188	1464.06
481.406	1391.06
481.624	1337.06
481.843	1308.06
482.061	1313.06
482.28	1338.06
482.498	1315.06
482.717	1332.06
482.935	1333.06
483.153	1301.06
483.372	1338.06
483.59	1300.06
483.808	1337.06
484.027	1301.06
484.245	1299.06
484.463	1334.06
484.681	1350.06
484.9	1331.06
485.118	1348.06
485.336	1348.06
485.554	1384.06
485.772	1411.06
485.99	1354.06
486.209	1383.06
486.427	1394.06
486.645	1380.06
486.863	1411.06
487.081	1381.06
487.299	1367.06
487.517	1361.06
487.735	1362.06
487.953	1389.06
488.171	1375.06
488.389	1357.06
488.607	1368.06
488.825	1376.06
489.043	1354.06
489.261	1344.06
489.479	1349.06
489.696	1375.06
489.914	1384.06
490.132	1369.06
490.35	1392.06
490.568	1419.06
490.786	1366.06
491.003	1378.06
491.221	1381.06
491.439	1412.06
491.657	1397.06
491.874	1389.06
492.092	1438.06
492.31	1385.06
492.527	1413.06
492.745	1435.06
492.963	1438.06
493.18	1438.06
493.398	1462.06
493.615	1461.06
493.833	1444.06
494.05	1450.06
494.268	1468.06
494.485	1474.06
494.703	1485.06
494.92	1501.06
495.138	1504.06
495.355	1480.06
495.573	1455.06
495.79	1483.06
496.008	1509.06
496.225	1492.06
496.442	1497.06
496.66	1529.06
496.877	1581.06
497.094	1614.06
497.312	1629.06
497.529	1607.06
497.746	1654.06
497.963	1721.06
498.181	1823.06
498.398	1907.06
498.615	1976.06
498.832	2131.06
499.049	2253.06
499.267	2473.06
499.484	2732.06
499.701	3030.06
499.918	3347.06
500.135	3880.06
500.352	4472.06
500.569	4680.06
500.786	4653.06
501.003	4344.06
501.22	3856.06
501.437	3340.06
501.654	2977.06
501.871	2664.06
502.088	2380.06
502.305	2213.06
502.522	2154.06
502.739	2057.06
502.956	1947.06
503.172	1847.06
503.389	1799.06
503.606	1717.06
503.823	1687.06
504.04	1674.06
504.256	1701.06
504.473	1731.06
504.69	1823.06
504.907	1759.06
505.123	1667.06
505.34	1539.06
505.557	1468.06
505.773	1449.06
505.99	1427.06
506.207	1423.06
506.423	1394.06
506.64	1316.06
506.856	1325.06
507.073	1319.06
507.289	1320.06
507.506	1325.06
507.722	1315.06
507.939	1282.06
508.155	1291.06
508.372	1245.06
508.588	1274.06
508.805	1235.06
509.021	1235.06
509.238	1240.06
509.454	1195.06
509.67	1263.06
509.887	1198.06
510.103	1202.06
510.319	1192.06
510.536	1235.06
510.752	1195.06
510.968	1190.06
511.184	1166.06
511.401	1188.06
511.617	1208.06
511.833	1205.06
512.049	1184.06
512.265	1173.06
512.481	1182.06
512.698	1174.06
512.914	1163.06
513.13	1183.06
513.346	1211.06
513.562	1190.06
513.778	1198.06
513.994	1180.06
514.21	1188.06
514.426	1184.06
514.642	1206.06
514.858	1205.06
515.074	1205.06
515.29	1248.06
515.506	1247.06
515.721	1289.06
515.937	1313.06
516.153	1284.06
516.369	1317.06
516.585	1357.06
516.801	1397.06
517.016	1459.06
517.232	1573.06
517.448	1644.06
517.664	1661.06
517.879	1703.06
518.095	1660.06
518.311	1680.06
518.527	1599.06
518.742	1539.06
518.958	1484.06
519.173	1385.06
519.389	1316.06
519.605	1279.06
519.82	1269.06
520.036	1275.06
520.251	1226.06
520.467	1220.06
520.682	1179.06
520.898	1195.06
521.113	1168.06
521.329	1179.06
521.544	1155.06
521.76	1149.06
521.975	1165.06
522.19	1152.06
522.406	1127.06
522.621	1127.06
522.836	1131.06
523.052	1112.06
523.267	1132.06
523.482	1117.06
523.698	1081.06
523.913	1100.06
524.128	1104.06
524.343	1115.06
524.559	1095.06
524.774	1106.06
524.989	1108.06
525.204	1093.06
525.419	1096.06
525.634	1083.06
525.849	1108.06
526.064	1076.06
526.28	1081.06
526.495	1087.06
526.71	1092.06
526.925	1057.06
527.14	1067.06
527.355	1066.06
527.57	1033.06
527.785	1064.06
527.999	1087.06
528.214	1069.06
528.429	1092.06
528.644	1088.06
528.859	1108.06
529.074	1050.06
529.289	1080.06
529.503	1080.06
529.718	1069.06
529.933	1071.06
530.148	1059.06
530.363	1048.06
530.577	1071.06
530.792	1028.06
531.007	1058.06
531.221	1079.06
531.436	1065.06
531.651	1082.06
531.865	1079.06
532.08	1095.06
532.295	1046.06
532.509	1088.06
532.724	1061.06
532.938	1034.06
533.153	1045.06
533.367	1055.06
533.582	1046.06
533.796	1073.06
534.011	1051.06
534.225	1035.06
534.44	1058.06
534.654	1029.06
534.868	1045.06
535.083	1051.06
535.297	1017.06
535.511	1043.06
535.726	1031.06
535.94	1006.06
536.154	1026.06
536.369	1011.06
536.583	992.06
536.797	1004.06
537.011	1005.06
537.225	951.06
537.44	985.06
537.654	1010.06
537.868	986.06
538.082	969.06
538.296	953.06
538.51	968.06
538.724	998.06
538.938	975.06
539.153	983.06
539.367	964.06
539.581	984.06
539.795	965.06
540.009	962.06
540.222	958.06
540.436	962.06
540.65	956.06
540.864	965.06
541.078	960.06
541.292	986.06
541.506	952.06
541.72	965.06
541.934	940.06
542.147	950.06
542.361	922.06
542.575	910.06
542.789	940.06
543.002	957.06
543.216	935.06
543.43	961.06
543.644	963.06
543.857	939.06
544.071	948.06
544.285	930.06
544.498	938.06
544.712	944.06
544.925	972.06
545.139	992.06
545.352	984.06
545.566	988.06
545.779	988.06
545.993	979.06
546.206	974.06
546.42	969.06
546.633	973.06
546.847	980.06
547.06	994.06
547.274	978.06
547.487	976.06
547.7	994.06
547.914	995.06
548.127	1008.06
548.34	996.06
548.554	990.06
548.767	990.06
548.98	957.06
549.193	988.06
549.407	970.06
549.62	1003.06
549.833	1022.06
550.046	1007.06
550.259	1013.06
550.473	960.06
550.686	967.06
550.899	961.06
551.112	954.06
551.325	958.06
551.538	958.06
551.751	947.06
551.964	946.06
552.177	949.06
552.39	974.06
552.603	1006.06
552.816	1036.06
553.029	1053.06
553.242	1096.06
553.455	1106.06
553.667	1126.06
553.88	1087.06
554.093	1065.06
554.306	1029.06
554.519	1024.06
554.732	977.06
554.944	961.06
555.157	939.06
555.37	928.06
555.583	897.06
555.795	893.06
556.008	867.06
556.221	865.06
556.433	858.06
556.646	887.06
556.859	837.06
557.071	869.06
557.284	826.06
557.496	825.06
557.709	851.06
557.921	833.06
558.134	821.06
558.346	833.06
558.559	827.06
558.771	812.06
558.984	814.06
559.196	825.06
559.409	807.06
559.621	798.06
559.833	777.06
560.046	802.06
560.258	792.06
560.47	805.06
560.683	804.06
560.895	844.06
561.107	781.06
561.32	800.06
561.532	826.06
561.744	791.06
561.956	800.06
562.168	826.06
562.381	819.06
562.593	801.06
562.805	815.06
563.017	803.06
563.229	801.06
563.441	817.06
563.653	833.06
563.865	826.06
564.077	852.06
564.289	831.06
564.501	852.06
564.713	850.06
564.925	873.06
565.137	898.06
565.349	918.06
565.561	936.06
565.773	983.06
565.985	998.06
566.197	1071.06
566.408	1125.06
566.62	1254.06
566.832	1374.06
567.044	1363.06
567.255	1375.06
567.467	1413.06
567.679	1463.06
567.891	1594.06
568.102	1645.06
568.314	1539.06
568.526	1406.06
568.737	1271.06
568.949	1170.06
569.161	1054.06
569.372	976.06
569.584	937.06
569.795	909.06
570.007	865.06
570.218	849.06
570.43	845.06
570.641	831.06
570.853	789.06
571.064	841.06
571.276	827.06
571.487	825.06
571.698	780.06
571.91	768.06
572.121	736.06
572.333	722.06
572.544	717.06
572.755	700.06
572.966	699.06
573.178	696.06
573.389	659.06
573.6	671.06
573.811	669.06
574.023	664.06
574.234	650.06
574.445	639.06
574.656	654.06
574.867	673.06
575.078	681.06
575.289	647.06
575.501	650.06
575.712	619.06
575.923	612.06
576.134	629.06
576.345	603.06
576.556	583.06
576.767	620.06
576.978	625.06
577.188	625.06
577.399	624.06
577.61	619.06
577.821	611.06
578.032	602.06
578.243	574.06
578.454	599.06
578.665	591.06
578.875	600.06
579.086	600.06
579.297	584.06
579.508	591.06
579.718	595.06
579.929	561.06
580.14	581.06
580.35	571.06
580.561	560.06
580.772	546.06
580.982	584.06
581.193	535.06
581.403	555.06
581.614	553.06
581.825	563.06
582.035	557.06
582.246	555.06
582.456	576.06
582.667	543.06
582.877	553.06
583.087	542.06
583.298	545.06
583.508	550.06
583.719	525.06
583.929	527.06
584.139	523.06
584.35	553.06
584.56	538.06
584.77	531.06
584.981	525.06
585.191	532.06
585.401	537.06
585.611	546.06
585.821	533.06
586.032	539.06
586.242	529.06
586.452	540.06
586.662	535.06
586.872	535.06
587.082	530.06
587.292	535.06
587.502	509.06
587.713	533.06
587.923	504.06
588.133	526.06
588.343	505.06
588.553	515.06
588.762	523.06
588.972	512.06
589.182	530.06
589.392	550.06
589.602	521.06
589.812	508.06
590.022	514.06
590.232	522.06
590.441	523.06
590.651	538.06
590.861	529.06
591.071	511.06
591.281	533.06
591.49	536.06
591.7	543.06
591.91	581.06
592.119	578.06
592.329	577.06
592.539	592.06
592.748	621.06
592.958	647.06
593.167	666.06
593.377	719.06
593.587	669.06
593.796	693.06
594.006	692.06
594.215	689.06
594.424	717.06
594.634	687.06
594.843	641.06
595.053	627.06
595.262	592.06
595.472	583.06
595.681	555.06
595.89	570.06
596.1	543.06
596.309	533.06
596.518	528.06
596.727	512.06
596.937	499.06
597.146	479.06
597.355	475.06
597.564	476.06
597.774	474.06
597.983	480.06
598.192	464.06
598.401	461.06
598.61	452.06
598.819	453.06
599.028	465.06
599.237	447.06
599.446	447.06
599.655	454.06
599.864	438.06
600.073	450.06
600.282	447.06
600.491	444.06
600.7	443.06
600.909	417.06
601.118	436.06
601.327	440.06
601.536	426.06
601.745	432.06
601.953	443.06
602.162	422.06
602.371	423.06
602.58	414.06
602.789	414.06
602.997	425.06
603.206	409.06
603.415	422.06
603.623	431.06
603.832	415.06
604.041	434.06
604.249	417.06
604.458	417.06
604.666	391.06
604.875	382.06
605.084	421.06
605.292	428.06
605.501	400.06
605.709	394.06
605.918	404.06
606.126	407.06
606.334	391.06
606.543	417.06
606.751	403.06
606.96	408.06
607.168	397.06
607.376	387.06
607.585	389.06
607.793	403.06
608.001	387.06
608.21	388.06
608.418	388.06
608.626	391.06
608.834	406.06
609.043	387.06
609.251	397.06
609.459	377.06
609.667	397.06
609.875	405.06
610.083	404.06
610.291	392.06
610.499	397.06
610.707	375.06
610.916	375.06
611.124	372.06
611.332	390.06
611.54	371.06
611.748	386.06
611.955	369.06
612.163	375.06
612.371	387.06
612.579	381.06
612.787	382.06
612.995	389.06
613.203	405.06
613.411	387.06
613.618	367.06
613.826	381.06
614.034	380.06
614.242	378.06
614.449	369.06
614.657	353.06
614.865	380.06
615.072	373.06
615.28	378.06
615.488	383.06
615.695	361.06
615.903	371.06
616.111	374.06
616.318	373.06
616.526	372.06
616.733	358.06
616.941	369.06
617.148	369.06
617.356	373.06
617.563	381.06
617.771	376.06
617.978	368.06
618.185	378.06
618.393	378.06
618.6	365.06
618.807	379.06
619.015	358.06
619.222	352.06
619.429	355.06
619.637	356.06
619.844	380.06
620.051	352.06
620.258	349.06
620.466	331.06
620.673	322.06
620.88	351.06
621.087	335.06
621.294	344.06
621.501	323.06
621.708	336.06
621.915	337.06
622.122	346.06
622.329	355.06
622.536	363.06
622.743	340.06
622.95	321.06
623.157	313.06
623.364	341.06
623.571	316.06
623.778	335.06
623.985	336.06
624.192	316.06
624.399	326.06
624.606	327.06
624.812	328.06
625.019	328.06
625.226	335.06
625.433	314.06
625.639	303.06
625.846	300.06
626.053	309.06
626.259	334.06
626.466	309.06
626.673	332.06
626.879	303.06
627.086	295.06
627.293	327.06
627.499	324.06
627.706	321.06
627.912	315.06
628.119	296.06
628.325	315.06
628.532	313.06
628.738	291.06
628.945	297.06
629.151	295.06
629.357	287.06
629.564	301.06
629.77	293.06
629.976	305.06
630.183	287.06
630.389	301.06
630.595	307.06
630.802	282.06
631.008	290.06
631.214	283.06
631.42	285.06
631.627	289.06
631.833	285.06
632.039	285.06
632.245	282.06
632.451	275.06
632.657	279.06
632.863	279.06
633.069	308.06
633.275	271.06
633.481	268.06
633.688	260.06
633.893	252.06
634.099	276.06
634.305	287.06
634.511	282.06
634.717	274.06
634.923	273.06
635.129	286.06
635.335	262.06
635.541	263.06
635.747	257.06
635.952	272.06
636.158	268.06
636.364	282.06
636.57	264.06
636.775	268.06
636.981	258.06
637.187	283.06
637.392	244.06
637.598	262.06
637.804	244.06
638.009	255.06
638.215	249.06
638.421	252.06
638.626	246.06
638.832	256.06
639.037	263.06
639.243	236.06
639.448	253.06
639.654	244.06
639.859	234.06
640.065	231.06
640.27	242.06
640.475	249.06
640.681	246.06
640.886	251.06
641.091	247.06
641.297	240.06
641.502	244.06
641.707	239.06
641.913	253.06
642.118	246.06
642.323	255.06
642.528	235.06
642.733	239.06
642.939	236.06
643.144	218.06
643.349	229.06
643.554	242.06
643.759	226.06
643.964	223.06
644.169	237.06
644.374	221.06
644.579	240.06
644.784	232.06
644.989	233.06
645.194	232.06
645.399	246.06
645.604	236.06
645.809	231.06
646.014	226.06
646.219	241.06
646.423	228.06
646.628	238.06
646.833	228.06
647.038	248.06
647.243	222.06
647.447	230.06
647.652	228.06
647.857	231.06
648.062	230.06
648.266	246.06
648.471	237.06
648.676	266.06
648.88	250.06
649.085	233.06
649.289	244.06
649.494	237.06
649.698	230.06
649.903	220.06
650.107	224.06
650.312	234.06
650.516	210.06
650.721	218.06
650.925	211.06
651.13	212.06
651.334	204.06
651.539	204.06
651.743	201.06
651.947	191.06
652.152	200.06
652.356	195.06
652.56	187.06
652.764	181.06
652.969	177.06
653.173	188.06
653.377	180.06
653.581	193.06
653.785	180.06
653.99	187.06
654.194	181.06
654.398	168.06
654.602	172.06
654.806	162.06
655.01	164.06
655.214	165.06
655.418	148.06
655.622	161.06
655.826	156.06
656.03	145.06
656.234	162.06
656.438	160.06
656.642	141.06
656.846	137.06
657.049	150.06
657.253	146.06
657.457	138.06
657.661	132.06
657.865	132.06
658.068	136.06
658.272	129.06
658.476	121.06
658.68	134.06
658.883	115.06
659.087	105.06
659.291	118.06
659.494	103.06
659.698	98.06
659.901	115.06
660.105	89.06
660.309	97.06
660.512	90.06
660.716	112.06
660.919	92.06
661.123	99.06
661.326	100.06
661.53	93.06
661.733	89.06
661.936	82.06
662.14	89.06
662.343	86.06
662.546	86.06
662.75	87.06
662.953	77.06
663.156	85.06
663.36	83.06
663.563	78.06
663.766	74.06
663.969	85.06
664.173	83.06
664.376	77.06
664.579	91.06
664.782	60.06
664.985	64.06
665.188	83.06
665.391	77.06
665.594	87.06
665.797	78.06
666	77.06
666.203	88.06
666.406	82.06
666.609	85.06
666.812	77.06
667.015	78.06
667.218	85.06
667.421	74.06
667.624	71.06
667.827	80.06
668.03	88.06
668.232	80.06
668.435	80.06
668.638	87.06
668.841	87.06
669.043	82.06
669.246	86.06
669.449	94.06
669.651	85.06
669.854	77.06
670.057	91.06
670.259	72.06
670.462	88.06
670.665	80.06
670.867	81.06
671.07	76.06
671.272	84.06
671.475	90.06
671.677	85.06
671.88	84.06
672.082	93.06
672.284	82.06
672.487	91.06
672.689	81.06
672.892	81.06
