Data from Ni(NO3)2@0.25M.TitratingCurve.Agarose3%dH2O.NegLispCup.LampEnergy10.LIBS07252019_HRD10591_18-04-39-566.txt Node
Date: Thu Jul 25 18:04:39 EDT 2019
User: cochatt
Spectrometer: HR+D1059
Trigger mode: 1
Integration Time (sec): 1.000000E-1
Scans to average: 1
Electric dark correction enabled: true
Nonlinearity correction enabled: false
Boxcar width: 0
XAxis mode: Wavelengths
Number of Pixels in Spectrum: 2048
>>>>>Begin Spectral Data<<<<<
223.165	-19.56
223.4	-19.56
223.635	-19.56
223.869	-25.56
224.104	-17.56
224.338	-19.56
224.573	-14.56
224.808	-14.56
225.042	-10.56
225.277	7.44
225.511	-2.56
225.746	6.44
225.98	13.44
226.215	6.44
226.449	13.44
226.683	18.44
226.918	24.44
227.152	34.44
227.387	48.44
227.621	42.44
227.856	47.44
228.09	52.44
228.324	49.44
228.559	61.44
228.793	78.44
229.027	78.44
229.262	87.44
229.496	97.44
229.73	104.44
229.964	87.44
230.199	112.44
230.433	105.44
230.667	113.44
230.901	102.44
231.136	107.44
231.37	100.44
231.604	131.44
231.838	108.44
232.072	119.44
232.306	111.44
232.541	110.44
232.775	118.44
233.009	118.44
233.243	110.44
233.477	110.44
233.711	108.44
233.945	132.44
234.179	105.44
234.413	112.44
234.647	109.44
234.881	117.44
235.115	125.44
235.349	113.44
235.583	125.44
235.817	117.44
236.051	125.44
236.285	112.44
236.519	120.44
236.753	114.44
236.987	126.44
237.221	125.44
237.455	125.44
237.689	126.44
237.922	120.44
238.156	103.44
238.39	113.44
238.624	109.44
238.858	133.44
239.091	135.44
239.325	135.44
239.559	118.44
239.793	130.44
240.027	139.44
240.26	136.44
240.494	144.44
240.728	135.44
240.961	136.44
241.195	138.44
241.429	119.44
241.662	129.44
241.896	154.44
242.13	142.44
242.363	142.44
242.597	146.44
242.83	139.44
243.064	142.44
243.298	153.44
243.531	147.44
243.765	132.44
243.998	155.44
244.232	139.44
244.465	134.44
244.699	150.44
244.932	145.44
245.166	137.44
245.399	161.44
245.633	144.44
245.866	142.44
246.099	146.44
246.333	144.44
246.566	154.44
246.8	154.44
247.033	167.44
247.266	155.44
247.5	146.44
247.733	154.44
247.966	154.44
248.2	158.44
248.433	186.44
248.666	168.44
248.899	150.44
249.133	172.44
249.366	158.44
249.599	152.44
249.832	174.44
250.066	173.44
250.299	170.44
250.532	172.44
250.765	156.44
250.998	170.44
251.231	151.44
251.465	163.44
251.698	171.44
251.931	190.44
252.164	161.44
252.397	194.44
252.63	172.44
252.863	178.44
253.096	170.44
253.329	189.44
253.562	175.44
253.795	182.44
254.028	198.44
254.261	195.44
254.494	192.44
254.727	192.44
254.96	192.44
255.193	200.44
255.426	186.44
255.659	194.44
255.892	197.44
256.124	195.44
256.357	170.44
256.59	215.44
256.823	213.44
257.056	191.44
257.289	178.44
257.521	216.44
257.754	202.44
257.987	199.44
258.22	197.44
258.452	220.44
258.685	209.44
258.918	206.44
259.151	205.44
259.383	197.44
259.616	213.44
259.849	220.44
260.081	222.44
260.314	214.44
260.547	213.44
260.779	217.44
261.012	216.44
261.244	217.44
261.477	219.44
261.71	211.44
261.942	220.44
262.175	236.44
262.407	225.44
262.64	239.44
262.872	228.44
263.105	219.44
263.337	214.44
263.57	241.44
263.802	235.44
264.035	235.44
264.267	236.44
264.499	225.44
264.732	230.44
264.964	217.44
265.197	251.44
265.429	225.44
265.661	246.44
265.894	236.44
266.126	244.44
266.358	239.44
266.591	242.44
266.823	239.44
267.055	245.44
267.287	241.44
267.52	246.44
267.752	244.44
267.984	247.44
268.216	247.44
268.448	263.44
268.681	261.44
268.913	250.44
269.145	254.44
269.377	244.44
269.609	243.44
269.841	233.44
270.073	256.44
270.306	260.44
270.538	238.44
270.77	250.44
271.002	253.44
271.234	262.44
271.466	250.44
271.698	249.44
271.93	237.44
272.162	256.44
272.394	273.44
272.626	248.44
272.858	261.44
273.09	282.44
273.322	270.44
273.553	283.44
273.785	265.44
274.017	266.44
274.249	264.44
274.481	268.44
274.713	267.44
274.945	270.44
275.176	260.44
275.408	264.44
275.64	299.44
275.872	278.44
276.104	273.44
276.335	285.44
276.567	253.44
276.799	257.44
277.031	290.44
277.262	284.44
277.494	254.44
277.726	276.44
277.957	276.44
278.189	288.44
278.421	281.44
278.652	286.44
278.884	282.44
279.115	278.44
279.347	280.44
279.579	294.44
279.81	275.44
280.042	298.44
280.273	279.44
280.505	276.44
280.736	296.44
280.968	298.44
281.199	297.44
281.431	280.44
281.662	294.44
281.894	296.44
282.125	294.44
282.356	312.44
282.588	306.44
282.819	286.44
283.051	305.44
283.282	289.44
283.513	297.44
283.745	306.44
283.976	281.44
284.207	282.44
284.439	292.44
284.67	308.44
284.901	294.44
285.132	303.44
285.364	294.44
285.595	306.44
285.826	290.44
286.057	310.44
286.288	301.44
286.52	299.44
286.751	297.44
286.982	308.44
287.213	302.44
287.444	316.44
287.675	287.44
287.906	316.44
288.138	326.44
288.369	304.44
288.6	337.44
288.831	324.44
289.062	331.44
289.293	318.44
289.524	317.44
289.755	334.44
289.986	340.44
290.217	325.44
290.448	326.44
290.679	316.44
290.91	314.44
291.141	322.44
291.371	321.44
291.602	317.44
291.833	343.44
292.064	314.44
292.295	332.44
292.526	325.44
292.757	323.44
292.987	315.44
293.218	324.44
293.449	324.44
293.68	343.44
293.91	341.44
294.141	336.44
294.372	318.44
294.603	328.44
294.833	330.44
295.064	345.44
295.295	336.44
295.525	334.44
295.756	322.44
295.987	344.44
296.217	362.44
296.448	337.44
296.679	335.44
296.909	332.44
297.14	346.44
297.37	324.44
297.601	344.44
297.831	369.44
298.062	360.44
298.292	348.44
298.523	354.44
298.753	351.44
298.984	358.44
299.214	352.44
299.445	362.44
299.675	357.44
299.905	352.44
300.136	367.44
300.366	361.44
300.597	376.44
300.827	378.44
301.057	368.44
301.288	376.44
301.518	369.44
301.748	383.44
301.979	378.44
302.209	381.44
302.439	367.44
302.669	356.44
302.9	361.44
303.13	374.44
303.36	362.44
303.59	376.44
303.82	379.44
304.051	362.44
304.281	382.44
304.511	384.44
304.741	375.44
304.971	378.44
305.201	374.44
305.431	362.44
305.661	384.44
305.891	378.44
306.121	367.44
306.352	364.44
306.582	352.44
306.812	361.44
307.042	373.44
307.272	369.44
307.502	372.44
307.731	356.44
307.961	362.44
308.191	357.44
308.421	363.44
308.651	375.44
308.881	374.44
309.111	372.44
309.341	365.44
309.571	384.44
309.8	353.44
310.03	364.44
310.26	389.44
310.49	383.44
310.72	370.44
310.949	372.44
311.179	370.44
311.409	378.44
311.639	376.44
311.868	377.44
312.098	395.44
312.328	384.44
312.557	392.44
312.787	383.44
313.017	392.44
313.246	391.44
313.476	392.44
313.706	400.44
313.935	398.44
314.165	408.44
314.394	402.44
314.624	397.44
314.853	398.44
315.083	394.44
315.312	415.44
315.542	381.44
315.771	382.44
316.001	401.44
316.23	402.44
316.46	401.44
316.689	417.44
316.919	401.44
317.148	388.44
317.377	409.44
317.607	397.44
317.836	385.44
318.065	386.44
318.295	404.44
318.524	386.44
318.753	405.44
318.983	402.44
319.212	388.44
319.441	392.44
319.67	419.44
319.9	405.44
320.129	397.44
320.358	406.44
320.587	401.44
320.816	416.44
321.046	408.44
321.275	396.44
321.504	396.44
321.733	430.44
321.962	422.44
322.191	420.44
322.42	424.44
322.649	430.44
322.878	425.44
323.108	439.44
323.337	429.44
323.566	416.44
323.795	436.44
324.024	410.44
324.253	436.44
324.482	428.44
324.71	422.44
324.939	455.44
325.168	424.44
325.397	461.44
325.626	429.44
325.855	441.44
326.084	471.44
326.313	456.44
326.542	444.44
326.77	470.44
326.999	463.44
327.228	460.44
327.457	448.44
327.686	481.44
327.914	477.44
328.143	482.44
328.372	465.44
328.6	474.44
328.829	463.44
329.058	450.44
329.287	449.44
329.515	471.44
329.744	481.44
329.972	488.44
330.201	481.44
330.43	484.44
330.658	510.44
330.887	492.44
331.115	492.44
331.344	484.44
331.572	517.44
331.801	530.44
332.03	526.44
332.258	547.44
332.486	539.44
332.715	549.44
332.943	562.44
333.172	550.44
333.4	604.44
333.629	619.44
333.857	639.44
334.085	610.44
334.314	646.44
334.542	598.44
334.771	625.44
334.999	598.44
335.227	598.44
335.455	594.44
335.684	606.44
335.912	600.44
336.14	580.44
336.369	589.44
336.597	570.44
336.825	559.44
337.053	574.44
337.281	558.44
337.51	564.44
337.738	544.44
337.966	547.44
338.194	532.44
338.422	541.44
338.65	522.44
338.878	532.44
339.106	530.44
339.334	534.44
339.562	542.44
339.79	523.44
340.018	526.44
340.246	497.44
340.474	511.44
340.702	516.44
340.93	505.44
341.158	536.44
341.386	520.44
341.614	530.44
341.842	520.44
342.07	513.44
342.298	527.44
342.526	508.44
342.754	486.44
342.981	507.44
343.209	520.44
343.437	556.44
343.665	593.44
343.893	598.44
344.12	620.44
344.348	569.44
344.576	574.44
344.804	580.44
345.031	534.44
345.259	515.44
345.487	518.44
345.714	525.44
345.942	521.44
346.17	514.44
346.397	517.44
346.625	497.44
346.853	492.44
347.08	462.44
347.308	492.44
347.535	485.44
347.763	494.44
347.99	481.44
348.218	489.44
348.445	488.44
348.673	501.44
348.9	495.44
349.128	503.44
349.355	526.44
349.583	510.44
349.81	477.44
350.037	484.44
350.265	469.44
350.492	463.44
350.72	486.44
350.947	477.44
351.174	477.44
351.402	491.44
351.629	495.44
351.856	487.44
352.083	489.44
352.311	486.44
352.538	478.44
352.765	520.44
352.992	463.44
353.22	472.44
353.447	473.44
353.674	470.44
353.901	480.44
354.128	473.44
354.355	471.44
354.583	468.44
354.81	462.44
355.037	470.44
355.264	461.44
355.491	485.44
355.718	485.44
355.945	479.44
356.172	488.44
356.399	487.44
356.626	499.44
356.853	514.44
357.08	498.44
357.307	469.44
357.534	476.44
357.761	486.44
357.988	475.44
358.215	458.44
358.441	465.44
358.668	482.44
358.895	481.44
359.122	484.44
359.349	484.44
359.576	477.44
359.802	479.44
360.029	485.44
360.256	462.44
360.483	464.44
360.709	480.44
360.936	467.44
361.163	493.44
361.39	477.44
361.616	479.44
361.843	479.44
362.07	490.44
362.296	484.44
362.523	495.44
362.749	481.44
362.976	473.44
363.203	500.44
363.429	476.44
363.656	468.44
363.882	486.44
364.109	449.44
364.335	477.44
364.562	471.44
364.788	440.44
365.015	468.44
365.241	472.44
365.468	479.44
365.694	474.44
365.92	509.44
366.147	492.44
366.373	471.44
366.599	464.44
366.826	466.44
367.052	481.44
367.278	468.44
367.505	461.44
367.731	474.44
367.957	458.44
368.184	490.44
368.41	479.44
368.636	468.44
368.862	485.44
369.089	481.44
369.315	489.44
369.541	476.44
369.767	492.44
369.993	480.44
370.219	485.44
370.445	484.44
370.672	509.44
370.898	494.44
371.124	491.44
371.35	491.44
371.576	511.44
371.802	503.44
372.028	515.44
372.254	494.44
372.48	510.44
372.706	516.44
372.932	516.44
373.158	535.44
373.384	514.44
373.61	507.44
373.835	496.44
374.061	512.44
374.287	536.44
374.513	537.44
374.739	546.44
374.965	574.44
375.191	581.44
375.416	566.44
375.642	538.44
375.868	529.44
376.094	530.44
376.319	519.44
376.545	534.44
376.771	523.44
376.997	505.44
377.222	506.44
377.448	497.44
377.674	496.44
377.899	479.44
378.125	494.44
378.35	506.44
378.576	496.44
378.802	492.44
379.027	484.44
379.253	492.44
379.478	475.44
379.704	497.44
379.929	522.44
380.155	493.44
380.38	491.44
380.606	506.44
380.831	485.44
381.057	499.44
381.282	481.44
381.507	503.44
381.733	518.44
381.958	491.44
382.184	504.44
382.409	515.44
382.634	544.44
382.86	507.44
383.085	510.44
383.31	525.44
383.535	533.44
383.761	550.44
383.986	545.44
384.211	550.44
384.436	584.44
384.662	570.44
384.887	610.44
385.112	582.44
385.337	602.44
385.562	586.44
385.787	591.44
386.013	617.44
386.238	605.44
386.463	606.44
386.688	573.44
386.913	592.44
387.138	593.44
387.363	577.44
387.588	599.44
387.813	594.44
388.038	579.44
388.263	584.44
388.488	592.44
388.713	583.44
388.938	586.44
389.163	583.44
389.387	576.44
389.612	577.44
389.837	565.44
390.062	554.44
390.287	588.44
390.512	586.44
390.736	596.44
390.961	590.44
391.186	601.44
391.411	625.44
391.636	644.44
391.86	657.44
392.085	668.44
392.31	644.44
392.534	642.44
392.759	635.44
392.984	644.44
393.208	636.44
393.433	607.44
393.658	618.44
393.882	636.44
394.107	652.44
394.331	634.44
394.556	623.44
394.78	634.44
395.005	632.44
395.229	635.44
395.454	652.44
395.678	649.44
395.903	673.44
396.127	659.44
396.352	641.44
396.576	649.44
396.801	645.44
397.025	620.44
397.249	644.44
397.474	683.44
397.698	676.44
397.922	669.44
398.147	659.44
398.371	689.44
398.595	706.44
398.82	723.44
399.044	769.44
399.268	870.44
399.492	979.44
399.717	1048.44
399.941	1035.44
400.165	970.44
400.389	870.44
400.613	808.44
400.837	787.44
401.062	774.44
401.286	771.44
401.51	743.44
401.734	746.44
401.958	736.44
402.182	773.44
402.406	748.44
402.63	766.44
402.854	774.44
403.078	784.44
403.302	810.44
403.526	780.44
403.75	808.44
403.974	842.44
404.198	835.44
404.422	838.44
404.645	825.44
404.869	813.44
405.093	827.44
405.317	820.44
405.541	818.44
405.765	817.44
405.988	812.44
406.212	811.44
406.436	810.44
406.66	829.44
406.883	841.44
407.107	915.44
407.331	922.44
407.555	944.44
407.778	928.44
408.002	928.44
408.226	920.44
408.449	882.44
408.673	866.44
408.896	861.44
409.12	825.44
409.344	835.44
409.567	878.44
409.791	852.44
410.014	840.44
410.238	822.44
410.461	827.44
410.685	809.44
410.908	781.44
411.132	780.44
411.355	744.44
411.578	772.44
411.802	784.44
412.025	768.44
412.249	817.44
412.472	792.44
412.695	784.44
412.919	763.44
413.142	749.44
413.365	760.44
413.589	769.44
413.812	745.44
414.035	753.44
414.258	749.44
414.482	753.44
414.705	779.44
414.928	778.44
415.151	772.44
415.374	768.44
415.597	778.44
415.821	750.44
416.044	742.44
416.267	751.44
416.49	732.44
416.713	743.44
416.936	773.44
417.159	752.44
417.382	747.44
417.605	723.44
417.828	752.44
418.051	764.44
418.274	791.44
418.497	750.44
418.72	785.44
418.943	772.44
419.166	823.44
419.389	854.44
419.611	856.44
419.834	808.44
420.057	764.44
420.28	774.44
420.503	753.44
420.726	736.44
420.948	755.44
421.171	746.44
421.394	772.44
421.617	738.44
421.839	751.44
422.062	759.44
422.285	744.44
422.507	776.44
422.73	750.44
422.953	759.44
423.175	758.44
423.398	789.44
423.621	804.44
423.843	784.44
424.066	790.44
424.288	810.44
424.511	779.44
424.733	770.44
424.956	770.44
425.178	734.44
425.401	750.44
425.623	744.44
425.846	735.44
426.068	744.44
426.291	723.44
426.513	739.44
426.735	745.44
426.958	721.44
427.18	726.44
427.402	718.44
427.625	725.44
427.847	692.44
428.069	696.44
428.292	723.44
428.514	685.44
428.736	682.44
428.958	693.44
429.181	702.44
429.403	688.44
429.625	675.44
429.847	678.44
430.069	668.44
430.292	674.44
430.514	673.44
430.736	706.44
430.958	687.44
431.18	683.44
431.402	677.44
431.624	704.44
431.846	715.44
432.068	698.44
432.29	704.44
432.512	686.44
432.734	667.44
432.956	709.44
433.178	712.44
433.4	710.44
433.622	716.44
433.844	722.44
434.066	733.44
434.287	718.44
434.509	737.44
434.731	751.44
434.953	771.44
435.175	790.44
435.397	770.44
435.618	735.44
435.84	720.44
436.062	717.44
436.284	705.44
436.505	716.44
436.727	706.44
436.949	718.44
437.17	704.44
437.392	680.44
437.614	698.44
437.835	658.44
438.057	664.44
438.278	652.44
438.5	683.44
438.721	679.44
438.943	688.44
439.165	675.44
439.386	700.44
439.608	708.44
439.829	688.44
440.05	700.44
440.272	688.44
440.493	708.44
440.715	730.44
440.936	737.44
441.158	739.44
441.379	779.44
441.6	791.44
441.822	801.44
442.043	808.44
442.264	776.44
442.486	748.44
442.707	766.44
442.928	766.44
443.149	773.44
443.371	792.44
443.592	770.44
443.813	782.44
444.034	812.44
444.255	810.44
444.476	854.44
444.698	860.44
444.919	920.44
445.14	966.44
445.361	859.44
445.582	787.44
445.803	802.44
446.024	771.44
446.245	753.44
446.466	725.44
446.687	735.44
446.908	728.44
447.129	714.44
447.35	709.44
447.571	694.44
447.792	666.44
448.013	695.44
448.234	668.44
448.455	657.44
448.675	671.44
448.896	655.44
449.117	640.44
449.338	649.44
449.559	659.44
449.779	659.44
450	654.44
450.221	658.44
450.442	666.44
450.662	656.44
450.883	667.44
451.104	663.44
451.324	662.44
451.545	685.44
451.766	656.44
451.986	642.44
452.207	648.44
452.428	652.44
452.648	629.44
452.869	636.44
453.089	638.44
453.31	654.44
453.53	622.44
453.751	636.44
453.971	623.44
454.192	615.44
454.412	655.44
454.633	619.44
454.853	612.44
455.073	605.44
455.294	599.44
455.514	606.44
455.734	603.44
455.955	613.44
456.175	591.44
456.395	589.44
456.616	615.44
456.836	606.44
457.056	603.44
457.276	604.44
457.497	633.44
457.717	609.44
457.937	628.44
458.157	602.44
458.377	630.44
458.598	624.44
458.818	650.44
459.038	681.44
459.258	681.44
459.478	713.44
459.698	732.44
459.918	718.44
460.138	751.44
460.358	763.44
460.578	805.44
460.798	792.44
461.018	857.44
461.238	816.44
461.458	814.44
461.678	791.44
461.898	800.44
462.118	840.44
462.338	879.44
462.558	906.44
462.777	942.44
462.997	1007.44
463.217	1032.44
463.437	1042.44
463.657	980.44
463.876	959.44
464.096	944.44
464.316	950.44
464.536	951.44
464.755	933.44
464.975	896.44
465.195	847.44
465.414	791.44
465.634	749.44
465.854	727.44
466.073	724.44
466.293	714.44
466.512	695.44
466.732	658.44
466.951	680.44
467.171	654.44
467.391	674.44
467.61	658.44
467.829	674.44
468.049	684.44
468.268	660.44
468.488	677.44
468.707	667.44
468.927	650.44
469.146	666.44
469.365	694.44
469.585	681.44
469.804	698.44
470.023	705.44
470.243	672.44
470.462	712.44
470.681	698.44
470.901	709.44
471.12	694.44
471.339	712.44
471.558	677.44
471.777	670.44
471.997	659.44
472.216	657.44
472.435	634.44
472.654	622.44
472.873	608.44
473.092	638.44
473.311	644.44
473.53	634.44
473.749	637.44
473.968	681.44
474.187	631.44
474.406	628.44
474.625	634.44
474.844	640.44
475.063	637.44
475.282	655.44
475.501	672.44
475.72	644.44
475.939	653.44
476.158	664.44
476.377	668.44
476.596	655.44
476.814	650.44
477.033	661.44
477.252	678.44
477.471	706.44
477.69	742.44
477.908	714.44
478.127	721.44
478.346	763.44
478.564	776.44
478.783	778.44
479.002	779.44
479.22	791.44
479.439	767.44
479.658	749.44
479.876	792.44
480.095	774.44
480.313	806.44
480.532	848.44
480.751	824.44
480.969	776.44
481.188	762.44
481.406	737.44
481.624	725.44
481.843	738.44
482.061	722.44
482.28	737.44
482.498	707.44
482.717	714.44
482.935	690.44
483.153	713.44
483.372	715.44
483.59	732.44
483.808	717.44
484.027	725.44
484.245	713.44
484.463	736.44
484.681	748.44
484.9	722.44
485.118	738.44
485.336	741.44
485.554	720.44
485.772	728.44
485.99	722.44
486.209	768.44
486.427	757.44
486.645	736.44
486.863	753.44
487.081	757.44
487.299	749.44
487.517	748.44
487.735	759.44
487.953	758.44
488.171	723.44
488.389	756.44
488.607	742.44
488.825	751.44
489.043	716.44
489.261	756.44
489.479	747.44
489.696	730.44
489.914	727.44
490.132	751.44
490.35	742.44
490.568	771.44
490.786	778.44
491.003	739.44
491.221	784.44
491.439	796.44
491.657	760.44
491.874	784.44
492.092	809.44
492.31	804.44
492.527	809.44
492.745	796.44
492.963	809.44
493.18	825.44
493.398	826.44
493.615	829.44
493.833	808.44
494.05	810.44
494.268	813.44
494.485	834.44
494.703	811.44
494.92	838.44
495.138	790.44
495.355	819.44
495.573	825.44
495.79	825.44
496.008	826.44
496.225	850.44
496.442	865.44
496.66	854.44
496.877	856.44
497.094	894.44
497.312	878.44
497.529	902.44
497.746	942.44
497.963	969.44
498.181	969.44
498.398	1041.44
498.615	1068.44
498.832	1136.44
499.049	1234.44
499.267	1329.44
499.484	1457.44
499.701	1564.44
499.918	1709.44
500.135	1931.44
500.352	2095.44
500.569	2200.44
500.786	2162.44
501.003	1984.44
501.22	1888.44
501.437	1682.44
501.654	1501.44
501.871	1402.44
502.088	1273.44
502.305	1205.44
502.522	1182.44
502.739	1097.44
502.956	1030.44
503.172	966.44
503.389	965.44
503.606	925.44
503.823	923.44
504.04	942.44
504.256	905.44
504.473	952.44
504.69	914.44
504.907	880.44
505.123	862.44
505.34	856.44
505.557	812.44
505.773	811.44
505.99	756.44
506.207	740.44
506.423	737.44
506.64	726.44
506.856	731.44
507.073	738.44
507.289	734.44
507.506	724.44
507.722	710.44
507.939	710.44
508.155	679.44
508.372	717.44
508.588	700.44
508.805	689.44
509.021	660.44
509.238	698.44
509.454	671.44
509.67	658.44
509.887	649.44
510.103	656.44
510.319	673.44
510.536	698.44
510.752	648.44
510.968	635.44
511.184	649.44
511.401	654.44
511.617	622.44
511.833	656.44
512.049	649.44
512.265	653.44
512.481	648.44
512.698	642.44
512.914	637.44
513.13	649.44
513.346	654.44
513.562	633.44
513.778	646.44
513.994	651.44
514.21	656.44
514.426	644.44
514.642	676.44
514.858	643.44
515.074	664.44
515.29	662.44
515.506	675.44
515.721	668.44
515.937	697.44
516.153	720.44
516.369	732.44
516.585	754.44
516.801	753.44
517.016	782.44
517.232	811.44
517.448	832.44
517.664	874.44
517.879	858.44
518.095	884.44
518.311	834.44
518.527	851.44
518.742	770.44
518.958	764.44
519.173	745.44
519.389	710.44
519.605	705.44
519.82	699.44
520.036	681.44
520.251	670.44
520.467	664.44
520.682	655.44
520.898	646.44
521.113	665.44
521.329	632.44
521.544	618.44
521.76	622.44
521.975	646.44
522.19	625.44
522.406	616.44
522.621	605.44
522.836	605.44
523.052	622.44
523.267	620.44
523.482	600.44
523.698	624.44
523.913	620.44
524.128	592.44
524.343	616.44
524.559	587.44
524.774	606.44
524.989	598.44
525.204	605.44
525.419	613.44
525.634	608.44
525.849	571.44
526.064	588.44
526.28	578.44
526.495	601.44
526.71	585.44
526.925	590.44
527.14	576.44
527.355	590.44
527.57	594.44
527.785	568.44
527.999	565.44
528.214	605.44
528.429	595.44
528.644	619.44
528.859	578.44
529.074	574.44
529.289	588.44
529.503	592.44
529.718	596.44
529.933	577.44
530.148	571.44
530.363	564.44
530.577	559.44
530.792	574.44
531.007	600.44
531.221	574.44
531.436	582.44
531.651	573.44
531.865	580.44
532.08	577.44
532.295	603.44
532.509	585.44
532.724	571.44
532.938	575.44
533.153	572.44
533.367	574.44
533.582	584.44
533.796	575.44
534.011	582.44
534.225	574.44
534.44	566.44
534.654	570.44
534.868	545.44
535.083	571.44
535.297	580.44
535.511	544.44
535.726	567.44
535.94	575.44
536.154	545.44
536.369	549.44
536.583	564.44
536.797	554.44
537.011	542.44
537.225	538.44
537.44	545.44
537.654	541.44
537.868	561.44
538.082	536.44
538.296	536.44
538.51	502.44
538.724	533.44
538.938	560.44
539.153	548.44
539.367	529.44
539.581	528.44
539.795	522.44
540.009	505.44
540.222	534.44
540.436	529.44
540.65	524.44
540.864	529.44
541.078	562.44
541.292	543.44
541.506	562.44
541.72	540.44
541.934	560.44
542.147	561.44
542.361	561.44
542.575	552.44
542.789	545.44
543.002	537.44
543.216	534.44
543.43	549.44
543.644	546.44
543.857	533.44
544.071	537.44
544.285	536.44
544.498	551.44
544.712	553.44
544.925	546.44
545.139	574.44
545.352	559.44
545.566	569.44
545.779	564.44
545.993	570.44
546.206	561.44
546.42	547.44
546.633	568.44
546.847	568.44
547.06	576.44
547.274	575.44
547.487	542.44
547.7	572.44
547.914	558.44
548.127	558.44
548.34	557.44
548.554	569.44
548.767	558.44
548.98	584.44
549.193	575.44
549.407	584.44
549.62	579.44
549.833	564.44
550.046	568.44
550.259	543.44
550.473	544.44
550.686	573.44
550.899	541.44
551.112	543.44
551.325	527.44
551.538	540.44
551.751	546.44
551.964	535.44
552.177	555.44
552.39	551.44
552.603	568.44
552.816	602.44
553.029	581.44
553.242	608.44
553.455	588.44
553.667	586.44
553.88	592.44
554.093	566.44
554.306	557.44
554.519	553.44
554.732	536.44
554.944	526.44
555.157	529.44
555.37	548.44
555.583	513.44
555.795	521.44
556.008	508.44
556.221	505.44
556.433	493.44
556.646	497.44
556.859	481.44
557.071	498.44
557.284	485.44
557.496	500.44
557.709	481.44
557.921	476.44
558.134	479.44
558.346	460.44
558.559	475.44
558.771	484.44
558.984	467.44
559.196	485.44
559.409	466.44
559.621	461.44
559.833	461.44
560.046	461.44
560.258	460.44
560.47	465.44
560.683	460.44
560.895	444.44
561.107	450.44
561.32	472.44
561.532	479.44
561.744	475.44
561.956	461.44
562.168	482.44
562.381	454.44
562.593	446.44
562.805	486.44
563.017	462.44
563.229	468.44
563.441	453.44
563.653	465.44
563.865	497.44
564.077	473.44
564.289	475.44
564.501	478.44
564.713	501.44
564.925	511.44
565.137	516.44
565.349	497.44
565.561	527.44
565.773	565.44
565.985	560.44
566.197	607.44
566.408	589.44
566.62	654.44
566.832	659.44
567.044	692.44
567.255	711.44
567.467	742.44
567.679	772.44
567.891	785.44
568.102	786.44
568.314	772.44
568.526	694.44
568.737	626.44
568.949	611.44
569.161	576.44
569.372	518.44
569.584	512.44
569.795	487.44
570.007	478.44
570.218	476.44
570.43	469.44
570.641	443.44
570.853	440.44
571.064	455.44
571.276	438.44
571.487	460.44
571.698	429.44
571.91	416.44
572.121	402.44
572.333	424.44
572.544	395.44
572.755	401.44
572.966	392.44
573.178	390.44
573.389	386.44
573.6	372.44
573.811	382.44
574.023	374.44
574.234	369.44
574.445	364.44
574.656	382.44
574.867	376.44
575.078	359.44
575.289	376.44
575.501	376.44
575.712	370.44
575.923	363.44
576.134	369.44
576.345	352.44
576.556	343.44
576.767	352.44
576.978	337.44
577.188	345.44
577.399	352.44
577.61	361.44
577.821	356.44
578.032	343.44
578.243	328.44
578.454	345.44
578.665	315.44
578.875	362.44
579.086	333.44
579.297	324.44
579.508	337.44
579.718	331.44
579.929	340.44
580.14	342.44
580.35	348.44
580.561	328.44
580.772	326.44
580.982	333.44
581.193	334.44
581.403	332.44
581.614	321.44
581.825	320.44
582.035	333.44
582.246	347.44
582.456	340.44
582.667	314.44
582.877	333.44
583.087	364.44
583.298	312.44
583.508	330.44
583.719	321.44
583.929	313.44
584.139	302.44
584.35	312.44
584.56	333.44
584.77	333.44
584.981	300.44
585.191	309.44
585.401	332.44
585.611	308.44
585.821	308.44
586.032	319.44
586.242	305.44
586.452	314.44
586.662	318.44
586.872	320.44
587.082	300.44
587.292	313.44
587.502	310.44
587.713	329.44
587.923	316.44
588.133	303.44
588.343	320.44
588.553	294.44
588.762	298.44
588.972	303.44
589.182	327.44
589.392	320.44
589.602	320.44
589.812	319.44
590.022	315.44
590.232	297.44
590.441	314.44
590.651	297.44
590.861	296.44
591.071	321.44
591.281	308.44
591.49	340.44
591.7	328.44
591.91	343.44
592.119	321.44
592.329	312.44
592.539	349.44
592.748	352.44
592.958	352.44
593.167	362.44
593.377	359.44
593.587	374.44
593.796	374.44
594.006	382.44
594.215	373.44
594.424	367.44
594.634	374.44
594.843	351.44
595.053	342.44
595.262	337.44
595.472	330.44
595.681	326.44
595.89	320.44
596.1	304.44
596.309	318.44
596.518	300.44
596.727	295.44
596.937	298.44
597.146	288.44
597.355	293.44
597.564	292.44
597.774	279.44
597.983	280.44
598.192	262.44
598.401	279.44
598.61	270.44
598.819	262.44
599.028	266.44
599.237	263.44
599.446	270.44
599.655	266.44
599.864	262.44
600.073	270.44
600.282	267.44
600.491	263.44
600.7	263.44
600.909	267.44
601.118	229.44
601.327	260.44
601.536	264.44
601.745	273.44
601.953	271.44
602.162	261.44
602.371	230.44
602.58	266.44
602.789	270.44
602.997	257.44
603.206	237.44
603.415	248.44
603.623	247.44
603.832	267.44
604.041	271.44
604.249	253.44
604.458	268.44
604.666	251.44
604.875	235.44
605.084	246.44
605.292	257.44
605.501	256.44
605.709	257.44
605.918	251.44
606.126	257.44
606.334	241.44
606.543	234.44
606.751	266.44
606.96	260.44
607.168	237.44
607.376	246.44
607.585	244.44
607.793	253.44
608.001	268.44
608.21	244.44
608.418	246.44
608.626	246.44
608.834	245.44
609.043	247.44
609.251	232.44
609.459	223.44
609.667	234.44
609.875	241.44
610.083	234.44
610.291	242.44
610.499	257.44
610.707	237.44
610.916	221.44
611.124	237.44
611.332	234.44
611.54	237.44
611.748	242.44
611.955	246.44
612.163	235.44
612.371	248.44
612.579	220.44
612.787	240.44
612.995	236.44
613.203	232.44
613.411	245.44
613.618	242.44
613.826	235.44
614.034	229.44
614.242	233.44
614.449	222.44
614.657	220.44
614.865	246.44
615.072	232.44
615.28	231.44
615.488	219.44
615.695	224.44
615.903	230.44
616.111	216.44
616.318	236.44
616.526	224.44
616.733	236.44
616.941	219.44
617.148	241.44
617.356	240.44
617.563	236.44
617.771	216.44
617.978	245.44
618.185	228.44
618.393	236.44
618.6	214.44
618.807	234.44
619.015	214.44
619.222	214.44
619.429	213.44
619.637	214.44
619.844	224.44
620.051	223.44
620.258	210.44
620.466	223.44
620.673	211.44
620.88	211.44
621.087	217.44
621.294	204.44
621.501	236.44
621.708	228.44
621.915	202.44
622.122	226.44
622.329	205.44
622.536	210.44
622.743	217.44
622.95	220.44
623.157	221.44
623.364	216.44
623.571	222.44
623.778	220.44
623.985	209.44
624.192	208.44
624.399	209.44
624.606	213.44
624.812	181.44
625.019	200.44
625.226	212.44
625.433	202.44
625.639	200.44
625.846	211.44
626.053	216.44
626.259	204.44
626.466	208.44
626.673	200.44
626.879	191.44
627.086	192.44
627.293	208.44
627.499	202.44
627.706	220.44
627.912	200.44
628.119	198.44
628.325	204.44
628.532	204.44
628.738	197.44
628.945	187.44
629.151	192.44
629.357	194.44
629.564	194.44
629.77	199.44
629.976	192.44
630.183	184.44
630.389	186.44
630.595	195.44
630.802	190.44
631.008	205.44
631.214	181.44
631.42	186.44
631.627	189.44
631.833	166.44
632.039	178.44
632.245	183.44
632.451	173.44
632.657	198.44
632.863	190.44
633.069	196.44
633.275	190.44
633.481	204.44
633.688	187.44
633.893	174.44
634.099	166.44
634.305	192.44
634.511	190.44
634.717	185.44
634.923	174.44
635.129	175.44
635.335	184.44
635.541	192.44
635.747	183.44
635.952	175.44
636.158	186.44
636.364	166.44
636.57	186.44
636.775	177.44
636.981	180.44
637.187	206.44
637.392	177.44
637.598	163.44
637.804	166.44
638.009	167.44
638.215	176.44
638.421	188.44
638.626	175.44
638.832	181.44
639.037	169.44
639.243	162.44
639.448	172.44
639.654	169.44
639.859	175.44
640.065	168.44
640.27	161.44
640.475	164.44
640.681	162.44
640.886	164.44
641.091	157.44
641.297	182.44
641.502	169.44
641.707	159.44
641.913	172.44
642.118	148.44
642.323	174.44
642.528	164.44
642.733	160.44
642.939	157.44
643.144	164.44
643.349	173.44
643.554	180.44
643.759	160.44
643.964	160.44
644.169	183.44
644.374	176.44
644.579	166.44
644.784	156.44
644.989	178.44
645.194	164.44
645.399	155.44
645.604	170.44
645.809	161.44
646.014	164.44
646.219	144.44
646.423	153.44
646.628	172.44
646.833	160.44
647.038	177.44
647.243	178.44
647.447	153.44
647.652	178.44
647.857	164.44
648.062	168.44
648.266	158.44
648.471	170.44
648.676	177.44
648.88	160.44
649.085	152.44
649.289	166.44
649.494	157.44
649.698	152.44
649.903	148.44
650.107	158.44
650.312	147.44
650.516	150.44
650.721	151.44
650.925	148.44
651.13	138.44
651.334	150.44
651.539	168.44
651.743	142.44
651.947	152.44
652.152	154.44
652.356	147.44
652.56	140.44
652.764	140.44
652.969	133.44
653.173	140.44
653.377	136.44
653.581	131.44
653.785	142.44
653.99	131.44
654.194	128.44
654.398	132.44
654.602	140.44
654.806	124.44
655.01	135.44
655.214	132.44
655.418	132.44
655.622	130.44
655.826	129.44
656.03	131.44
656.234	137.44
656.438	155.44
656.642	129.44
656.846	131.44
657.049	138.44
657.253	125.44
657.457	124.44
657.661	114.44
657.865	118.44
658.068	100.44
658.272	132.44
658.476	115.44
658.68	119.44
658.883	121.44
659.087	116.44
659.291	113.44
659.494	95.44
659.698	108.44
659.901	109.44
660.105	102.44
660.309	91.44
660.512	105.44
660.716	96.44
660.919	91.44
661.123	102.44
661.326	84.44
661.53	103.44
661.733	93.44
661.936	104.44
662.14	90.44
662.343	97.44
662.546	88.44
662.75	93.44
662.953	92.44
663.156	96.44
663.36	97.44
663.563	92.44
663.766	92.44
663.969	85.44
664.173	79.44
664.376	79.44
664.579	97.44
664.782	88.44
664.985	88.44
665.188	82.44
665.391	81.44
665.594	81.44
665.797	82.44
666	62.44
666.203	90.44
666.406	84.44
666.609	86.44
666.812	87.44
667.015	79.44
667.218	72.44
667.421	78.44
667.624	90.44
667.827	80.44
668.03	80.44
668.232	92.44
668.435	80.44
668.638	97.44
668.841	81.44
669.043	91.44
669.246	72.44
669.449	83.44
669.651	75.44
669.854	91.44
670.057	78.44
670.259	79.44
670.462	96.44
670.665	94.44
670.867	93.44
671.07	94.44
671.272	84.44
671.475	82.44
671.677	87.44
671.88	94.44
672.082	94.44
672.284	89.44
672.487	89.44
672.689	93.44
672.892	87.44
