Data from Ni(NO3)2@0.5M.TitratingCurve.Agarose3%dH2O.NegLispCup.LampEnergy10.LIBS07252019_HRD10591_17-58-51-566.txt Node
Date: Thu Jul 25 17:58:51 EDT 2019
User: cochatt
Spectrometer: HR+D1059
Trigger mode: 1
Integration Time (sec): 1.000000E-1
Scans to average: 1
Electric dark correction enabled: true
Nonlinearity correction enabled: false
Boxcar width: 0
XAxis mode: Wavelengths
Number of Pixels in Spectrum: 2048
>>>>>Begin Spectral Data<<<<<
223.165	-18.44
223.4	-18.44
223.635	-18.44
223.869	-3.44
224.104	-0.44
224.338	-8.44
224.573	-31.44
224.808	-20.44
225.042	-27.44
225.277	-2.44
225.511	0.56
225.746	-1.44
225.98	0.56
226.215	21.56
226.449	10.56
226.683	23.56
226.918	33.56
227.152	23.56
227.387	25.56
227.621	24.56
227.856	39.56
228.09	30.56
228.324	56.56
228.559	61.56
228.793	81.56
229.027	126.56
229.262	143.56
229.496	153.56
229.73	152.56
229.964	183.56
230.199	233.56
230.433	204.56
230.667	190.56
230.901	194.56
231.136	153.56
231.37	171.56
231.604	195.56
231.838	215.56
232.072	216.56
232.306	197.56
232.541	186.56
232.775	183.56
233.009	168.56
233.243	173.56
233.477	162.56
233.711	162.56
233.945	164.56
234.179	166.56
234.413	180.56
234.647	182.56
234.881	182.56
235.115	177.56
235.349	174.56
235.583	175.56
235.817	160.56
236.051	160.56
236.285	161.56
236.519	148.56
236.753	169.56
236.987	164.56
237.221	169.56
237.455	161.56
237.689	160.56
237.922	172.56
238.156	183.56
238.39	178.56
238.624	179.56
238.858	187.56
239.091	170.56
239.325	182.56
239.559	209.56
239.793	224.56
240.027	232.56
240.26	193.56
240.494	186.56
240.728	193.56
240.961	191.56
241.195	197.56
241.429	209.56
241.662	238.56
241.896	237.56
242.13	250.56
242.363	218.56
242.597	195.56
242.83	195.56
243.064	204.56
243.298	197.56
243.531	204.56
243.765	239.56
243.998	233.56
244.232	232.56
244.465	233.56
244.699	207.56
244.932	223.56
245.166	213.56
245.399	202.56
245.633	208.56
245.866	226.56
246.099	217.56
246.333	235.56
246.566	227.56
246.8	245.56
247.033	227.56
247.266	228.56
247.5	231.56
247.733	228.56
247.966	235.56
248.2	233.56
248.433	264.56
248.666	231.56
248.899	252.56
249.133	248.56
249.366	260.56
249.599	270.56
249.832	255.56
250.066	272.56
250.299	261.56
250.532	254.56
250.765	282.56
250.998	268.56
251.231	315.56
251.465	327.56
251.698	320.56
251.931	305.56
252.164	286.56
252.397	283.56
252.63	273.56
252.863	301.56
253.096	293.56
253.329	280.56
253.562	283.56
253.795	300.56
254.028	298.56
254.261	283.56
254.494	295.56
254.727	294.56
254.96	304.56
255.193	295.56
255.426	279.56
255.659	316.56
255.892	327.56
256.124	297.56
256.357	321.56
256.59	321.56
256.823	323.56
257.056	338.56
257.289	331.56
257.521	328.56
257.754	327.56
257.987	321.56
258.22	338.56
258.452	344.56
258.685	324.56
258.918	326.56
259.151	341.56
259.383	322.56
259.616	330.56
259.849	324.56
260.081	325.56
260.314	352.56
260.547	348.56
260.779	338.56
261.012	358.56
261.244	352.56
261.477	348.56
261.71	343.56
261.942	363.56
262.175	356.56
262.407	344.56
262.64	343.56
262.872	354.56
263.105	354.56
263.337	368.56
263.57	360.56
263.802	366.56
264.035	366.56
264.267	364.56
264.499	379.56
264.732	366.56
264.964	369.56
265.197	369.56
265.429	379.56
265.661	403.56
265.894	397.56
266.126	404.56
266.358	372.56
266.591	408.56
266.823	402.56
267.055	395.56
267.287	400.56
267.52	398.56
267.752	406.56
267.984	411.56
268.216	402.56
268.448	402.56
268.681	432.56
268.913	424.56
269.145	418.56
269.377	396.56
269.609	421.56
269.841	406.56
270.073	407.56
270.306	410.56
270.538	414.56
270.77	401.56
271.002	433.56
271.234	421.56
271.466	410.56
271.698	410.56
271.93	428.56
272.162	420.56
272.394	450.56
272.626	434.56
272.858	445.56
273.09	446.56
273.322	425.56
273.553	457.56
273.785	439.56
274.017	463.56
274.249	467.56
274.481	457.56
274.713	454.56
274.945	450.56
275.176	466.56
275.408	445.56
275.64	462.56
275.872	463.56
276.104	463.56
276.335	459.56
276.567	448.56
276.799	470.56
277.031	476.56
277.262	469.56
277.494	468.56
277.726	462.56
277.957	498.56
278.189	462.56
278.421	454.56
278.652	473.56
278.884	460.56
279.115	484.56
279.347	488.56
279.579	496.56
279.81	481.56
280.042	487.56
280.273	490.56
280.505	482.56
280.736	494.56
280.968	494.56
281.199	527.56
281.431	509.56
281.662	511.56
281.894	512.56
282.125	521.56
282.356	500.56
282.588	517.56
282.819	502.56
283.051	513.56
283.282	516.56
283.513	511.56
283.745	519.56
283.976	506.56
284.207	486.56
284.439	512.56
284.67	536.56
284.901	519.56
285.132	541.56
285.364	514.56
285.595	520.56
285.826	534.56
286.057	507.56
286.288	570.56
286.52	563.56
286.751	555.56
286.982	517.56
287.213	540.56
287.444	549.56
287.675	554.56
287.906	531.56
288.138	540.56
288.369	543.56
288.6	578.56
288.831	551.56
289.062	553.56
289.293	561.56
289.524	534.56
289.755	559.56
289.986	551.56
290.217	559.56
290.448	546.56
290.679	547.56
290.91	562.56
291.141	568.56
291.371	564.56
291.602	557.56
291.833	542.56
292.064	560.56
292.295	572.56
292.526	551.56
292.757	553.56
292.987	559.56
293.218	574.56
293.449	580.56
293.68	575.56
293.91	554.56
294.141	561.56
294.372	570.56
294.603	550.56
294.833	589.56
295.064	588.56
295.295	568.56
295.525	564.56
295.756	559.56
295.987	586.56
296.217	566.56
296.448	586.56
296.679	566.56
296.909	578.56
297.14	574.56
297.37	606.56
297.601	586.56
297.831	591.56
298.062	601.56
298.292	594.56
298.523	609.56
298.753	601.56
298.984	608.56
299.214	601.56
299.445	610.56
299.675	626.56
299.905	625.56
300.136	604.56
300.366	636.56
300.597	670.56
300.827	629.56
301.057	667.56
301.288	647.56
301.518	644.56
301.748	634.56
301.979	621.56
302.209	627.56
302.439	634.56
302.669	628.56
302.9	627.56
303.13	629.56
303.36	650.56
303.59	639.56
303.82	652.56
304.051	675.56
304.281	665.56
304.511	644.56
304.741	650.56
304.971	655.56
305.201	670.56
305.431	699.56
305.661	678.56
305.891	688.56
306.121	672.56
306.352	649.56
306.582	633.56
306.812	639.56
307.042	638.56
307.272	658.56
307.502	641.56
307.731	641.56
307.961	646.56
308.191	651.56
308.421	640.56
308.651	657.56
308.881	658.56
309.111	649.56
309.341	664.56
309.571	662.56
309.8	674.56
310.03	704.56
310.26	744.56
310.49	732.56
310.72	697.56
310.949	681.56
311.179	658.56
311.409	672.56
311.639	652.56
311.868	681.56
312.098	674.56
312.328	690.56
312.557	705.56
312.787	687.56
313.017	720.56
313.246	728.56
313.476	721.56
313.706	736.56
313.935	734.56
314.165	706.56
314.394	707.56
314.624	700.56
314.853	674.56
315.083	717.56
315.312	698.56
315.542	715.56
315.771	709.56
316.001	706.56
316.23	696.56
316.46	709.56
316.689	733.56
316.919	721.56
317.148	709.56
317.377	725.56
317.607	721.56
317.836	731.56
318.065	722.56
318.295	740.56
318.524	717.56
318.753	728.56
318.983	742.56
319.212	719.56
319.441	719.56
319.67	762.56
319.9	753.56
320.129	739.56
320.358	743.56
320.587	744.56
320.816	742.56
321.046	747.56
321.275	773.56
321.504	740.56
321.733	755.56
321.962	754.56
322.191	777.56
322.42	771.56
322.649	781.56
322.878	747.56
323.108	767.56
323.337	792.56
323.566	780.56
323.795	767.56
324.024	761.56
324.253	787.56
324.482	796.56
324.71	809.56
324.939	767.56
325.168	827.56
325.397	819.56
325.626	804.56
325.855	816.56
326.084	802.56
326.313	807.56
326.542	809.56
326.77	808.56
326.999	802.56
327.228	807.56
327.457	815.56
327.686	815.56
327.914	811.56
328.143	828.56
328.372	809.56
328.6	814.56
328.829	827.56
329.058	808.56
329.287	775.56
329.515	806.56
329.744	846.56
329.972	847.56
330.201	810.56
330.43	840.56
330.658	836.56
330.887	847.56
331.115	855.56
331.344	856.56
331.572	884.56
331.801	856.56
332.03	879.56
332.258	886.56
332.486	870.56
332.715	888.56
332.943	882.56
333.172	894.56
333.4	914.56
333.629	920.56
333.857	931.56
334.085	942.56
334.314	944.56
334.542	929.56
334.771	934.56
334.999	938.56
335.227	945.56
335.455	922.56
335.684	960.56
335.912	935.56
336.14	950.56
336.369	937.56
336.597	966.56
336.825	975.56
337.053	986.56
337.281	951.56
337.51	949.56
337.738	938.56
337.966	996.56
338.194	987.56
338.422	933.56
338.65	909.56
338.878	917.56
339.106	930.56
339.334	940.56
339.562	949.56
339.79	914.56
340.018	914.56
340.246	889.56
340.474	896.56
340.702	867.56
340.93	910.56
341.158	899.56
341.386	970.56
341.614	991.56
341.842	965.56
342.07	933.56
342.298	918.56
342.526	919.56
342.754	891.56
342.981	868.56
343.209	900.56
343.437	944.56
343.665	942.56
343.893	929.56
344.12	956.56
344.348	946.56
344.576	955.56
344.804	969.56
345.031	898.56
345.259	907.56
345.487	917.56
345.714	938.56
345.942	966.56
346.17	977.56
346.397	956.56
346.625	904.56
346.853	875.56
347.08	888.56
347.308	872.56
347.535	878.56
347.763	878.56
347.99	862.56
348.218	884.56
348.445	865.56
348.673	860.56
348.9	863.56
349.128	884.56
349.355	912.56
349.583	920.56
349.81	878.56
350.037	849.56
350.265	858.56
350.492	852.56
350.72	844.56
350.947	875.56
351.174	891.56
351.402	922.56
351.629	940.56
351.856	908.56
352.083	879.56
352.311	918.56
352.538	926.56
352.765	935.56
352.992	866.56
353.22	857.56
353.447	822.56
353.674	834.56
353.901	832.56
354.128	825.56
354.355	836.56
354.583	834.56
354.81	822.56
355.037	836.56
355.264	824.56
355.491	834.56
355.718	845.56
355.945	863.56
356.172	823.56
356.399	830.56
356.626	872.56
356.853	916.56
357.08	821.56
357.307	842.56
357.534	839.56
357.761	842.56
357.988	849.56
358.215	849.56
358.441	852.56
358.668	827.56
358.895	825.56
359.122	830.56
359.349	828.56
359.576	867.56
359.802	829.56
360.029	848.56
360.256	848.56
360.483	821.56
360.709	850.56
360.936	851.56
361.163	876.56
361.39	856.56
361.616	857.56
361.843	881.56
362.07	933.56
362.296	917.56
362.523	867.56
362.749	846.56
362.976	837.56
363.203	858.56
363.429	860.56
363.656	864.56
363.882	857.56
364.109	853.56
364.335	844.56
364.562	855.56
364.788	827.56
365.015	842.56
365.241	849.56
365.468	830.56
365.694	856.56
365.92	843.56
366.147	867.56
366.373	866.56
366.599	866.56
366.826	872.56
367.052	836.56
367.278	841.56
367.505	859.56
367.731	872.56
367.957	842.56
368.184	864.56
368.41	881.56
368.636	863.56
368.862	862.56
369.089	907.56
369.315	869.56
369.541	883.56
369.767	871.56
369.993	850.56
370.219	867.56
370.445	852.56
370.672	875.56
370.898	884.56
371.124	886.56
371.35	919.56
371.576	916.56
371.802	913.56
372.028	914.56
372.254	899.56
372.48	908.56
372.706	892.56
372.932	894.56
373.158	926.56
373.384	894.56
373.61	903.56
373.835	919.56
374.061	888.56
374.287	902.56
374.513	939.56
374.739	936.56
374.965	956.56
375.191	929.56
375.416	961.56
375.642	941.56
375.868	927.56
376.094	915.56
376.319	936.56
376.545	930.56
376.771	911.56
376.997	892.56
377.222	912.56
377.448	909.56
377.674	912.56
377.899	897.56
378.125	862.56
378.35	896.56
378.576	912.56
378.802	873.56
379.027	898.56
379.253	875.56
379.478	854.56
379.704	936.56
379.929	895.56
380.155	894.56
380.38	886.56
380.606	879.56
380.831	908.56
381.057	898.56
381.282	901.56
381.507	908.56
381.733	904.56
381.958	906.56
382.184	899.56
382.409	894.56
382.634	917.56
382.86	903.56
383.085	931.56
383.31	954.56
383.535	941.56
383.761	926.56
383.986	936.56
384.211	961.56
384.436	961.56
384.662	935.56
384.887	962.56
385.112	974.56
385.337	980.56
385.562	993.56
385.787	1019.56
386.013	990.56
386.238	1000.56
386.463	1030.56
386.688	1002.56
386.913	1025.56
387.138	981.56
387.363	988.56
387.588	999.56
387.813	984.56
388.038	1010.56
388.263	1016.56
388.488	1024.56
388.713	1021.56
388.938	993.56
389.163	1013.56
389.387	1052.56
389.612	1026.56
389.837	999.56
390.062	1009.56
390.287	1007.56
390.512	1021.56
390.736	1028.56
390.961	1038.56
391.186	1006.56
391.411	1032.56
391.636	1030.56
391.86	1046.56
392.085	1023.56
392.31	1040.56
392.534	1044.56
392.759	1058.56
392.984	1017.56
393.208	1044.56
393.433	1070.56
393.658	1048.56
393.882	1049.56
394.107	1062.56
394.331	1036.56
394.556	1045.56
394.78	1056.56
395.005	1059.56
395.229	1044.56
395.454	1081.56
395.678	1085.56
395.903	1058.56
396.127	1076.56
396.352	1048.56
396.576	1086.56
396.801	1059.56
397.025	1079.56
397.249	1101.56
397.474	1077.56
397.698	1122.56
397.922	1124.56
398.147	1138.56
398.371	1114.56
398.595	1158.56
398.82	1202.56
399.044	1180.56
399.268	1227.56
399.492	1302.56
399.717	1308.56
399.941	1342.56
400.165	1326.56
400.389	1313.56
400.613	1245.56
400.837	1229.56
401.062	1206.56
401.286	1184.56
401.51	1175.56
401.734	1187.56
401.958	1152.56
402.182	1180.56
402.406	1167.56
402.63	1186.56
402.854	1182.56
403.078	1198.56
403.302	1175.56
403.526	1205.56
403.75	1198.56
403.974	1174.56
404.198	1196.56
404.422	1219.56
404.645	1217.56
404.869	1203.56
405.093	1192.56
405.317	1218.56
405.541	1205.56
405.765	1203.56
405.988	1218.56
406.212	1233.56
406.436	1252.56
406.66	1279.56
406.883	1263.56
407.107	1338.56
407.331	1305.56
407.555	1328.56
407.778	1327.56
408.002	1337.56
408.226	1321.56
408.449	1346.56
408.673	1304.56
408.896	1296.56
409.12	1304.56
409.344	1271.56
409.567	1259.56
409.791	1275.56
410.014	1261.56
410.238	1233.56
410.461	1240.56
410.685	1254.56
410.908	1226.56
411.132	1240.56
411.355	1202.56
411.578	1231.56
411.802	1203.56
412.025	1206.56
412.249	1219.56
412.472	1240.56
412.695	1208.56
412.919	1185.56
413.142	1221.56
413.365	1231.56
413.589	1204.56
413.812	1186.56
414.035	1191.56
414.258	1147.56
414.482	1183.56
414.705	1196.56
414.928	1145.56
415.151	1187.56
415.374	1184.56
415.597	1121.56
415.821	1153.56
416.044	1153.56
416.267	1171.56
416.49	1154.56
416.713	1136.56
416.936	1160.56
417.159	1113.56
417.382	1115.56
417.605	1138.56
417.828	1120.56
418.051	1131.56
418.274	1159.56
418.497	1104.56
418.72	1125.56
418.943	1124.56
419.166	1189.56
419.389	1244.56
419.611	1224.56
419.834	1211.56
420.057	1162.56
420.28	1142.56
420.503	1096.56
420.726	1099.56
420.948	1109.56
421.171	1138.56
421.394	1099.56
421.617	1109.56
421.839	1154.56
422.062	1144.56
422.285	1099.56
422.507	1128.56
422.73	1123.56
422.953	1126.56
423.175	1139.56
423.398	1146.56
423.621	1127.56
423.843	1136.56
424.066	1143.56
424.288	1105.56
424.511	1140.56
424.733	1118.56
424.956	1126.56
425.178	1111.56
425.401	1130.56
425.623	1131.56
425.846	1122.56
426.068	1155.56
426.291	1084.56
426.513	1126.56
426.735	1127.56
426.958	1095.56
427.18	1093.56
427.402	1127.56
427.625	1128.56
427.847	1091.56
428.069	1120.56
428.292	1082.56
428.514	1056.56
428.736	1090.56
428.958	1112.56
429.181	1096.56
429.403	1107.56
429.625	1066.56
429.847	1078.56
430.069	1066.56
430.292	1078.56
430.514	1080.56
430.736	1098.56
430.958	1094.56
431.18	1095.56
431.402	1075.56
431.624	1094.56
431.846	1073.56
432.068	1086.56
432.29	1104.56
432.512	1100.56
432.734	1131.56
432.956	1102.56
433.178	1143.56
433.4	1156.56
433.622	1166.56
433.844	1122.56
434.066	1168.56
434.287	1154.56
434.509	1159.56
434.731	1158.56
434.953	1153.56
435.175	1188.56
435.397	1159.56
435.618	1124.56
435.84	1151.56
436.062	1106.56
436.284	1131.56
436.505	1107.56
436.727	1119.56
436.949	1108.56
437.17	1140.56
437.392	1140.56
437.614	1097.56
437.835	1065.56
438.057	1073.56
438.278	1081.56
438.5	1070.56
438.721	1063.56
438.943	1060.56
439.165	1067.56
439.386	1089.56
439.608	1081.56
439.829	1082.56
440.05	1051.56
440.272	1110.56
440.493	1079.56
440.715	1130.56
440.936	1096.56
441.158	1120.56
441.379	1125.56
441.6	1160.56
441.822	1159.56
442.043	1129.56
442.264	1146.56
442.486	1123.56
442.707	1129.56
442.928	1164.56
443.149	1152.56
443.371	1208.56
443.592	1255.56
443.813	1205.56
444.034	1150.56
444.255	1156.56
444.476	1186.56
444.698	1227.56
444.919	1266.56
445.14	1346.56
445.361	1254.56
445.582	1192.56
445.803	1143.56
446.024	1118.56
446.245	1123.56
446.466	1114.56
446.687	1088.56
446.908	1074.56
447.129	1054.56
447.35	1044.56
447.571	1050.56
447.792	1052.56
448.013	1062.56
448.234	1000.56
448.455	1030.56
448.675	1040.56
448.896	1030.56
449.117	1030.56
449.338	1010.56
449.559	1034.56
449.779	1003.56
450	996.56
450.221	987.56
450.442	982.56
450.662	1027.56
450.883	1035.56
451.104	1013.56
451.324	998.56
451.545	995.56
451.766	975.56
451.986	975.56
452.207	1007.56
452.428	984.56
452.648	982.56
452.869	961.56
453.089	970.56
453.31	1005.56
453.53	991.56
453.751	958.56
453.971	966.56
454.192	1046.56
454.412	1043.56
454.633	993.56
454.853	942.56
455.073	969.56
455.294	968.56
455.514	1008.56
455.734	1015.56
455.955	1045.56
456.175	1017.56
456.395	940.56
456.616	980.56
456.836	984.56
457.056	969.56
457.276	971.56
457.497	1006.56
457.717	1018.56
457.937	1011.56
458.157	999.56
458.377	1007.56
458.598	1013.56
458.818	1022.56
459.038	1037.56
459.258	1079.56
459.478	1143.56
459.698	1251.56
459.918	1242.56
460.138	1184.56
460.358	1214.56
460.578	1191.56
460.798	1262.56
461.018	1232.56
461.238	1187.56
461.458	1167.56
461.678	1148.56
461.898	1214.56
462.118	1188.56
462.338	1230.56
462.558	1257.56
462.777	1282.56
462.997	1332.56
463.217	1353.56
463.437	1427.56
463.657	1369.56
463.876	1302.56
464.096	1292.56
464.316	1260.56
464.536	1271.56
464.755	1270.56
464.975	1227.56
465.195	1162.56
465.414	1146.56
465.634	1116.56
465.854	1110.56
466.073	1130.56
466.293	1096.56
466.512	1082.56
466.732	1084.56
466.951	1064.56
467.171	1090.56
467.391	1098.56
467.61	1077.56
467.829	1090.56
468.049	1040.56
468.268	1042.56
468.488	1023.56
468.707	1034.56
468.927	1046.56
469.146	1062.56
469.365	1100.56
469.585	1062.56
469.804	1080.56
470.023	1074.56
470.243	1055.56
470.462	1087.56
470.681	1055.56
470.901	1037.56
471.12	1054.56
471.339	1073.56
471.558	1080.56
471.777	1082.56
471.997	1067.56
472.216	1048.56
472.435	1054.56
472.654	1036.56
472.873	1030.56
473.092	1016.56
473.311	1052.56
473.53	1027.56
473.749	1027.56
473.968	1053.56
474.187	1018.56
474.406	1040.56
474.625	1055.56
474.844	1048.56
475.063	1083.56
475.282	1120.56
475.501	1078.56
475.72	1080.56
475.939	1065.56
476.158	1097.56
476.377	1082.56
476.596	1107.56
476.814	1121.56
477.033	1106.56
477.252	1142.56
477.471	1119.56
477.69	1147.56
477.908	1162.56
478.127	1160.56
478.346	1184.56
478.564	1200.56
478.783	1219.56
479.002	1256.56
479.22	1314.56
479.439	1270.56
479.658	1236.56
479.876	1230.56
480.095	1235.56
480.313	1285.56
480.532	1297.56
480.751	1266.56
480.969	1235.56
481.188	1254.56
481.406	1239.56
481.624	1227.56
481.843	1231.56
482.061	1255.56
482.28	1235.56
482.498	1190.56
482.717	1223.56
482.935	1267.56
483.153	1283.56
483.372	1302.56
483.59	1320.56
483.808	1291.56
484.027	1276.56
484.245	1252.56
484.463	1273.56
484.681	1265.56
484.9	1323.56
485.118	1262.56
485.336	1283.56
485.554	1262.56
485.772	1296.56
485.99	1259.56
486.209	1262.56
486.427	1260.56
486.645	1300.56
486.863	1295.56
487.081	1280.56
487.299	1274.56
487.517	1259.56
487.735	1312.56
487.953	1312.56
488.171	1293.56
488.389	1289.56
488.607	1276.56
488.825	1265.56
489.043	1258.56
489.261	1266.56
489.479	1249.56
489.696	1234.56
489.914	1273.56
490.132	1255.56
490.35	1316.56
490.568	1282.56
490.786	1306.56
491.003	1271.56
491.221	1346.56
491.439	1304.56
491.657	1302.56
491.874	1299.56
492.092	1353.56
492.31	1323.56
492.527	1292.56
492.745	1319.56
492.963	1326.56
493.18	1318.56
493.398	1336.56
493.615	1316.56
493.833	1359.56
494.05	1336.56
494.268	1334.56
494.485	1322.56
494.703	1354.56
494.92	1328.56
495.138	1360.56
495.355	1337.56
495.573	1366.56
495.79	1344.56
496.008	1384.56
496.225	1370.56
496.442	1397.56
496.66	1402.56
496.877	1406.56
497.094	1408.56
497.312	1411.56
497.529	1427.56
497.746	1471.56
497.963	1493.56
498.181	1530.56
498.398	1548.56
498.615	1609.56
498.832	1639.56
499.049	1706.56
499.267	1749.56
499.484	1789.56
499.701	1904.56
499.918	1968.56
500.135	2038.56
500.352	2097.56
500.569	2156.56
500.786	2128.56
501.003	2086.56
501.22	2012.56
501.437	1936.56
501.654	1866.56
501.871	1808.56
502.088	1759.56
502.305	1679.56
502.522	1687.56
502.739	1624.56
502.956	1549.56
503.172	1528.56
503.389	1478.56
503.606	1440.56
503.823	1485.56
504.04	1439.56
504.256	1401.56
504.473	1398.56
504.69	1410.56
504.907	1380.56
505.123	1362.56
505.34	1347.56
505.557	1277.56
505.773	1265.56
505.99	1254.56
506.207	1236.56
506.423	1242.56
506.64	1232.56
506.856	1187.56
507.073	1172.56
507.289	1166.56
507.506	1174.56
507.722	1192.56
507.939	1167.56
508.155	1126.56
508.372	1146.56
508.588	1114.56
508.805	1137.56
509.021	1122.56
509.238	1096.56
509.454	1143.56
509.67	1096.56
509.887	1093.56
510.103	1090.56
510.319	1078.56
510.536	1079.56
510.752	1097.56
510.968	1062.56
511.184	1065.56
511.401	1065.56
511.617	1087.56
511.833	1099.56
512.049	1049.56
512.265	1068.56
512.481	1098.56
512.698	1088.56
512.914	1089.56
513.13	1046.56
513.346	1078.56
513.562	1052.56
513.778	1075.56
513.994	1072.56
514.21	1073.56
514.426	1047.56
514.642	1088.56
514.858	1073.56
515.074	1083.56
515.29	1083.56
515.506	1107.56
515.721	1099.56
515.937	1099.56
516.153	1098.56
516.369	1117.56
516.585	1117.56
516.801	1129.56
517.016	1158.56
517.232	1149.56
517.448	1177.56
517.664	1191.56
517.879	1183.56
518.095	1153.56
518.311	1168.56
518.527	1150.56
518.742	1140.56
518.958	1115.56
519.173	1110.56
519.389	1083.56
519.605	1092.56
519.82	1079.56
520.036	1108.56
520.251	1042.56
520.467	1051.56
520.682	1034.56
520.898	1029.56
521.113	1003.56
521.329	1010.56
521.544	1006.56
521.76	1007.56
521.975	970.56
522.19	974.56
522.406	979.56
522.621	990.56
522.836	997.56
523.052	984.56
523.267	962.56
523.482	1007.56
523.698	967.56
523.913	958.56
524.128	976.56
524.343	963.56
524.559	957.56
524.774	982.56
524.989	956.56
525.204	959.56
525.419	966.56
525.634	946.56
525.849	946.56
526.064	952.56
526.28	935.56
526.495	930.56
526.71	937.56
526.925	948.56
527.14	935.56
527.355	925.56
527.57	903.56
527.785	916.56
527.999	958.56
528.214	914.56
528.429	948.56
528.644	914.56
528.859	929.56
529.074	911.56
529.289	901.56
529.503	916.56
529.718	928.56
529.933	908.56
530.148	911.56
530.363	892.56
530.577	906.56
530.792	900.56
531.007	870.56
531.221	892.56
531.436	922.56
531.651	896.56
531.865	903.56
532.08	919.56
532.295	902.56
532.509	891.56
532.724	887.56
532.938	883.56
533.153	887.56
533.367	895.56
533.582	917.56
533.796	897.56
534.011	896.56
534.225	881.56
534.44	864.56
534.654	875.56
534.868	885.56
535.083	859.56
535.297	866.56
535.511	866.56
535.726	850.56
535.94	882.56
536.154	879.56
536.369	884.56
536.583	850.56
536.797	881.56
537.011	861.56
537.225	825.56
537.44	842.56
537.654	847.56
537.868	844.56
538.082	836.56
538.296	837.56
538.51	848.56
538.724	833.56
538.938	832.56
539.153	840.56
539.367	821.56
539.581	835.56
539.795	791.56
540.009	807.56
540.222	802.56
540.436	818.56
540.65	818.56
540.864	844.56
541.078	835.56
541.292	800.56
541.506	814.56
541.72	823.56
541.934	824.56
542.147	808.56
542.361	839.56
542.575	827.56
542.789	808.56
543.002	820.56
543.216	822.56
543.43	804.56
543.644	808.56
543.857	806.56
544.071	825.56
544.285	850.56
544.498	834.56
544.712	806.56
544.925	802.56
545.139	843.56
545.352	827.56
545.566	812.56
545.779	818.56
545.993	810.56
546.206	824.56
546.42	834.56
546.633	855.56
546.847	800.56
547.06	818.56
547.274	848.56
547.487	812.56
547.7	812.56
547.914	829.56
548.127	808.56
548.34	822.56
548.554	811.56
548.767	828.56
548.98	811.56
549.193	823.56
549.407	808.56
549.62	834.56
549.833	818.56
550.046	803.56
550.259	798.56
550.473	816.56
550.686	812.56
550.899	801.56
551.112	806.56
551.325	795.56
551.538	790.56
551.751	778.56
551.964	780.56
552.177	804.56
552.39	796.56
552.603	778.56
552.816	793.56
553.029	830.56
553.242	823.56
553.455	831.56
553.667	803.56
553.88	816.56
554.093	804.56
554.306	764.56
554.519	734.56
554.732	766.56
554.944	764.56
555.157	756.56
555.37	769.56
555.583	742.56
555.795	763.56
556.008	733.56
556.221	732.56
556.433	725.56
556.646	734.56
556.859	708.56
557.071	711.56
557.284	733.56
557.496	720.56
557.709	699.56
557.921	693.56
558.134	711.56
558.346	696.56
558.559	677.56
558.771	686.56
558.984	686.56
559.196	704.56
559.409	680.56
559.621	700.56
559.833	683.56
560.046	673.56
560.258	694.56
560.47	677.56
560.683	686.56
560.895	665.56
561.107	672.56
561.32	689.56
561.532	694.56
561.744	682.56
561.956	674.56
562.168	672.56
562.381	683.56
562.593	667.56
562.805	677.56
563.017	686.56
563.229	688.56
563.441	700.56
563.653	695.56
563.865	696.56
564.077	714.56
564.289	673.56
564.501	692.56
564.713	710.56
564.925	708.56
565.137	723.56
565.349	731.56
565.561	746.56
565.773	740.56
565.985	730.56
566.197	761.56
566.408	801.56
566.62	814.56
566.832	814.56
567.044	832.56
567.255	843.56
567.467	833.56
567.679	816.56
567.891	843.56
568.102	852.56
568.314	811.56
568.526	806.56
568.737	786.56
568.949	747.56
569.161	728.56
569.372	696.56
569.584	677.56
569.795	673.56
570.007	659.56
570.218	655.56
570.43	681.56
570.641	662.56
570.853	629.56
571.064	633.56
571.276	628.56
571.487	633.56
571.698	586.56
571.91	606.56
572.121	603.56
572.333	607.56
572.544	593.56
572.755	568.56
572.966	572.56
573.178	576.56
573.389	578.56
573.6	546.56
573.811	543.56
574.023	533.56
574.234	539.56
574.445	546.56
574.656	545.56
574.867	557.56
575.078	530.56
575.289	550.56
575.501	542.56
575.712	554.56
575.923	538.56
576.134	528.56
576.345	537.56
576.556	515.56
576.767	520.56
576.978	522.56
577.188	511.56
577.399	512.56
577.61	503.56
577.821	510.56
578.032	469.56
578.243	509.56
578.454	524.56
578.665	506.56
578.875	500.56
579.086	480.56
579.297	491.56
579.508	460.56
579.718	495.56
579.929	494.56
580.14	489.56
580.35	488.56
580.561	473.56
580.772	476.56
580.982	448.56
581.193	490.56
581.403	464.56
581.614	456.56
581.825	483.56
582.035	471.56
582.246	456.56
582.456	468.56
582.667	470.56
582.877	487.56
583.087	454.56
583.298	448.56
583.508	441.56
583.719	462.56
583.929	456.56
584.139	475.56
584.35	439.56
584.56	456.56
584.77	447.56
584.981	451.56
585.191	457.56
585.401	450.56
585.611	449.56
585.821	465.56
586.032	454.56
586.242	459.56
586.452	443.56
586.662	448.56
586.872	440.56
587.082	430.56
587.292	443.56
587.502	440.56
587.713	454.56
587.923	447.56
588.133	447.56
588.343	427.56
588.553	424.56
588.762	459.56
588.972	455.56
589.182	500.56
589.392	480.56
589.602	454.56
589.812	469.56
590.022	439.56
590.232	437.56
590.441	428.56
590.651	449.56
590.861	459.56
591.071	422.56
591.281	455.56
591.49	438.56
591.7	439.56
591.91	460.56
592.119	437.56
592.329	457.56
592.539	453.56
592.748	446.56
592.958	443.56
593.167	450.56
593.377	453.56
593.587	471.56
593.796	461.56
594.006	453.56
594.215	442.56
594.424	447.56
594.634	438.56
594.843	433.56
595.053	450.56
595.262	443.56
595.472	426.56
595.681	427.56
595.89	420.56
596.1	404.56
596.309	421.56
596.518	414.56
596.727	431.56
596.937	384.56
597.146	413.56
597.355	397.56
597.564	397.56
597.774	395.56
597.983	391.56
598.192	399.56
598.401	380.56
598.61	381.56
598.819	384.56
599.028	381.56
599.237	397.56
599.446	386.56
599.655	367.56
599.864	368.56
600.073	389.56
600.282	385.56
600.491	373.56
600.7	369.56
600.909	365.56
601.118	381.56
601.327	379.56
601.536	365.56
601.745	370.56
601.953	357.56
602.162	366.56
602.371	357.56
602.58	367.56
602.789	372.56
602.997	359.56
603.206	344.56
603.415	355.56
603.623	359.56
603.832	328.56
604.041	373.56
604.249	367.56
604.458	339.56
604.666	352.56
604.875	347.56
605.084	344.56
605.292	324.56
605.501	335.56
605.709	345.56
605.918	341.56
606.126	336.56
606.334	354.56
606.543	339.56
606.751	340.56
606.96	345.56
607.168	352.56
607.376	355.56
607.585	336.56
607.793	340.56
608.001	318.56
608.21	337.56
608.418	328.56
608.626	338.56
608.834	337.56
609.043	351.56
609.251	339.56
609.459	326.56
609.667	331.56
609.875	344.56
610.083	335.56
610.291	336.56
610.499	313.56
610.707	337.56
610.916	335.56
611.124	324.56
611.332	338.56
611.54	337.56
611.748	339.56
611.955	296.56
612.163	327.56
612.371	327.56
612.579	325.56
612.787	309.56
612.995	308.56
613.203	320.56
613.411	309.56
613.618	315.56
613.826	325.56
614.034	327.56
614.242	332.56
614.449	331.56
614.657	309.56
614.865	312.56
615.072	317.56
615.28	323.56
615.488	310.56
615.695	318.56
615.903	314.56
616.111	315.56
616.318	319.56
616.526	323.56
616.733	333.56
616.941	324.56
617.148	317.56
617.356	306.56
617.563	318.56
617.771	315.56
617.978	304.56
618.185	300.56
618.393	313.56
618.6	326.56
618.807	307.56
619.015	311.56
619.222	311.56
619.429	299.56
619.637	318.56
619.844	297.56
620.051	276.56
620.258	291.56
620.466	308.56
620.673	288.56
620.88	290.56
621.087	280.56
621.294	284.56
621.501	289.56
621.708	273.56
621.915	288.56
622.122	275.56
622.329	302.56
622.536	309.56
622.743	290.56
622.95	302.56
623.157	289.56
623.364	278.56
623.571	287.56
623.778	285.56
623.985	295.56
624.192	268.56
624.399	298.56
624.606	278.56
624.812	258.56
625.019	292.56
625.226	283.56
625.433	278.56
625.639	272.56
625.846	276.56
626.053	254.56
626.259	281.56
626.466	266.56
626.673	288.56
626.879	269.56
627.086	280.56
627.293	270.56
627.499	290.56
627.706	288.56
627.912	283.56
628.119	261.56
628.325	274.56
628.532	276.56
628.738	272.56
628.945	257.56
629.151	268.56
629.357	246.56
629.564	260.56
629.77	262.56
629.976	255.56
630.183	258.56
630.389	262.56
630.595	254.56
630.802	271.56
631.008	242.56
631.214	270.56
631.42	254.56
631.627	262.56
631.833	248.56
632.039	241.56
632.245	268.56
632.451	243.56
632.657	252.56
632.863	261.56
633.069	256.56
633.275	256.56
633.481	244.56
633.688	263.56
633.893	265.56
634.099	255.56
634.305	254.56
634.511	251.56
634.717	252.56
634.923	229.56
635.129	239.56
635.335	225.56
635.541	238.56
635.747	255.56
635.952	264.56
636.158	235.56
636.364	238.56
636.57	235.56
636.775	231.56
636.981	247.56
637.187	243.56
637.392	244.56
637.598	248.56
637.804	242.56
638.009	229.56
638.215	241.56
638.421	218.56
638.626	245.56
638.832	242.56
639.037	235.56
639.243	221.56
639.448	234.56
639.654	235.56
639.859	236.56
640.065	221.56
640.27	223.56
640.475	229.56
640.681	226.56
640.886	238.56
641.091	234.56
641.297	224.56
641.502	228.56
641.707	240.56
641.913	227.56
642.118	227.56
642.323	222.56
642.528	242.56
642.733	226.56
642.939	216.56
643.144	219.56
643.349	242.56
643.554	240.56
643.759	220.56
643.964	230.56
644.169	241.56
644.374	230.56
644.579	227.56
644.784	240.56
644.989	218.56
645.194	242.56
645.399	230.56
645.604	216.56
645.809	240.56
646.014	225.56
646.219	226.56
646.423	247.56
646.628	233.56
646.833	227.56
647.038	252.56
647.243	249.56
647.447	264.56
647.652	235.56
647.857	234.56
648.062	246.56
648.266	232.56
648.471	246.56
648.676	236.56
648.88	253.56
649.085	256.56
649.289	231.56
649.494	252.56
649.698	242.56
649.903	246.56
650.107	245.56
650.312	244.56
650.516	233.56
650.721	224.56
650.925	240.56
651.13	220.56
651.334	250.56
651.539	230.56
651.743	252.56
651.947	244.56
652.152	227.56
652.356	234.56
652.56	232.56
652.764	225.56
652.969	223.56
653.173	222.56
653.377	227.56
653.581	231.56
653.785	229.56
653.99	212.56
654.194	215.56
654.398	212.56
654.602	236.56
654.806	207.56
655.01	215.56
655.214	234.56
655.418	240.56
655.622	231.56
655.826	224.56
656.03	234.56
656.234	231.56
656.438	235.56
656.642	235.56
656.846	238.56
657.049	212.56
657.253	210.56
657.457	204.56
657.661	203.56
657.865	177.56
658.068	167.56
658.272	184.56
658.476	158.56
658.68	149.56
658.883	166.56
659.087	163.56
659.291	140.56
659.494	130.56
659.698	133.56
659.901	121.56
660.105	122.56
660.309	130.56
660.512	118.56
660.716	110.56
660.919	116.56
661.123	123.56
661.326	101.56
661.53	109.56
661.733	113.56
661.936	96.56
662.14	94.56
662.343	93.56
662.546	86.56
662.75	100.56
662.953	99.56
663.156	81.56
663.36	97.56
663.563	85.56
663.766	87.56
663.969	81.56
664.173	76.56
664.376	91.56
664.579	95.56
664.782	82.56
664.985	80.56
665.188	76.56
665.391	88.56
665.594	83.56
665.797	74.56
666	78.56
666.203	76.56
666.406	83.56
666.609	84.56
666.812	76.56
667.015	76.56
667.218	79.56
667.421	87.56
667.624	82.56
667.827	81.56
668.03	91.56
668.232	77.56
668.435	84.56
668.638	85.56
668.841	89.56
669.043	78.56
669.246	76.56
669.449	80.56
669.651	86.56
669.854	76.56
670.057	76.56
670.259	82.56
670.462	75.56
670.665	70.56
670.867	68.56
671.07	69.56
671.272	70.56
671.475	74.56
671.677	90.56
671.88	90.56
672.082	98.56
672.284	86.56
672.487	87.56
672.689	85.56
672.892	70.56
