Data from Ni(NO3)2@0.125M.TitratingCurve.Agarose3%dH2O.NegLispCup.LampEnergy10.LIBS07252019_HRD10591_18-09-14-578.txt Node
Date: Thu Jul 25 18:09:14 EDT 2019
User: cochatt
Spectrometer: HR+D1059
Trigger mode: 1
Integration Time (sec): 1.000000E-1
Scans to average: 1
Electric dark correction enabled: true
Nonlinearity correction enabled: false
Boxcar width: 0
XAxis mode: Wavelengths
Number of Pixels in Spectrum: 2048
>>>>>Begin Spectral Data<<<<<
223.165	-11.94
223.4	-11.94
223.635	-11.94
223.869	-8.94
224.104	-17.94
224.338	-17.94
224.573	-15.94
224.808	-16.94
225.042	-2.94
225.277	-8.94
225.511	-8.94
225.746	5.06
225.98	6.06
226.215	8.06
226.449	13.06
226.683	25.06
226.918	21.06
227.152	32.06
227.387	34.06
227.621	43.06
227.856	55.06
228.09	60.06
228.324	57.06
228.559	73.06
228.793	77.06
229.027	118.06
229.262	113.06
229.496	111.06
229.73	120.06
229.964	131.06
230.199	130.06
230.433	124.06
230.667	133.06
230.901	137.06
231.136	134.06
231.37	130.06
231.604	137.06
231.838	140.06
232.072	137.06
232.306	143.06
232.541	151.06
232.775	149.06
233.009	141.06
233.243	146.06
233.477	152.06
233.711	143.06
233.945	142.06
234.179	141.06
234.413	133.06
234.647	144.06
234.881	151.06
235.115	155.06
235.349	136.06
235.583	147.06
235.817	149.06
236.051	142.06
236.285	152.06
236.519	163.06
236.753	150.06
236.987	142.06
237.221	152.06
237.455	146.06
237.689	147.06
237.922	164.06
238.156	151.06
238.39	163.06
238.624	149.06
238.858	174.06
239.091	156.06
239.325	153.06
239.559	154.06
239.793	172.06
240.027	165.06
240.26	170.06
240.494	168.06
240.728	193.06
240.961	180.06
241.195	169.06
241.429	191.06
241.662	193.06
241.896	193.06
242.13	186.06
242.363	195.06
242.597	183.06
242.83	195.06
243.064	190.06
243.298	181.06
243.531	199.06
243.765	204.06
243.998	199.06
244.232	191.06
244.465	202.06
244.699	194.06
244.932	199.06
245.166	198.06
245.399	206.06
245.633	195.06
245.866	191.06
246.099	227.06
246.333	220.06
246.566	205.06
246.8	217.06
247.033	219.06
247.266	223.06
247.5	221.06
247.733	215.06
247.966	222.06
248.2	214.06
248.433	222.06
248.666	217.06
248.899	222.06
249.133	236.06
249.366	231.06
249.599	240.06
249.832	244.06
250.066	224.06
250.299	257.06
250.532	221.06
250.765	235.06
250.998	260.06
251.231	250.06
251.465	261.06
251.698	257.06
251.931	259.06
252.164	279.06
252.397	255.06
252.63	276.06
252.863	269.06
253.096	269.06
253.329	255.06
253.562	258.06
253.795	261.06
254.028	276.06
254.261	249.06
254.494	266.06
254.727	256.06
254.96	285.06
255.193	271.06
255.426	271.06
255.659	274.06
255.892	266.06
256.124	270.06
256.357	270.06
256.59	288.06
256.823	281.06
257.056	280.06
257.289	290.06
257.521	287.06
257.754	285.06
257.987	280.06
258.22	294.06
258.452	299.06
258.685	302.06
258.918	299.06
259.151	286.06
259.383	309.06
259.616	281.06
259.849	301.06
260.081	314.06
260.314	311.06
260.547	287.06
260.779	305.06
261.012	292.06
261.244	310.06
261.477	321.06
261.71	321.06
261.942	306.06
262.175	317.06
262.407	302.06
262.64	311.06
262.872	332.06
263.105	324.06
263.337	317.06
263.57	327.06
263.802	327.06
264.035	312.06
264.267	318.06
264.499	329.06
264.732	329.06
264.964	335.06
265.197	355.06
265.429	358.06
265.661	336.06
265.894	329.06
266.126	347.06
266.358	340.06
266.591	327.06
266.823	353.06
267.055	335.06
267.287	339.06
267.52	355.06
267.752	355.06
267.984	354.06
268.216	358.06
268.448	379.06
268.681	346.06
268.913	352.06
269.145	352.06
269.377	357.06
269.609	359.06
269.841	342.06
270.073	337.06
270.306	355.06
270.538	378.06
270.77	361.06
271.002	355.06
271.234	350.06
271.466	390.06
271.698	369.06
271.93	377.06
272.162	371.06
272.394	371.06
272.626	370.06
272.858	377.06
273.09	395.06
273.322	392.06
273.553	364.06
273.785	368.06
274.017	391.06
274.249	391.06
274.481	386.06
274.713	373.06
274.945	394.06
275.176	400.06
275.408	389.06
275.64	389.06
275.872	398.06
276.104	415.06
276.335	378.06
276.567	407.06
276.799	399.06
277.031	406.06
277.262	401.06
277.494	425.06
277.726	388.06
277.957	429.06
278.189	429.06
278.421	404.06
278.652	409.06
278.884	422.06
279.115	413.06
279.347	421.06
279.579	437.06
279.81	423.06
280.042	425.06
280.273	422.06
280.505	423.06
280.736	410.06
280.968	453.06
281.199	434.06
281.431	426.06
281.662	430.06
281.894	440.06
282.125	433.06
282.356	459.06
282.588	450.06
282.819	445.06
283.051	452.06
283.282	441.06
283.513	455.06
283.745	449.06
283.976	463.06
284.207	467.06
284.439	467.06
284.67	433.06
284.901	451.06
285.132	486.06
285.364	461.06
285.595	467.06
285.826	460.06
286.057	465.06
286.288	487.06
286.52	472.06
286.751	485.06
286.982	460.06
287.213	451.06
287.444	481.06
287.675	507.06
287.906	506.06
288.138	505.06
288.369	485.06
288.6	476.06
288.831	499.06
289.062	480.06
289.293	468.06
289.524	485.06
289.755	479.06
289.986	495.06
290.217	476.06
290.448	491.06
290.679	481.06
290.91	491.06
291.141	504.06
291.371	496.06
291.602	481.06
291.833	481.06
292.064	487.06
292.295	503.06
292.526	502.06
292.757	505.06
292.987	502.06
293.218	468.06
293.449	505.06
293.68	492.06
293.91	497.06
294.141	497.06
294.372	507.06
294.603	508.06
294.833	506.06
295.064	503.06
295.295	517.06
295.525	499.06
295.756	511.06
295.987	514.06
296.217	526.06
296.448	518.06
296.679	520.06
296.909	529.06
297.14	517.06
297.37	545.06
297.601	527.06
297.831	559.06
298.062	542.06
298.292	561.06
298.523	559.06
298.753	548.06
298.984	554.06
299.214	551.06
299.445	542.06
299.675	549.06
299.905	545.06
300.136	537.06
300.366	565.06
300.597	556.06
300.827	559.06
301.057	575.06
301.288	572.06
301.518	561.06
301.748	575.06
301.979	584.06
302.209	571.06
302.439	574.06
302.669	573.06
302.9	545.06
303.13	527.06
303.36	546.06
303.59	540.06
303.82	566.06
304.051	552.06
304.281	554.06
304.511	538.06
304.741	550.06
304.971	571.06
305.201	553.06
305.431	553.06
305.661	567.06
305.891	539.06
306.121	556.06
306.352	558.06
306.582	554.06
306.812	548.06
307.042	542.06
307.272	550.06
307.502	521.06
307.731	537.06
307.961	547.06
308.191	547.06
308.421	548.06
308.651	542.06
308.881	550.06
309.111	559.06
309.341	539.06
309.571	531.06
309.8	523.06
310.03	559.06
310.26	541.06
310.49	538.06
310.72	553.06
310.949	560.06
311.179	549.06
311.409	582.06
311.639	545.06
311.868	544.06
312.098	555.06
312.328	569.06
312.557	590.06
312.787	572.06
313.017	566.06
313.246	586.06
313.476	582.06
313.706	580.06
313.935	592.06
314.165	601.06
314.394	603.06
314.624	605.06
314.853	579.06
315.083	599.06
315.312	579.06
315.542	578.06
315.771	580.06
316.001	565.06
316.23	590.06
316.46	568.06
316.689	570.06
316.919	557.06
317.148	577.06
317.377	581.06
317.607	575.06
317.836	581.06
318.065	576.06
318.295	577.06
318.524	565.06
318.753	587.06
318.983	568.06
319.212	570.06
319.441	592.06
319.67	548.06
319.9	575.06
320.129	585.06
320.358	585.06
320.587	587.06
320.816	588.06
321.046	569.06
321.275	583.06
321.504	572.06
321.733	593.06
321.962	583.06
322.191	582.06
322.42	570.06
322.649	597.06
322.878	575.06
323.108	586.06
323.337	601.06
323.566	588.06
323.795	594.06
324.024	603.06
324.253	580.06
324.482	583.06
324.71	611.06
324.939	613.06
325.168	585.06
325.397	591.06
325.626	612.06
325.855	625.06
326.084	645.06
326.313	653.06
326.542	660.06
326.77	671.06
326.999	646.06
327.228	647.06
327.457	644.06
327.686	643.06
327.914	642.06
328.143	637.06
328.372	636.06
328.6	621.06
328.829	651.06
329.058	641.06
329.287	660.06
329.515	671.06
329.744	654.06
329.972	651.06
330.201	650.06
330.43	664.06
330.658	652.06
330.887	627.06
331.115	703.06
331.344	718.06
331.572	695.06
331.801	718.06
332.03	714.06
332.258	732.06
332.486	750.06
332.715	802.06
332.943	791.06
333.172	853.06
333.4	869.06
333.629	895.06
333.857	921.06
334.085	899.06
334.314	873.06
334.542	867.06
334.771	829.06
334.999	816.06
335.227	826.06
335.455	810.06
335.684	819.06
335.912	821.06
336.14	797.06
336.369	809.06
336.597	804.06
336.825	799.06
337.053	783.06
337.281	794.06
337.51	764.06
337.738	768.06
337.966	728.06
338.194	734.06
338.422	737.06
338.65	723.06
338.878	712.06
339.106	718.06
339.334	698.06
339.562	723.06
339.79	699.06
340.018	693.06
340.246	679.06
340.474	687.06
340.702	682.06
340.93	694.06
341.158	689.06
341.386	711.06
341.614	703.06
341.842	713.06
342.07	702.06
342.298	706.06
342.526	668.06
342.754	682.06
342.981	665.06
343.209	707.06
343.437	716.06
343.665	778.06
343.893	843.06
344.12	867.06
344.348	835.06
344.576	773.06
344.804	729.06
345.031	715.06
345.259	695.06
345.487	681.06
345.714	722.06
345.942	685.06
346.17	667.06
346.397	685.06
346.625	689.06
346.853	681.06
347.08	679.06
347.308	655.06
347.535	691.06
347.763	691.06
347.99	698.06
348.218	685.06
348.445	682.06
348.673	705.06
348.9	660.06
349.128	671.06
349.355	674.06
349.583	663.06
349.81	664.06
350.037	661.06
350.265	640.06
350.492	657.06
350.72	629.06
350.947	653.06
351.174	643.06
351.402	641.06
351.629	651.06
351.856	646.06
352.083	619.06
352.311	635.06
352.538	646.06
352.765	632.06
352.992	631.06
353.22	631.06
353.447	641.06
353.674	653.06
353.901	632.06
354.128	652.06
354.355	643.06
354.583	629.06
354.81	650.06
355.037	649.06
355.264	638.06
355.491	625.06
355.718	646.06
355.945	643.06
356.172	645.06
356.399	660.06
356.626	637.06
356.853	661.06
357.08	635.06
357.307	655.06
357.534	636.06
357.761	631.06
357.988	635.06
358.215	629.06
358.441	631.06
358.668	638.06
358.895	647.06
359.122	612.06
359.349	631.06
359.576	638.06
359.802	636.06
360.029	647.06
360.256	645.06
360.483	634.06
360.709	622.06
360.936	648.06
361.163	649.06
361.39	641.06
361.616	632.06
361.843	637.06
362.07	655.06
362.296	665.06
362.523	627.06
362.749	636.06
362.976	611.06
363.203	625.06
363.429	612.06
363.656	641.06
363.882	625.06
364.109	630.06
364.335	649.06
364.562	637.06
364.788	626.06
365.015	653.06
365.241	625.06
365.468	634.06
365.694	636.06
365.92	644.06
366.147	603.06
366.373	621.06
366.599	631.06
366.826	627.06
367.052	623.06
367.278	627.06
367.505	619.06
367.731	651.06
367.957	642.06
368.184	617.06
368.41	620.06
368.636	628.06
368.862	647.06
369.089	650.06
369.315	666.06
369.541	639.06
369.767	656.06
369.993	659.06
370.219	638.06
370.445	662.06
370.672	666.06
370.898	660.06
371.124	683.06
371.35	698.06
371.576	687.06
371.802	707.06
372.028	686.06
372.254	693.06
372.48	675.06
372.706	689.06
372.932	722.06
373.158	714.06
373.384	691.06
373.61	708.06
373.835	702.06
374.061	701.06
374.287	709.06
374.513	687.06
374.739	727.06
374.965	765.06
375.191	775.06
375.416	793.06
375.642	767.06
375.868	732.06
376.094	739.06
376.319	734.06
376.545	708.06
376.771	679.06
376.997	702.06
377.222	727.06
377.448	701.06
377.674	708.06
377.899	689.06
378.125	699.06
378.35	677.06
378.576	695.06
378.802	672.06
379.027	687.06
379.253	645.06
379.478	657.06
379.704	665.06
379.929	702.06
380.155	674.06
380.38	698.06
380.606	675.06
380.831	676.06
381.057	670.06
381.282	683.06
381.507	685.06
381.733	685.06
381.958	711.06
382.184	704.06
382.409	715.06
382.634	724.06
382.86	710.06
383.085	719.06
383.31	730.06
383.535	773.06
383.761	781.06
383.986	777.06
384.211	801.06
384.436	806.06
384.662	813.06
384.887	847.06
385.112	825.06
385.337	809.06
385.562	809.06
385.787	862.06
386.013	859.06
386.238	836.06
386.463	841.06
386.688	842.06
386.913	802.06
387.138	794.06
387.363	798.06
387.588	790.06
387.813	818.06
388.038	810.06
388.263	797.06
388.488	839.06
388.713	819.06
388.938	804.06
389.163	808.06
389.387	791.06
389.612	781.06
389.837	813.06
390.062	777.06
390.287	780.06
390.512	779.06
390.736	809.06
390.961	839.06
391.186	825.06
391.411	878.06
391.636	894.06
391.86	911.06
392.085	950.06
392.31	966.06
392.534	926.06
392.759	870.06
392.984	853.06
393.208	855.06
393.433	837.06
393.658	862.06
393.882	879.06
394.107	876.06
394.331	925.06
394.556	875.06
394.78	879.06
395.005	886.06
395.229	871.06
395.454	927.06
395.678	907.06
395.903	937.06
396.127	903.06
396.352	891.06
396.576	878.06
396.801	851.06
397.025	862.06
397.249	881.06
397.474	907.06
397.698	883.06
397.922	911.06
398.147	890.06
398.371	928.06
398.595	953.06
398.82	977.06
399.044	1067.06
399.268	1171.06
399.492	1406.06
399.717	1610.06
399.941	1591.06
400.165	1443.06
400.389	1222.06
400.613	1139.06
400.837	1065.06
401.062	1049.06
401.286	1029.06
401.51	1009.06
401.734	1012.06
401.958	1014.06
402.182	1052.06
402.406	1059.06
402.63	1054.06
402.854	1114.06
403.078	1121.06
403.302	1181.06
403.526	1195.06
403.75	1215.06
403.974	1244.06
404.198	1209.06
404.422	1243.06
404.645	1198.06
404.869	1211.06
405.093	1191.06
405.317	1177.06
405.541	1175.06
405.765	1148.06
405.988	1154.06
406.212	1132.06
406.436	1147.06
406.66	1161.06
406.883	1195.06
407.107	1257.06
407.331	1310.06
407.555	1371.06
407.778	1352.06
408.002	1325.06
408.226	1322.06
408.449	1225.06
408.673	1209.06
408.896	1227.06
409.12	1213.06
409.344	1172.06
409.567	1191.06
409.791	1190.06
410.014	1216.06
410.238	1194.06
410.461	1207.06
410.685	1189.06
410.908	1157.06
411.132	1113.06
411.355	1093.06
411.578	1100.06
411.802	1078.06
412.025	1101.06
412.249	1150.06
412.472	1086.06
412.695	1046.06
412.919	1044.06
413.142	1032.06
413.365	1076.06
413.589	1038.06
413.812	1049.06
414.035	1021.06
414.258	1027.06
414.482	1044.06
414.705	1085.06
414.928	1078.06
415.151	1071.06
415.374	1033.06
415.597	1055.06
415.821	1010.06
416.044	1057.06
416.267	1014.06
416.49	1023.06
416.713	983.06
416.936	1030.06
417.159	1031.06
417.382	1021.06
417.605	1017.06
417.828	1053.06
418.051	1035.06
418.274	1049.06
418.497	1044.06
418.72	1079.06
418.943	1070.06
419.166	1159.06
419.389	1231.06
419.611	1188.06
419.834	1114.06
420.057	1118.06
420.28	1074.06
420.503	1029.06
420.726	1047.06
420.948	1040.06
421.171	1036.06
421.394	1051.06
421.617	1024.06
421.839	1059.06
422.062	1032.06
422.285	1037.06
422.507	1083.06
422.73	1055.06
422.953	1079.06
423.175	1081.06
423.398	1109.06
423.621	1120.06
423.843	1155.06
424.066	1158.06
424.288	1138.06
424.511	1142.06
424.733	1103.06
424.956	1105.06
425.178	1084.06
425.401	1055.06
425.623	1095.06
425.846	1035.06
426.068	1013.06
426.291	1011.06
426.513	1000.06
426.735	984.06
426.958	979.06
427.18	934.06
427.402	988.06
427.625	966.06
427.847	942.06
428.069	958.06
428.292	940.06
428.514	919.06
428.736	937.06
428.958	945.06
429.181	927.06
429.403	929.06
429.625	903.06
429.847	901.06
430.069	902.06
430.292	909.06
430.514	903.06
430.736	912.06
430.958	878.06
431.18	934.06
431.402	903.06
431.624	927.06
431.846	949.06
432.068	953.06
432.29	959.06
432.512	959.06
432.734	945.06
432.956	909.06
433.178	929.06
433.4	923.06
433.622	942.06
433.844	966.06
434.066	972.06
434.287	975.06
434.509	1006.06
434.731	1037.06
434.953	1069.06
435.175	1088.06
435.397	1053.06
435.618	999.06
435.84	997.06
436.062	957.06
436.284	941.06
436.505	932.06
436.727	958.06
436.949	963.06
437.17	945.06
437.392	959.06
437.614	916.06
437.835	910.06
438.057	912.06
438.278	913.06
438.5	911.06
438.721	921.06
438.943	905.06
439.165	914.06
439.386	938.06
439.608	925.06
439.829	956.06
440.05	931.06
440.272	962.06
440.493	941.06
440.715	999.06
440.936	993.06
441.158	995.06
441.379	1038.06
441.6	1091.06
441.822	1105.06
442.043	1109.06
442.264	1076.06
442.486	1054.06
442.707	1063.06
442.928	1062.06
443.149	1039.06
443.371	1074.06
443.592	1038.06
443.813	1101.06
444.034	1084.06
444.255	1140.06
444.476	1193.06
444.698	1231.06
444.919	1304.06
445.14	1433.06
445.361	1247.06
445.582	1114.06
445.803	1058.06
446.024	1011.06
446.245	983.06
446.466	990.06
446.687	1000.06
446.908	985.06
447.129	926.06
447.35	933.06
447.571	902.06
447.792	893.06
448.013	909.06
448.234	888.06
448.455	889.06
448.675	900.06
448.896	875.06
449.117	876.06
449.338	891.06
449.559	892.06
449.779	853.06
450	889.06
450.221	885.06
450.442	882.06
450.662	894.06
450.883	924.06
451.104	896.06
451.324	891.06
451.545	911.06
451.766	899.06
451.986	866.06
452.207	901.06
452.428	897.06
452.648	885.06
452.869	873.06
453.089	878.06
453.31	868.06
453.53	853.06
453.751	833.06
453.971	869.06
454.192	854.06
454.412	806.06
454.633	806.06
454.853	833.06
455.073	839.06
455.294	856.06
455.514	827.06
455.734	800.06
455.955	819.06
456.175	820.06
456.395	813.06
456.616	799.06
456.836	823.06
457.056	808.06
457.276	811.06
457.497	830.06
457.717	827.06
457.937	814.06
458.157	830.06
458.377	851.06
458.598	845.06
458.818	866.06
459.038	891.06
459.258	912.06
459.478	953.06
459.698	1004.06
459.918	1033.06
460.138	1074.06
460.358	1146.06
460.578	1120.06
460.798	1147.06
461.018	1166.06
461.238	1118.06
461.458	1112.06
461.678	1124.06
461.898	1135.06
462.118	1134.06
462.338	1211.06
462.558	1235.06
462.777	1288.06
462.997	1400.06
463.217	1583.06
463.437	1611.06
463.657	1454.06
463.876	1371.06
464.096	1319.06
464.316	1361.06
464.536	1383.06
464.755	1293.06
464.975	1215.06
465.195	1175.06
465.414	1113.06
465.634	1043.06
465.854	1021.06
466.073	973.06
466.293	950.06
466.512	926.06
466.732	929.06
466.951	913.06
467.171	924.06
467.391	934.06
467.61	929.06
467.829	939.06
468.049	895.06
468.268	858.06
468.488	889.06
468.707	849.06
468.927	876.06
469.146	861.06
469.365	903.06
469.585	891.06
469.804	903.06
470.023	907.06
470.243	948.06
470.462	943.06
470.681	968.06
470.901	976.06
471.12	916.06
471.339	931.06
471.558	900.06
471.777	874.06
471.997	889.06
472.216	913.06
472.435	865.06
472.654	860.06
472.873	830.06
473.092	841.06
473.311	851.06
473.53	885.06
473.749	847.06
473.968	853.06
474.187	839.06
474.406	820.06
474.625	861.06
474.844	850.06
475.063	869.06
475.282	863.06
475.501	850.06
475.72	886.06
475.939	869.06
476.158	894.06
476.377	885.06
476.596	870.06
476.814	902.06
477.033	888.06
477.252	931.06
477.471	927.06
477.69	969.06
477.908	1024.06
478.127	1045.06
478.346	1019.06
478.564	1043.06
478.783	1062.06
479.002	1086.06
479.22	1112.06
479.439	1076.06
479.658	1060.06
479.876	1058.06
480.095	1084.06
480.313	1130.06
480.532	1195.06
480.751	1173.06
480.969	1093.06
481.188	1081.06
481.406	1027.06
481.624	1003.06
481.843	983.06
482.061	997.06
482.28	979.06
482.498	986.06
482.717	945.06
482.935	986.06
483.153	978.06
483.372	988.06
483.59	1003.06
483.808	975.06
484.027	968.06
484.245	995.06
484.463	1001.06
484.681	996.06
484.9	1027.06
485.118	1040.06
485.336	1021.06
485.554	1035.06
485.772	1029.06
485.99	1053.06
486.209	1068.06
486.427	1091.06
486.645	1065.06
486.863	1040.06
487.081	1068.06
487.299	1041.06
487.517	1050.06
487.735	1028.06
487.953	1039.06
488.171	1058.06
488.389	1042.06
488.607	1015.06
488.825	1032.06
489.043	1013.06
489.261	987.06
489.479	1008.06
489.696	1023.06
489.914	1033.06
490.132	1015.06
490.35	1051.06
490.568	1062.06
490.786	1073.06
491.003	1078.06
491.221	1058.06
491.439	1074.06
491.657	1074.06
491.874	1052.06
492.092	1075.06
492.31	1074.06
492.527	1065.06
492.745	1073.06
492.963	1081.06
493.18	1070.06
493.398	1087.06
493.615	1090.06
493.833	1059.06
494.05	1068.06
494.268	1099.06
494.485	1110.06
494.703	1110.06
494.92	1081.06
495.138	1110.06
495.355	1082.06
495.573	1098.06
495.79	1088.06
496.008	1094.06
496.225	1132.06
496.442	1132.06
496.66	1120.06
496.877	1148.06
497.094	1152.06
497.312	1199.06
497.529	1193.06
497.746	1192.06
497.963	1255.06
498.181	1308.06
498.398	1385.06
498.615	1423.06
498.832	1521.06
499.049	1660.06
499.267	1784.06
499.484	2025.06
499.701	2181.06
499.918	2459.06
500.135	2879.06
500.352	3377.06
500.569	3554.06
500.786	3521.06
501.003	3218.06
501.22	2794.06
501.437	2462.06
501.654	2167.06
501.871	1910.06
502.088	1779.06
502.305	1647.06
502.522	1559.06
502.739	1494.06
502.956	1410.06
503.172	1351.06
503.389	1320.06
503.606	1241.06
503.823	1239.06
504.04	1246.06
504.256	1231.06
504.473	1302.06
504.69	1345.06
504.907	1311.06
505.123	1211.06
505.34	1141.06
505.557	1121.06
505.773	1083.06
505.99	1026.06
506.207	1038.06
506.423	1037.06
506.64	984.06
506.856	981.06
507.073	965.06
507.289	991.06
507.506	957.06
507.722	961.06
507.939	935.06
508.155	937.06
508.372	926.06
508.588	937.06
508.805	924.06
509.021	910.06
509.238	912.06
509.454	907.06
509.67	899.06
509.887	922.06
510.103	923.06
510.319	902.06
510.536	910.06
510.752	883.06
510.968	917.06
511.184	892.06
511.401	894.06
511.617	874.06
511.833	908.06
512.049	900.06
512.265	936.06
512.481	876.06
512.698	896.06
512.914	885.06
513.13	882.06
513.346	897.06
513.562	876.06
513.778	877.06
513.994	898.06
514.21	887.06
514.426	911.06
514.642	918.06
514.858	910.06
515.074	918.06
515.29	910.06
515.506	934.06
515.721	927.06
515.937	940.06
516.153	947.06
516.369	981.06
516.585	1059.06
516.801	1089.06
517.016	1115.06
517.232	1134.06
517.448	1182.06
517.664	1257.06
517.879	1288.06
518.095	1277.06
518.311	1236.06
518.527	1159.06
518.742	1112.06
518.958	1062.06
519.173	1048.06
519.389	1015.06
519.605	967.06
519.82	950.06
520.036	951.06
520.251	937.06
520.467	937.06
520.682	903.06
520.898	880.06
521.113	894.06
521.329	889.06
521.544	858.06
521.76	864.06
521.975	853.06
522.19	864.06
522.406	855.06
522.621	866.06
522.836	826.06
523.052	823.06
523.267	841.06
523.482	826.06
523.698	840.06
523.913	843.06
524.128	843.06
524.343	829.06
524.559	825.06
524.774	835.06
524.989	834.06
525.204	794.06
525.419	813.06
525.634	817.06
525.849	835.06
526.064	797.06
526.28	832.06
526.495	797.06
526.71	807.06
526.925	779.06
527.14	809.06
527.355	806.06
527.57	795.06
527.785	814.06
527.999	817.06
528.214	830.06
528.429	801.06
528.644	813.06
528.859	814.06
529.074	817.06
529.289	839.06
529.503	823.06
529.718	822.06
529.933	827.06
530.148	797.06
530.363	797.06
530.577	806.06
530.792	802.06
531.007	793.06
531.221	829.06
531.436	821.06
531.651	818.06
531.865	827.06
532.08	790.06
532.295	808.06
532.509	809.06
532.724	808.06
532.938	823.06
533.153	818.06
533.367	839.06
533.582	807.06
533.796	814.06
534.011	798.06
534.225	811.06
534.44	803.06
534.654	791.06
534.868	783.06
535.083	779.06
535.297	814.06
535.511	801.06
535.726	814.06
535.94	773.06
536.154	757.06
536.369	779.06
536.583	777.06
536.797	746.06
537.011	775.06
537.225	759.06
537.44	741.06
537.654	770.06
537.868	746.06
538.082	771.06
538.296	743.06
538.51	749.06
538.724	740.06
538.938	740.06
539.153	774.06
539.367	746.06
539.581	706.06
539.795	737.06
540.009	716.06
540.222	738.06
540.436	746.06
540.65	733.06
540.864	743.06
541.078	764.06
541.292	741.06
541.506	729.06
541.72	733.06
541.934	736.06
542.147	744.06
542.361	741.06
542.575	719.06
542.789	721.06
543.002	712.06
543.216	717.06
543.43	718.06
543.644	704.06
543.857	707.06
544.071	714.06
544.285	717.06
544.498	718.06
544.712	754.06
544.925	748.06
545.139	726.06
545.352	744.06
545.566	757.06
545.779	756.06
545.993	746.06
546.206	762.06
546.42	713.06
546.633	761.06
546.847	722.06
547.06	748.06
547.274	731.06
547.487	745.06
547.7	749.06
547.914	755.06
548.127	762.06
548.34	759.06
548.554	773.06
548.767	738.06
548.98	777.06
549.193	749.06
549.407	782.06
549.62	757.06
549.833	788.06
550.046	822.06
550.259	771.06
550.473	742.06
550.686	745.06
550.899	715.06
551.112	738.06
551.325	729.06
551.538	707.06
551.751	722.06
551.964	703.06
552.177	732.06
552.39	733.06
552.603	770.06
552.816	775.06
553.029	807.06
553.242	815.06
553.455	812.06
553.667	841.06
553.88	852.06
554.093	785.06
554.306	800.06
554.519	755.06
554.732	765.06
554.944	719.06
555.157	739.06
555.37	701.06
555.583	721.06
555.795	691.06
556.008	673.06
556.221	663.06
556.433	659.06
556.646	641.06
556.859	651.06
557.071	658.06
557.284	647.06
557.496	638.06
557.709	661.06
557.921	618.06
558.134	637.06
558.346	621.06
558.559	637.06
558.771	633.06
558.984	619.06
559.196	614.06
559.409	607.06
559.621	620.06
559.833	615.06
560.046	628.06
560.258	607.06
560.47	607.06
560.683	606.06
560.895	611.06
561.107	593.06
561.32	607.06
561.532	619.06
561.744	636.06
561.956	625.06
562.168	622.06
562.381	605.06
562.593	636.06
562.805	598.06
563.017	623.06
563.229	621.06
563.441	615.06
563.653	625.06
563.865	632.06
564.077	641.06
564.289	643.06
564.501	641.06
564.713	639.06
564.925	659.06
565.137	690.06
565.349	673.06
565.561	714.06
565.773	708.06
565.985	723.06
566.197	789.06
566.408	866.06
566.62	917.06
566.832	1017.06
567.044	1042.06
567.255	1018.06
567.467	1031.06
567.679	1100.06
567.891	1233.06
568.102	1279.06
568.314	1218.06
568.526	1041.06
568.737	952.06
568.949	869.06
569.161	798.06
569.372	733.06
569.584	694.06
569.795	663.06
570.007	641.06
570.218	635.06
570.43	644.06
570.641	631.06
570.853	607.06
571.064	616.06
571.276	668.06
571.487	633.06
571.698	607.06
571.91	583.06
572.121	553.06
572.333	538.06
572.544	543.06
572.755	563.06
572.966	535.06
573.178	532.06
573.389	527.06
573.6	539.06
573.811	516.06
574.023	541.06
574.234	536.06
574.445	506.06
574.656	505.06
574.867	515.06
575.078	526.06
575.289	519.06
575.501	518.06
575.712	501.06
575.923	490.06
576.134	475.06
576.345	495.06
576.556	497.06
576.767	490.06
576.978	486.06
577.188	455.06
577.399	477.06
577.61	475.06
577.821	476.06
578.032	458.06
578.243	481.06
578.454	459.06
578.665	461.06
578.875	452.06
579.086	431.06
579.297	454.06
579.508	451.06
579.718	453.06
579.929	461.06
580.14	438.06
580.35	451.06
580.561	443.06
580.772	450.06
580.982	426.06
581.193	434.06
581.403	451.06
581.614	453.06
581.825	439.06
582.035	435.06
582.246	418.06
582.456	423.06
582.667	419.06
582.877	447.06
583.087	444.06
583.298	443.06
583.508	421.06
583.719	421.06
583.929	417.06
584.139	426.06
584.35	422.06
584.56	408.06
584.77	420.06
584.981	415.06
585.191	420.06
585.401	425.06
585.611	423.06
585.821	403.06
586.032	418.06
586.242	411.06
586.452	430.06
586.662	415.06
586.872	426.06
587.082	387.06
587.292	400.06
587.502	427.06
587.713	409.06
587.923	410.06
588.133	404.06
588.343	397.06
588.553	389.06
588.762	403.06
588.972	400.06
589.182	433.06
589.392	404.06
589.602	411.06
589.812	415.06
590.022	399.06
590.232	421.06
590.441	427.06
590.651	429.06
590.861	419.06
591.071	418.06
591.281	426.06
591.49	409.06
591.7	437.06
591.91	449.06
592.119	458.06
592.329	455.06
592.539	474.06
592.748	471.06
592.958	508.06
593.167	531.06
593.377	510.06
593.587	533.06
593.796	533.06
594.006	545.06
594.215	541.06
594.424	541.06
594.634	541.06
594.843	506.06
595.053	470.06
595.262	469.06
595.472	465.06
595.681	429.06
595.89	408.06
596.1	409.06
596.309	419.06
596.518	380.06
596.727	396.06
596.937	387.06
597.146	369.06
597.355	372.06
597.564	380.06
597.774	374.06
597.983	371.06
598.192	383.06
598.401	349.06
598.61	364.06
598.819	354.06
599.028	341.06
599.237	347.06
599.446	365.06
599.655	355.06
599.864	361.06
600.073	362.06
600.282	342.06
600.491	341.06
600.7	350.06
600.909	333.06
601.118	335.06
601.327	338.06
601.536	349.06
601.745	356.06
601.953	338.06
602.162	358.06
602.371	318.06
602.58	346.06
602.789	349.06
602.997	339.06
603.206	341.06
603.415	364.06
603.623	346.06
603.832	341.06
604.041	333.06
604.249	313.06
604.458	336.06
604.666	335.06
604.875	317.06
605.084	340.06
605.292	332.06
605.501	312.06
605.709	331.06
605.918	330.06
606.126	337.06
606.334	325.06
606.543	333.06
606.751	330.06
606.96	312.06
607.168	311.06
607.376	306.06
607.585	333.06
607.793	306.06
608.001	310.06
608.21	326.06
608.418	330.06
608.626	319.06
608.834	300.06
609.043	311.06
609.251	306.06
609.459	309.06
609.667	310.06
609.875	325.06
610.083	313.06
610.291	330.06
610.499	301.06
610.707	312.06
610.916	318.06
611.124	297.06
611.332	312.06
611.54	292.06
611.748	314.06
611.955	293.06
612.163	326.06
612.371	310.06
612.579	316.06
612.787	314.06
612.995	313.06
613.203	292.06
613.411	300.06
613.618	306.06
613.826	299.06
614.034	309.06
614.242	306.06
614.449	291.06
614.657	300.06
614.865	291.06
615.072	314.06
615.28	290.06
615.488	306.06
615.695	292.06
615.903	301.06
616.111	291.06
616.318	311.06
616.526	296.06
616.733	318.06
616.941	329.06
617.148	316.06
617.356	317.06
617.563	323.06
617.771	300.06
617.978	287.06
618.185	310.06
618.393	297.06
618.6	297.06
618.807	286.06
619.015	314.06
619.222	287.06
619.429	274.06
619.637	300.06
619.844	300.06
620.051	295.06
620.258	292.06
620.466	276.06
620.673	280.06
620.88	282.06
621.087	289.06
621.294	270.06
621.501	270.06
621.708	305.06
621.915	275.06
622.122	276.06
622.329	302.06
622.536	289.06
622.743	270.06
622.95	261.06
623.157	266.06
623.364	274.06
623.571	286.06
623.778	272.06
623.985	282.06
624.192	252.06
624.399	275.06
624.606	273.06
624.812	276.06
625.019	269.06
625.226	251.06
625.433	282.06
625.639	267.06
625.846	236.06
626.053	276.06
626.259	249.06
626.466	249.06
626.673	262.06
626.879	257.06
627.086	259.06
627.293	259.06
627.499	262.06
627.706	265.06
627.912	255.06
628.119	253.06
628.325	259.06
628.532	258.06
628.738	248.06
628.945	255.06
629.151	245.06
629.357	246.06
629.564	245.06
629.77	243.06
629.976	231.06
630.183	246.06
630.389	242.06
630.595	245.06
630.802	226.06
631.008	235.06
631.214	216.06
631.42	221.06
631.627	240.06
631.833	241.06
632.039	215.06
632.245	222.06
632.451	231.06
632.657	222.06
632.863	233.06
633.069	235.06
633.275	217.06
633.481	206.06
633.688	222.06
633.893	220.06
634.099	227.06
634.305	230.06
634.511	215.06
634.717	223.06
634.923	215.06
635.129	214.06
635.335	212.06
635.541	209.06
635.747	214.06
635.952	231.06
636.158	222.06
636.364	212.06
636.57	203.06
636.775	214.06
636.981	210.06
637.187	230.06
637.392	214.06
637.598	234.06
637.804	228.06
638.009	206.06
638.215	214.06
638.421	219.06
638.626	219.06
638.832	201.06
639.037	211.06
639.243	238.06
639.448	194.06
639.654	204.06
639.859	186.06
640.065	205.06
640.27	201.06
640.475	212.06
640.681	203.06
640.886	216.06
641.091	219.06
641.297	203.06
641.502	193.06
641.707	187.06
641.913	209.06
642.118	190.06
642.323	197.06
642.528	208.06
642.733	191.06
642.939	205.06
643.144	189.06
643.349	181.06
643.554	209.06
643.759	197.06
643.964	201.06
644.169	198.06
644.374	190.06
644.579	191.06
644.784	196.06
644.989	182.06
645.194	194.06
645.399	193.06
645.604	188.06
645.809	204.06
646.014	200.06
646.219	190.06
646.423	187.06
646.628	199.06
646.833	186.06
647.038	176.06
647.243	200.06
647.447	187.06
647.652	198.06
647.857	202.06
648.062	205.06
648.266	216.06
648.471	216.06
648.676	207.06
648.88	194.06
649.085	187.06
649.289	209.06
649.494	203.06
649.698	197.06
649.903	198.06
650.107	187.06
650.312	198.06
650.516	203.06
650.721	201.06
650.925	186.06
651.13	159.06
651.334	185.06
651.539	187.06
651.743	174.06
651.947	165.06
652.152	178.06
652.356	173.06
652.56	169.06
652.764	164.06
652.969	170.06
653.173	173.06
653.377	166.06
653.581	158.06
653.785	161.06
653.99	147.06
654.194	158.06
654.398	131.06
654.602	142.06
654.806	154.06
655.01	145.06
655.214	155.06
655.418	151.06
655.622	158.06
655.826	158.06
656.03	141.06
656.234	149.06
656.438	127.06
656.642	138.06
656.846	129.06
657.049	147.06
657.253	144.06
657.457	129.06
657.661	142.06
657.865	119.06
658.068	104.06
658.272	109.06
658.476	118.06
658.68	118.06
658.883	100.06
659.087	116.06
659.291	100.06
659.494	90.06
659.698	101.06
659.901	95.06
660.105	108.06
660.309	104.06
660.512	96.06
660.716	91.06
660.919	98.06
661.123	94.06
661.326	93.06
661.53	104.06
661.733	92.06
661.936	97.06
662.14	86.06
662.343	95.06
662.546	90.06
662.75	84.06
662.953	90.06
663.156	77.06
663.36	67.06
663.563	89.06
663.766	81.06
663.969	79.06
664.173	87.06
664.376	78.06
664.579	101.06
664.782	76.06
664.985	90.06
665.188	82.06
665.391	84.06
665.594	98.06
665.797	90.06
666	81.06
666.203	84.06
666.406	89.06
666.609	78.06
666.812	83.06
667.015	74.06
667.218	96.06
667.421	71.06
667.624	88.06
667.827	82.06
668.03	82.06
668.232	84.06
668.435	63.06
668.638	80.06
668.841	81.06
669.043	92.06
669.246	81.06
669.449	82.06
669.651	80.06
669.854	78.06
670.057	68.06
670.259	90.06
670.462	89.06
670.665	82.06
670.867	66.06
671.07	84.06
671.272	77.06
671.475	101.06
671.677	93.06
671.88	68.06
672.082	81.06
672.284	77.06
672.487	84.06
672.689	70.06
672.892	94.06
