Data from Ni(NO3)2@0.5M.TitratingCurve.Agarose3%dH2O.NegLispCup.LampEnergy10.LIBS07252019_HRD10591_17-58-05-564.txt Node
Date: Thu Jul 25 17:58:05 EDT 2019
User: cochatt
Spectrometer: HR+D1059
Trigger mode: 1
Integration Time (sec): 1.000000E-1
Scans to average: 1
Electric dark correction enabled: true
Nonlinearity correction enabled: false
Boxcar width: 0
XAxis mode: Wavelengths
Number of Pixels in Spectrum: 2048
>>>>>Begin Spectral Data<<<<<
223.165	-7.38
223.4	-7.38
223.635	-7.38
223.869	-22.38
224.104	-3.38
224.338	-5.38
224.573	-16.38
224.808	-18.38
225.042	-19.38
225.277	-5.38
225.511	-16.38
225.746	11.62
225.98	10.62
226.215	-0.38
226.449	9.62
226.683	20.62
226.918	36.62
227.152	25.62
227.387	36.62
227.621	36.62
227.856	41.62
228.09	44.62
228.324	43.62
228.559	59.62
228.793	71.62
229.027	178.62
229.262	187.62
229.496	176.62
229.73	179.62
229.964	211.62
230.199	259.62
230.433	258.62
230.667	236.62
230.901	241.62
231.136	213.62
231.37	208.62
231.604	226.62
231.838	269.62
232.072	273.62
232.306	231.62
232.541	230.62
232.775	200.62
233.009	218.62
233.243	204.62
233.477	203.62
233.711	203.62
233.945	216.62
234.179	220.62
234.413	204.62
234.647	235.62
234.881	223.62
235.115	225.62
235.349	198.62
235.583	208.62
235.817	193.62
236.051	207.62
236.285	203.62
236.519	210.62
236.753	223.62
236.987	211.62
237.221	216.62
237.455	226.62
237.689	220.62
237.922	239.62
238.156	228.62
238.39	223.62
238.624	219.62
238.858	227.62
239.091	226.62
239.325	257.62
239.559	252.62
239.793	290.62
240.027	324.62
240.26	263.62
240.494	237.62
240.728	234.62
240.961	247.62
241.195	245.62
241.429	276.62
241.662	275.62
241.896	298.62
242.13	332.62
242.363	284.62
242.597	260.62
242.83	282.62
243.064	263.62
243.298	280.62
243.531	278.62
243.765	278.62
243.998	300.62
244.232	312.62
244.465	303.62
244.699	304.62
244.932	304.62
245.166	312.62
245.399	310.62
245.633	306.62
245.866	319.62
246.099	306.62
246.333	310.62
246.566	314.62
246.8	307.62
247.033	327.62
247.266	331.62
247.5	334.62
247.733	319.62
247.966	338.62
248.2	325.62
248.433	349.62
248.666	342.62
248.899	347.62
249.133	354.62
249.366	357.62
249.599	364.62
249.832	362.62
250.066	371.62
250.299	393.62
250.532	364.62
250.765	398.62
250.998	405.62
251.231	417.62
251.465	457.62
251.698	427.62
251.931	422.62
252.164	408.62
252.397	424.62
252.63	396.62
252.863	415.62
253.096	417.62
253.329	432.62
253.562	436.62
253.795	437.62
254.028	440.62
254.261	433.62
254.494	444.62
254.727	425.62
254.96	447.62
255.193	467.62
255.426	459.62
255.659	478.62
255.892	465.62
256.124	460.62
256.357	477.62
256.59	484.62
256.823	470.62
257.056	490.62
257.289	499.62
257.521	488.62
257.754	489.62
257.987	504.62
258.22	514.62
258.452	493.62
258.685	480.62
258.918	502.62
259.151	523.62
259.383	518.62
259.616	519.62
259.849	543.62
260.081	545.62
260.314	533.62
260.547	558.62
260.779	547.62
261.012	541.62
261.244	532.62
261.477	552.62
261.71	550.62
261.942	567.62
262.175	569.62
262.407	566.62
262.64	548.62
262.872	585.62
263.105	561.62
263.337	565.62
263.57	592.62
263.802	596.62
264.035	609.62
264.267	572.62
264.499	574.62
264.732	586.62
264.964	577.62
265.197	609.62
265.429	623.62
265.661	600.62
265.894	617.62
266.126	606.62
266.358	605.62
266.591	614.62
266.823	628.62
267.055	617.62
267.287	621.62
267.52	632.62
267.752	643.62
267.984	633.62
268.216	632.62
268.448	641.62
268.681	645.62
268.913	634.62
269.145	635.62
269.377	637.62
269.609	649.62
269.841	651.62
270.073	642.62
270.306	653.62
270.538	651.62
270.77	649.62
271.002	661.62
271.234	647.62
271.466	659.62
271.698	679.62
271.93	673.62
272.162	667.62
272.394	679.62
272.626	673.62
272.858	691.62
273.09	675.62
273.322	688.62
273.553	707.62
273.785	695.62
274.017	706.62
274.249	708.62
274.481	717.62
274.713	703.62
274.945	713.62
275.176	717.62
275.408	688.62
275.64	723.62
275.872	753.62
276.104	721.62
276.335	730.62
276.567	726.62
276.799	742.62
277.031	706.62
277.262	729.62
277.494	719.62
277.726	739.62
277.957	753.62
278.189	759.62
278.421	753.62
278.652	759.62
278.884	764.62
279.115	759.62
279.347	760.62
279.579	758.62
279.81	727.62
280.042	759.62
280.273	773.62
280.505	780.62
280.736	761.62
280.968	798.62
281.199	788.62
281.431	782.62
281.662	772.62
281.894	781.62
282.125	765.62
282.356	781.62
282.588	804.62
282.819	773.62
283.051	769.62
283.282	795.62
283.513	801.62
283.745	806.62
283.976	811.62
284.207	817.62
284.439	849.62
284.67	810.62
284.901	859.62
285.132	823.62
285.364	822.62
285.595	836.62
285.826	835.62
286.057	815.62
286.288	818.62
286.52	833.62
286.751	850.62
286.982	855.62
287.213	840.62
287.444	848.62
287.675	837.62
287.906	861.62
288.138	855.62
288.369	839.62
288.6	849.62
288.831	842.62
289.062	840.62
289.293	841.62
289.524	861.62
289.755	851.62
289.986	875.62
290.217	875.62
290.448	851.62
290.679	866.62
290.91	841.62
291.141	849.62
291.371	848.62
291.602	887.62
291.833	876.62
292.064	845.62
292.295	829.62
292.526	874.62
292.757	869.62
292.987	887.62
293.218	835.62
293.449	883.62
293.68	873.62
293.91	883.62
294.141	854.62
294.372	873.62
294.603	897.62
294.833	880.62
295.064	873.62
295.295	849.62
295.525	859.62
295.756	887.62
295.987	879.62
296.217	892.62
296.448	872.62
296.679	881.62
296.909	895.62
297.14	899.62
297.37	890.62
297.601	891.62
297.831	887.62
298.062	895.62
298.292	901.62
298.523	934.62
298.753	950.62
298.984	914.62
299.214	940.62
299.445	929.62
299.675	955.62
299.905	918.62
300.136	942.62
300.366	979.62
300.597	1002.62
300.827	968.62
301.057	965.62
301.288	1002.62
301.518	979.62
301.748	972.62
301.979	973.62
302.209	979.62
302.439	970.62
302.669	963.62
302.9	978.62
303.13	968.62
303.36	979.62
303.59	976.62
303.82	984.62
304.051	1026.62
304.281	1004.62
304.511	989.62
304.741	972.62
304.971	1012.62
305.201	1039.62
305.431	1017.62
305.661	1021.62
305.891	1014.62
306.121	1002.62
306.352	1014.62
306.582	1028.62
306.812	995.62
307.042	1011.62
307.272	1003.62
307.502	1007.62
307.731	1017.62
307.961	1000.62
308.191	1023.62
308.421	1007.62
308.651	997.62
308.881	1015.62
309.111	1017.62
309.341	1010.62
309.571	1055.62
309.8	1058.62
310.03	1068.62
310.26	1074.62
310.49	1082.62
310.72	1088.62
310.949	1045.62
311.179	1047.62
311.409	1057.62
311.639	1090.62
311.868	1067.62
312.098	1089.62
312.328	1066.62
312.557	1086.62
312.787	1085.62
313.017	1080.62
313.246	1110.62
313.476	1107.62
313.706	1123.62
313.935	1105.62
314.165	1110.62
314.394	1104.62
314.624	1111.62
314.853	1071.62
315.083	1105.62
315.312	1135.62
315.542	1145.62
315.771	1140.62
316.001	1133.62
316.23	1147.62
316.46	1162.62
316.689	1189.62
316.919	1155.62
317.148	1164.62
317.377	1154.62
317.607	1149.62
317.836	1171.62
318.065	1167.62
318.295	1179.62
318.524	1195.62
318.753	1180.62
318.983	1217.62
319.212	1157.62
319.441	1191.62
319.67	1232.62
319.9	1217.62
320.129	1210.62
320.358	1222.62
320.587	1212.62
320.816	1232.62
321.046	1237.62
321.275	1222.62
321.504	1188.62
321.733	1249.62
321.962	1259.62
322.191	1270.62
322.42	1273.62
322.649	1237.62
322.878	1290.62
323.108	1258.62
323.337	1265.62
323.566	1261.62
323.795	1289.62
324.024	1285.62
324.253	1280.62
324.482	1302.62
324.71	1319.62
324.939	1293.62
325.168	1298.62
325.397	1317.62
325.626	1283.62
325.855	1322.62
326.084	1329.62
326.313	1297.62
326.542	1311.62
326.77	1308.62
326.999	1326.62
327.228	1293.62
327.457	1321.62
327.686	1355.62
327.914	1351.62
328.143	1332.62
328.372	1332.62
328.6	1336.62
328.829	1355.62
329.058	1378.62
329.287	1356.62
329.515	1368.62
329.744	1379.62
329.972	1370.62
330.201	1367.62
330.43	1357.62
330.658	1388.62
330.887	1407.62
331.115	1369.62
331.344	1420.62
331.572	1396.62
331.801	1417.62
332.03	1430.62
332.258	1412.62
332.486	1440.62
332.715	1409.62
332.943	1414.62
333.172	1453.62
333.4	1451.62
333.629	1449.62
333.857	1472.62
334.085	1508.62
334.314	1491.62
334.542	1469.62
334.771	1508.62
334.999	1473.62
335.227	1484.62
335.455	1472.62
335.684	1503.62
335.912	1483.62
336.14	1516.62
336.369	1542.62
336.597	1540.62
336.825	1504.62
337.053	1547.62
337.281	1574.62
337.51	1520.62
337.738	1541.62
337.966	1507.62
338.194	1559.62
338.422	1531.62
338.65	1469.62
338.878	1496.62
339.106	1515.62
339.334	1520.62
339.562	1506.62
339.79	1436.62
340.018	1475.62
340.246	1455.62
340.474	1469.62
340.702	1474.62
340.93	1443.62
341.158	1511.62
341.386	1543.62
341.614	1600.62
341.842	1552.62
342.07	1500.62
342.298	1463.62
342.526	1495.62
342.754	1477.62
342.981	1466.62
343.209	1513.62
343.437	1477.62
343.665	1541.62
343.893	1507.62
344.12	1541.62
344.348	1494.62
344.576	1525.62
344.804	1580.62
345.031	1555.62
345.259	1496.62
345.487	1528.62
345.714	1532.62
345.942	1571.62
346.17	1561.62
346.397	1504.62
346.625	1466.62
346.853	1460.62
347.08	1473.62
347.308	1493.62
347.535	1481.62
347.763	1442.62
347.99	1460.62
348.218	1432.62
348.445	1439.62
348.673	1453.62
348.9	1427.62
349.128	1462.62
349.355	1492.62
349.583	1524.62
349.81	1414.62
350.037	1400.62
350.265	1473.62
350.492	1450.62
350.72	1400.62
350.947	1433.62
351.174	1487.62
351.402	1509.62
351.629	1525.62
351.856	1527.62
352.083	1471.62
352.311	1491.62
352.538	1483.62
352.765	1487.62
352.992	1399.62
353.22	1369.62
353.447	1398.62
353.674	1407.62
353.901	1401.62
354.128	1395.62
354.355	1398.62
354.583	1417.62
354.81	1380.62
355.037	1411.62
355.264	1407.62
355.491	1406.62
355.718	1384.62
355.945	1382.62
356.172	1428.62
356.399	1440.62
356.626	1448.62
356.853	1478.62
357.08	1424.62
357.307	1455.62
357.534	1422.62
357.761	1429.62
357.988	1411.62
358.215	1401.62
358.441	1399.62
358.668	1420.62
358.895	1410.62
359.122	1421.62
359.349	1408.62
359.576	1433.62
359.802	1447.62
360.029	1431.62
360.256	1387.62
360.483	1411.62
360.709	1434.62
360.936	1445.62
361.163	1439.62
361.39	1403.62
361.616	1423.62
361.843	1445.62
362.07	1501.62
362.296	1480.62
362.523	1432.62
362.749	1436.62
362.976	1416.62
363.203	1452.62
363.429	1432.62
363.656	1443.62
363.882	1399.62
364.109	1397.62
364.335	1387.62
364.562	1409.62
364.788	1419.62
365.015	1433.62
365.241	1430.62
365.468	1448.62
365.694	1451.62
365.92	1426.62
366.147	1440.62
366.373	1425.62
366.599	1436.62
366.826	1441.62
367.052	1381.62
367.278	1442.62
367.505	1433.62
367.731	1429.62
367.957	1425.62
368.184	1453.62
368.41	1462.62
368.636	1404.62
368.862	1478.62
369.089	1441.62
369.315	1440.62
369.541	1468.62
369.767	1466.62
369.993	1432.62
370.219	1450.62
370.445	1462.62
370.672	1471.62
370.898	1460.62
371.124	1461.62
371.35	1482.62
371.576	1481.62
371.802	1452.62
372.028	1465.62
372.254	1507.62
372.48	1488.62
372.706	1473.62
372.932	1464.62
373.158	1469.62
373.384	1497.62
373.61	1441.62
373.835	1472.62
374.061	1494.62
374.287	1490.62
374.513	1506.62
374.739	1472.62
374.965	1472.62
375.191	1482.62
375.416	1472.62
375.642	1472.62
375.868	1469.62
376.094	1446.62
376.319	1447.62
376.545	1466.62
376.771	1458.62
376.997	1462.62
377.222	1457.62
377.448	1455.62
377.674	1478.62
377.899	1449.62
378.125	1433.62
378.35	1428.62
378.576	1418.62
378.802	1419.62
379.027	1423.62
379.253	1426.62
379.478	1443.62
379.704	1437.62
379.929	1430.62
380.155	1447.62
380.38	1405.62
380.606	1455.62
380.831	1401.62
381.057	1423.62
381.282	1478.62
381.507	1451.62
381.733	1465.62
381.958	1425.62
382.184	1456.62
382.409	1424.62
382.634	1403.62
382.86	1430.62
383.085	1458.62
383.31	1451.62
383.535	1476.62
383.761	1464.62
383.986	1447.62
384.211	1511.62
384.436	1495.62
384.662	1495.62
384.887	1505.62
385.112	1485.62
385.337	1494.62
385.562	1529.62
385.787	1519.62
386.013	1547.62
386.238	1512.62
386.463	1526.62
386.688	1485.62
386.913	1493.62
387.138	1535.62
387.363	1512.62
387.588	1533.62
387.813	1506.62
388.038	1527.62
388.263	1527.62
388.488	1529.62
388.713	1544.62
388.938	1568.62
389.163	1566.62
389.387	1520.62
389.612	1543.62
389.837	1546.62
390.062	1535.62
390.287	1522.62
390.512	1535.62
390.736	1550.62
390.961	1575.62
391.186	1559.62
391.411	1595.62
391.636	1559.62
391.86	1567.62
392.085	1572.62
392.31	1564.62
392.534	1572.62
392.759	1589.62
392.984	1565.62
393.208	1564.62
393.433	1569.62
393.658	1570.62
393.882	1583.62
394.107	1533.62
394.331	1587.62
394.556	1544.62
394.78	1533.62
395.005	1555.62
395.229	1577.62
395.454	1581.62
395.678	1534.62
395.903	1539.62
396.127	1570.62
396.352	1572.62
396.576	1580.62
396.801	1565.62
397.025	1580.62
397.249	1609.62
397.474	1592.62
397.698	1607.62
397.922	1658.62
398.147	1655.62
398.371	1631.62
398.595	1678.62
398.82	1697.62
399.044	1697.62
399.268	1700.62
399.492	1721.62
399.717	1752.62
399.941	1796.62
400.165	1752.62
400.389	1751.62
400.613	1712.62
400.837	1732.62
401.062	1699.62
401.286	1695.62
401.51	1682.62
401.734	1691.62
401.958	1659.62
402.182	1702.62
402.406	1639.62
402.63	1670.62
402.854	1671.62
403.078	1695.62
403.302	1671.62
403.526	1670.62
403.75	1675.62
403.974	1699.62
404.198	1687.62
404.422	1698.62
404.645	1679.62
404.869	1673.62
405.093	1704.62
405.317	1682.62
405.541	1720.62
405.765	1735.62
405.988	1721.62
406.212	1792.62
406.436	1730.62
406.66	1793.62
406.883	1731.62
407.107	1797.62
407.331	1785.62
407.555	1843.62
407.778	1812.62
408.002	1817.62
408.226	1822.62
408.449	1814.62
408.673	1778.62
408.896	1765.62
409.12	1739.62
409.344	1804.62
409.567	1747.62
409.791	1781.62
410.014	1766.62
410.238	1771.62
410.461	1738.62
410.685	1728.62
410.908	1721.62
411.132	1737.62
411.355	1755.62
411.578	1734.62
411.802	1711.62
412.025	1722.62
412.249	1717.62
412.472	1741.62
412.695	1700.62
412.919	1739.62
413.142	1688.62
413.365	1696.62
413.589	1701.62
413.812	1660.62
414.035	1712.62
414.258	1707.62
414.482	1660.62
414.705	1703.62
414.928	1687.62
415.151	1690.62
415.374	1712.62
415.597	1672.62
415.821	1640.62
416.044	1593.62
416.267	1637.62
416.49	1637.62
416.713	1627.62
416.936	1668.62
417.159	1636.62
417.382	1627.62
417.605	1607.62
417.828	1629.62
418.051	1616.62
418.274	1607.62
418.497	1591.62
418.72	1619.62
418.943	1595.62
419.166	1677.62
419.389	1745.62
419.611	1702.62
419.834	1673.62
420.057	1702.62
420.28	1647.62
420.503	1581.62
420.726	1603.62
420.948	1571.62
421.171	1608.62
421.394	1607.62
421.617	1597.62
421.839	1611.62
422.062	1596.62
422.285	1585.62
422.507	1619.62
422.73	1588.62
422.953	1577.62
423.175	1604.62
423.398	1635.62
423.621	1578.62
423.843	1609.62
424.066	1610.62
424.288	1615.62
424.511	1604.62
424.733	1581.62
424.956	1650.62
425.178	1597.62
425.401	1636.62
425.623	1640.62
425.846	1653.62
426.068	1616.62
426.291	1641.62
426.513	1632.62
426.735	1621.62
426.958	1675.62
427.18	1576.62
427.402	1605.62
427.625	1611.62
427.847	1596.62
428.069	1573.62
428.292	1625.62
428.514	1607.62
428.736	1601.62
428.958	1620.62
429.181	1562.62
429.403	1581.62
429.625	1631.62
429.847	1611.62
430.069	1601.62
430.292	1606.62
430.514	1580.62
430.736	1625.62
430.958	1575.62
431.18	1572.62
431.402	1594.62
431.624	1553.62
431.846	1605.62
432.068	1579.62
432.29	1621.62
432.512	1586.62
432.734	1623.62
432.956	1594.62
433.178	1621.62
433.4	1656.62
433.622	1676.62
433.844	1676.62
434.066	1660.62
434.287	1632.62
434.509	1595.62
434.731	1604.62
434.953	1607.62
435.175	1680.62
435.397	1725.62
435.618	1672.62
435.84	1624.62
436.062	1592.62
436.284	1638.62
436.505	1653.62
436.727	1603.62
436.949	1609.62
437.17	1634.62
437.392	1623.62
437.614	1600.62
437.835	1568.62
438.057	1608.62
438.278	1577.62
438.5	1576.62
438.721	1559.62
438.943	1602.62
439.165	1571.62
439.386	1611.62
439.608	1588.62
439.829	1611.62
440.05	1553.62
440.272	1602.62
440.493	1608.62
440.715	1615.62
440.936	1579.62
441.158	1607.62
441.379	1599.62
441.6	1632.62
441.822	1657.62
442.043	1632.62
442.264	1662.62
442.486	1587.62
442.707	1631.62
442.928	1623.62
443.149	1693.62
443.371	1643.62
443.592	1727.62
443.813	1703.62
444.034	1671.62
444.255	1661.62
444.476	1723.62
444.698	1707.62
444.919	1732.62
445.14	1764.62
445.361	1740.62
445.582	1660.62
445.803	1643.62
446.024	1597.62
446.245	1621.62
446.466	1643.62
446.687	1590.62
446.908	1587.62
447.129	1517.62
447.35	1562.62
447.571	1542.62
447.792	1513.62
448.013	1493.62
448.234	1516.62
448.455	1533.62
448.675	1520.62
448.896	1520.62
449.117	1488.62
449.338	1485.62
449.559	1500.62
449.779	1493.62
450	1490.62
450.221	1487.62
450.442	1457.62
450.662	1477.62
450.883	1510.62
451.104	1521.62
451.324	1492.62
451.545	1491.62
451.766	1487.62
451.986	1463.62
452.207	1452.62
452.428	1481.62
452.648	1459.62
452.869	1450.62
453.089	1489.62
453.31	1525.62
453.53	1440.62
453.751	1449.62
453.971	1447.62
454.192	1497.62
454.412	1502.62
454.633	1499.62
454.853	1473.62
455.073	1451.62
455.294	1507.62
455.514	1468.62
455.734	1497.62
455.955	1517.62
456.175	1536.62
456.395	1439.62
456.616	1440.62
456.836	1443.62
457.056	1447.62
457.276	1442.62
457.497	1482.62
457.717	1495.62
457.937	1462.62
458.157	1461.62
458.377	1469.62
458.598	1491.62
458.818	1495.62
459.038	1498.62
459.258	1523.62
459.478	1597.62
459.698	1698.62
459.918	1675.62
460.138	1664.62
460.358	1669.62
460.578	1638.62
460.798	1672.62
461.018	1686.62
461.238	1639.62
461.458	1658.62
461.678	1633.62
461.898	1655.62
462.118	1636.62
462.338	1703.62
462.558	1692.62
462.777	1722.62
462.997	1795.62
463.217	1776.62
463.437	1830.62
463.657	1832.62
463.876	1756.62
464.096	1770.62
464.316	1718.62
464.536	1722.62
464.755	1681.62
464.975	1657.62
465.195	1647.62
465.414	1655.62
465.634	1584.62
465.854	1582.62
466.073	1608.62
466.293	1558.62
466.512	1554.62
466.732	1541.62
466.951	1588.62
467.171	1597.62
467.391	1532.62
467.61	1589.62
467.829	1556.62
468.049	1537.62
468.268	1520.62
468.488	1549.62
468.707	1548.62
468.927	1559.62
469.146	1549.62
469.365	1591.62
469.585	1571.62
469.804	1533.62
470.023	1539.62
470.243	1521.62
470.462	1545.62
470.681	1536.62
470.901	1543.62
471.12	1539.62
471.339	1582.62
471.558	1545.62
471.777	1591.62
471.997	1541.62
472.216	1579.62
472.435	1576.62
472.654	1556.62
472.873	1528.62
473.092	1561.62
473.311	1595.62
473.53	1603.62
473.749	1577.62
473.968	1572.62
474.187	1580.62
474.406	1595.62
474.625	1600.62
474.844	1635.62
475.063	1629.62
475.282	1663.62
475.501	1621.62
475.72	1665.62
475.939	1657.62
476.158	1656.62
476.377	1651.62
476.596	1653.62
476.814	1681.62
477.033	1706.62
477.252	1728.62
477.471	1687.62
477.69	1747.62
477.908	1725.62
478.127	1776.62
478.346	1805.62
478.564	1799.62
478.783	1831.62
479.002	1858.62
479.22	1906.62
479.439	1884.62
479.658	1843.62
479.876	1833.62
480.095	1855.62
480.313	1872.62
480.532	1844.62
480.751	1840.62
480.969	1852.62
481.188	1833.62
481.406	1862.62
481.624	1876.62
481.843	1831.62
482.061	1829.62
482.28	1887.62
482.498	1878.62
482.717	1885.62
482.935	1903.62
483.153	1923.62
483.372	1982.62
483.59	2008.62
483.808	1917.62
484.027	1895.62
484.245	1915.62
484.463	1921.62
484.681	1930.62
484.9	1908.62
485.118	1928.62
485.336	1919.62
485.554	1922.62
485.772	1923.62
485.99	1892.62
486.209	1921.62
486.427	1929.62
486.645	1923.62
486.863	1936.62
487.081	1896.62
487.299	1934.62
487.517	1945.62
487.735	2003.62
487.953	2055.62
488.171	1983.62
488.389	1967.62
488.607	1932.62
488.825	1938.62
489.043	1903.62
489.261	1913.62
489.479	1932.62
489.696	1936.62
489.914	1893.62
490.132	1931.62
490.35	1969.62
490.568	1945.62
490.786	1962.62
491.003	1969.62
491.221	1999.62
491.439	1985.62
491.657	2019.62
491.874	2041.62
492.092	2019.62
492.31	2048.62
492.527	2013.62
492.745	2010.62
492.963	1993.62
493.18	1967.62
493.398	1980.62
493.615	2045.62
493.833	2008.62
494.05	2005.62
494.268	2010.62
494.485	2014.62
494.703	2027.62
494.92	2058.62
495.138	2024.62
495.355	2058.62
495.573	2050.62
495.79	2040.62
496.008	2028.62
496.225	2059.62
496.442	2096.62
496.66	2084.62
496.877	2098.62
497.094	2083.62
497.312	2148.62
497.529	2120.62
497.746	2131.62
497.963	2180.62
498.181	2214.62
498.398	2265.62
498.615	2285.62
498.832	2269.62
499.049	2330.62
499.267	2353.62
499.484	2423.62
499.701	2437.62
499.918	2492.62
500.135	2523.62
500.352	2554.62
500.569	2552.62
500.786	2545.62
501.003	2555.62
501.22	2540.62
501.437	2523.62
501.654	2425.62
501.871	2440.62
502.088	2370.62
502.305	2363.62
502.522	2344.62
502.739	2267.62
502.956	2231.62
503.172	2173.62
503.389	2169.62
503.606	2107.62
503.823	2109.62
504.04	2062.62
504.256	2092.62
504.473	2016.62
504.69	2019.62
504.907	2011.62
505.123	2003.62
505.34	1925.62
505.557	1973.62
505.773	1925.62
505.99	1888.62
506.207	1885.62
506.423	1857.62
506.64	1836.62
506.856	1849.62
507.073	1835.62
507.289	1851.62
507.506	1813.62
507.722	1804.62
507.939	1785.62
508.155	1825.62
508.372	1805.62
508.588	1776.62
508.805	1735.62
509.021	1748.62
509.238	1741.62
509.454	1690.62
509.67	1688.62
509.887	1737.62
510.103	1722.62
510.319	1659.62
510.536	1658.62
510.752	1686.62
510.968	1707.62
511.184	1644.62
511.401	1664.62
511.617	1666.62
511.833	1639.62
512.049	1676.62
512.265	1654.62
512.481	1675.62
512.698	1645.62
512.914	1647.62
513.13	1608.62
513.346	1643.62
513.562	1647.62
513.778	1656.62
513.994	1652.62
514.21	1636.62
514.426	1653.62
514.642	1667.62
514.858	1663.62
515.074	1665.62
515.29	1670.62
515.506	1659.62
515.721	1707.62
515.937	1677.62
516.153	1689.62
516.369	1674.62
516.585	1677.62
516.801	1682.62
517.016	1687.62
517.232	1658.62
517.448	1691.62
517.664	1651.62
517.879	1669.62
518.095	1685.62
518.311	1670.62
518.527	1667.62
518.742	1701.62
518.958	1624.62
519.173	1659.62
519.389	1649.62
519.605	1620.62
519.82	1632.62
520.036	1617.62
520.251	1570.62
520.467	1576.62
520.682	1576.62
520.898	1585.62
521.113	1615.62
521.329	1560.62
521.544	1564.62
521.76	1554.62
521.975	1573.62
522.19	1563.62
522.406	1565.62
522.621	1520.62
522.836	1569.62
523.052	1544.62
523.267	1491.62
523.482	1505.62
523.698	1521.62
523.913	1519.62
524.128	1512.62
524.343	1504.62
524.559	1499.62
524.774	1501.62
524.989	1499.62
525.204	1496.62
525.419	1492.62
525.634	1495.62
525.849	1504.62
526.064	1514.62
526.28	1472.62
526.495	1464.62
526.71	1444.62
526.925	1473.62
527.14	1454.62
527.355	1472.62
527.57	1404.62
527.785	1441.62
527.999	1460.62
528.214	1433.62
528.429	1473.62
528.644	1455.62
528.859	1441.62
529.074	1467.62
529.289	1455.62
529.503	1449.62
529.718	1439.62
529.933	1478.62
530.148	1382.62
530.363	1428.62
530.577	1441.62
530.792	1409.62
531.007	1432.62
531.221	1428.62
531.436	1404.62
531.651	1405.62
531.865	1425.62
532.08	1433.62
532.295	1409.62
532.509	1401.62
532.724	1380.62
532.938	1399.62
533.153	1379.62
533.367	1425.62
533.582	1375.62
533.796	1390.62
534.011	1407.62
534.225	1394.62
534.44	1376.62
534.654	1331.62
534.868	1369.62
535.083	1387.62
535.297	1337.62
535.511	1373.62
535.726	1371.62
535.94	1342.62
536.154	1327.62
536.369	1314.62
536.583	1314.62
536.797	1336.62
537.011	1307.62
537.225	1319.62
537.44	1318.62
537.654	1322.62
537.868	1317.62
538.082	1307.62
538.296	1274.62
538.51	1285.62
538.724	1335.62
538.938	1315.62
539.153	1305.62
539.367	1320.62
539.581	1296.62
539.795	1277.62
540.009	1277.62
540.222	1239.62
540.436	1271.62
540.65	1279.62
540.864	1268.62
541.078	1268.62
541.292	1299.62
541.506	1275.62
541.72	1268.62
541.934	1279.62
542.147	1285.62
542.361	1272.62
542.575	1273.62
542.789	1269.62
543.002	1260.62
543.216	1243.62
543.43	1240.62
543.644	1259.62
543.857	1249.62
544.071	1247.62
544.285	1252.62
544.498	1243.62
544.712	1260.62
544.925	1245.62
545.139	1237.62
545.352	1269.62
545.566	1250.62
545.779	1238.62
545.993	1242.62
546.206	1266.62
546.42	1247.62
546.633	1263.62
546.847	1233.62
547.06	1250.62
547.274	1242.62
547.487	1224.62
547.7	1235.62
547.914	1220.62
548.127	1249.62
548.34	1221.62
548.554	1211.62
548.767	1216.62
548.98	1201.62
549.193	1207.62
549.407	1219.62
549.62	1225.62
549.833	1200.62
550.046	1212.62
550.259	1193.62
550.473	1199.62
550.686	1180.62
550.899	1175.62
551.112	1181.62
551.325	1156.62
551.538	1192.62
551.751	1171.62
551.964	1193.62
552.177	1160.62
552.39	1170.62
552.603	1199.62
552.816	1201.62
553.029	1170.62
553.242	1147.62
553.455	1174.62
553.667	1166.62
553.88	1179.62
554.093	1131.62
554.306	1149.62
554.519	1099.62
554.732	1130.62
554.944	1126.62
555.157	1114.62
555.37	1132.62
555.583	1142.62
555.795	1148.62
556.008	1132.62
556.221	1085.62
556.433	1112.62
556.646	1098.62
556.859	1088.62
557.071	1079.62
557.284	1065.62
557.496	1084.62
557.709	1080.62
557.921	1052.62
558.134	1073.62
558.346	1064.62
558.559	1047.62
558.771	1053.62
558.984	1057.62
559.196	1075.62
559.409	1040.62
559.621	1051.62
559.833	1026.62
560.046	1017.62
560.258	1045.62
560.47	1044.62
560.683	1045.62
560.895	1048.62
561.107	1019.62
561.32	1038.62
561.532	1036.62
561.744	1019.62
561.956	1007.62
562.168	1003.62
562.381	981.62
562.593	1033.62
562.805	1013.62
563.017	1022.62
563.229	1026.62
563.441	1028.62
563.653	1038.62
563.865	1048.62
564.077	1007.62
564.289	1025.62
564.501	1051.62
564.713	1055.62
564.925	1031.62
565.137	1029.62
565.349	1023.62
565.561	1061.62
565.773	1066.62
565.985	1033.62
566.197	1065.62
566.408	1082.62
566.62	1105.62
566.832	1084.62
567.044	1057.62
567.255	1075.62
567.467	1082.62
567.679	1066.62
567.891	1093.62
568.102	1064.62
568.314	1051.62
568.526	1007.62
568.737	1015.62
568.949	987.62
569.161	978.62
569.372	977.62
569.584	984.62
569.795	950.62
570.007	945.62
570.218	946.62
570.43	930.62
570.641	942.62
570.853	933.62
571.064	900.62
571.276	922.62
571.487	908.62
571.698	896.62
571.91	867.62
572.121	897.62
572.333	874.62
572.544	860.62
572.755	833.62
572.966	848.62
573.178	840.62
573.389	841.62
573.6	836.62
573.811	826.62
574.023	831.62
574.234	817.62
574.445	841.62
574.656	793.62
574.867	789.62
575.078	799.62
575.289	802.62
575.501	794.62
575.712	765.62
575.923	791.62
576.134	801.62
576.345	788.62
576.556	773.62
576.767	744.62
576.978	758.62
577.188	769.62
577.399	768.62
577.61	760.62
577.821	739.62
578.032	745.62
578.243	753.62
578.454	749.62
578.665	763.62
578.875	725.62
579.086	760.62
579.297	759.62
579.508	717.62
579.718	721.62
579.929	728.62
580.14	692.62
580.35	697.62
580.561	706.62
580.772	703.62
580.982	681.62
581.193	713.62
581.403	696.62
581.614	721.62
581.825	677.62
582.035	706.62
582.246	688.62
582.456	701.62
582.667	710.62
582.877	678.62
583.087	679.62
583.298	668.62
583.508	687.62
583.719	688.62
583.929	699.62
584.139	664.62
584.35	670.62
584.56	658.62
584.77	653.62
584.981	645.62
585.191	674.62
585.401	661.62
585.611	655.62
585.821	651.62
586.032	641.62
586.242	648.62
586.452	641.62
586.662	649.62
586.872	656.62
587.082	647.62
587.292	647.62
587.502	645.62
587.713	659.62
587.923	649.62
588.133	647.62
588.343	630.62
588.553	634.62
588.762	631.62
588.972	652.62
589.182	732.62
589.392	687.62
589.602	643.62
589.812	698.62
590.022	684.62
590.232	647.62
590.441	627.62
590.651	627.62
590.861	628.62
591.071	645.62
591.281	612.62
591.49	627.62
591.7	641.62
591.91	632.62
592.119	630.62
592.329	603.62
592.539	623.62
592.748	629.62
592.958	616.62
593.167	631.62
593.377	638.62
593.587	621.62
593.796	615.62
594.006	613.62
594.215	611.62
594.424	611.62
594.634	600.62
594.843	618.62
595.053	604.62
595.262	615.62
595.472	601.62
595.681	609.62
595.89	606.62
596.1	586.62
596.309	578.62
596.518	587.62
596.727	574.62
596.937	561.62
597.146	588.62
597.355	579.62
597.564	564.62
597.774	554.62
597.983	561.62
598.192	541.62
598.401	540.62
598.61	554.62
598.819	541.62
599.028	549.62
599.237	536.62
599.446	538.62
599.655	525.62
599.864	528.62
600.073	524.62
600.282	530.62
600.491	537.62
600.7	533.62
600.909	543.62
601.118	539.62
601.327	532.62
601.536	506.62
601.745	511.62
601.953	504.62
602.162	507.62
602.371	532.62
602.58	491.62
602.789	515.62
602.997	513.62
603.206	501.62
603.415	511.62
603.623	493.62
603.832	486.62
604.041	497.62
604.249	497.62
604.458	489.62
604.666	495.62
604.875	493.62
605.084	469.62
605.292	485.62
605.501	487.62
605.709	500.62
605.918	501.62
606.126	484.62
606.334	489.62
606.543	480.62
606.751	498.62
606.96	481.62
607.168	472.62
607.376	474.62
607.585	472.62
607.793	485.62
608.001	476.62
608.21	451.62
608.418	484.62
608.626	477.62
608.834	470.62
609.043	488.62
609.251	455.62
609.459	473.62
609.667	451.62
609.875	449.62
610.083	473.62
610.291	467.62
610.499	463.62
610.707	446.62
610.916	450.62
611.124	443.62
611.332	434.62
611.54	450.62
611.748	450.62
611.955	454.62
612.163	457.62
612.371	445.62
612.579	449.62
612.787	455.62
612.995	447.62
613.203	433.62
613.411	458.62
613.618	441.62
613.826	423.62
614.034	437.62
614.242	433.62
614.449	436.62
614.657	433.62
614.865	430.62
615.072	461.62
615.28	461.62
615.488	440.62
615.695	448.62
615.903	439.62
616.111	444.62
616.318	441.62
616.526	417.62
616.733	425.62
616.941	435.62
617.148	433.62
617.356	435.62
617.563	419.62
617.771	436.62
617.978	423.62
618.185	403.62
618.393	414.62
618.6	431.62
618.807	409.62
619.015	411.62
619.222	409.62
619.429	422.62
619.637	391.62
619.844	406.62
620.051	421.62
620.258	385.62
620.466	421.62
620.673	388.62
620.88	380.62
621.087	413.62
621.294	407.62
621.501	400.62
621.708	403.62
621.915	389.62
622.122	397.62
622.329	408.62
622.536	382.62
622.743	393.62
622.95	415.62
623.157	396.62
623.364	386.62
623.571	385.62
623.778	402.62
623.985	399.62
624.192	386.62
624.399	396.62
624.606	391.62
624.812	397.62
625.019	376.62
625.226	375.62
625.433	380.62
625.639	373.62
625.846	385.62
626.053	372.62
626.259	348.62
626.466	374.62
626.673	375.62
626.879	368.62
627.086	371.62
627.293	354.62
627.499	374.62
627.706	360.62
627.912	375.62
628.119	347.62
628.325	367.62
628.532	356.62
628.738	346.62
628.945	354.62
629.151	356.62
629.357	359.62
629.564	353.62
629.77	355.62
629.976	348.62
630.183	345.62
630.389	344.62
630.595	332.62
630.802	345.62
631.008	354.62
631.214	348.62
631.42	336.62
631.627	353.62
631.833	348.62
632.039	345.62
632.245	359.62
632.451	337.62
632.657	328.62
632.863	335.62
633.069	335.62
633.275	337.62
633.481	335.62
633.688	327.62
633.893	332.62
634.099	325.62
634.305	324.62
634.511	323.62
634.717	343.62
634.923	325.62
635.129	323.62
635.335	303.62
635.541	322.62
635.747	337.62
635.952	333.62
636.158	326.62
636.364	316.62
636.57	324.62
636.775	321.62
636.981	326.62
637.187	320.62
637.392	318.62
637.598	340.62
637.804	347.62
638.009	317.62
638.215	316.62
638.421	335.62
638.626	314.62
638.832	337.62
639.037	324.62
639.243	319.62
639.448	316.62
639.654	315.62
639.859	317.62
640.065	316.62
640.27	331.62
640.475	313.62
640.681	328.62
640.886	308.62
641.091	312.62
641.297	316.62
641.502	304.62
641.707	315.62
641.913	307.62
642.118	308.62
642.323	310.62
642.528	309.62
642.733	315.62
642.939	325.62
643.144	310.62
643.349	311.62
643.554	325.62
643.759	305.62
643.964	311.62
644.169	291.62
644.374	297.62
644.579	284.62
644.784	308.62
644.989	317.62
645.194	291.62
645.399	323.62
645.604	305.62
645.809	297.62
646.014	300.62
646.219	303.62
646.423	317.62
646.628	299.62
646.833	300.62
647.038	307.62
647.243	305.62
647.447	307.62
647.652	326.62
647.857	316.62
648.062	322.62
648.266	307.62
648.471	300.62
648.676	311.62
648.88	315.62
649.085	308.62
649.289	289.62
649.494	311.62
649.698	307.62
649.903	308.62
650.107	308.62
650.312	299.62
650.516	297.62
650.721	308.62
650.925	309.62
651.13	312.62
651.334	288.62
651.539	288.62
651.743	284.62
651.947	309.62
652.152	295.62
652.356	271.62
652.56	297.62
652.764	281.62
652.969	278.62
653.173	270.62
653.377	267.62
653.581	275.62
653.785	275.62
653.99	284.62
654.194	258.62
654.398	260.62
654.602	276.62
654.806	261.62
655.01	261.62
655.214	273.62
655.418	270.62
655.622	268.62
655.826	255.62
656.03	261.62
656.234	266.62
656.438	250.62
656.642	240.62
656.846	234.62
657.049	245.62
657.253	235.62
657.457	228.62
657.661	211.62
657.865	213.62
658.068	203.62
658.272	186.62
658.476	181.62
658.68	177.62
658.883	185.62
659.087	160.62
659.291	159.62
659.494	153.62
659.698	163.62
659.901	135.62
660.105	146.62
660.309	149.62
660.512	128.62
660.716	128.62
660.919	107.62
661.123	131.62
661.326	129.62
661.53	116.62
661.733	117.62
661.936	120.62
662.14	100.62
662.343	109.62
662.546	100.62
662.75	89.62
662.953	92.62
663.156	104.62
663.36	89.62
663.563	91.62
663.766	83.62
663.969	79.62
664.173	66.62
664.376	82.62
664.579	87.62
664.782	90.62
664.985	81.62
665.188	67.62
665.391	84.62
665.594	85.62
665.797	80.62
666	78.62
666.203	87.62
666.406	72.62
666.609	87.62
666.812	83.62
667.015	74.62
667.218	72.62
667.421	77.62
667.624	70.62
667.827	80.62
668.03	78.62
668.232	77.62
668.435	88.62
668.638	76.62
668.841	91.62
669.043	72.62
669.246	70.62
669.449	105.62
669.651	82.62
669.854	75.62
670.057	73.62
670.259	76.62
670.462	73.62
670.665	80.62
670.867	78.62
671.07	86.62
671.272	87.62
671.475	88.62
671.677	92.62
671.88	78.62
672.082	82.62
672.284	80.62
672.487	86.62
672.689	73.62
672.892	79.62
