Data from Ni(NO3)2@0.0625M.TitratingCurve.Agarose3%dH2O.NegLispCup.LampEnergy10.LIBS07252019_HRD10591_18-13-42-570.txt Node
Date: Thu Jul 25 18:13:42 EDT 2019
User: cochatt
Spectrometer: HR+D1059
Trigger mode: 1
Integration Time (sec): 1.000000E-1
Scans to average: 1
Electric dark correction enabled: true
Nonlinearity correction enabled: false
Boxcar width: 0
XAxis mode: Wavelengths
Number of Pixels in Spectrum: 2048
>>>>>Begin Spectral Data<<<<<
223.165	-9.06
223.4	-9.06
223.635	-9.06
223.869	-18.06
224.104	-12.06
224.338	-20.06
224.573	-14.06
224.808	-6.06
225.042	-20.06
225.277	-14.06
225.511	-3.06
225.746	6.94
225.98	1.94
226.215	14.94
226.449	9.94
226.683	21.94
226.918	18.94
227.152	41.94
227.387	35.94
227.621	38.94
227.856	42.94
228.09	48.94
228.324	59.94
228.559	68.94
228.793	69.94
229.027	84.94
229.262	93.94
229.496	107.94
229.73	107.94
229.964	105.94
230.199	113.94
230.433	116.94
230.667	107.94
230.901	109.94
231.136	113.94
231.37	98.94
231.604	127.94
231.838	115.94
232.072	141.94
232.306	122.94
232.541	128.94
232.775	114.94
233.009	121.94
233.243	125.94
233.477	123.94
233.711	125.94
233.945	139.94
234.179	135.94
234.413	123.94
234.647	124.94
234.881	131.94
235.115	137.94
235.349	116.94
235.583	124.94
235.817	120.94
236.051	127.94
236.285	137.94
236.519	131.94
236.753	127.94
236.987	124.94
237.221	114.94
237.455	113.94
237.689	147.94
237.922	140.94
238.156	161.94
238.39	143.94
238.624	123.94
238.858	138.94
239.091	141.94
239.325	139.94
239.559	140.94
239.793	135.94
240.027	158.94
240.26	147.94
240.494	138.94
240.728	148.94
240.961	141.94
241.195	149.94
241.429	147.94
241.662	151.94
241.896	151.94
242.13	140.94
242.363	157.94
242.597	164.94
242.83	166.94
243.064	153.94
243.298	170.94
243.531	169.94
243.765	170.94
243.998	164.94
244.232	166.94
244.465	151.94
244.699	184.94
244.932	159.94
245.166	193.94
245.399	173.94
245.633	170.94
245.866	179.94
246.099	175.94
246.333	187.94
246.566	181.94
246.8	177.94
247.033	182.94
247.266	174.94
247.5	167.94
247.733	193.94
247.966	181.94
248.2	187.94
248.433	201.94
248.666	200.94
248.899	188.94
249.133	178.94
249.366	200.94
249.599	186.94
249.832	196.94
250.066	200.94
250.299	185.94
250.532	189.94
250.765	195.94
250.998	202.94
251.231	204.94
251.465	199.94
251.698	214.94
251.931	201.94
252.164	204.94
252.397	222.94
252.63	206.94
252.863	204.94
253.096	204.94
253.329	229.94
253.562	203.94
253.795	212.94
254.028	208.94
254.261	199.94
254.494	227.94
254.727	226.94
254.96	207.94
255.193	219.94
255.426	223.94
255.659	217.94
255.892	228.94
256.124	219.94
256.357	226.94
256.59	206.94
256.823	219.94
257.056	228.94
257.289	225.94
257.521	222.94
257.754	227.94
257.987	221.94
258.22	225.94
258.452	219.94
258.685	242.94
258.918	230.94
259.151	243.94
259.383	239.94
259.616	218.94
259.849	223.94
260.081	260.94
260.314	247.94
260.547	246.94
260.779	242.94
261.012	250.94
261.244	276.94
261.477	269.94
261.71	242.94
261.942	241.94
262.175	244.94
262.407	251.94
262.64	246.94
262.872	248.94
263.105	259.94
263.337	259.94
263.57	262.94
263.802	260.94
264.035	253.94
264.267	243.94
264.499	245.94
264.732	265.94
264.964	285.94
265.197	259.94
265.429	253.94
265.661	259.94
265.894	271.94
266.126	273.94
266.358	259.94
266.591	264.94
266.823	285.94
267.055	270.94
267.287	298.94
267.52	282.94
267.752	285.94
267.984	293.94
268.216	266.94
268.448	265.94
268.681	278.94
268.913	293.94
269.145	284.94
269.377	284.94
269.609	276.94
269.841	299.94
270.073	297.94
270.306	300.94
270.538	278.94
270.77	284.94
271.002	291.94
271.234	277.94
271.466	280.94
271.698	290.94
271.93	275.94
272.162	298.94
272.394	302.94
272.626	294.94
272.858	285.94
273.09	293.94
273.322	290.94
273.553	301.94
273.785	286.94
274.017	308.94
274.249	306.94
274.481	311.94
274.713	303.94
274.945	316.94
275.176	317.94
275.408	300.94
275.64	305.94
275.872	316.94
276.104	321.94
276.335	300.94
276.567	313.94
276.799	329.94
277.031	313.94
277.262	326.94
277.494	319.94
277.726	322.94
277.957	298.94
278.189	325.94
278.421	313.94
278.652	309.94
278.884	337.94
279.115	306.94
279.347	336.94
279.579	333.94
279.81	330.94
280.042	338.94
280.273	348.94
280.505	347.94
280.736	321.94
280.968	338.94
281.199	338.94
281.431	330.94
281.662	325.94
281.894	330.94
282.125	317.94
282.356	361.94
282.588	341.94
282.819	351.94
283.051	333.94
283.282	351.94
283.513	346.94
283.745	371.94
283.976	355.94
284.207	363.94
284.439	354.94
284.67	374.94
284.901	350.94
285.132	368.94
285.364	358.94
285.595	367.94
285.826	372.94
286.057	371.94
286.288	367.94
286.52	371.94
286.751	363.94
286.982	367.94
287.213	364.94
287.444	369.94
287.675	379.94
287.906	377.94
288.138	375.94
288.369	371.94
288.6	376.94
288.831	374.94
289.062	391.94
289.293	373.94
289.524	382.94
289.755	394.94
289.986	380.94
290.217	375.94
290.448	379.94
290.679	377.94
290.91	388.94
291.141	391.94
291.371	355.94
291.602	379.94
291.833	398.94
292.064	399.94
292.295	371.94
292.526	405.94
292.757	376.94
292.987	374.94
293.218	388.94
293.449	399.94
293.68	381.94
293.91	398.94
294.141	387.94
294.372	381.94
294.603	396.94
294.833	392.94
295.064	381.94
295.295	395.94
295.525	404.94
295.756	406.94
295.987	394.94
296.217	390.94
296.448	405.94
296.679	409.94
296.909	413.94
297.14	414.94
297.37	403.94
297.601	405.94
297.831	413.94
298.062	431.94
298.292	420.94
298.523	441.94
298.753	441.94
298.984	416.94
299.214	436.94
299.445	428.94
299.675	420.94
299.905	406.94
300.136	410.94
300.366	408.94
300.597	426.94
300.827	431.94
301.057	434.94
301.288	437.94
301.518	441.94
301.748	457.94
301.979	439.94
302.209	457.94
302.439	454.94
302.669	442.94
302.9	434.94
303.13	446.94
303.36	419.94
303.59	433.94
303.82	443.94
304.051	452.94
304.281	425.94
304.511	429.94
304.741	417.94
304.971	422.94
305.201	439.94
305.431	450.94
305.661	441.94
305.891	420.94
306.121	420.94
306.352	427.94
306.582	430.94
306.812	402.94
307.042	428.94
307.272	426.94
307.502	429.94
307.731	430.94
307.961	415.94
308.191	422.94
308.421	418.94
308.651	408.94
308.881	397.94
309.111	419.94
309.341	436.94
309.571	435.94
309.8	416.94
310.03	418.94
310.26	439.94
310.49	407.94
310.72	417.94
310.949	421.94
311.179	423.94
311.409	399.94
311.639	425.94
311.868	438.94
312.098	429.94
312.328	419.94
312.557	434.94
312.787	427.94
313.017	459.94
313.246	442.94
313.476	451.94
313.706	462.94
313.935	473.94
314.165	469.94
314.394	470.94
314.624	457.94
314.853	463.94
315.083	444.94
315.312	469.94
315.542	443.94
315.771	420.94
316.001	451.94
316.23	432.94
316.46	455.94
316.689	431.94
316.919	431.94
317.148	460.94
317.377	447.94
317.607	441.94
317.836	442.94
318.065	429.94
318.295	431.94
318.524	442.94
318.753	439.94
318.983	443.94
319.212	445.94
319.441	446.94
319.67	437.94
319.9	431.94
320.129	459.94
320.358	441.94
320.587	446.94
320.816	441.94
321.046	459.94
321.275	439.94
321.504	439.94
321.733	448.94
321.962	447.94
322.191	455.94
322.42	451.94
322.649	450.94
322.878	461.94
323.108	447.94
323.337	452.94
323.566	459.94
323.795	446.94
324.024	477.94
324.253	464.94
324.482	463.94
324.71	439.94
324.939	463.94
325.168	465.94
325.397	451.94
325.626	445.94
325.855	477.94
326.084	487.94
326.313	480.94
326.542	503.94
326.77	523.94
326.999	490.94
327.228	492.94
327.457	489.94
327.686	483.94
327.914	483.94
328.143	477.94
328.372	501.94
328.6	478.94
328.829	482.94
329.058	487.94
329.287	482.94
329.515	483.94
329.744	503.94
329.972	462.94
330.201	501.94
330.43	514.94
330.658	513.94
330.887	507.94
331.115	516.94
331.344	507.94
331.572	501.94
331.801	533.94
332.03	536.94
332.258	540.94
332.486	551.94
332.715	596.94
332.943	597.94
333.172	640.94
333.4	656.94
333.629	669.94
333.857	685.94
334.085	647.94
334.314	644.94
334.542	635.94
334.771	622.94
334.999	614.94
335.227	603.94
335.455	609.94
335.684	605.94
335.912	602.94
336.14	592.94
336.369	596.94
336.597	603.94
336.825	588.94
337.053	581.94
337.281	587.94
337.51	563.94
337.738	574.94
337.966	536.94
338.194	548.94
338.422	532.94
338.65	525.94
338.878	541.94
339.106	539.94
339.334	538.94
339.562	527.94
339.79	486.94
340.018	510.94
340.246	524.94
340.474	488.94
340.702	507.94
340.93	517.94
341.158	504.94
341.386	514.94
341.614	513.94
341.842	502.94
342.07	499.94
342.298	517.94
342.526	486.94
342.754	490.94
342.981	520.94
343.209	524.94
343.437	538.94
343.665	578.94
343.893	606.94
344.12	647.94
344.348	617.94
344.576	571.94
344.804	556.94
345.031	531.94
345.259	510.94
345.487	531.94
345.714	519.94
345.942	465.94
346.17	506.94
346.397	511.94
346.625	513.94
346.853	498.94
347.08	498.94
347.308	487.94
347.535	526.94
347.763	521.94
347.99	487.94
348.218	510.94
348.445	513.94
348.673	485.94
348.9	499.94
349.128	491.94
349.355	511.94
349.583	495.94
349.81	478.94
350.037	465.94
350.265	477.94
350.492	485.94
350.72	463.94
350.947	501.94
351.174	477.94
351.402	478.94
351.629	491.94
351.856	479.94
352.083	473.94
352.311	489.94
352.538	487.94
352.765	478.94
352.992	475.94
353.22	486.94
353.447	473.94
353.674	471.94
353.901	468.94
354.128	470.94
354.355	478.94
354.583	505.94
354.81	497.94
355.037	466.94
355.264	481.94
355.491	499.94
355.718	494.94
355.945	468.94
356.172	496.94
356.399	487.94
356.626	507.94
356.853	499.94
357.08	473.94
357.307	485.94
357.534	473.94
357.761	487.94
357.988	450.94
358.215	485.94
358.441	477.94
358.668	463.94
358.895	502.94
359.122	471.94
359.349	474.94
359.576	483.94
359.802	462.94
360.029	474.94
360.256	484.94
360.483	489.94
360.709	476.94
360.936	485.94
361.163	468.94
361.39	477.94
361.616	494.94
361.843	466.94
362.07	501.94
362.296	463.94
362.523	488.94
362.749	459.94
362.976	481.94
363.203	472.94
363.429	474.94
363.656	493.94
363.882	476.94
364.109	470.94
364.335	481.94
364.562	463.94
364.788	455.94
365.015	460.94
365.241	480.94
365.468	473.94
365.694	477.94
365.92	484.94
366.147	493.94
366.373	459.94
366.599	482.94
366.826	480.94
367.052	466.94
367.278	487.94
367.505	479.94
367.731	471.94
367.957	474.94
368.184	472.94
368.41	487.94
368.636	493.94
368.862	514.94
369.089	493.94
369.315	475.94
369.541	485.94
369.767	499.94
369.993	515.94
370.219	508.94
370.445	519.94
370.672	525.94
370.898	504.94
371.124	511.94
371.35	527.94
371.576	512.94
371.802	500.94
372.028	517.94
372.254	506.94
372.48	525.94
372.706	542.94
372.932	558.94
373.158	537.94
373.384	538.94
373.61	555.94
373.835	534.94
374.061	537.94
374.287	539.94
374.513	522.94
374.739	562.94
374.965	575.94
375.191	599.94
375.416	580.94
375.642	558.94
375.868	563.94
376.094	551.94
376.319	552.94
376.545	536.94
376.771	522.94
376.997	543.94
377.222	526.94
377.448	534.94
377.674	528.94
377.899	499.94
378.125	516.94
378.35	504.94
378.576	519.94
378.802	503.94
379.027	530.94
379.253	519.94
379.478	500.94
379.704	536.94
379.929	534.94
380.155	506.94
380.38	541.94
380.606	520.94
380.831	491.94
381.057	529.94
381.282	530.94
381.507	548.94
381.733	517.94
381.958	540.94
382.184	518.94
382.409	533.94
382.634	538.94
382.86	549.94
383.085	565.94
383.31	551.94
383.535	578.94
383.761	573.94
383.986	594.94
384.211	610.94
384.436	634.94
384.662	598.94
384.887	605.94
385.112	613.94
385.337	659.94
385.562	641.94
385.787	634.94
386.013	618.94
386.238	619.94
386.463	622.94
386.688	598.94
386.913	601.94
387.138	614.94
387.363	627.94
387.588	585.94
387.813	614.94
388.038	615.94
388.263	617.94
388.488	627.94
388.713	613.94
388.938	610.94
389.163	606.94
389.387	589.94
389.612	595.94
389.837	584.94
390.062	613.94
390.287	595.94
390.512	601.94
390.736	621.94
390.961	633.94
391.186	639.94
391.411	665.94
391.636	681.94
391.86	683.94
392.085	720.94
392.31	699.94
392.534	690.94
392.759	693.94
392.984	665.94
393.208	656.94
393.433	653.94
393.658	666.94
393.882	661.94
394.107	679.94
394.331	680.94
394.556	674.94
394.78	675.94
395.005	674.94
395.229	667.94
395.454	670.94
395.678	693.94
395.903	705.94
396.127	674.94
396.352	662.94
396.576	662.94
396.801	678.94
397.025	663.94
397.249	682.94
397.474	685.94
397.698	703.94
397.922	691.94
398.147	675.94
398.371	690.94
398.595	725.94
398.82	763.94
399.044	807.94
399.268	880.94
399.492	1058.94
399.717	1211.94
399.941	1182.94
400.165	1040.94
400.389	919.94
400.613	839.94
400.837	828.94
401.062	783.94
401.286	778.94
401.51	803.94
401.734	750.94
401.958	761.94
402.182	776.94
402.406	804.94
402.63	827.94
402.854	858.94
403.078	847.94
403.302	884.94
403.526	875.94
403.75	876.94
403.974	933.94
404.198	917.94
404.422	933.94
404.645	909.94
404.869	901.94
405.093	878.94
405.317	873.94
405.541	855.94
405.765	841.94
405.988	849.94
406.212	862.94
406.436	833.94
406.66	871.94
406.883	899.94
407.107	949.94
407.331	975.94
407.555	1012.94
407.778	993.94
408.002	973.94
408.226	949.94
408.449	921.94
408.673	901.94
408.896	874.94
409.12	868.94
409.344	899.94
409.567	905.94
409.791	893.94
410.014	888.94
410.238	891.94
410.461	894.94
410.685	860.94
410.908	865.94
411.132	823.94
411.355	794.94
411.578	804.94
411.802	812.94
412.025	823.94
412.249	831.94
412.472	809.94
412.695	811.94
412.919	792.94
413.142	781.94
413.365	753.94
413.589	773.94
413.812	780.94
414.035	747.94
414.258	771.94
414.482	781.94
414.705	781.94
414.928	776.94
415.151	767.94
415.374	789.94
415.597	753.94
415.821	750.94
416.044	739.94
416.267	773.94
416.49	747.94
416.713	761.94
416.936	771.94
417.159	773.94
417.382	759.94
417.605	764.94
417.828	781.94
418.051	759.94
418.274	773.94
418.497	799.94
418.72	811.94
418.943	795.94
419.166	827.94
419.389	902.94
419.611	885.94
419.834	827.94
420.057	776.94
420.28	777.94
420.503	767.94
420.726	758.94
420.948	737.94
421.171	777.94
421.394	755.94
421.617	762.94
421.839	785.94
422.062	789.94
422.285	742.94
422.507	811.94
422.73	824.94
422.953	794.94
423.175	824.94
423.398	838.94
423.621	839.94
423.843	839.94
424.066	858.94
424.288	829.94
424.511	830.94
424.733	820.94
424.956	797.94
425.178	789.94
425.401	766.94
425.623	783.94
425.846	754.94
426.068	738.94
426.291	726.94
426.513	713.94
426.735	723.94
426.958	734.94
427.18	740.94
427.402	709.94
427.625	714.94
427.847	660.94
428.069	685.94
428.292	719.94
428.514	679.94
428.736	681.94
428.958	707.94
429.181	677.94
429.403	697.94
429.625	687.94
429.847	669.94
430.069	660.94
430.292	685.94
430.514	667.94
430.736	661.94
430.958	655.94
431.18	662.94
431.402	693.94
431.624	666.94
431.846	692.94
432.068	695.94
432.29	714.94
432.512	686.94
432.734	690.94
432.956	691.94
433.178	681.94
433.4	689.94
433.622	671.94
433.844	695.94
434.066	697.94
434.287	723.94
434.509	718.94
434.731	773.94
434.953	791.94
435.175	785.94
435.397	790.94
435.618	724.94
435.84	729.94
436.062	703.94
436.284	669.94
436.505	686.94
436.727	681.94
436.949	682.94
437.17	687.94
437.392	671.94
437.614	674.94
437.835	659.94
438.057	689.94
438.278	656.94
438.5	643.94
438.721	678.94
438.943	654.94
439.165	653.94
439.386	671.94
439.608	681.94
439.829	701.94
440.05	667.94
440.272	697.94
440.493	709.94
440.715	708.94
440.936	718.94
441.158	749.94
441.379	779.94
441.6	793.94
441.822	783.94
442.043	765.94
442.264	780.94
442.486	721.94
442.707	749.94
442.928	798.94
443.149	789.94
443.371	777.94
443.592	762.94
443.813	801.94
444.034	790.94
444.255	815.94
444.476	873.94
444.698	887.94
444.919	945.94
445.14	986.94
445.361	893.94
445.582	809.94
445.803	762.94
446.024	733.94
446.245	727.94
446.466	740.94
446.687	704.94
446.908	726.94
447.129	684.94
447.35	676.94
447.571	666.94
447.792	670.94
448.013	659.94
448.234	661.94
448.455	648.94
448.675	634.94
448.896	652.94
449.117	635.94
449.338	625.94
449.559	631.94
449.779	627.94
450	642.94
450.221	632.94
450.442	666.94
450.662	645.94
450.883	641.94
451.104	674.94
451.324	657.94
451.545	650.94
451.766	663.94
451.986	662.94
452.207	641.94
452.428	672.94
452.648	660.94
452.869	660.94
453.089	638.94
453.31	646.94
453.53	613.94
453.751	601.94
453.971	629.94
454.192	628.94
454.412	625.94
454.633	610.94
454.853	611.94
455.073	600.94
455.294	586.94
455.514	600.94
455.734	607.94
455.955	600.94
456.175	587.94
456.395	592.94
456.616	589.94
456.836	599.94
457.056	604.94
457.276	589.94
457.497	612.94
457.717	578.94
457.937	607.94
458.157	621.94
458.377	609.94
458.598	629.94
458.818	636.94
459.038	659.94
459.258	689.94
459.478	685.94
459.698	698.94
459.918	759.94
460.138	769.94
460.358	814.94
460.578	812.94
460.798	829.94
461.018	844.94
461.238	843.94
461.458	812.94
461.678	814.94
461.898	828.94
462.118	834.94
462.338	868.94
462.558	911.94
462.777	908.94
462.997	1019.94
463.217	1112.94
463.437	1121.94
463.657	1029.94
463.876	967.94
464.096	944.94
464.316	989.94
464.536	981.94
464.755	947.94
464.975	904.94
465.195	856.94
465.414	781.94
465.634	741.94
465.854	740.94
466.073	734.94
466.293	697.94
466.512	703.94
466.732	668.94
466.951	679.94
467.171	662.94
467.391	700.94
467.61	691.94
467.829	662.94
468.049	665.94
468.268	659.94
468.488	635.94
468.707	636.94
468.927	629.94
469.146	645.94
469.365	652.94
469.585	653.94
469.804	669.94
470.023	677.94
470.243	684.94
470.462	697.94
470.681	694.94
470.901	693.94
471.12	643.94
471.339	676.94
471.558	654.94
471.777	646.94
471.997	662.94
472.216	637.94
472.435	653.94
472.654	643.94
472.873	621.94
473.092	618.94
473.311	609.94
473.53	624.94
473.749	625.94
473.968	633.94
474.187	625.94
474.406	606.94
474.625	651.94
474.844	625.94
475.063	647.94
475.282	639.94
475.501	620.94
475.72	626.94
475.939	611.94
476.158	620.94
476.377	630.94
476.596	654.94
476.814	634.94
477.033	656.94
477.252	662.94
477.471	683.94
477.69	680.94
477.908	705.94
478.127	717.94
478.346	760.94
478.564	739.94
478.783	757.94
479.002	798.94
479.22	789.94
479.439	757.94
479.658	773.94
479.876	767.94
480.095	783.94
480.313	820.94
480.532	827.94
480.751	813.94
480.969	782.94
481.188	774.94
481.406	717.94
481.624	747.94
481.843	723.94
482.061	717.94
482.28	707.94
482.498	713.94
482.717	703.94
482.935	704.94
483.153	709.94
483.372	695.94
483.59	694.94
483.808	704.94
484.027	705.94
484.245	729.94
484.463	711.94
484.681	727.94
484.9	722.94
485.118	741.94
485.336	729.94
485.554	725.94
485.772	729.94
485.99	738.94
486.209	746.94
486.427	746.94
486.645	746.94
486.863	743.94
487.081	718.94
487.299	733.94
487.517	758.94
487.735	715.94
487.953	734.94
488.171	776.94
488.389	744.94
488.607	738.94
488.825	737.94
489.043	722.94
489.261	728.94
489.479	731.94
489.696	757.94
489.914	738.94
490.132	740.94
490.35	710.94
490.568	725.94
490.786	741.94
491.003	781.94
491.221	704.94
491.439	754.94
491.657	769.94
491.874	774.94
492.092	745.94
492.31	749.94
492.527	762.94
492.745	754.94
492.963	763.94
493.18	772.94
493.398	747.94
493.615	793.94
493.833	796.94
494.05	802.94
494.268	773.94
494.485	795.94
494.703	794.94
494.92	797.94
495.138	770.94
495.355	785.94
495.573	809.94
495.79	788.94
496.008	814.94
496.225	783.94
496.442	804.94
496.66	832.94
496.877	837.94
497.094	827.94
497.312	849.94
497.529	867.94
497.746	885.94
497.963	900.94
498.181	923.94
498.398	986.94
498.615	1028.94
498.832	1075.94
499.049	1192.94
499.267	1287.94
499.484	1395.94
499.701	1557.94
499.918	1723.94
500.135	2013.94
500.352	2355.94
500.569	2507.94
500.786	2489.94
501.003	2232.94
501.22	2002.94
501.437	1731.94
501.654	1507.94
501.871	1363.94
502.088	1287.94
502.305	1151.94
502.522	1107.94
502.739	1081.94
502.956	1013.94
503.172	970.94
503.389	927.94
503.606	915.94
503.823	907.94
504.04	868.94
504.256	901.94
504.473	914.94
504.69	977.94
504.907	919.94
505.123	865.94
505.34	846.94
505.557	794.94
505.773	759.94
505.99	767.94
506.207	743.94
506.423	716.94
506.64	730.94
506.856	720.94
507.073	724.94
507.289	689.94
507.506	693.94
507.722	710.94
507.939	695.94
508.155	673.94
508.372	683.94
508.588	672.94
508.805	659.94
509.021	658.94
509.238	652.94
509.454	649.94
509.67	658.94
509.887	663.94
510.103	648.94
510.319	651.94
510.536	651.94
510.752	662.94
510.968	633.94
511.184	635.94
511.401	663.94
511.617	628.94
511.833	652.94
512.049	628.94
512.265	633.94
512.481	653.94
512.698	641.94
512.914	625.94
513.13	623.94
513.346	630.94
513.562	621.94
513.778	634.94
513.994	641.94
514.21	654.94
514.426	667.94
514.642	644.94
514.858	636.94
515.074	669.94
515.29	683.94
515.506	658.94
515.721	677.94
515.937	686.94
516.153	684.94
516.369	702.94
516.585	747.94
516.801	728.94
517.016	778.94
517.232	825.94
517.448	849.94
517.664	895.94
517.879	887.94
518.095	915.94
518.311	887.94
518.527	837.94
518.742	810.94
518.958	772.94
519.173	755.94
519.389	722.94
519.605	714.94
519.82	683.94
520.036	680.94
520.251	683.94
520.467	671.94
520.682	668.94
520.898	660.94
521.113	653.94
521.329	612.94
521.544	635.94
521.76	627.94
521.975	625.94
522.19	618.94
522.406	620.94
522.621	612.94
522.836	598.94
523.052	618.94
523.267	614.94
523.482	597.94
523.698	591.94
523.913	596.94
524.128	586.94
524.343	586.94
524.559	602.94
524.774	578.94
524.989	594.94
525.204	595.94
525.419	592.94
525.634	583.94
525.849	610.94
526.064	598.94
526.28	593.94
526.495	583.94
526.71	583.94
526.925	579.94
527.14	554.94
527.355	579.94
527.57	590.94
527.785	595.94
527.999	595.94
528.214	562.94
528.429	597.94
528.644	587.94
528.859	587.94
529.074	588.94
529.289	595.94
529.503	569.94
529.718	591.94
529.933	591.94
530.148	561.94
530.363	599.94
530.577	593.94
530.792	583.94
531.007	584.94
531.221	579.94
531.436	563.94
531.651	588.94
531.865	591.94
532.08	581.94
532.295	588.94
532.509	583.94
532.724	605.94
532.938	586.94
533.153	599.94
533.367	581.94
533.582	584.94
533.796	570.94
534.011	580.94
534.225	563.94
534.44	579.94
534.654	585.94
534.868	559.94
535.083	582.94
535.297	571.94
535.511	559.94
535.726	590.94
535.94	567.94
536.154	546.94
536.369	565.94
536.583	563.94
536.797	542.94
537.011	570.94
537.225	550.94
537.44	558.94
537.654	545.94
537.868	541.94
538.082	533.94
538.296	531.94
538.51	554.94
538.724	534.94
538.938	524.94
539.153	549.94
539.367	512.94
539.581	528.94
539.795	530.94
540.009	517.94
540.222	538.94
540.436	551.94
540.65	506.94
540.864	544.94
541.078	536.94
541.292	527.94
541.506	527.94
541.72	505.94
541.934	507.94
542.147	514.94
542.361	513.94
542.575	518.94
542.789	510.94
543.002	530.94
543.216	505.94
543.43	504.94
543.644	511.94
543.857	499.94
544.071	523.94
544.285	533.94
544.498	521.94
544.712	521.94
544.925	537.94
545.139	533.94
545.352	544.94
545.566	550.94
545.779	526.94
545.993	542.94
546.206	539.94
546.42	517.94
546.633	505.94
546.847	533.94
547.06	527.94
547.274	541.94
547.487	517.94
547.7	530.94
547.914	522.94
548.127	561.94
548.34	551.94
548.554	555.94
548.767	539.94
548.98	537.94
549.193	533.94
549.407	533.94
549.62	580.94
549.833	547.94
550.046	535.94
550.259	550.94
550.473	538.94
550.686	546.94
550.899	495.94
551.112	519.94
551.325	512.94
551.538	541.94
551.751	539.94
551.964	514.94
552.177	528.94
552.39	549.94
552.603	562.94
552.816	552.94
553.029	581.94
553.242	601.94
553.455	587.94
553.667	593.94
553.88	596.94
554.093	541.94
554.306	545.94
554.519	527.94
554.732	559.94
554.944	517.94
555.157	525.94
555.37	516.94
555.583	498.94
555.795	494.94
556.008	499.94
556.221	484.94
556.433	477.94
556.646	472.94
556.859	477.94
557.071	480.94
557.284	462.94
557.496	474.94
557.709	474.94
557.921	450.94
558.134	479.94
558.346	451.94
558.559	480.94
558.771	453.94
558.984	458.94
559.196	475.94
559.409	430.94
559.621	444.94
559.833	467.94
560.046	444.94
560.258	442.94
560.47	438.94
560.683	435.94
560.895	438.94
561.107	448.94
561.32	438.94
561.532	433.94
561.744	453.94
561.956	439.94
562.168	445.94
562.381	439.94
562.593	444.94
562.805	429.94
563.017	443.94
563.229	430.94
563.441	460.94
563.653	447.94
563.865	433.94
564.077	462.94
564.289	428.94
564.501	470.94
564.713	487.94
564.925	468.94
565.137	484.94
565.349	490.94
565.561	509.94
565.773	545.94
565.985	527.94
566.197	559.94
566.408	623.94
566.62	653.94
566.832	729.94
567.044	731.94
567.255	718.94
567.467	730.94
567.679	806.94
567.891	876.94
568.102	894.94
568.314	857.94
568.526	769.94
568.737	672.94
568.949	626.94
569.161	570.94
569.372	516.94
569.584	501.94
569.795	486.94
570.007	474.94
570.218	471.94
570.43	462.94
570.641	445.94
570.853	451.94
571.064	478.94
571.276	487.94
571.487	458.94
571.698	414.94
571.91	419.94
572.121	421.94
572.333	392.94
572.544	407.94
572.755	412.94
572.966	391.94
573.178	390.94
573.389	400.94
573.6	381.94
573.811	391.94
574.023	361.94
574.234	379.94
574.445	382.94
574.656	375.94
574.867	390.94
575.078	385.94
575.289	372.94
575.501	364.94
575.712	366.94
575.923	372.94
576.134	371.94
576.345	366.94
576.556	367.94
576.767	357.94
576.978	343.94
577.188	360.94
577.399	350.94
577.61	368.94
577.821	359.94
578.032	341.94
578.243	339.94
578.454	350.94
578.665	336.94
578.875	353.94
579.086	361.94
579.297	312.94
579.508	320.94
579.718	343.94
579.929	328.94
580.14	342.94
580.35	345.94
580.561	334.94
580.772	332.94
580.982	342.94
581.193	314.94
581.403	322.94
581.614	318.94
581.825	325.94
582.035	339.94
582.246	336.94
582.456	332.94
582.667	322.94
582.877	309.94
583.087	323.94
583.298	326.94
583.508	322.94
583.719	301.94
583.929	330.94
584.139	317.94
584.35	317.94
584.56	307.94
584.77	308.94
584.981	293.94
585.191	309.94
585.401	307.94
585.611	292.94
585.821	305.94
586.032	324.94
586.242	314.94
586.452	325.94
586.662	296.94
586.872	294.94
587.082	317.94
587.292	325.94
587.502	302.94
587.713	307.94
587.923	294.94
588.133	307.94
588.343	291.94
588.553	294.94
588.762	321.94
588.972	301.94
589.182	299.94
589.392	286.94
589.602	299.94
589.812	288.94
590.022	297.94
590.232	302.94
590.441	309.94
590.651	303.94
590.861	305.94
591.071	310.94
591.281	313.94
591.49	324.94
591.7	329.94
591.91	311.94
592.119	328.94
592.329	335.94
592.539	355.94
592.748	350.94
592.958	353.94
593.167	380.94
593.377	370.94
593.587	382.94
593.796	407.94
594.006	382.94
594.215	374.94
594.424	407.94
594.634	403.94
594.843	385.94
595.053	370.94
595.262	359.94
595.472	357.94
595.681	318.94
595.89	324.94
596.1	320.94
596.309	333.94
596.518	307.94
596.727	300.94
596.937	283.94
597.146	285.94
597.355	285.94
597.564	292.94
597.774	281.94
597.983	279.94
598.192	276.94
598.401	276.94
598.61	254.94
598.819	247.94
599.028	272.94
599.237	275.94
599.446	269.94
599.655	279.94
599.864	272.94
600.073	266.94
600.282	261.94
600.491	257.94
600.7	262.94
600.909	282.94
601.118	251.94
601.327	248.94
601.536	272.94
601.745	264.94
601.953	266.94
602.162	265.94
602.371	249.94
602.58	254.94
602.789	263.94
602.997	259.94
603.206	259.94
603.415	224.94
603.623	252.94
603.832	251.94
604.041	254.94
604.249	238.94
604.458	243.94
604.666	237.94
604.875	249.94
605.084	254.94
605.292	249.94
605.501	248.94
605.709	243.94
605.918	227.94
606.126	249.94
606.334	243.94
606.543	235.94
606.751	249.94
606.96	250.94
607.168	234.94
607.376	217.94
607.585	231.94
607.793	251.94
608.001	231.94
608.21	245.94
608.418	246.94
608.626	231.94
608.834	254.94
609.043	259.94
609.251	244.94
609.459	233.94
609.667	233.94
609.875	249.94
610.083	271.94
610.291	237.94
610.499	236.94
610.707	243.94
610.916	252.94
611.124	236.94
611.332	245.94
611.54	236.94
611.748	231.94
611.955	251.94
612.163	219.94
612.371	227.94
612.579	226.94
612.787	236.94
612.995	238.94
613.203	229.94
613.411	222.94
613.618	232.94
613.826	227.94
614.034	228.94
614.242	228.94
614.449	230.94
614.657	218.94
614.865	229.94
615.072	228.94
615.28	228.94
615.488	242.94
615.695	245.94
615.903	224.94
616.111	243.94
616.318	236.94
616.526	228.94
616.733	232.94
616.941	223.94
617.148	244.94
617.356	237.94
617.563	220.94
617.771	238.94
617.978	233.94
618.185	220.94
618.393	234.94
618.6	236.94
618.807	251.94
619.015	238.94
619.222	217.94
619.429	210.94
619.637	217.94
619.844	225.94
620.051	227.94
620.258	219.94
620.466	217.94
620.673	226.94
620.88	208.94
621.087	204.94
621.294	226.94
621.501	214.94
621.708	222.94
621.915	187.94
622.122	214.94
622.329	207.94
622.536	204.94
622.743	211.94
622.95	210.94
623.157	221.94
623.364	206.94
623.571	193.94
623.778	214.94
623.985	215.94
624.192	217.94
624.399	200.94
624.606	210.94
624.812	200.94
625.019	211.94
625.226	201.94
625.433	208.94
625.639	189.94
625.846	189.94
626.053	198.94
626.259	203.94
626.466	203.94
626.673	202.94
626.879	193.94
627.086	192.94
627.293	194.94
627.499	186.94
627.706	194.94
627.912	201.94
628.119	203.94
628.325	197.94
628.532	188.94
628.738	198.94
628.945	184.94
629.151	189.94
629.357	192.94
629.564	196.94
629.77	185.94
629.976	187.94
630.183	186.94
630.389	197.94
630.595	180.94
630.802	182.94
631.008	191.94
631.214	205.94
631.42	193.94
631.627	192.94
631.833	182.94
632.039	195.94
632.245	179.94
632.451	185.94
632.657	170.94
632.863	177.94
633.069	189.94
633.275	180.94
633.481	157.94
633.688	188.94
633.893	187.94
634.099	189.94
634.305	172.94
634.511	171.94
634.717	172.94
634.923	187.94
635.129	181.94
635.335	196.94
635.541	189.94
635.747	163.94
635.952	193.94
636.158	182.94
636.364	171.94
636.57	174.94
636.775	171.94
636.981	169.94
637.187	169.94
637.392	167.94
637.598	168.94
637.804	182.94
638.009	153.94
638.215	173.94
638.421	153.94
638.626	175.94
638.832	167.94
639.037	163.94
639.243	165.94
639.448	175.94
639.654	172.94
639.859	165.94
640.065	157.94
640.27	165.94
640.475	160.94
640.681	159.94
640.886	162.94
641.091	154.94
641.297	170.94
641.502	157.94
641.707	158.94
641.913	164.94
642.118	153.94
642.323	159.94
642.528	160.94
642.733	165.94
642.939	171.94
643.144	155.94
643.349	165.94
643.554	157.94
643.759	161.94
643.964	148.94
644.169	168.94
644.374	158.94
644.579	142.94
644.784	156.94
644.989	163.94
645.194	147.94
645.399	155.94
645.604	159.94
645.809	152.94
646.014	164.94
646.219	165.94
646.423	163.94
646.628	153.94
646.833	165.94
647.038	156.94
647.243	158.94
647.447	181.94
647.652	156.94
647.857	153.94
648.062	163.94
648.266	161.94
648.471	163.94
648.676	173.94
648.88	147.94
649.085	169.94
649.289	162.94
649.494	160.94
649.698	166.94
649.903	147.94
650.107	161.94
650.312	152.94
650.516	154.94
650.721	149.94
650.925	139.94
651.13	132.94
651.334	133.94
651.539	150.94
651.743	134.94
651.947	126.94
652.152	127.94
652.356	137.94
652.56	153.94
652.764	139.94
652.969	128.94
653.173	127.94
653.377	132.94
653.581	119.94
653.785	142.94
653.99	132.94
654.194	137.94
654.398	139.94
654.602	125.94
654.806	124.94
655.01	115.94
655.214	117.94
655.418	125.94
655.622	124.94
655.826	116.94
656.03	114.94
656.234	124.94
656.438	125.94
656.642	125.94
656.846	122.94
657.049	118.94
657.253	103.94
657.457	106.94
657.661	114.94
657.865	106.94
658.068	118.94
658.272	93.94
658.476	101.94
658.68	105.94
658.883	105.94
659.087	93.94
659.291	94.94
659.494	103.94
659.698	115.94
659.901	87.94
660.105	86.94
660.309	96.94
660.512	89.94
660.716	107.94
660.919	90.94
661.123	99.94
661.326	88.94
661.53	82.94
661.733	92.94
661.936	91.94
662.14	81.94
662.343	74.94
662.546	84.94
662.75	91.94
662.953	79.94
663.156	78.94
663.36	96.94
663.563	98.94
663.766	92.94
663.969	98.94
664.173	78.94
664.376	85.94
664.579	77.94
664.782	85.94
664.985	87.94
665.188	87.94
665.391	83.94
665.594	80.94
665.797	74.94
666	82.94
666.203	95.94
666.406	89.94
666.609	82.94
666.812	92.94
667.015	92.94
667.218	78.94
667.421	81.94
667.624	92.94
667.827	86.94
668.03	73.94
668.232	85.94
668.435	75.94
668.638	83.94
668.841	75.94
669.043	83.94
669.246	81.94
669.449	91.94
669.651	81.94
669.854	92.94
670.057	92.94
670.259	75.94
670.462	75.94
670.665	89.94
670.867	102.94
671.07	95.94
671.272	91.94
671.475	97.94
671.677	65.94
671.88	93.94
672.082	79.94
672.284	84.94
672.487	85.94
672.689	85.94
672.892	76.94
