Data from Ni(NO3)2@0.25M.TitratingCurve.Agarose3%dH2O.NegLispCup.LampEnergy10.LIBS07252019_HRD10591_18-04-33-565.txt Node
Date: Thu Jul 25 18:04:33 EDT 2019
User: cochatt
Spectrometer: HR+D1059
Trigger mode: 1
Integration Time (sec): 1.000000E-1
Scans to average: 1
Electric dark correction enabled: true
Nonlinearity correction enabled: false
Boxcar width: 0
XAxis mode: Wavelengths
Number of Pixels in Spectrum: 2048
>>>>>Begin Spectral Data<<<<<
223.165	-19.31
223.4	-19.31
223.635	-19.31
223.869	-13.31
224.104	-15.31
224.338	-11.31
224.573	-21.31
224.808	-6.31
225.042	-1.31
225.277	0.69
225.511	-2.31
225.746	1.69
225.98	-3.31
226.215	8.69
226.449	11.69
226.683	11.69
226.918	18.69
227.152	40.69
227.387	39.69
227.621	38.69
227.856	48.69
228.09	60.69
228.324	63.69
228.559	64.69
228.793	76.69
229.027	115.69
229.262	119.69
229.496	135.69
229.73	128.69
229.964	146.69
230.199	151.69
230.433	151.69
230.667	158.69
230.901	144.69
231.136	147.69
231.37	163.69
231.604	152.69
231.838	174.69
232.072	162.69
232.306	168.69
232.541	154.69
232.775	168.69
233.009	162.69
233.243	160.69
233.477	155.69
233.711	179.69
233.945	175.69
234.179	167.69
234.413	172.69
234.647	185.69
234.881	164.69
235.115	179.69
235.349	167.69
235.583	154.69
235.817	156.69
236.051	161.69
236.285	160.69
236.519	168.69
236.753	180.69
236.987	167.69
237.221	174.69
237.455	184.69
237.689	181.69
237.922	176.69
238.156	167.69
238.39	178.69
238.624	178.69
238.858	189.69
239.091	191.69
239.325	201.69
239.559	198.69
239.793	208.69
240.027	201.69
240.26	206.69
240.494	192.69
240.728	197.69
240.961	201.69
241.195	193.69
241.429	194.69
241.662	204.69
241.896	204.69
242.13	218.69
242.363	212.69
242.597	214.69
242.83	219.69
243.064	203.69
243.298	215.69
243.531	231.69
243.765	242.69
243.998	212.69
244.232	239.69
244.465	224.69
244.699	248.69
244.932	221.69
245.166	231.69
245.399	249.69
245.633	232.69
245.866	234.69
246.099	242.69
246.333	236.69
246.566	255.69
246.8	247.69
247.033	251.69
247.266	242.69
247.5	242.69
247.733	242.69
247.966	274.69
248.2	269.69
248.433	269.69
248.666	257.69
248.899	278.69
249.133	265.69
249.366	291.69
249.599	293.69
249.832	300.69
250.066	272.69
250.299	286.69
250.532	282.69
250.765	280.69
250.998	287.69
251.231	299.69
251.465	311.69
251.698	278.69
251.931	313.69
252.164	304.69
252.397	325.69
252.63	311.69
252.863	315.69
253.096	299.69
253.329	309.69
253.562	317.69
253.795	312.69
254.028	322.69
254.261	335.69
254.494	327.69
254.727	349.69
254.96	344.69
255.193	347.69
255.426	327.69
255.659	357.69
255.892	357.69
256.124	345.69
256.357	355.69
256.59	357.69
256.823	385.69
257.056	368.69
257.289	380.69
257.521	382.69
257.754	368.69
257.987	372.69
258.22	377.69
258.452	383.69
258.685	368.69
258.918	388.69
259.151	365.69
259.383	399.69
259.616	387.69
259.849	391.69
260.081	402.69
260.314	409.69
260.547	387.69
260.779	385.69
261.012	407.69
261.244	404.69
261.477	396.69
261.71	410.69
261.942	428.69
262.175	420.69
262.407	429.69
262.64	406.69
262.872	409.69
263.105	416.69
263.337	436.69
263.57	436.69
263.802	418.69
264.035	415.69
264.267	435.69
264.499	429.69
264.732	434.69
264.964	428.69
265.197	439.69
265.429	445.69
265.661	445.69
265.894	451.69
266.126	448.69
266.358	450.69
266.591	450.69
266.823	443.69
267.055	434.69
267.287	459.69
267.52	461.69
267.752	443.69
267.984	455.69
268.216	474.69
268.448	461.69
268.681	453.69
268.913	465.69
269.145	471.69
269.377	476.69
269.609	458.69
269.841	461.69
270.073	472.69
270.306	480.69
270.538	498.69
270.77	469.69
271.002	506.69
271.234	463.69
271.466	475.69
271.698	483.69
271.93	477.69
272.162	500.69
272.394	505.69
272.626	496.69
272.858	513.69
273.09	493.69
273.322	505.69
273.553	498.69
273.785	507.69
274.017	522.69
274.249	509.69
274.481	506.69
274.713	494.69
274.945	533.69
275.176	521.69
275.408	518.69
275.64	514.69
275.872	508.69
276.104	520.69
276.335	532.69
276.567	535.69
276.799	524.69
277.031	530.69
277.262	541.69
277.494	534.69
277.726	531.69
277.957	544.69
278.189	533.69
278.421	525.69
278.652	542.69
278.884	551.69
279.115	569.69
279.347	567.69
279.579	556.69
279.81	539.69
280.042	538.69
280.273	562.69
280.505	549.69
280.736	576.69
280.968	574.69
281.199	556.69
281.431	578.69
281.662	595.69
281.894	582.69
282.125	571.69
282.356	594.69
282.588	571.69
282.819	576.69
283.051	568.69
283.282	543.69
283.513	570.69
283.745	577.69
283.976	592.69
284.207	592.69
284.439	593.69
284.67	589.69
284.901	620.69
285.132	584.69
285.364	595.69
285.595	569.69
285.826	582.69
286.057	591.69
286.288	618.69
286.52	619.69
286.751	613.69
286.982	604.69
287.213	610.69
287.444	622.69
287.675	610.69
287.906	610.69
288.138	628.69
288.369	607.69
288.6	603.69
288.831	620.69
289.062	633.69
289.293	627.69
289.524	617.69
289.755	625.69
289.986	624.69
290.217	645.69
290.448	628.69
290.679	637.69
290.91	615.69
291.141	610.69
291.371	624.69
291.602	633.69
291.833	641.69
292.064	637.69
292.295	628.69
292.526	626.69
292.757	624.69
292.987	631.69
293.218	627.69
293.449	638.69
293.68	637.69
293.91	633.69
294.141	634.69
294.372	627.69
294.603	641.69
294.833	650.69
295.064	633.69
295.295	618.69
295.525	612.69
295.756	627.69
295.987	644.69
296.217	654.69
296.448	655.69
296.679	648.69
296.909	605.69
297.14	635.69
297.37	655.69
297.601	671.69
297.831	673.69
298.062	651.69
298.292	687.69
298.523	688.69
298.753	671.69
298.984	688.69
299.214	657.69
299.445	695.69
299.675	659.69
299.905	698.69
300.136	684.69
300.366	700.69
300.597	687.69
300.827	687.69
301.057	692.69
301.288	684.69
301.518	692.69
301.748	722.69
301.979	717.69
302.209	743.69
302.439	732.69
302.669	699.69
302.9	720.69
303.13	708.69
303.36	704.69
303.59	711.69
303.82	734.69
304.051	742.69
304.281	720.69
304.511	714.69
304.741	737.69
304.971	732.69
305.201	745.69
305.431	741.69
305.661	756.69
305.891	740.69
306.121	726.69
306.352	750.69
306.582	683.69
306.812	736.69
307.042	725.69
307.272	732.69
307.502	709.69
307.731	714.69
307.961	709.69
308.191	719.69
308.421	720.69
308.651	719.69
308.881	713.69
309.111	734.69
309.341	697.69
309.571	744.69
309.8	730.69
310.03	746.69
310.26	762.69
310.49	753.69
310.72	733.69
310.949	740.69
311.179	737.69
311.409	740.69
311.639	731.69
311.868	735.69
312.098	747.69
312.328	752.69
312.557	778.69
312.787	766.69
313.017	785.69
313.246	768.69
313.476	801.69
313.706	792.69
313.935	780.69
314.165	789.69
314.394	777.69
314.624	791.69
314.853	773.69
315.083	783.69
315.312	817.69
315.542	813.69
315.771	800.69
316.001	775.69
316.23	777.69
316.46	794.69
316.689	823.69
316.919	809.69
317.148	811.69
317.377	816.69
317.607	795.69
317.836	792.69
318.065	799.69
318.295	830.69
318.524	836.69
318.753	805.69
318.983	823.69
319.212	823.69
319.441	840.69
319.67	807.69
319.9	816.69
320.129	820.69
320.358	850.69
320.587	823.69
320.816	801.69
321.046	832.69
321.275	836.69
321.504	822.69
321.733	841.69
321.962	859.69
322.191	837.69
322.42	858.69
322.649	871.69
322.878	858.69
323.108	852.69
323.337	867.69
323.566	866.69
323.795	903.69
324.024	887.69
324.253	900.69
324.482	898.69
324.71	900.69
324.939	871.69
325.168	907.69
325.397	879.69
325.626	880.69
325.855	906.69
326.084	917.69
326.313	923.69
326.542	927.69
326.77	974.69
326.999	940.69
327.228	924.69
327.457	940.69
327.686	938.69
327.914	944.69
328.143	967.69
328.372	951.69
328.6	949.69
328.829	975.69
329.058	963.69
329.287	979.69
329.515	1001.69
329.744	935.69
329.972	995.69
330.201	972.69
330.43	1006.69
330.658	980.69
330.887	999.69
331.115	1022.69
331.344	1049.69
331.572	1030.69
331.801	1031.69
332.03	1052.69
332.258	1079.69
332.486	1070.69
332.715	1091.69
332.943	1131.69
333.172	1135.69
333.4	1151.69
333.629	1194.69
333.857	1232.69
334.085	1235.69
334.314	1229.69
334.542	1204.69
334.771	1247.69
334.999	1214.69
335.227	1232.69
335.455	1241.69
335.684	1207.69
335.912	1220.69
336.14	1198.69
336.369	1203.69
336.597	1220.69
336.825	1211.69
337.053	1199.69
337.281	1201.69
337.51	1184.69
337.738	1173.69
337.966	1147.69
338.194	1121.69
338.422	1143.69
338.65	1091.69
338.878	1107.69
339.106	1099.69
339.334	1130.69
339.562	1100.69
339.79	1071.69
340.018	1074.69
340.246	1050.69
340.474	1077.69
340.702	1041.69
340.93	1079.69
341.158	1096.69
341.386	1084.69
341.614	1114.69
341.842	1075.69
342.07	1040.69
342.298	1063.69
342.526	1031.69
342.754	1084.69
342.981	1099.69
343.209	1090.69
343.437	1108.69
343.665	1157.69
343.893	1211.69
344.12	1224.69
344.348	1203.69
344.576	1167.69
344.804	1161.69
345.031	1140.69
345.259	1111.69
345.487	1089.69
345.714	1089.69
345.942	1100.69
346.17	1090.69
346.397	1107.69
346.625	1044.69
346.853	1029.69
347.08	1024.69
347.308	1023.69
347.535	1037.69
347.763	1031.69
347.99	1035.69
348.218	1031.69
348.445	1044.69
348.673	998.69
348.9	1004.69
349.128	1055.69
349.355	1046.69
349.583	1045.69
349.81	1003.69
350.037	1009.69
350.265	996.69
350.492	993.69
350.72	1043.69
350.947	998.69
351.174	1007.69
351.402	1022.69
351.629	1075.69
351.856	1032.69
352.083	1001.69
352.311	1012.69
352.538	1022.69
352.765	1035.69
352.992	1013.69
353.22	993.69
353.447	959.69
353.674	967.69
353.901	945.69
354.128	979.69
354.355	978.69
354.583	997.69
354.81	982.69
355.037	963.69
355.264	991.69
355.491	996.69
355.718	1002.69
355.945	987.69
356.172	999.69
356.399	984.69
356.626	986.69
356.853	1018.69
357.08	983.69
357.307	1020.69
357.534	971.69
357.761	979.69
357.988	983.69
358.215	963.69
358.441	973.69
358.668	974.69
358.895	1002.69
359.122	1012.69
359.349	1014.69
359.576	993.69
359.802	1007.69
360.029	1020.69
360.256	971.69
360.483	1006.69
360.709	968.69
360.936	992.69
361.163	983.69
361.39	994.69
361.616	1006.69
361.843	1010.69
362.07	1057.69
362.296	1025.69
362.523	985.69
362.749	980.69
362.976	989.69
363.203	979.69
363.429	985.69
363.656	995.69
363.882	976.69
364.109	1003.69
364.335	993.69
364.562	969.69
364.788	975.69
365.015	983.69
365.241	964.69
365.468	986.69
365.694	961.69
365.92	966.69
366.147	968.69
366.373	991.69
366.599	975.69
366.826	988.69
367.052	979.69
367.278	979.69
367.505	1015.69
367.731	964.69
367.957	1002.69
368.184	985.69
368.41	999.69
368.636	993.69
368.862	1021.69
369.089	1008.69
369.315	995.69
369.541	969.69
369.767	1035.69
369.993	1001.69
370.219	1008.69
370.445	1017.69
370.672	1028.69
370.898	1041.69
371.124	997.69
371.35	1026.69
371.576	1041.69
371.802	1055.69
372.028	1041.69
372.254	1046.69
372.48	1083.69
372.706	1063.69
372.932	1081.69
373.158	1102.69
373.384	1070.69
373.61	1033.69
373.835	1013.69
374.061	1058.69
374.287	1057.69
374.513	1046.69
374.739	1082.69
374.965	1099.69
375.191	1104.69
375.416	1131.69
375.642	1095.69
375.868	1057.69
376.094	1093.69
376.319	1061.69
376.545	1049.69
376.771	1049.69
376.997	1059.69
377.222	1008.69
377.448	1045.69
377.674	1044.69
377.899	1036.69
378.125	986.69
378.35	1029.69
378.576	1013.69
378.802	979.69
379.027	1009.69
379.253	1009.69
379.478	1008.69
379.704	1025.69
379.929	1009.69
380.155	1010.69
380.38	1027.69
380.606	1045.69
380.831	1035.69
381.057	1041.69
381.282	1033.69
381.507	1012.69
381.733	1069.69
381.958	1059.69
382.184	1068.69
382.409	1052.69
382.634	1020.69
382.86	1062.69
383.085	1051.69
383.31	1060.69
383.535	1084.69
383.761	1087.69
383.986	1111.69
384.211	1116.69
384.436	1122.69
384.662	1151.69
384.887	1155.69
385.112	1138.69
385.337	1145.69
385.562	1181.69
385.787	1181.69
386.013	1195.69
386.238	1194.69
386.463	1210.69
386.688	1177.69
386.913	1177.69
387.138	1176.69
387.363	1197.69
387.588	1218.69
387.813	1200.69
388.038	1216.69
388.263	1201.69
388.488	1196.69
388.713	1224.69
388.938	1201.69
389.163	1207.69
389.387	1227.69
389.612	1216.69
389.837	1216.69
390.062	1196.69
390.287	1183.69
390.512	1213.69
390.736	1243.69
390.961	1240.69
391.186	1257.69
391.411	1247.69
391.636	1276.69
391.86	1316.69
392.085	1322.69
392.31	1327.69
392.534	1312.69
392.759	1324.69
392.984	1278.69
393.208	1303.69
393.433	1301.69
393.658	1291.69
393.882	1263.69
394.107	1295.69
394.331	1275.69
394.556	1265.69
394.78	1283.69
395.005	1315.69
395.229	1308.69
395.454	1323.69
395.678	1292.69
395.903	1348.69
396.127	1349.69
396.352	1307.69
396.576	1298.69
396.801	1308.69
397.025	1343.69
397.249	1343.69
397.474	1362.69
397.698	1370.69
397.922	1411.69
398.147	1411.69
398.371	1434.69
398.595	1475.69
398.82	1509.69
399.044	1596.69
399.268	1678.69
399.492	1825.69
399.717	1881.69
399.941	1900.69
400.165	1894.69
400.389	1771.69
400.613	1714.69
400.837	1647.69
401.062	1601.69
401.286	1550.69
401.51	1551.69
401.734	1540.69
401.958	1554.69
402.182	1518.69
402.406	1517.69
402.63	1572.69
402.854	1532.69
403.078	1510.69
403.302	1519.69
403.526	1587.69
403.75	1550.69
403.974	1574.69
404.198	1587.69
404.422	1548.69
404.645	1603.69
404.869	1575.69
405.093	1621.69
405.317	1602.69
405.541	1630.69
405.765	1636.69
405.988	1578.69
406.212	1608.69
406.436	1615.69
406.66	1688.69
406.883	1663.69
407.107	1779.69
407.331	1799.69
407.555	1822.69
407.778	1851.69
408.002	1791.69
408.226	1762.69
408.449	1775.69
408.673	1746.69
408.896	1742.69
409.12	1728.69
409.344	1708.69
409.567	1686.69
409.791	1675.69
410.014	1675.69
410.238	1633.69
410.461	1648.69
410.685	1600.69
410.908	1607.69
411.132	1624.69
411.355	1583.69
411.578	1613.69
411.802	1601.69
412.025	1551.69
412.249	1641.69
412.472	1604.69
412.695	1543.69
412.919	1526.69
413.142	1555.69
413.365	1556.69
413.589	1572.69
413.812	1532.69
414.035	1562.69
414.258	1551.69
414.482	1547.69
414.705	1551.69
414.928	1564.69
415.151	1535.69
415.374	1564.69
415.597	1503.69
415.821	1501.69
416.044	1453.69
416.267	1507.69
416.49	1477.69
416.713	1498.69
416.936	1509.69
417.159	1486.69
417.382	1496.69
417.605	1481.69
417.828	1468.69
418.051	1494.69
418.274	1531.69
418.497	1475.69
418.72	1513.69
418.943	1504.69
419.166	1589.69
419.389	1705.69
419.611	1655.69
419.834	1600.69
420.057	1539.69
420.28	1543.69
420.503	1514.69
420.726	1498.69
420.948	1480.69
421.171	1521.69
421.394	1508.69
421.617	1479.69
421.839	1534.69
422.062	1512.69
422.285	1492.69
422.507	1502.69
422.73	1506.69
422.953	1523.69
423.175	1512.69
423.398	1532.69
423.621	1531.69
423.843	1523.69
424.066	1539.69
424.288	1534.69
424.511	1497.69
424.733	1509.69
424.956	1483.69
425.178	1482.69
425.401	1502.69
425.623	1524.69
425.846	1463.69
426.068	1449.69
426.291	1471.69
426.513	1471.69
426.735	1464.69
426.958	1460.69
427.18	1405.69
427.402	1417.69
427.625	1426.69
427.847	1406.69
428.069	1420.69
428.292	1418.69
428.514	1417.69
428.736	1404.69
428.958	1423.69
429.181	1412.69
429.403	1386.69
429.625	1410.69
429.847	1415.69
430.069	1373.69
430.292	1423.69
430.514	1377.69
430.736	1418.69
430.958	1393.69
431.18	1375.69
431.402	1412.69
431.624	1385.69
431.846	1377.69
432.068	1388.69
432.29	1430.69
432.512	1417.69
432.734	1423.69
432.956	1421.69
433.178	1420.69
433.4	1402.69
433.622	1432.69
433.844	1435.69
434.066	1417.69
434.287	1449.69
434.509	1473.69
434.731	1472.69
434.953	1508.69
435.175	1491.69
435.397	1518.69
435.618	1493.69
435.84	1449.69
436.062	1444.69
436.284	1425.69
436.505	1432.69
436.727	1429.69
436.949	1473.69
437.17	1441.69
437.392	1380.69
437.614	1402.69
437.835	1381.69
438.057	1359.69
438.278	1333.69
438.5	1364.69
438.721	1358.69
438.943	1373.69
439.165	1399.69
439.386	1387.69
439.608	1387.69
439.829	1406.69
440.05	1417.69
440.272	1389.69
440.493	1397.69
440.715	1448.69
440.936	1441.69
441.158	1473.69
441.379	1487.69
441.6	1531.69
441.822	1520.69
442.043	1527.69
442.264	1494.69
442.486	1457.69
442.707	1540.69
442.928	1474.69
443.149	1531.69
443.371	1468.69
443.592	1492.69
443.813	1541.69
444.034	1551.69
444.255	1572.69
444.476	1597.69
444.698	1663.69
444.919	1687.69
445.14	1775.69
445.361	1682.69
445.582	1625.69
445.803	1527.69
446.024	1495.69
446.245	1498.69
446.466	1496.69
446.687	1449.69
446.908	1472.69
447.129	1437.69
447.35	1409.69
447.571	1391.69
447.792	1335.69
448.013	1353.69
448.234	1357.69
448.455	1328.69
448.675	1317.69
448.896	1335.69
449.117	1309.69
449.338	1323.69
449.559	1318.69
449.779	1275.69
450	1279.69
450.221	1278.69
450.442	1297.69
450.662	1283.69
450.883	1284.69
451.104	1358.69
451.324	1291.69
451.545	1311.69
451.766	1308.69
451.986	1283.69
452.207	1282.69
452.428	1278.69
452.648	1252.69
452.869	1261.69
453.089	1225.69
453.31	1280.69
453.53	1217.69
453.751	1222.69
453.971	1234.69
454.192	1279.69
454.412	1226.69
454.633	1214.69
454.853	1227.69
455.073	1216.69
455.294	1204.69
455.514	1180.69
455.734	1216.69
455.955	1195.69
456.175	1217.69
456.395	1201.69
456.616	1234.69
456.836	1200.69
457.056	1226.69
457.276	1221.69
457.497	1216.69
457.717	1252.69
457.937	1233.69
458.157	1240.69
458.377	1297.69
458.598	1306.69
458.818	1335.69
459.038	1341.69
459.258	1383.69
459.478	1439.69
459.698	1475.69
459.918	1483.69
460.138	1505.69
460.358	1543.69
460.578	1565.69
460.798	1580.69
461.018	1611.69
461.238	1595.69
461.458	1618.69
461.678	1590.69
461.898	1643.69
462.118	1625.69
462.338	1672.69
462.558	1709.69
462.777	1823.69
462.997	1867.69
463.217	1922.69
463.437	1947.69
463.657	1909.69
463.876	1869.69
464.096	1827.69
464.316	1763.69
464.536	1778.69
464.755	1752.69
464.975	1689.69
465.195	1627.69
465.414	1612.69
465.634	1516.69
465.854	1500.69
466.073	1458.69
466.293	1447.69
466.512	1403.69
466.732	1349.69
466.951	1403.69
467.171	1369.69
467.391	1373.69
467.61	1375.69
467.829	1320.69
468.049	1348.69
468.268	1303.69
468.488	1304.69
468.707	1333.69
468.927	1357.69
469.146	1300.69
469.365	1349.69
469.585	1302.69
469.804	1335.69
470.023	1392.69
470.243	1372.69
470.462	1393.69
470.681	1394.69
470.901	1390.69
471.12	1351.69
471.339	1394.69
471.558	1415.69
471.777	1380.69
471.997	1327.69
472.216	1309.69
472.435	1303.69
472.654	1268.69
472.873	1301.69
473.092	1315.69
473.311	1305.69
473.53	1306.69
473.749	1300.69
473.968	1293.69
474.187	1296.69
474.406	1311.69
474.625	1337.69
474.844	1323.69
475.063	1336.69
475.282	1328.69
475.501	1351.69
475.72	1327.69
475.939	1379.69
476.158	1354.69
476.377	1380.69
476.596	1348.69
476.814	1369.69
477.033	1367.69
477.252	1401.69
477.471	1431.69
477.69	1447.69
477.908	1483.69
478.127	1515.69
478.346	1506.69
478.564	1540.69
478.783	1541.69
479.002	1584.69
479.22	1598.69
479.439	1586.69
479.658	1593.69
479.876	1615.69
480.095	1598.69
480.313	1629.69
480.532	1613.69
480.751	1651.69
480.969	1614.69
481.188	1598.69
481.406	1560.69
481.624	1573.69
481.843	1512.69
482.061	1519.69
482.28	1528.69
482.498	1550.69
482.717	1504.69
482.935	1481.69
483.153	1497.69
483.372	1532.69
483.59	1539.69
483.808	1567.69
484.027	1531.69
484.245	1479.69
484.463	1539.69
484.681	1563.69
484.9	1547.69
485.118	1550.69
485.336	1532.69
485.554	1550.69
485.772	1537.69
485.99	1541.69
486.209	1523.69
486.427	1525.69
486.645	1534.69
486.863	1567.69
487.081	1569.69
487.299	1582.69
487.517	1543.69
487.735	1575.69
487.953	1570.69
488.171	1616.69
488.389	1542.69
488.607	1545.69
488.825	1568.69
489.043	1528.69
489.261	1513.69
489.479	1553.69
489.696	1530.69
489.914	1542.69
490.132	1558.69
490.35	1583.69
490.568	1586.69
490.786	1591.69
491.003	1591.69
491.221	1645.69
491.439	1622.69
491.657	1644.69
491.874	1603.69
492.092	1665.69
492.31	1677.69
492.527	1617.69
492.745	1582.69
492.963	1632.69
493.18	1640.69
493.398	1646.69
493.615	1659.69
493.833	1707.69
494.05	1696.69
494.268	1699.69
494.485	1686.69
494.703	1692.69
494.92	1712.69
495.138	1715.69
495.355	1703.69
495.573	1749.69
495.79	1727.69
496.008	1757.69
496.225	1816.69
496.442	1764.69
496.66	1811.69
496.877	1875.69
497.094	1874.69
497.312	1898.69
497.529	1919.69
497.746	1996.69
497.963	2034.69
498.181	2134.69
498.398	2208.69
498.615	2280.69
498.832	2404.69
499.049	2493.69
499.267	2688.69
499.484	2863.69
499.701	3018.69
499.918	3137.69
500.135	3392.69
500.352	3597.69
500.569	3745.69
500.786	3668.69
501.003	3593.69
501.22	3409.69
501.437	3222.69
501.654	2943.69
501.871	2853.69
502.088	2645.69
502.305	2520.69
502.522	2447.69
502.739	2315.69
502.956	2255.69
503.172	2132.69
503.389	2115.69
503.606	2028.69
503.823	1992.69
504.04	1999.69
504.256	1959.69
504.473	1923.69
504.69	1920.69
504.907	1907.69
505.123	1803.69
505.34	1791.69
505.557	1764.69
505.773	1625.69
505.99	1629.69
506.207	1644.69
506.423	1588.69
506.64	1539.69
506.856	1562.69
507.073	1520.69
507.289	1506.69
507.506	1507.69
507.722	1529.69
507.939	1475.69
508.155	1473.69
508.372	1475.69
508.588	1460.69
508.805	1417.69
509.021	1455.69
509.238	1423.69
509.454	1399.69
509.67	1389.69
509.887	1369.69
510.103	1395.69
510.319	1359.69
510.536	1396.69
510.752	1344.69
510.968	1362.69
511.184	1348.69
511.401	1372.69
511.617	1363.69
511.833	1360.69
512.049	1344.69
512.265	1371.69
512.481	1342.69
512.698	1351.69
512.914	1353.69
513.13	1360.69
513.346	1379.69
513.562	1347.69
513.778	1364.69
513.994	1336.69
514.21	1392.69
514.426	1396.69
514.642	1378.69
514.858	1395.69
515.074	1411.69
515.29	1441.69
515.506	1420.69
515.721	1441.69
515.937	1488.69
516.153	1513.69
516.369	1514.69
516.585	1499.69
516.801	1539.69
517.016	1587.69
517.232	1647.69
517.448	1647.69
517.664	1707.69
517.879	1680.69
518.095	1692.69
518.311	1663.69
518.527	1657.69
518.742	1653.69
518.958	1566.69
519.173	1554.69
519.389	1491.69
519.605	1479.69
519.82	1427.69
520.036	1383.69
520.251	1383.69
520.467	1399.69
520.682	1355.69
520.898	1347.69
521.113	1349.69
521.329	1324.69
521.544	1339.69
521.76	1324.69
521.975	1278.69
522.19	1295.69
522.406	1296.69
522.621	1284.69
522.836	1265.69
523.052	1270.69
523.267	1266.69
523.482	1271.69
523.698	1279.69
523.913	1247.69
524.128	1240.69
524.343	1230.69
524.559	1252.69
524.774	1214.69
524.989	1236.69
525.204	1242.69
525.419	1241.69
525.634	1217.69
525.849	1226.69
526.064	1257.69
526.28	1214.69
526.495	1192.69
526.71	1201.69
526.925	1231.69
527.14	1214.69
527.355	1185.69
527.57	1204.69
527.785	1145.69
527.999	1179.69
528.214	1178.69
528.429	1211.69
528.644	1160.69
528.859	1198.69
529.074	1206.69
529.289	1184.69
529.503	1198.69
529.718	1215.69
529.933	1223.69
530.148	1208.69
530.363	1154.69
530.577	1190.69
530.792	1156.69
531.007	1198.69
531.221	1195.69
531.436	1203.69
531.651	1190.69
531.865	1176.69
532.08	1151.69
532.295	1188.69
532.509	1195.69
532.724	1173.69
532.938	1199.69
533.153	1182.69
533.367	1197.69
533.582	1173.69
533.796	1183.69
534.011	1165.69
534.225	1139.69
534.44	1162.69
534.654	1163.69
534.868	1161.69
535.083	1124.69
535.297	1137.69
535.511	1130.69
535.726	1181.69
535.94	1161.69
536.154	1119.69
536.369	1141.69
536.583	1113.69
536.797	1105.69
537.011	1096.69
537.225	1119.69
537.44	1112.69
537.654	1089.69
537.868	1071.69
538.082	1059.69
538.296	1111.69
538.51	1103.69
538.724	1139.69
538.938	1089.69
539.153	1114.69
539.367	1103.69
539.581	1098.69
539.795	1071.69
540.009	1052.69
540.222	1073.69
540.436	1085.69
540.65	1098.69
540.864	1093.69
541.078	1093.69
541.292	1099.69
541.506	1076.69
541.72	1092.69
541.934	1104.69
542.147	1108.69
542.361	1083.69
542.575	1048.69
542.789	1057.69
543.002	1064.69
543.216	1069.69
543.43	1084.69
543.644	1087.69
543.857	1063.69
544.071	1058.69
544.285	1087.69
544.498	1096.69
544.712	1057.69
544.925	1071.69
545.139	1079.69
545.352	1073.69
545.566	1056.69
545.779	1075.69
545.993	1106.69
546.206	1095.69
546.42	1082.69
546.633	1084.69
546.847	1083.69
547.06	1091.69
547.274	1109.69
547.487	1100.69
547.7	1108.69
547.914	1086.69
548.127	1089.69
548.34	1107.69
548.554	1129.69
548.767	1105.69
548.98	1124.69
549.193	1110.69
549.407	1085.69
549.62	1099.69
549.833	1100.69
550.046	1090.69
550.259	1084.69
550.473	1096.69
550.686	1089.69
550.899	1068.69
551.112	1075.69
551.325	1084.69
551.538	1058.69
551.751	1096.69
551.964	1087.69
552.177	1084.69
552.39	1114.69
552.603	1109.69
552.816	1124.69
553.029	1119.69
553.242	1132.69
553.455	1147.69
553.667	1149.69
553.88	1112.69
554.093	1108.69
554.306	1083.69
554.519	1104.69
554.732	1027.69
554.944	1043.69
555.157	1075.69
555.37	1034.69
555.583	1011.69
555.795	1009.69
556.008	996.69
556.221	978.69
556.433	979.69
556.646	961.69
556.859	958.69
557.071	967.69
557.284	968.69
557.496	957.69
557.709	951.69
557.921	928.69
558.134	941.69
558.346	927.69
558.559	918.69
558.771	935.69
558.984	909.69
559.196	882.69
559.409	934.69
559.621	955.69
559.833	907.69
560.046	902.69
560.258	902.69
560.47	890.69
560.683	905.69
560.895	896.69
561.107	903.69
561.32	937.69
561.532	901.69
561.744	881.69
561.956	911.69
562.168	937.69
562.381	925.69
562.593	938.69
562.805	951.69
563.017	935.69
563.229	917.69
563.441	932.69
563.653	916.69
563.865	910.69
564.077	923.69
564.289	947.69
564.501	950.69
564.713	988.69
564.925	989.69
565.137	1008.69
565.349	1009.69
565.561	1032.69
565.773	1120.69
565.985	1118.69
566.197	1133.69
566.408	1172.69
566.62	1230.69
566.832	1252.69
567.044	1293.69
567.255	1290.69
567.467	1340.69
567.679	1318.69
567.891	1377.69
568.102	1314.69
568.314	1293.69
568.526	1233.69
568.737	1193.69
568.949	1131.69
569.161	1083.69
569.372	1059.69
569.584	1020.69
569.795	988.69
570.007	953.69
570.218	961.69
570.43	917.69
570.641	891.69
570.853	892.69
571.064	891.69
571.276	860.69
571.487	844.69
571.698	824.69
571.91	850.69
572.121	846.69
572.333	821.69
572.544	791.69
572.755	791.69
572.966	789.69
573.178	797.69
573.389	769.69
573.6	743.69
573.811	747.69
574.023	732.69
574.234	750.69
574.445	743.69
574.656	746.69
574.867	733.69
575.078	764.69
575.289	725.69
575.501	699.69
575.712	705.69
575.923	687.69
576.134	716.69
576.345	705.69
576.556	704.69
576.767	693.69
576.978	724.69
577.188	684.69
577.399	681.69
577.61	657.69
577.821	672.69
578.032	672.69
578.243	670.69
578.454	663.69
578.665	639.69
578.875	635.69
579.086	647.69
579.297	636.69
579.508	632.69
579.718	637.69
579.929	657.69
580.14	647.69
580.35	640.69
580.561	618.69
580.772	627.69
580.982	609.69
581.193	630.69
581.403	639.69
581.614	631.69
581.825	631.69
582.035	601.69
582.246	607.69
582.456	613.69
582.667	606.69
582.877	587.69
583.087	600.69
583.298	592.69
583.508	598.69
583.719	605.69
583.929	620.69
584.139	612.69
584.35	597.69
584.56	609.69
584.77	608.69
584.981	612.69
585.191	597.69
585.401	585.69
585.611	586.69
585.821	591.69
586.032	597.69
586.242	585.69
586.452	584.69
586.662	570.69
586.872	595.69
587.082	579.69
587.292	566.69
587.502	591.69
587.713	567.69
587.923	578.69
588.133	582.69
588.343	577.69
588.553	585.69
588.762	607.69
588.972	590.69
589.182	616.69
589.392	633.69
589.602	611.69
589.812	627.69
590.022	609.69
590.232	586.69
590.441	603.69
590.651	600.69
590.861	588.69
591.071	591.69
591.281	597.69
591.49	616.69
591.7	624.69
591.91	632.69
592.119	643.69
592.329	619.69
592.539	626.69
592.748	609.69
592.958	637.69
593.167	651.69
593.377	656.69
593.587	676.69
593.796	687.69
594.006	653.69
594.215	639.69
594.424	667.69
594.634	645.69
594.843	627.69
595.053	621.69
595.262	636.69
595.472	596.69
595.681	559.69
595.89	559.69
596.1	585.69
596.309	563.69
596.518	545.69
596.727	555.69
596.937	517.69
597.146	540.69
597.355	542.69
597.564	552.69
597.774	535.69
597.983	496.69
598.192	503.69
598.401	498.69
598.61	497.69
598.819	508.69
599.028	487.69
599.237	485.69
599.446	473.69
599.655	477.69
599.864	505.69
600.073	499.69
600.282	472.69
600.491	472.69
600.7	458.69
600.909	455.69
601.118	459.69
601.327	460.69
601.536	467.69
601.745	476.69
601.953	471.69
602.162	480.69
602.371	453.69
602.58	462.69
602.789	469.69
602.997	454.69
603.206	451.69
603.415	468.69
603.623	466.69
603.832	440.69
604.041	453.69
604.249	447.69
604.458	433.69
604.666	442.69
604.875	427.69
605.084	439.69
605.292	439.69
605.501	427.69
605.709	443.69
605.918	451.69
606.126	449.69
606.334	430.69
606.543	444.69
606.751	442.69
606.96	421.69
607.168	444.69
607.376	436.69
607.585	431.69
607.793	413.69
608.001	421.69
608.21	426.69
608.418	427.69
608.626	424.69
608.834	429.69
609.043	403.69
609.251	424.69
609.459	431.69
609.667	422.69
609.875	412.69
610.083	431.69
610.291	432.69
610.499	420.69
610.707	408.69
610.916	388.69
611.124	426.69
611.332	405.69
611.54	410.69
611.748	420.69
611.955	399.69
612.163	399.69
612.371	408.69
612.579	407.69
612.787	414.69
612.995	394.69
613.203	417.69
613.411	405.69
613.618	399.69
613.826	397.69
614.034	404.69
614.242	409.69
614.449	383.69
614.657	401.69
614.865	400.69
615.072	385.69
615.28	405.69
615.488	426.69
615.695	385.69
615.903	404.69
616.111	395.69
616.318	409.69
616.526	416.69
616.733	395.69
616.941	387.69
617.148	408.69
617.356	415.69
617.563	402.69
617.771	411.69
617.978	398.69
618.185	399.69
618.393	378.69
618.6	381.69
618.807	381.69
619.015	409.69
619.222	380.69
619.429	369.69
619.637	399.69
619.844	389.69
620.051	363.69
620.258	367.69
620.466	383.69
620.673	361.69
620.88	353.69
621.087	370.69
621.294	387.69
621.501	372.69
621.708	373.69
621.915	377.69
622.122	366.69
622.329	384.69
622.536	361.69
622.743	367.69
622.95	364.69
623.157	347.69
623.364	356.69
623.571	353.69
623.778	343.69
623.985	347.69
624.192	339.69
624.399	351.69
624.606	350.69
624.812	360.69
625.019	333.69
625.226	351.69
625.433	358.69
625.639	338.69
625.846	315.69
626.053	360.69
626.259	356.69
626.466	324.69
626.673	340.69
626.879	324.69
627.086	335.69
627.293	337.69
627.499	315.69
627.706	334.69
627.912	333.69
628.119	356.69
628.325	332.69
628.532	332.69
628.738	321.69
628.945	321.69
629.151	315.69
629.357	322.69
629.564	328.69
629.77	317.69
629.976	320.69
630.183	308.69
630.389	331.69
630.595	313.69
630.802	333.69
631.008	310.69
631.214	308.69
631.42	329.69
631.627	320.69
631.833	321.69
632.039	301.69
632.245	283.69
632.451	297.69
632.657	305.69
632.863	289.69
633.069	291.69
633.275	312.69
633.481	287.69
633.688	319.69
633.893	302.69
634.099	299.69
634.305	291.69
634.511	316.69
634.717	303.69
634.923	279.69
635.129	286.69
635.335	295.69
635.541	305.69
635.747	283.69
635.952	296.69
636.158	292.69
636.364	291.69
636.57	281.69
636.775	289.69
636.981	276.69
637.187	273.69
637.392	299.69
637.598	281.69
637.804	276.69
638.009	276.69
638.215	287.69
638.421	283.69
638.626	264.69
638.832	295.69
639.037	272.69
639.243	266.69
639.448	275.69
639.654	268.69
639.859	263.69
640.065	257.69
640.27	271.69
640.475	272.69
640.681	276.69
640.886	271.69
641.091	272.69
641.297	281.69
641.502	282.69
641.707	274.69
641.913	269.69
642.118	261.69
642.323	258.69
642.528	266.69
642.733	246.69
642.939	232.69
643.144	247.69
643.349	271.69
643.554	283.69
643.759	257.69
643.964	258.69
644.169	244.69
644.374	241.69
644.579	264.69
644.784	267.69
644.989	269.69
645.194	244.69
645.399	255.69
645.604	255.69
645.809	267.69
646.014	249.69
646.219	247.69
646.423	243.69
646.628	242.69
646.833	249.69
647.038	229.69
647.243	241.69
647.447	265.69
647.652	247.69
647.857	269.69
648.062	268.69
648.266	237.69
648.471	265.69
648.676	267.69
648.88	284.69
649.085	260.69
649.289	274.69
649.494	235.69
649.698	241.69
649.903	247.69
650.107	234.69
650.312	237.69
650.516	229.69
650.721	227.69
650.925	233.69
651.13	227.69
651.334	223.69
651.539	232.69
651.743	211.69
651.947	224.69
652.152	216.69
652.356	215.69
652.56	213.69
652.764	213.69
652.969	190.69
653.173	205.69
653.377	210.69
653.581	213.69
653.785	202.69
653.99	218.69
654.194	211.69
654.398	197.69
654.602	185.69
654.806	195.69
655.01	193.69
655.214	205.69
655.418	183.69
655.622	169.69
655.826	187.69
656.03	178.69
656.234	174.69
656.438	175.69
656.642	163.69
656.846	189.69
657.049	175.69
657.253	175.69
657.457	159.69
657.661	171.69
657.865	149.69
658.068	145.69
658.272	143.69
658.476	137.69
658.68	135.69
658.883	142.69
659.087	132.69
659.291	117.69
659.494	112.69
659.698	122.69
659.901	129.69
660.105	113.69
660.309	135.69
660.512	108.69
660.716	113.69
660.919	113.69
661.123	123.69
661.326	108.69
661.53	105.69
661.733	101.69
661.936	120.69
662.14	79.69
662.343	93.69
662.546	90.69
662.75	106.69
662.953	98.69
663.156	89.69
663.36	84.69
663.563	95.69
663.766	89.69
663.969	80.69
664.173	90.69
664.376	82.69
664.579	91.69
664.782	83.69
664.985	87.69
665.188	83.69
665.391	87.69
665.594	95.69
665.797	97.69
666	88.69
666.203	89.69
666.406	77.69
666.609	89.69
666.812	80.69
667.015	82.69
667.218	99.69
667.421	96.69
667.624	77.69
667.827	72.69
668.03	84.69
668.232	100.69
668.435	85.69
668.638	88.69
668.841	83.69
669.043	66.69
669.246	91.69
669.449	95.69
669.651	93.69
669.854	85.69
670.057	88.69
670.259	83.69
670.462	74.69
670.665	84.69
670.867	95.69
671.07	73.69
671.272	87.69
671.475	85.69
671.677	80.69
671.88	87.69
672.082	76.69
672.284	101.69
672.487	80.69
672.689	76.69
672.892	80.69
