Data from Ni(NO3)2@0.5M.TitratingCurve.Agarose3%dH2O.NegLispCup.LampEnergy10.LIBS07252019_HRD10591_17-57-23-563.txt Node
Date: Thu Jul 25 17:57:23 EDT 2019
User: cochatt
Spectrometer: HR+D1059
Trigger mode: 1
Integration Time (sec): 1.000000E-1
Scans to average: 1
Electric dark correction enabled: true
Nonlinearity correction enabled: false
Boxcar width: 0
XAxis mode: Wavelengths
Number of Pixels in Spectrum: 2048
>>>>>Begin Spectral Data<<<<<
223.165	-20.62
223.4	-20.62
223.635	-20.62
223.869	-25.62
224.104	-27.62
224.338	-13.62
224.573	-7.62
224.808	-0.62
225.042	-18.62
225.277	2.38
225.511	1.38
225.746	6.38
225.98	18.38
226.215	12.38
226.449	18.38
226.683	14.38
226.918	14.38
227.152	26.38
227.387	24.38
227.621	44.38
227.856	34.38
228.09	41.38
228.324	48.38
228.559	52.38
228.793	73.38
229.027	130.38
229.262	126.38
229.496	141.38
229.73	136.38
229.964	192.38
230.199	212.38
230.433	189.38
230.667	185.38
230.901	185.38
231.136	182.38
231.37	190.38
231.604	216.38
231.838	194.38
232.072	188.38
232.306	213.38
232.541	188.38
232.775	184.38
233.009	184.38
233.243	189.38
233.477	181.38
233.711	169.38
233.945	194.38
234.179	203.38
234.413	192.38
234.647	189.38
234.881	190.38
235.115	207.38
235.349	194.38
235.583	180.38
235.817	184.38
236.051	196.38
236.285	209.38
236.519	210.38
236.753	189.38
236.987	186.38
237.221	198.38
237.455	205.38
237.689	192.38
237.922	206.38
238.156	197.38
238.39	209.38
238.624	222.38
238.858	225.38
239.091	217.38
239.325	247.38
239.559	241.38
239.793	245.38
240.027	245.38
240.26	238.38
240.494	217.38
240.728	226.38
240.961	236.38
241.195	228.38
241.429	223.38
241.662	234.38
241.896	257.38
242.13	267.38
242.363	262.38
242.597	227.38
242.83	245.38
243.064	262.38
243.298	254.38
243.531	258.38
243.765	243.38
243.998	256.38
244.232	282.38
244.465	283.38
244.699	261.38
244.932	265.38
245.166	283.38
245.399	286.38
245.633	282.38
245.866	293.38
246.099	302.38
246.333	282.38
246.566	291.38
246.8	293.38
247.033	299.38
247.266	307.38
247.5	300.38
247.733	292.38
247.966	315.38
248.2	308.38
248.433	329.38
248.666	338.38
248.899	337.38
249.133	349.38
249.366	325.38
249.599	324.38
249.832	323.38
250.066	338.38
250.299	337.38
250.532	331.38
250.765	364.38
250.998	358.38
251.231	362.38
251.465	381.38
251.698	382.38
251.931	374.38
252.164	372.38
252.397	353.38
252.63	362.38
252.863	370.38
253.096	370.38
253.329	390.38
253.562	382.38
253.795	379.38
254.028	408.38
254.261	397.38
254.494	403.38
254.727	408.38
254.96	417.38
255.193	417.38
255.426	415.38
255.659	431.38
255.892	428.38
256.124	416.38
256.357	440.38
256.59	425.38
256.823	414.38
257.056	435.38
257.289	440.38
257.521	464.38
257.754	453.38
257.987	443.38
258.22	438.38
258.452	458.38
258.685	450.38
258.918	453.38
259.151	456.38
259.383	499.38
259.616	465.38
259.849	480.38
260.081	482.38
260.314	468.38
260.547	492.38
260.779	465.38
261.012	481.38
261.244	492.38
261.477	498.38
261.71	514.38
261.942	490.38
262.175	505.38
262.407	503.38
262.64	518.38
262.872	522.38
263.105	489.38
263.337	509.38
263.57	495.38
263.802	519.38
264.035	509.38
264.267	523.38
264.499	522.38
264.732	518.38
264.964	535.38
265.197	532.38
265.429	547.38
265.661	537.38
265.894	528.38
266.126	546.38
266.358	533.38
266.591	541.38
266.823	554.38
267.055	543.38
267.287	535.38
267.52	541.38
267.752	554.38
267.984	562.38
268.216	576.38
268.448	566.38
268.681	577.38
268.913	551.38
269.145	564.38
269.377	581.38
269.609	578.38
269.841	573.38
270.073	573.38
270.306	568.38
270.538	576.38
270.77	604.38
271.002	596.38
271.234	593.38
271.466	596.38
271.698	570.38
271.93	589.38
272.162	595.38
272.394	588.38
272.626	585.38
272.858	586.38
273.09	617.38
273.322	624.38
273.553	603.38
273.785	626.38
274.017	626.38
274.249	612.38
274.481	630.38
274.713	604.38
274.945	619.38
275.176	619.38
275.408	625.38
275.64	626.38
275.872	652.38
276.104	623.38
276.335	641.38
276.567	645.38
276.799	646.38
277.031	662.38
277.262	620.38
277.494	635.38
277.726	663.38
277.957	660.38
278.189	668.38
278.421	658.38
278.652	653.38
278.884	658.38
279.115	674.38
279.347	644.38
279.579	678.38
279.81	665.38
280.042	696.38
280.273	679.38
280.505	669.38
280.736	709.38
280.968	668.38
281.199	689.38
281.431	693.38
281.662	692.38
281.894	710.38
282.125	690.38
282.356	683.38
282.588	725.38
282.819	701.38
283.051	688.38
283.282	695.38
283.513	718.38
283.745	712.38
283.976	738.38
284.207	698.38
284.439	698.38
284.67	723.38
284.901	710.38
285.132	721.38
285.364	722.38
285.595	706.38
285.826	722.38
286.057	702.38
286.288	727.38
286.52	738.38
286.751	723.38
286.982	742.38
287.213	727.38
287.444	736.38
287.675	741.38
287.906	719.38
288.138	758.38
288.369	720.38
288.6	737.38
288.831	744.38
289.062	753.38
289.293	723.38
289.524	763.38
289.755	768.38
289.986	780.38
290.217	771.38
290.448	757.38
290.679	762.38
290.91	763.38
291.141	729.38
291.371	790.38
291.602	768.38
291.833	747.38
292.064	752.38
292.295	755.38
292.526	760.38
292.757	749.38
292.987	758.38
293.218	771.38
293.449	786.38
293.68	765.38
293.91	752.38
294.141	779.38
294.372	758.38
294.603	770.38
294.833	766.38
295.064	754.38
295.295	783.38
295.525	773.38
295.756	764.38
295.987	783.38
296.217	777.38
296.448	782.38
296.679	790.38
296.909	785.38
297.14	758.38
297.37	801.38
297.601	795.38
297.831	778.38
298.062	805.38
298.292	796.38
298.523	816.38
298.753	836.38
298.984	814.38
299.214	796.38
299.445	801.38
299.675	816.38
299.905	793.38
300.136	822.38
300.366	843.38
300.597	858.38
300.827	884.38
301.057	844.38
301.288	870.38
301.518	833.38
301.748	850.38
301.979	878.38
302.209	861.38
302.439	854.38
302.669	861.38
302.9	833.38
303.13	858.38
303.36	858.38
303.59	872.38
303.82	861.38
304.051	870.38
304.281	892.38
304.511	871.38
304.741	881.38
304.971	898.38
305.201	875.38
305.431	876.38
305.661	883.38
305.891	882.38
306.121	889.38
306.352	892.38
306.582	851.38
306.812	868.38
307.042	880.38
307.272	884.38
307.502	885.38
307.731	913.38
307.961	923.38
308.191	883.38
308.421	888.38
308.651	885.38
308.881	909.38
309.111	922.38
309.341	899.38
309.571	914.38
309.8	913.38
310.03	936.38
310.26	955.38
310.49	942.38
310.72	925.38
310.949	940.38
311.179	930.38
311.409	950.38
311.639	921.38
311.868	934.38
312.098	930.38
312.328	953.38
312.557	957.38
312.787	966.38
313.017	958.38
313.246	973.38
313.476	980.38
313.706	974.38
313.935	968.38
314.165	968.38
314.394	954.38
314.624	974.38
314.853	974.38
315.083	989.38
315.312	987.38
315.542	995.38
315.771	1009.38
316.001	1012.38
316.23	994.38
316.46	993.38
316.689	1021.38
316.919	1031.38
317.148	1031.38
317.377	1012.38
317.607	1015.38
317.836	1037.38
318.065	1029.38
318.295	1020.38
318.524	1037.38
318.753	1003.38
318.983	1036.38
319.212	1016.38
319.441	1044.38
319.67	1043.38
319.9	1056.38
320.129	1048.38
320.358	1052.38
320.587	1065.38
320.816	1070.38
321.046	1046.38
321.275	1058.38
321.504	1076.38
321.733	1063.38
321.962	1098.38
322.191	1108.38
322.42	1108.38
322.649	1079.38
322.878	1122.38
323.108	1087.38
323.337	1102.38
323.566	1129.38
323.795	1138.38
324.024	1110.38
324.253	1118.38
324.482	1130.38
324.71	1124.38
324.939	1125.38
325.168	1140.38
325.397	1146.38
325.626	1132.38
325.855	1140.38
326.084	1129.38
326.313	1166.38
326.542	1157.38
326.77	1148.38
326.999	1188.38
327.228	1170.38
327.457	1162.38
327.686	1164.38
327.914	1203.38
328.143	1162.38
328.372	1168.38
328.6	1171.38
328.829	1188.38
329.058	1168.38
329.287	1158.38
329.515	1192.38
329.744	1205.38
329.972	1205.38
330.201	1210.38
330.43	1228.38
330.658	1194.38
330.887	1201.38
331.115	1196.38
331.344	1187.38
331.572	1169.38
331.801	1225.38
332.03	1209.38
332.258	1262.38
332.486	1241.38
332.715	1247.38
332.943	1225.38
333.172	1242.38
333.4	1222.38
333.629	1246.38
333.857	1260.38
334.085	1252.38
334.314	1316.38
334.542	1263.38
334.771	1290.38
334.999	1286.38
335.227	1336.38
335.455	1294.38
335.684	1290.38
335.912	1307.38
336.14	1274.38
336.369	1283.38
336.597	1304.38
336.825	1310.38
337.053	1352.38
337.281	1322.38
337.51	1303.38
337.738	1312.38
337.966	1301.38
338.194	1354.38
338.422	1365.38
338.65	1273.38
338.878	1330.38
339.106	1300.38
339.334	1346.38
339.562	1298.38
339.79	1309.38
340.018	1286.38
340.246	1259.38
340.474	1295.38
340.702	1239.38
340.93	1301.38
341.158	1289.38
341.386	1317.38
341.614	1367.38
341.842	1331.38
342.07	1285.38
342.298	1278.38
342.526	1285.38
342.754	1293.38
342.981	1266.38
343.209	1249.38
343.437	1314.38
343.665	1322.38
343.893	1315.38
344.12	1314.38
344.348	1301.38
344.576	1348.38
344.804	1308.38
345.031	1320.38
345.259	1335.38
345.487	1290.38
345.714	1292.38
345.942	1335.38
346.17	1316.38
346.397	1288.38
346.625	1273.38
346.853	1237.38
347.08	1238.38
347.308	1227.38
347.535	1257.38
347.763	1221.38
347.99	1249.38
348.218	1212.38
348.445	1234.38
348.673	1236.38
348.9	1252.38
349.128	1253.38
349.355	1281.38
349.583	1277.38
349.81	1260.38
350.037	1241.38
350.265	1254.38
350.492	1270.38
350.72	1206.38
350.947	1256.38
351.174	1250.38
351.402	1307.38
351.629	1291.38
351.856	1291.38
352.083	1254.38
352.311	1209.38
352.538	1276.38
352.765	1257.38
352.992	1229.38
353.22	1220.38
353.447	1179.38
353.674	1206.38
353.901	1204.38
354.128	1213.38
354.355	1183.38
354.583	1196.38
354.81	1242.38
355.037	1206.38
355.264	1210.38
355.491	1225.38
355.718	1211.38
355.945	1216.38
356.172	1213.38
356.399	1222.38
356.626	1220.38
356.853	1252.38
357.08	1212.38
357.307	1252.38
357.534	1184.38
357.761	1195.38
357.988	1216.38
358.215	1193.38
358.441	1208.38
358.668	1204.38
358.895	1194.38
359.122	1178.38
359.349	1221.38
359.576	1206.38
359.802	1243.38
360.029	1207.38
360.256	1252.38
360.483	1210.38
360.709	1206.38
360.936	1213.38
361.163	1222.38
361.39	1241.38
361.616	1226.38
361.843	1210.38
362.07	1278.38
362.296	1292.38
362.523	1237.38
362.749	1219.38
362.976	1223.38
363.203	1238.38
363.429	1178.38
363.656	1197.38
363.882	1226.38
364.109	1212.38
364.335	1213.38
364.562	1220.38
364.788	1209.38
365.015	1268.38
365.241	1227.38
365.468	1239.38
365.694	1249.38
365.92	1210.38
366.147	1200.38
366.373	1217.38
366.599	1218.38
366.826	1229.38
367.052	1211.38
367.278	1230.38
367.505	1229.38
367.731	1246.38
367.957	1223.38
368.184	1184.38
368.41	1247.38
368.636	1246.38
368.862	1226.38
369.089	1226.38
369.315	1235.38
369.541	1219.38
369.767	1233.38
369.993	1230.38
370.219	1252.38
370.445	1251.38
370.672	1246.38
370.898	1242.38
371.124	1237.38
371.35	1254.38
371.576	1281.38
371.802	1276.38
372.028	1280.38
372.254	1267.38
372.48	1260.38
372.706	1264.38
372.932	1259.38
373.158	1237.38
373.384	1268.38
373.61	1241.38
373.835	1249.38
374.061	1246.38
374.287	1242.38
374.513	1259.38
374.739	1238.38
374.965	1254.38
375.191	1278.38
375.416	1270.38
375.642	1226.38
375.868	1259.38
376.094	1270.38
376.319	1251.38
376.545	1255.38
376.771	1257.38
376.997	1231.38
377.222	1227.38
377.448	1223.38
377.674	1249.38
377.899	1255.38
378.125	1218.38
378.35	1230.38
378.576	1210.38
378.802	1225.38
379.027	1233.38
379.253	1229.38
379.478	1201.38
379.704	1222.38
379.929	1213.38
380.155	1197.38
380.38	1184.38
380.606	1214.38
380.831	1220.38
381.057	1231.38
381.282	1222.38
381.507	1241.38
381.733	1229.38
381.958	1254.38
382.184	1233.38
382.409	1238.38
382.634	1244.38
382.86	1231.38
383.085	1227.38
383.31	1218.38
383.535	1265.38
383.761	1204.38
383.986	1235.38
384.211	1285.38
384.436	1264.38
384.662	1240.38
384.887	1276.38
385.112	1245.38
385.337	1275.38
385.562	1276.38
385.787	1245.38
386.013	1312.38
386.238	1307.38
386.463	1285.38
386.688	1325.38
386.913	1302.38
387.138	1301.38
387.363	1301.38
387.588	1285.38
387.813	1298.38
388.038	1274.38
388.263	1289.38
388.488	1345.38
388.713	1299.38
388.938	1289.38
389.163	1312.38
389.387	1313.38
389.612	1308.38
389.837	1295.38
390.062	1297.38
390.287	1281.38
390.512	1297.38
390.736	1315.38
390.961	1312.38
391.186	1330.38
391.411	1312.38
391.636	1319.38
391.86	1314.38
392.085	1336.38
392.31	1334.38
392.534	1325.38
392.759	1294.38
392.984	1337.38
393.208	1293.38
393.433	1331.38
393.658	1339.38
393.882	1329.38
394.107	1310.38
394.331	1332.38
394.556	1327.38
394.78	1314.38
395.005	1334.38
395.229	1297.38
395.454	1357.38
395.678	1290.38
395.903	1329.38
396.127	1318.38
396.352	1334.38
396.576	1343.38
396.801	1351.38
397.025	1352.38
397.249	1307.38
397.474	1324.38
397.698	1349.38
397.922	1354.38
398.147	1352.38
398.371	1371.38
398.595	1385.38
398.82	1373.38
399.044	1426.38
399.268	1454.38
399.492	1430.38
399.717	1447.38
399.941	1463.38
400.165	1479.38
400.389	1445.38
400.613	1448.38
400.837	1452.38
401.062	1423.38
401.286	1412.38
401.51	1392.38
401.734	1386.38
401.958	1398.38
402.182	1380.38
402.406	1416.38
402.63	1446.38
402.854	1410.38
403.078	1388.38
403.302	1415.38
403.526	1418.38
403.75	1405.38
403.974	1438.38
404.198	1396.38
404.422	1424.38
404.645	1421.38
404.869	1407.38
405.093	1422.38
405.317	1420.38
405.541	1427.38
405.765	1403.38
405.988	1430.38
406.212	1439.38
406.436	1430.38
406.66	1469.38
406.883	1442.38
407.107	1513.38
407.331	1506.38
407.555	1518.38
407.778	1510.38
408.002	1508.38
408.226	1518.38
408.449	1515.38
408.673	1537.38
408.896	1491.38
409.12	1502.38
409.344	1487.38
409.567	1489.38
409.791	1479.38
410.014	1456.38
410.238	1458.38
410.461	1509.38
410.685	1490.38
410.908	1465.38
411.132	1441.38
411.355	1446.38
411.578	1478.38
411.802	1438.38
412.025	1444.38
412.249	1431.38
412.472	1453.38
412.695	1476.38
412.919	1437.38
413.142	1441.38
413.365	1447.38
413.589	1451.38
413.812	1425.38
414.035	1423.38
414.258	1403.38
414.482	1426.38
414.705	1420.38
414.928	1416.38
415.151	1404.38
415.374	1412.38
415.597	1412.38
415.821	1387.38
416.044	1380.38
416.267	1396.38
416.49	1394.38
416.713	1397.38
416.936	1404.38
417.159	1375.38
417.382	1376.38
417.605	1361.38
417.828	1346.38
418.051	1344.38
418.274	1346.38
418.497	1364.38
418.72	1377.38
418.943	1345.38
419.166	1412.38
419.389	1502.38
419.611	1486.38
419.834	1406.38
420.057	1421.38
420.28	1385.38
420.503	1321.38
420.726	1344.38
420.948	1308.38
421.171	1366.38
421.394	1378.38
421.617	1352.38
421.839	1352.38
422.062	1401.38
422.285	1351.38
422.507	1379.38
422.73	1364.38
422.953	1348.38
423.175	1362.38
423.398	1354.38
423.621	1349.38
423.843	1345.38
424.066	1356.38
424.288	1380.38
424.511	1380.38
424.733	1352.38
424.956	1366.38
425.178	1350.38
425.401	1362.38
425.623	1397.38
425.846	1338.38
426.068	1369.38
426.291	1379.38
426.513	1391.38
426.735	1348.38
426.958	1395.38
427.18	1333.38
427.402	1352.38
427.625	1351.38
427.847	1314.38
428.069	1339.38
428.292	1337.38
428.514	1331.38
428.736	1354.38
428.958	1352.38
429.181	1339.38
429.403	1340.38
429.625	1354.38
429.847	1352.38
430.069	1355.38
430.292	1364.38
430.514	1320.38
430.736	1348.38
430.958	1406.38
431.18	1351.38
431.402	1390.38
431.624	1360.38
431.846	1302.38
432.068	1328.38
432.29	1335.38
432.512	1370.38
432.734	1356.38
432.956	1328.38
433.178	1379.38
433.4	1382.38
433.622	1389.38
433.844	1410.38
434.066	1362.38
434.287	1347.38
434.509	1383.38
434.731	1366.38
434.953	1381.38
435.175	1392.38
435.397	1384.38
435.618	1363.38
435.84	1385.38
436.062	1380.38
436.284	1381.38
436.505	1323.38
436.727	1366.38
436.949	1368.38
437.17	1389.38
437.392	1380.38
437.614	1344.38
437.835	1332.38
438.057	1309.38
438.278	1315.38
438.5	1313.38
438.721	1346.38
438.943	1312.38
439.165	1289.38
439.386	1308.38
439.608	1348.38
439.829	1320.38
440.05	1322.38
440.272	1376.38
440.493	1341.38
440.715	1344.38
440.936	1350.38
441.158	1366.38
441.379	1322.38
441.6	1380.38
441.822	1394.38
442.043	1400.38
442.264	1370.38
442.486	1364.38
442.707	1347.38
442.928	1339.38
443.149	1373.38
443.371	1386.38
443.592	1425.38
443.813	1385.38
444.034	1364.38
444.255	1334.38
444.476	1357.38
444.698	1418.38
444.919	1405.38
445.14	1511.38
445.361	1418.38
445.582	1368.38
445.803	1376.38
446.024	1344.38
446.245	1349.38
446.466	1361.38
446.687	1313.38
446.908	1311.38
447.129	1302.38
447.35	1306.38
447.571	1331.38
447.792	1292.38
448.013	1264.38
448.234	1269.38
448.455	1262.38
448.675	1293.38
448.896	1285.38
449.117	1243.38
449.338	1285.38
449.559	1272.38
449.779	1247.38
450	1257.38
450.221	1260.38
450.442	1254.38
450.662	1225.38
450.883	1235.38
451.104	1281.38
451.324	1255.38
451.545	1261.38
451.766	1251.38
451.986	1230.38
452.207	1233.38
452.428	1200.38
452.648	1249.38
452.869	1217.38
453.089	1244.38
453.31	1235.38
453.53	1197.38
453.751	1218.38
453.971	1210.38
454.192	1226.38
454.412	1231.38
454.633	1226.38
454.853	1224.38
455.073	1207.38
455.294	1208.38
455.514	1217.38
455.734	1246.38
455.955	1260.38
456.175	1217.38
456.395	1204.38
456.616	1190.38
456.836	1216.38
457.056	1205.38
457.276	1212.38
457.497	1219.38
457.717	1244.38
457.937	1241.38
458.157	1220.38
458.377	1217.38
458.598	1238.38
458.818	1254.38
459.038	1243.38
459.258	1269.38
459.478	1317.38
459.698	1374.38
459.918	1385.38
460.138	1341.38
460.358	1323.38
460.578	1312.38
460.798	1351.38
461.018	1392.38
461.238	1305.38
461.458	1306.38
461.678	1347.38
461.898	1355.38
462.118	1317.38
462.338	1353.38
462.558	1412.38
462.777	1414.38
462.997	1409.38
463.217	1449.38
463.437	1466.38
463.657	1432.38
463.876	1409.38
464.096	1457.38
464.316	1387.38
464.536	1384.38
464.755	1395.38
464.975	1352.38
465.195	1357.38
465.414	1349.38
465.634	1350.38
465.854	1317.38
466.073	1302.38
466.293	1311.38
466.512	1284.38
466.732	1287.38
466.951	1298.38
467.171	1309.38
467.391	1298.38
467.61	1316.38
467.829	1288.38
468.049	1282.38
468.268	1285.38
468.488	1278.38
468.707	1255.38
468.927	1312.38
469.146	1328.38
469.365	1328.38
469.585	1299.38
469.804	1300.38
470.023	1311.38
470.243	1315.38
470.462	1318.38
470.681	1317.38
470.901	1349.38
471.12	1346.38
471.339	1307.38
471.558	1326.38
471.777	1339.38
471.997	1335.38
472.216	1313.38
472.435	1277.38
472.654	1268.38
472.873	1277.38
473.092	1314.38
473.311	1328.38
473.53	1352.38
473.749	1357.38
473.968	1304.38
474.187	1314.38
474.406	1342.38
474.625	1396.38
474.844	1372.38
475.063	1365.38
475.282	1360.38
475.501	1376.38
475.72	1383.38
475.939	1385.38
476.158	1356.38
476.377	1415.38
476.596	1414.38
476.814	1409.38
477.033	1433.38
477.252	1431.38
477.471	1421.38
477.69	1452.38
477.908	1450.38
478.127	1486.38
478.346	1490.38
478.564	1488.38
478.783	1508.38
479.002	1577.38
479.22	1573.38
479.439	1558.38
479.658	1502.38
479.876	1542.38
480.095	1539.38
480.313	1589.38
480.532	1564.38
480.751	1536.38
480.969	1562.38
481.188	1549.38
481.406	1563.38
481.624	1539.38
481.843	1568.38
482.061	1587.38
482.28	1576.38
482.498	1540.38
482.717	1568.38
482.935	1627.38
483.153	1613.38
483.372	1664.38
483.59	1682.38
483.808	1613.38
484.027	1626.38
484.245	1649.38
484.463	1658.38
484.681	1652.38
484.9	1653.38
485.118	1633.38
485.336	1628.38
485.554	1644.38
485.772	1632.38
485.99	1641.38
486.209	1606.38
486.427	1587.38
486.645	1637.38
486.863	1645.38
487.081	1635.38
487.299	1668.38
487.517	1638.38
487.735	1639.38
487.953	1664.38
488.171	1680.38
488.389	1669.38
488.607	1675.38
488.825	1658.38
489.043	1650.38
489.261	1635.38
489.479	1691.38
489.696	1635.38
489.914	1644.38
490.132	1689.38
490.35	1633.38
490.568	1683.38
490.786	1692.38
491.003	1685.38
491.221	1708.38
491.439	1730.38
491.657	1676.38
491.874	1707.38
492.092	1745.38
492.31	1755.38
492.527	1701.38
492.745	1694.38
492.963	1682.38
493.18	1691.38
493.398	1678.38
493.615	1710.38
493.833	1699.38
494.05	1654.38
494.268	1678.38
494.485	1717.38
494.703	1721.38
494.92	1710.38
495.138	1733.38
495.355	1718.38
495.573	1704.38
495.79	1686.38
496.008	1704.38
496.225	1736.38
496.442	1737.38
496.66	1784.38
496.877	1789.38
497.094	1761.38
497.312	1794.38
497.529	1774.38
497.746	1813.38
497.963	1796.38
498.181	1827.38
498.398	1828.38
498.615	1851.38
498.832	1892.38
499.049	1918.38
499.267	1928.38
499.484	1980.38
499.701	2019.38
499.918	2006.38
500.135	2066.38
500.352	2074.38
500.569	2069.38
500.786	2062.38
501.003	2032.38
501.22	2085.38
501.437	2002.38
501.654	1961.38
501.871	1970.38
502.088	1937.38
502.305	1923.38
502.522	1869.38
502.739	1848.38
502.956	1824.38
503.172	1779.38
503.389	1776.38
503.606	1731.38
503.823	1741.38
504.04	1729.38
504.256	1708.38
504.473	1693.38
504.69	1665.38
504.907	1639.38
505.123	1615.38
505.34	1625.38
505.557	1576.38
505.773	1617.38
505.99	1593.38
506.207	1542.38
506.423	1524.38
506.64	1542.38
506.856	1539.38
507.073	1524.38
507.289	1486.38
507.506	1513.38
507.722	1495.38
507.939	1473.38
508.155	1511.38
508.372	1497.38
508.588	1486.38
508.805	1488.38
509.021	1467.38
509.238	1441.38
509.454	1452.38
509.67	1408.38
509.887	1432.38
510.103	1391.38
510.319	1421.38
510.536	1447.38
510.752	1370.38
510.968	1345.38
511.184	1377.38
511.401	1373.38
511.617	1383.38
511.833	1425.38
512.049	1400.38
512.265	1368.38
512.481	1394.38
512.698	1348.38
512.914	1385.38
513.13	1383.38
513.346	1357.38
513.562	1374.38
513.778	1378.38
513.994	1346.38
514.21	1384.38
514.426	1371.38
514.642	1380.38
514.858	1366.38
515.074	1366.38
515.29	1386.38
515.506	1378.38
515.721	1371.38
515.937	1374.38
516.153	1379.38
516.369	1373.38
516.585	1412.38
516.801	1394.38
517.016	1393.38
517.232	1402.38
517.448	1404.38
517.664	1401.38
517.879	1410.38
518.095	1373.38
518.311	1426.38
518.527	1404.38
518.742	1387.38
518.958	1342.38
519.173	1362.38
519.389	1368.38
519.605	1377.38
519.82	1360.38
520.036	1372.38
520.251	1332.38
520.467	1321.38
520.682	1318.38
520.898	1285.38
521.113	1262.38
521.329	1304.38
521.544	1299.38
521.76	1309.38
521.975	1285.38
522.19	1258.38
522.406	1288.38
522.621	1249.38
522.836	1284.38
523.052	1293.38
523.267	1280.38
523.482	1290.38
523.698	1270.38
523.913	1273.38
524.128	1264.38
524.343	1277.38
524.559	1252.38
524.774	1252.38
524.989	1241.38
525.204	1253.38
525.419	1237.38
525.634	1247.38
525.849	1243.38
526.064	1237.38
526.28	1237.38
526.495	1211.38
526.71	1224.38
526.925	1211.38
527.14	1227.38
527.355	1211.38
527.57	1205.38
527.785	1254.38
527.999	1221.38
528.214	1238.38
528.429	1240.38
528.644	1229.38
528.859	1221.38
529.074	1237.38
529.289	1222.38
529.503	1223.38
529.718	1185.38
529.933	1213.38
530.148	1214.38
530.363	1188.38
530.577	1201.38
530.792	1165.38
531.007	1164.38
531.221	1180.38
531.436	1195.38
531.651	1187.38
531.865	1196.38
532.08	1156.38
532.295	1158.38
532.509	1165.38
532.724	1190.38
532.938	1150.38
533.153	1181.38
533.367	1190.38
533.582	1185.38
533.796	1148.38
534.011	1178.38
534.225	1148.38
534.44	1137.38
534.654	1143.38
534.868	1141.38
535.083	1124.38
535.297	1137.38
535.511	1143.38
535.726	1120.38
535.94	1135.38
536.154	1122.38
536.369	1154.38
536.583	1140.38
536.797	1113.38
537.011	1088.38
537.225	1095.38
537.44	1104.38
537.654	1095.38
537.868	1090.38
538.082	1089.38
538.296	1086.38
538.51	1066.38
538.724	1082.38
538.938	1104.38
539.153	1102.38
539.367	1080.38
539.581	1070.38
539.795	1050.38
540.009	1062.38
540.222	1089.38
540.436	1080.38
540.65	1064.38
540.864	1083.38
541.078	1066.38
541.292	1064.38
541.506	1090.38
541.72	1091.38
541.934	1058.38
542.147	1106.38
542.361	1088.38
542.575	1056.38
542.789	1062.38
543.002	1076.38
543.216	1041.38
543.43	1048.38
543.644	1052.38
543.857	1085.38
544.071	1066.38
544.285	1056.38
544.498	1040.38
544.712	1057.38
544.925	1078.38
545.139	1022.38
545.352	1047.38
545.566	1061.38
545.779	1065.38
545.993	1051.38
546.206	1078.38
546.42	1030.38
546.633	1001.38
546.847	1045.38
547.06	1048.38
547.274	1062.38
547.487	1063.38
547.7	1084.38
547.914	1082.38
548.127	1021.38
548.34	1036.38
548.554	1030.38
548.767	1051.38
548.98	1049.38
549.193	1027.38
549.407	1026.38
549.62	1031.38
549.833	1017.38
550.046	1018.38
550.259	997.38
550.473	1012.38
550.686	992.38
550.899	1020.38
551.112	986.38
551.325	1026.38
551.538	982.38
551.751	980.38
551.964	992.38
552.177	999.38
552.39	979.38
552.603	962.38
552.816	993.38
553.029	976.38
553.242	999.38
553.455	985.38
553.667	975.38
553.88	993.38
554.093	991.38
554.306	967.38
554.519	932.38
554.732	924.38
554.944	980.38
555.157	974.38
555.37	960.38
555.583	931.38
555.795	928.38
556.008	925.38
556.221	928.38
556.433	915.38
556.646	893.38
556.859	927.38
557.071	902.38
557.284	916.38
557.496	876.38
557.709	902.38
557.921	895.38
558.134	900.38
558.346	889.38
558.559	930.38
558.771	898.38
558.984	876.38
559.196	884.38
559.409	864.38
559.621	894.38
559.833	877.38
560.046	837.38
560.258	874.38
560.47	872.38
560.683	872.38
560.895	870.38
561.107	860.38
561.32	869.38
561.532	870.38
561.744	881.38
561.956	871.38
562.168	844.38
562.381	844.38
562.593	861.38
562.805	869.38
563.017	860.38
563.229	853.38
563.441	851.38
563.653	876.38
563.865	843.38
564.077	824.38
564.289	856.38
564.501	852.38
564.713	884.38
564.925	884.38
565.137	865.38
565.349	882.38
565.561	854.38
565.773	859.38
565.985	873.38
566.197	885.38
566.408	922.38
566.62	874.38
566.832	917.38
567.044	892.38
567.255	904.38
567.467	875.38
567.679	905.38
567.891	898.38
568.102	867.38
568.314	855.38
568.526	838.38
568.737	844.38
568.949	830.38
569.161	820.38
569.372	786.38
569.584	790.38
569.795	816.38
570.007	798.38
570.218	771.38
570.43	753.38
570.641	782.38
570.853	779.38
571.064	776.38
571.276	753.38
571.487	763.38
571.698	740.38
571.91	732.38
572.121	731.38
572.333	731.38
572.544	715.38
572.755	718.38
572.966	684.38
573.178	708.38
573.389	696.38
573.6	700.38
573.811	698.38
574.023	682.38
574.234	676.38
574.445	682.38
574.656	674.38
574.867	673.38
575.078	664.38
575.289	670.38
575.501	657.38
575.712	654.38
575.923	655.38
576.134	675.38
576.345	660.38
576.556	632.38
576.767	644.38
576.978	645.38
577.188	664.38
577.399	644.38
577.61	646.38
577.821	651.38
578.032	641.38
578.243	645.38
578.454	625.38
578.665	618.38
578.875	606.38
579.086	611.38
579.297	612.38
579.508	618.38
579.718	610.38
579.929	619.38
580.14	609.38
580.35	588.38
580.561	598.38
580.772	610.38
580.982	607.38
581.193	596.38
581.403	610.38
581.614	603.38
581.825	589.38
582.035	587.38
582.246	573.38
582.456	571.38
582.667	574.38
582.877	599.38
583.087	595.38
583.298	555.38
583.508	577.38
583.719	565.38
583.929	576.38
584.139	568.38
584.35	551.38
584.56	564.38
584.77	544.38
584.981	555.38
585.191	562.38
585.401	568.38
585.611	570.38
585.821	548.38
586.032	562.38
586.242	556.38
586.452	565.38
586.662	533.38
586.872	549.38
587.082	538.38
587.292	548.38
587.502	552.38
587.713	544.38
587.923	554.38
588.133	554.38
588.343	544.38
588.553	541.38
588.762	553.38
588.972	531.38
589.182	600.38
589.392	562.38
589.602	524.38
589.812	593.38
590.022	572.38
590.232	514.38
590.441	526.38
590.651	537.38
590.861	524.38
591.071	514.38
591.281	518.38
591.49	510.38
591.7	531.38
591.91	514.38
592.119	516.38
592.329	521.38
592.539	511.38
592.748	506.38
592.958	500.38
593.167	517.38
593.377	517.38
593.587	500.38
593.796	531.38
594.006	531.38
594.215	523.38
594.424	516.38
594.634	501.38
594.843	493.38
595.053	518.38
595.262	504.38
595.472	500.38
595.681	496.38
595.89	490.38
596.1	504.38
596.309	478.38
596.518	479.38
596.727	493.38
596.937	482.38
597.146	480.38
597.355	474.38
597.564	479.38
597.774	462.38
597.983	475.38
598.192	464.38
598.401	486.38
598.61	455.38
598.819	457.38
599.028	442.38
599.237	447.38
599.446	461.38
599.655	451.38
599.864	455.38
600.073	448.38
600.282	463.38
600.491	442.38
600.7	446.38
600.909	445.38
601.118	449.38
601.327	442.38
601.536	438.38
601.745	428.38
601.953	442.38
602.162	433.38
602.371	440.38
602.58	447.38
602.789	439.38
602.997	426.38
603.206	429.38
603.415	426.38
603.623	422.38
603.832	413.38
604.041	446.38
604.249	424.38
604.458	402.38
604.666	399.38
604.875	394.38
605.084	403.38
605.292	410.38
605.501	416.38
605.709	417.38
605.918	405.38
606.126	418.38
606.334	435.38
606.543	391.38
606.751	397.38
606.96	398.38
607.168	422.38
607.376	406.38
607.585	410.38
607.793	411.38
608.001	416.38
608.21	392.38
608.418	401.38
608.626	386.38
608.834	411.38
609.043	416.38
609.251	428.38
609.459	401.38
609.667	411.38
609.875	395.38
610.083	396.38
610.291	398.38
610.499	397.38
610.707	389.38
610.916	402.38
611.124	389.38
611.332	374.38
611.54	399.38
611.748	388.38
611.955	384.38
612.163	410.38
612.371	347.38
612.579	389.38
612.787	380.38
612.995	386.38
613.203	386.38
613.411	369.38
613.618	380.38
613.826	375.38
614.034	376.38
614.242	385.38
614.449	374.38
614.657	373.38
614.865	376.38
615.072	380.38
615.28	357.38
615.488	372.38
615.695	378.38
615.903	382.38
616.111	374.38
616.318	368.38
616.526	371.38
616.733	394.38
616.941	369.38
617.148	373.38
617.356	375.38
617.563	370.38
617.771	364.38
617.978	363.38
618.185	361.38
618.393	353.38
618.6	354.38
618.807	369.38
619.015	350.38
619.222	362.38
619.429	372.38
619.637	371.38
619.844	352.38
620.051	337.38
620.258	354.38
620.466	359.38
620.673	357.38
620.88	352.38
621.087	323.38
621.294	342.38
621.501	345.38
621.708	347.38
621.915	340.38
622.122	343.38
622.329	348.38
622.536	339.38
622.743	351.38
622.95	341.38
623.157	349.38
623.364	338.38
623.571	340.38
623.778	323.38
623.985	338.38
624.192	337.38
624.399	340.38
624.606	339.38
624.812	343.38
625.019	326.38
625.226	340.38
625.433	337.38
625.639	328.38
625.846	330.38
626.053	311.38
626.259	332.38
626.466	324.38
626.673	302.38
626.879	316.38
627.086	312.38
627.293	313.38
627.499	309.38
627.706	309.38
627.912	321.38
628.119	308.38
628.325	312.38
628.532	317.38
628.738	325.38
628.945	325.38
629.151	304.38
629.357	333.38
629.564	298.38
629.77	311.38
629.976	304.38
630.183	306.38
630.389	323.38
630.595	292.38
630.802	307.38
631.008	307.38
631.214	306.38
631.42	295.38
631.627	305.38
631.833	292.38
632.039	308.38
632.245	289.38
632.451	292.38
632.657	313.38
632.863	284.38
633.069	290.38
633.275	291.38
633.481	274.38
633.688	290.38
633.893	296.38
634.099	291.38
634.305	297.38
634.511	279.38
634.717	286.38
634.923	288.38
635.129	280.38
635.335	270.38
635.541	282.38
635.747	270.38
635.952	268.38
636.158	277.38
636.364	288.38
636.57	278.38
636.775	278.38
636.981	284.38
637.187	269.38
637.392	259.38
637.598	297.38
637.804	267.38
638.009	254.38
638.215	278.38
638.421	274.38
638.626	270.38
638.832	270.38
639.037	266.38
639.243	281.38
639.448	288.38
639.654	258.38
639.859	281.38
640.065	264.38
640.27	252.38
640.475	261.38
640.681	276.38
640.886	262.38
641.091	261.38
641.297	274.38
641.502	265.38
641.707	257.38
641.913	274.38
642.118	261.38
642.323	270.38
642.528	258.38
642.733	278.38
642.939	269.38
643.144	256.38
643.349	266.38
643.554	281.38
643.759	266.38
643.964	268.38
644.169	260.38
644.374	270.38
644.579	250.38
644.784	289.38
644.989	281.38
645.194	252.38
645.399	245.38
645.604	251.38
645.809	271.38
646.014	256.38
646.219	268.38
646.423	264.38
646.628	264.38
646.833	261.38
647.038	255.38
647.243	269.38
647.447	280.38
647.652	262.38
647.857	261.38
648.062	280.38
648.266	280.38
648.471	269.38
648.676	253.38
648.88	271.38
649.085	263.38
649.289	253.38
649.494	265.38
649.698	281.38
649.903	281.38
650.107	259.38
650.312	273.38
650.516	264.38
650.721	260.38
650.925	281.38
651.13	261.38
651.334	252.38
651.539	247.38
651.743	275.38
651.947	254.38
652.152	264.38
652.356	258.38
652.56	245.38
652.764	231.38
652.969	244.38
653.173	262.38
653.377	246.38
653.581	245.38
653.785	254.38
653.99	249.38
654.194	244.38
654.398	238.38
654.602	244.38
654.806	243.38
655.01	257.38
655.214	244.38
655.418	260.38
655.622	266.38
655.826	266.38
656.03	261.38
656.234	274.38
656.438	257.38
656.642	258.38
656.846	264.38
657.049	248.38
657.253	226.38
657.457	224.38
657.661	210.38
657.865	190.38
658.068	201.38
658.272	179.38
658.476	167.38
658.68	178.38
658.883	170.38
659.087	165.38
659.291	155.38
659.494	160.38
659.698	138.38
659.901	145.38
660.105	130.38
660.309	123.38
660.512	121.38
660.716	124.38
660.919	116.38
661.123	121.38
661.326	106.38
661.53	106.38
661.733	110.38
661.936	125.38
662.14	97.38
662.343	82.38
662.546	92.38
662.75	101.38
662.953	100.38
663.156	82.38
663.36	93.38
663.563	95.38
663.766	98.38
663.969	85.38
664.173	92.38
664.376	86.38
664.579	93.38
664.782	92.38
664.985	89.38
665.188	78.38
665.391	79.38
665.594	83.38
665.797	81.38
666	78.38
666.203	84.38
666.406	93.38
666.609	75.38
666.812	87.38
667.015	76.38
667.218	84.38
667.421	84.38
667.624	81.38
667.827	80.38
668.03	87.38
668.232	84.38
668.435	88.38
668.638	74.38
668.841	83.38
669.043	80.38
669.246	75.38
669.449	92.38
669.651	81.38
669.854	78.38
670.057	73.38
670.259	79.38
670.462	92.38
670.665	83.38
670.867	75.38
671.07	77.38
671.272	79.38
671.475	76.38
671.677	70.38
671.88	82.38
672.082	91.38
672.284	89.38
672.487	92.38
672.689	81.38
672.892	76.38
