Data from Ni(NO3)2@0.125M.TitratingCurve.Agarose3%dH2O.NegLispCup.LampEnergy10.LIBS07252019_HRD10591_18-11-17-567.txt Node
Date: Thu Jul 25 18:11:17 EDT 2019
User: cochatt
Spectrometer: HR+D1059
Trigger mode: 1
Integration Time (sec): 1.000000E-1
Scans to average: 1
Electric dark correction enabled: true
Nonlinearity correction enabled: false
Boxcar width: 0
XAxis mode: Wavelengths
Number of Pixels in Spectrum: 2048
>>>>>Begin Spectral Data<<<<<
223.165	-20.25
223.4	-20.25
223.635	-20.25
223.869	-16.25
224.104	-16.25
224.338	-12.25
224.573	-5.25
224.808	-7.25
225.042	-17.25
225.277	-4.25
225.511	-10.25
225.746	11.75
225.98	0.75
226.215	21.75
226.449	15.75
226.683	20.75
226.918	14.75
227.152	23.75
227.387	40.75
227.621	30.75
227.856	29.75
228.09	41.75
228.324	70.75
228.559	57.75
228.793	67.75
229.027	99.75
229.262	107.75
229.496	120.75
229.73	129.75
229.964	125.75
230.199	129.75
230.433	119.75
230.667	123.75
230.901	130.75
231.136	122.75
231.37	146.75
231.604	140.75
231.838	145.75
232.072	134.75
232.306	139.75
232.541	140.75
232.775	149.75
233.009	138.75
233.243	142.75
233.477	153.75
233.711	160.75
233.945	165.75
234.179	135.75
234.413	151.75
234.647	144.75
234.881	144.75
235.115	145.75
235.349	149.75
235.583	152.75
235.817	158.75
236.051	153.75
236.285	159.75
236.519	167.75
236.753	147.75
236.987	159.75
237.221	153.75
237.455	170.75
237.689	170.75
237.922	159.75
238.156	148.75
238.39	161.75
238.624	158.75
238.858	154.75
239.091	160.75
239.325	163.75
239.559	169.75
239.793	174.75
240.027	175.75
240.26	175.75
240.494	186.75
240.728	171.75
240.961	173.75
241.195	188.75
241.429	179.75
241.662	192.75
241.896	193.75
242.13	182.75
242.363	188.75
242.597	191.75
242.83	208.75
243.064	193.75
243.298	197.75
243.531	214.75
243.765	196.75
243.998	214.75
244.232	213.75
244.465	189.75
244.699	213.75
244.932	208.75
245.166	213.75
245.399	221.75
245.633	207.75
245.866	223.75
246.099	209.75
246.333	220.75
246.566	215.75
246.8	218.75
247.033	209.75
247.266	232.75
247.5	221.75
247.733	231.75
247.966	232.75
248.2	234.75
248.433	236.75
248.666	235.75
248.899	223.75
249.133	220.75
249.366	235.75
249.599	234.75
249.832	242.75
250.066	238.75
250.299	239.75
250.532	260.75
250.765	268.75
250.998	270.75
251.231	249.75
251.465	244.75
251.698	240.75
251.931	258.75
252.164	258.75
252.397	268.75
252.63	266.75
252.863	262.75
253.096	280.75
253.329	270.75
253.562	264.75
253.795	267.75
254.028	272.75
254.261	264.75
254.494	279.75
254.727	273.75
254.96	276.75
255.193	256.75
255.426	269.75
255.659	265.75
255.892	274.75
256.124	281.75
256.357	271.75
256.59	295.75
256.823	288.75
257.056	284.75
257.289	281.75
257.521	273.75
257.754	300.75
257.987	297.75
258.22	291.75
258.452	273.75
258.685	311.75
258.918	296.75
259.151	310.75
259.383	296.75
259.616	295.75
259.849	312.75
260.081	301.75
260.314	311.75
260.547	320.75
260.779	314.75
261.012	309.75
261.244	302.75
261.477	319.75
261.71	326.75
261.942	313.75
262.175	319.75
262.407	332.75
262.64	323.75
262.872	304.75
263.105	329.75
263.337	333.75
263.57	343.75
263.802	322.75
264.035	336.75
264.267	333.75
264.499	337.75
264.732	351.75
264.964	343.75
265.197	352.75
265.429	359.75
265.661	342.75
265.894	352.75
266.126	345.75
266.358	342.75
266.591	353.75
266.823	353.75
267.055	333.75
267.287	359.75
267.52	362.75
267.752	356.75
267.984	375.75
268.216	360.75
268.448	360.75
268.681	373.75
268.913	357.75
269.145	359.75
269.377	381.75
269.609	364.75
269.841	348.75
270.073	340.75
270.306	363.75
270.538	379.75
270.77	366.75
271.002	373.75
271.234	373.75
271.466	373.75
271.698	383.75
271.93	382.75
272.162	380.75
272.394	385.75
272.626	362.75
272.858	373.75
273.09	399.75
273.322	409.75
273.553	387.75
273.785	405.75
274.017	395.75
274.249	366.75
274.481	396.75
274.713	376.75
274.945	406.75
275.176	419.75
275.408	401.75
275.64	409.75
275.872	391.75
276.104	412.75
276.335	397.75
276.567	389.75
276.799	396.75
277.031	393.75
277.262	391.75
277.494	401.75
277.726	422.75
277.957	415.75
278.189	423.75
278.421	413.75
278.652	391.75
278.884	427.75
279.115	414.75
279.347	443.75
279.579	432.75
279.81	441.75
280.042	409.75
280.273	415.75
280.505	428.75
280.736	448.75
280.968	435.75
281.199	451.75
281.431	439.75
281.662	450.75
281.894	419.75
282.125	440.75
282.356	453.75
282.588	461.75
282.819	458.75
283.051	463.75
283.282	456.75
283.513	458.75
283.745	459.75
283.976	463.75
284.207	476.75
284.439	488.75
284.67	483.75
284.901	474.75
285.132	475.75
285.364	478.75
285.595	473.75
285.826	494.75
286.057	472.75
286.288	489.75
286.52	478.75
286.751	487.75
286.982	481.75
287.213	501.75
287.444	481.75
287.675	499.75
287.906	516.75
288.138	479.75
288.369	508.75
288.6	511.75
288.831	491.75
289.062	498.75
289.293	514.75
289.524	501.75
289.755	491.75
289.986	524.75
290.217	488.75
290.448	524.75
290.679	521.75
290.91	515.75
291.141	501.75
291.371	530.75
291.602	523.75
291.833	511.75
292.064	508.75
292.295	489.75
292.526	500.75
292.757	518.75
292.987	477.75
293.218	505.75
293.449	535.75
293.68	521.75
293.91	525.75
294.141	512.75
294.372	507.75
294.603	518.75
294.833	524.75
295.064	521.75
295.295	546.75
295.525	525.75
295.756	547.75
295.987	515.75
296.217	541.75
296.448	545.75
296.679	550.75
296.909	509.75
297.14	529.75
297.37	544.75
297.601	548.75
297.831	541.75
298.062	547.75
298.292	563.75
298.523	572.75
298.753	567.75
298.984	545.75
299.214	576.75
299.445	573.75
299.675	539.75
299.905	566.75
300.136	570.75
300.366	559.75
300.597	561.75
300.827	568.75
301.057	569.75
301.288	567.75
301.518	600.75
301.748	585.75
301.979	577.75
302.209	584.75
302.439	588.75
302.669	584.75
302.9	589.75
303.13	577.75
303.36	575.75
303.59	576.75
303.82	575.75
304.051	569.75
304.281	563.75
304.511	573.75
304.741	567.75
304.971	574.75
305.201	558.75
305.431	583.75
305.661	584.75
305.891	576.75
306.121	573.75
306.352	563.75
306.582	561.75
306.812	572.75
307.042	556.75
307.272	552.75
307.502	549.75
307.731	560.75
307.961	574.75
308.191	560.75
308.421	569.75
308.651	565.75
308.881	556.75
309.111	565.75
309.341	561.75
309.571	582.75
309.8	567.75
310.03	572.75
310.26	560.75
310.49	583.75
310.72	576.75
310.949	555.75
311.179	567.75
311.409	592.75
311.639	598.75
311.868	594.75
312.098	583.75
312.328	583.75
312.557	582.75
312.787	599.75
313.017	593.75
313.246	572.75
313.476	599.75
313.706	622.75
313.935	606.75
314.165	624.75
314.394	628.75
314.624	597.75
314.853	599.75
315.083	612.75
315.312	620.75
315.542	606.75
315.771	605.75
316.001	595.75
316.23	613.75
316.46	597.75
316.689	608.75
316.919	600.75
317.148	601.75
317.377	612.75
317.607	584.75
317.836	601.75
318.065	619.75
318.295	611.75
318.524	583.75
318.753	581.75
318.983	602.75
319.212	593.75
319.441	590.75
319.67	616.75
319.9	593.75
320.129	609.75
320.358	608.75
320.587	630.75
320.816	620.75
321.046	595.75
321.275	612.75
321.504	614.75
321.733	628.75
321.962	610.75
322.191	606.75
322.42	593.75
322.649	618.75
322.878	621.75
323.108	605.75
323.337	627.75
323.566	631.75
323.795	631.75
324.024	641.75
324.253	607.75
324.482	629.75
324.71	637.75
324.939	630.75
325.168	631.75
325.397	640.75
325.626	647.75
325.855	634.75
326.084	661.75
326.313	655.75
326.542	677.75
326.77	699.75
326.999	657.75
327.228	641.75
327.457	644.75
327.686	641.75
327.914	666.75
328.143	670.75
328.372	677.75
328.6	681.75
328.829	662.75
329.058	667.75
329.287	658.75
329.515	675.75
329.744	685.75
329.972	688.75
330.201	682.75
330.43	695.75
330.658	709.75
330.887	643.75
331.115	667.75
331.344	709.75
331.572	707.75
331.801	712.75
332.03	754.75
332.258	784.75
332.486	785.75
332.715	792.75
332.943	837.75
333.172	873.75
333.4	900.75
333.629	921.75
333.857	926.75
334.085	893.75
334.314	911.75
334.542	876.75
334.771	863.75
334.999	851.75
335.227	854.75
335.455	829.75
335.684	851.75
335.912	821.75
336.14	798.75
336.369	823.75
336.597	817.75
336.825	812.75
337.053	814.75
337.281	761.75
337.51	762.75
337.738	766.75
337.966	752.75
338.194	757.75
338.422	739.75
338.65	729.75
338.878	718.75
339.106	728.75
339.334	739.75
339.562	707.75
339.79	699.75
340.018	683.75
340.246	676.75
340.474	699.75
340.702	670.75
340.93	698.75
341.158	722.75
341.386	729.75
341.614	705.75
341.842	697.75
342.07	696.75
342.298	706.75
342.526	682.75
342.754	678.75
342.981	691.75
343.209	710.75
343.437	762.75
343.665	785.75
343.893	861.75
344.12	887.75
344.348	841.75
344.576	816.75
344.804	757.75
345.031	736.75
345.259	719.75
345.487	715.75
345.714	705.75
345.942	714.75
346.17	693.75
346.397	695.75
346.625	664.75
346.853	670.75
347.08	681.75
347.308	687.75
347.535	670.75
347.763	691.75
347.99	683.75
348.218	676.75
348.445	688.75
348.673	700.75
348.9	683.75
349.128	688.75
349.355	675.75
349.583	661.75
349.81	650.75
350.037	658.75
350.265	673.75
350.492	678.75
350.72	656.75
350.947	655.75
351.174	659.75
351.402	637.75
351.629	659.75
351.856	645.75
352.083	643.75
352.311	670.75
352.538	650.75
352.765	641.75
352.992	647.75
353.22	656.75
353.447	645.75
353.674	650.75
353.901	671.75
354.128	644.75
354.355	632.75
354.583	662.75
354.81	663.75
355.037	678.75
355.264	623.75
355.491	649.75
355.718	667.75
355.945	669.75
356.172	637.75
356.399	644.75
356.626	636.75
356.853	654.75
357.08	644.75
357.307	664.75
357.534	685.75
357.761	631.75
357.988	655.75
358.215	663.75
358.441	649.75
358.668	636.75
358.895	691.75
359.122	659.75
359.349	653.75
359.576	666.75
359.802	655.75
360.029	635.75
360.256	660.75
360.483	638.75
360.709	660.75
360.936	657.75
361.163	633.75
361.39	672.75
361.616	637.75
361.843	667.75
362.07	649.75
362.296	657.75
362.523	655.75
362.749	654.75
362.976	653.75
363.203	666.75
363.429	653.75
363.656	642.75
363.882	656.75
364.109	652.75
364.335	655.75
364.562	663.75
364.788	655.75
365.015	656.75
365.241	631.75
365.468	635.75
365.694	643.75
365.92	659.75
366.147	616.75
366.373	649.75
366.599	657.75
366.826	652.75
367.052	672.75
367.278	659.75
367.505	659.75
367.731	684.75
367.957	655.75
368.184	654.75
368.41	672.75
368.636	670.75
368.862	661.75
369.089	659.75
369.315	675.75
369.541	651.75
369.767	656.75
369.993	675.75
370.219	636.75
370.445	699.75
370.672	693.75
370.898	685.75
371.124	716.75
371.35	721.75
371.576	707.75
371.802	709.75
372.028	684.75
372.254	699.75
372.48	710.75
372.706	724.75
372.932	749.75
373.158	734.75
373.384	744.75
373.61	726.75
373.835	717.75
374.061	720.75
374.287	719.75
374.513	741.75
374.739	747.75
374.965	748.75
375.191	830.75
375.416	805.75
375.642	772.75
375.868	761.75
376.094	739.75
376.319	737.75
376.545	712.75
376.771	715.75
376.997	694.75
377.222	709.75
377.448	718.75
377.674	695.75
377.899	693.75
378.125	701.75
378.35	703.75
378.576	727.75
378.802	716.75
379.027	695.75
379.253	692.75
379.478	691.75
379.704	695.75
379.929	697.75
380.155	688.75
380.38	686.75
380.606	691.75
380.831	712.75
381.057	720.75
381.282	709.75
381.507	715.75
381.733	728.75
381.958	725.75
382.184	716.75
382.409	715.75
382.634	736.75
382.86	779.75
383.085	758.75
383.31	759.75
383.535	792.75
383.761	816.75
383.986	815.75
384.211	832.75
384.436	831.75
384.662	863.75
384.887	869.75
385.112	876.75
385.337	840.75
385.562	843.75
385.787	854.75
386.013	849.75
386.238	859.75
386.463	872.75
386.688	878.75
386.913	839.75
387.138	844.75
387.363	815.75
387.588	812.75
387.813	821.75
388.038	836.75
388.263	844.75
388.488	839.75
388.713	831.75
388.938	805.75
389.163	823.75
389.387	831.75
389.612	843.75
389.837	859.75
390.062	826.75
390.287	862.75
390.512	814.75
390.736	841.75
390.961	864.75
391.186	888.75
391.411	900.75
391.636	936.75
391.86	941.75
392.085	992.75
392.31	969.75
392.534	913.75
392.759	942.75
392.984	908.75
393.208	901.75
393.433	900.75
393.658	917.75
393.882	910.75
394.107	899.75
394.331	903.75
394.556	872.75
394.78	907.75
395.005	929.75
395.229	922.75
395.454	923.75
395.678	963.75
395.903	940.75
396.127	957.75
396.352	887.75
396.576	888.75
396.801	898.75
397.025	874.75
397.249	923.75
397.474	947.75
397.698	943.75
397.922	942.75
398.147	938.75
398.371	963.75
398.595	997.75
398.82	1047.75
399.044	1095.75
399.268	1251.75
399.492	1478.75
399.717	1681.75
399.941	1664.75
400.165	1444.75
400.389	1285.75
400.613	1157.75
400.837	1100.75
401.062	1068.75
401.286	1055.75
401.51	1056.75
401.734	1054.75
401.958	1095.75
402.182	1064.75
402.406	1093.75
402.63	1134.75
402.854	1159.75
403.078	1175.75
403.302	1209.75
403.526	1192.75
403.75	1220.75
403.974	1265.75
404.198	1284.75
404.422	1279.75
404.645	1275.75
404.869	1233.75
405.093	1221.75
405.317	1180.75
405.541	1181.75
405.765	1191.75
405.988	1174.75
406.212	1188.75
406.436	1159.75
406.66	1206.75
406.883	1210.75
407.107	1299.75
407.331	1373.75
407.555	1375.75
407.778	1367.75
408.002	1347.75
408.226	1292.75
408.449	1279.75
408.673	1214.75
408.896	1185.75
409.12	1212.75
409.344	1221.75
409.567	1203.75
409.791	1214.75
410.014	1224.75
410.238	1225.75
410.461	1226.75
410.685	1189.75
410.908	1173.75
411.132	1168.75
411.355	1112.75
411.578	1110.75
411.802	1096.75
412.025	1109.75
412.249	1173.75
412.472	1172.75
412.695	1097.75
412.919	1065.75
413.142	1047.75
413.365	1035.75
413.589	1080.75
413.812	1068.75
414.035	1056.75
414.258	1054.75
414.482	1079.75
414.705	1095.75
414.928	1102.75
415.151	1084.75
415.374	1047.75
415.597	1065.75
415.821	1009.75
416.044	1048.75
416.267	1007.75
416.49	1023.75
416.713	1057.75
416.936	1059.75
417.159	1038.75
417.382	1021.75
417.605	1052.75
417.828	1072.75
418.051	1055.75
418.274	1043.75
418.497	1053.75
418.72	1099.75
418.943	1091.75
419.166	1127.75
419.389	1244.75
419.611	1175.75
419.834	1155.75
420.057	1104.75
420.28	1099.75
420.503	1007.75
420.726	1030.75
420.948	1058.75
421.171	1059.75
421.394	1015.75
421.617	1055.75
421.839	1016.75
422.062	1083.75
422.285	1037.75
422.507	1087.75
422.73	1064.75
422.953	1096.75
423.175	1099.75
423.398	1147.75
423.621	1113.75
423.843	1132.75
424.066	1137.75
424.288	1112.75
424.511	1102.75
424.733	1117.75
424.956	1091.75
425.178	1098.75
425.401	1053.75
425.623	1057.75
425.846	1027.75
426.068	1020.75
426.291	1014.75
426.513	982.75
426.735	959.75
426.958	964.75
427.18	971.75
427.402	950.75
427.625	943.75
427.847	933.75
428.069	907.75
428.292	973.75
428.514	939.75
428.736	938.75
428.958	929.75
429.181	930.75
429.403	898.75
429.625	931.75
429.847	907.75
430.069	908.75
430.292	948.75
430.514	896.75
430.736	907.75
430.958	911.75
431.18	893.75
431.402	884.75
431.624	915.75
431.846	943.75
432.068	920.75
432.29	955.75
432.512	939.75
432.734	937.75
432.956	923.75
433.178	937.75
433.4	940.75
433.622	992.75
433.844	941.75
434.066	962.75
434.287	961.75
434.509	1006.75
434.731	1032.75
434.953	1054.75
435.175	1059.75
435.397	1035.75
435.618	1000.75
435.84	952.75
436.062	932.75
436.284	933.75
436.505	929.75
436.727	935.75
436.949	921.75
437.17	936.75
437.392	960.75
437.614	941.75
437.835	898.75
438.057	925.75
438.278	907.75
438.5	887.75
438.721	881.75
438.943	917.75
439.165	885.75
439.386	926.75
439.608	925.75
439.829	923.75
440.05	913.75
440.272	924.75
440.493	951.75
440.715	978.75
440.936	1005.75
441.158	973.75
441.379	1003.75
441.6	1067.75
441.822	1082.75
442.043	1084.75
442.264	1079.75
442.486	1016.75
442.707	1048.75
442.928	1030.75
443.149	1067.75
443.371	1047.75
443.592	1037.75
443.813	1078.75
444.034	1064.75
444.255	1132.75
444.476	1169.75
444.698	1234.75
444.919	1323.75
445.14	1356.75
445.361	1205.75
445.582	1111.75
445.803	1023.75
446.024	990.75
446.245	1008.75
446.466	995.75
446.687	935.75
446.908	929.75
447.129	931.75
447.35	902.75
447.571	927.75
447.792	899.75
448.013	857.75
448.234	891.75
448.455	880.75
448.675	856.75
448.896	896.75
449.117	851.75
449.338	870.75
449.559	850.75
449.779	856.75
450	840.75
450.221	870.75
450.442	879.75
450.662	896.75
450.883	907.75
451.104	918.75
451.324	865.75
451.545	875.75
451.766	889.75
451.986	886.75
452.207	850.75
452.428	865.75
452.648	859.75
452.869	850.75
453.089	845.75
453.31	854.75
453.53	840.75
453.751	862.75
453.971	828.75
454.192	830.75
454.412	799.75
454.633	816.75
454.853	823.75
455.073	781.75
455.294	828.75
455.514	816.75
455.734	821.75
455.955	782.75
456.175	789.75
456.395	806.75
456.616	791.75
456.836	811.75
457.056	803.75
457.276	796.75
457.497	798.75
457.717	793.75
457.937	812.75
458.157	799.75
458.377	816.75
458.598	817.75
458.818	845.75
459.038	887.75
459.258	878.75
459.478	943.75
459.698	959.75
459.918	1000.75
460.138	1045.75
460.358	1127.75
460.578	1111.75
460.798	1154.75
461.018	1149.75
461.238	1063.75
461.458	1095.75
461.678	1094.75
461.898	1104.75
462.118	1104.75
462.338	1180.75
462.558	1221.75
462.777	1230.75
462.997	1373.75
463.217	1507.75
463.437	1536.75
463.657	1365.75
463.876	1244.75
464.096	1284.75
464.316	1282.75
464.536	1328.75
464.755	1239.75
464.975	1198.75
465.195	1141.75
465.414	1071.75
465.634	1012.75
465.854	948.75
466.073	941.75
466.293	940.75
466.512	933.75
466.732	915.75
466.951	899.75
467.171	895.75
467.391	909.75
467.61	927.75
467.829	883.75
468.049	883.75
468.268	848.75
468.488	867.75
468.707	851.75
468.927	844.75
469.146	836.75
469.365	861.75
469.585	877.75
469.804	868.75
470.023	927.75
470.243	923.75
470.462	908.75
470.681	915.75
470.901	937.75
471.12	920.75
471.339	926.75
471.558	881.75
471.777	860.75
471.997	841.75
472.216	855.75
472.435	845.75
472.654	839.75
472.873	816.75
473.092	817.75
473.311	806.75
473.53	841.75
473.749	808.75
473.968	852.75
474.187	822.75
474.406	802.75
474.625	801.75
474.844	840.75
475.063	861.75
475.282	851.75
475.501	832.75
475.72	859.75
475.939	853.75
476.158	862.75
476.377	862.75
476.596	856.75
476.814	867.75
477.033	893.75
477.252	903.75
477.471	921.75
477.69	927.75
477.908	973.75
478.127	1016.75
478.346	1001.75
478.564	1004.75
478.783	1027.75
479.002	1072.75
479.22	1063.75
479.439	1027.75
479.658	1034.75
479.876	1053.75
480.095	1042.75
480.313	1088.75
480.532	1149.75
480.751	1144.75
480.969	1068.75
481.188	1027.75
481.406	1022.75
481.624	992.75
481.843	937.75
482.061	942.75
482.28	970.75
482.498	937.75
482.717	923.75
482.935	936.75
483.153	959.75
483.372	963.75
483.59	920.75
483.808	934.75
484.027	949.75
484.245	956.75
484.463	976.75
484.681	973.75
484.9	989.75
485.118	985.75
485.336	979.75
485.554	998.75
485.772	1002.75
485.99	1020.75
486.209	1006.75
486.427	1023.75
486.645	1033.75
486.863	1012.75
487.081	1003.75
487.299	1019.75
487.517	983.75
487.735	1016.75
487.953	1027.75
488.171	978.75
488.389	989.75
488.607	1008.75
488.825	990.75
489.043	989.75
489.261	982.75
489.479	992.75
489.696	987.75
489.914	1004.75
490.132	1022.75
490.35	1000.75
490.568	989.75
490.786	990.75
491.003	1007.75
491.221	1000.75
491.439	1045.75
491.657	998.75
491.874	993.75
492.092	989.75
492.31	999.75
492.527	1031.75
492.745	1023.75
492.963	1040.75
493.18	1015.75
493.398	1040.75
493.615	1041.75
493.833	1039.75
494.05	1031.75
494.268	1035.75
494.485	1061.75
494.703	1067.75
494.92	1054.75
495.138	1024.75
495.355	1073.75
495.573	1031.75
495.79	1045.75
496.008	1060.75
496.225	1069.75
496.442	1063.75
496.66	1102.75
496.877	1110.75
497.094	1089.75
497.312	1121.75
497.529	1161.75
497.746	1183.75
497.963	1237.75
498.181	1273.75
498.398	1361.75
498.615	1419.75
498.832	1488.75
499.049	1606.75
499.267	1765.75
499.484	1938.75
499.701	2141.75
499.918	2403.75
500.135	2757.75
500.352	3230.75
500.569	3399.75
500.786	3280.75
501.003	3017.75
501.22	2711.75
501.437	2367.75
501.654	2063.75
501.871	1852.75
502.088	1687.75
502.305	1543.75
502.522	1483.75
502.739	1469.75
502.956	1371.75
503.172	1358.75
503.389	1282.75
503.606	1211.75
503.823	1188.75
504.04	1180.75
504.256	1207.75
504.473	1258.75
504.69	1293.75
504.907	1253.75
505.123	1136.75
505.34	1112.75
505.557	1058.75
505.773	1037.75
505.99	1008.75
506.207	988.75
506.423	952.75
506.64	952.75
506.856	944.75
507.073	969.75
507.289	947.75
507.506	927.75
507.722	942.75
507.939	906.75
508.155	911.75
508.372	899.75
508.588	901.75
508.805	878.75
509.021	877.75
509.238	890.75
509.454	856.75
509.67	865.75
509.887	846.75
510.103	862.75
510.319	879.75
510.536	867.75
510.752	848.75
510.968	856.75
511.184	842.75
511.401	872.75
511.617	819.75
511.833	850.75
512.049	856.75
512.265	860.75
512.481	826.75
512.698	872.75
512.914	828.75
513.13	856.75
513.346	848.75
513.562	875.75
513.778	848.75
513.994	870.75
514.21	850.75
514.426	861.75
514.642	843.75
514.858	867.75
515.074	861.75
515.29	871.75
515.506	865.75
515.721	896.75
515.937	917.75
516.153	926.75
516.369	942.75
516.585	1004.75
516.801	989.75
517.016	1063.75
517.232	1131.75
517.448	1165.75
517.664	1188.75
517.879	1226.75
518.095	1199.75
518.311	1194.75
518.527	1126.75
518.742	1100.75
518.958	1025.75
519.173	972.75
519.389	963.75
519.605	933.75
519.82	909.75
520.036	905.75
520.251	870.75
520.467	895.75
520.682	872.75
520.898	844.75
521.113	821.75
521.329	847.75
521.544	824.75
521.76	814.75
521.975	779.75
522.19	799.75
522.406	809.75
522.621	817.75
522.836	811.75
523.052	813.75
523.267	823.75
523.482	810.75
523.698	755.75
523.913	782.75
524.128	786.75
524.343	786.75
524.559	782.75
524.774	768.75
524.989	774.75
525.204	743.75
525.419	778.75
525.634	771.75
525.849	746.75
526.064	761.75
526.28	764.75
526.495	767.75
526.71	769.75
526.925	749.75
527.14	778.75
527.355	746.75
527.57	778.75
527.785	768.75
527.999	750.75
528.214	787.75
528.429	791.75
528.644	773.75
528.859	751.75
529.074	742.75
529.289	766.75
529.503	777.75
529.718	780.75
529.933	736.75
530.148	747.75
530.363	753.75
530.577	744.75
530.792	759.75
531.007	787.75
531.221	752.75
531.436	765.75
531.651	761.75
531.865	763.75
532.08	755.75
532.295	803.75
532.509	783.75
532.724	744.75
532.938	774.75
533.153	779.75
533.367	753.75
533.582	758.75
533.796	757.75
534.011	793.75
534.225	772.75
534.44	783.75
534.654	740.75
534.868	749.75
535.083	720.75
535.297	748.75
535.511	752.75
535.726	745.75
535.94	740.75
536.154	714.75
536.369	718.75
536.583	714.75
536.797	699.75
537.011	728.75
537.225	704.75
537.44	717.75
537.654	731.75
537.868	719.75
538.082	703.75
538.296	709.75
538.51	683.75
538.724	693.75
538.938	684.75
539.153	692.75
539.367	695.75
539.581	671.75
539.795	677.75
540.009	676.75
540.222	671.75
540.436	708.75
540.65	693.75
540.864	709.75
541.078	672.75
541.292	691.75
541.506	715.75
541.72	684.75
541.934	699.75
542.147	704.75
542.361	683.75
542.575	687.75
542.789	676.75
543.002	657.75
543.216	686.75
543.43	657.75
543.644	665.75
543.857	670.75
544.071	707.75
544.285	709.75
544.498	693.75
544.712	716.75
544.925	679.75
545.139	699.75
545.352	695.75
545.566	714.75
545.779	711.75
545.993	722.75
546.206	721.75
546.42	703.75
546.633	700.75
546.847	698.75
547.06	710.75
547.274	679.75
547.487	712.75
547.7	728.75
547.914	721.75
548.127	719.75
548.34	714.75
548.554	705.75
548.767	706.75
548.98	703.75
549.193	695.75
549.407	684.75
549.62	729.75
549.833	728.75
550.046	740.75
550.259	701.75
550.473	715.75
550.686	710.75
550.899	705.75
551.112	680.75
551.325	659.75
551.538	668.75
551.751	675.75
551.964	700.75
552.177	707.75
552.39	710.75
552.603	724.75
552.816	716.75
553.029	748.75
553.242	767.75
553.455	792.75
553.667	800.75
553.88	765.75
554.093	745.75
554.306	731.75
554.519	739.75
554.732	704.75
554.944	685.75
555.157	697.75
555.37	698.75
555.583	665.75
555.795	645.75
556.008	634.75
556.221	607.75
556.433	629.75
556.646	602.75
556.859	591.75
557.071	598.75
557.284	597.75
557.496	629.75
557.709	615.75
557.921	612.75
558.134	585.75
558.346	584.75
558.559	589.75
558.771	610.75
558.984	589.75
559.196	581.75
559.409	589.75
559.621	569.75
559.833	569.75
560.046	580.75
560.258	565.75
560.47	546.75
560.683	571.75
560.895	562.75
561.107	587.75
561.32	556.75
561.532	592.75
561.744	592.75
561.956	588.75
562.168	574.75
562.381	568.75
562.593	558.75
562.805	587.75
563.017	556.75
563.229	582.75
563.441	599.75
563.653	586.75
563.865	571.75
564.077	603.75
564.289	605.75
564.501	623.75
564.713	618.75
564.925	622.75
565.137	632.75
565.349	649.75
565.561	663.75
565.773	689.75
565.985	729.75
566.197	730.75
566.408	805.75
566.62	877.75
566.832	964.75
567.044	965.75
567.255	955.75
567.467	966.75
567.679	1049.75
567.891	1152.75
568.102	1225.75
568.314	1134.75
568.526	971.75
568.737	883.75
568.949	807.75
569.161	774.75
569.372	680.75
569.584	650.75
569.795	608.75
570.007	617.75
570.218	600.75
570.43	612.75
570.641	599.75
570.853	590.75
571.064	609.75
571.276	637.75
571.487	603.75
571.698	588.75
571.91	535.75
572.121	535.75
572.333	521.75
572.544	519.75
572.755	516.75
572.966	510.75
573.178	523.75
573.389	485.75
573.6	492.75
573.811	469.75
574.023	474.75
574.234	476.75
574.445	475.75
574.656	477.75
574.867	474.75
575.078	474.75
575.289	482.75
575.501	472.75
575.712	455.75
575.923	443.75
576.134	446.75
576.345	458.75
576.556	463.75
576.767	455.75
576.978	455.75
577.188	467.75
577.399	455.75
577.61	428.75
577.821	450.75
578.032	430.75
578.243	420.75
578.454	432.75
578.665	434.75
578.875	447.75
579.086	435.75
579.297	442.75
579.508	402.75
579.718	411.75
579.929	411.75
580.14	422.75
580.35	407.75
580.561	423.75
580.772	439.75
580.982	415.75
581.193	398.75
581.403	414.75
581.614	405.75
581.825	404.75
582.035	389.75
582.246	419.75
582.456	425.75
582.667	409.75
582.877	423.75
583.087	435.75
583.298	422.75
583.508	407.75
583.719	402.75
583.929	424.75
584.139	397.75
584.35	375.75
584.56	381.75
584.77	388.75
584.981	391.75
585.191	404.75
585.401	389.75
585.611	397.75
585.821	387.75
586.032	399.75
586.242	400.75
586.452	383.75
586.662	398.75
586.872	393.75
587.082	411.75
587.292	371.75
587.502	382.75
587.713	392.75
587.923	379.75
588.133	407.75
588.343	363.75
588.553	367.75
588.762	401.75
588.972	381.75
589.182	376.75
589.392	389.75
589.602	384.75
589.812	383.75
590.022	399.75
590.232	366.75
590.441	380.75
590.651	405.75
590.861	384.75
591.071	388.75
591.281	404.75
591.49	420.75
591.7	420.75
591.91	408.75
592.119	418.75
592.329	446.75
592.539	445.75
592.748	453.75
592.958	462.75
593.167	483.75
593.377	493.75
593.587	488.75
593.796	488.75
594.006	512.75
594.215	508.75
594.424	535.75
594.634	501.75
594.843	452.75
595.053	463.75
595.262	437.75
595.472	422.75
595.681	405.75
595.89	399.75
596.1	388.75
596.309	396.75
596.518	368.75
596.727	373.75
596.937	374.75
597.146	350.75
597.355	359.75
597.564	338.75
597.774	346.75
597.983	351.75
598.192	345.75
598.401	343.75
598.61	330.75
598.819	340.75
599.028	334.75
599.237	329.75
599.446	328.75
599.655	338.75
599.864	313.75
600.073	322.75
600.282	334.75
600.491	332.75
600.7	320.75
600.909	321.75
601.118	327.75
601.327	310.75
601.536	318.75
601.745	302.75
601.953	308.75
602.162	317.75
602.371	316.75
602.58	328.75
602.789	335.75
602.997	320.75
603.206	318.75
603.415	326.75
603.623	310.75
603.832	314.75
604.041	296.75
604.249	323.75
604.458	309.75
604.666	300.75
604.875	305.75
605.084	293.75
605.292	298.75
605.501	299.75
605.709	293.75
605.918	310.75
606.126	285.75
606.334	297.75
606.543	309.75
606.751	314.75
606.96	307.75
607.168	287.75
607.376	288.75
607.585	288.75
607.793	290.75
608.001	279.75
608.21	299.75
608.418	282.75
608.626	305.75
608.834	279.75
609.043	276.75
609.251	291.75
609.459	290.75
609.667	287.75
609.875	297.75
610.083	304.75
610.291	279.75
610.499	293.75
610.707	300.75
610.916	282.75
611.124	283.75
611.332	276.75
611.54	284.75
611.748	285.75
611.955	301.75
612.163	281.75
612.371	290.75
612.579	289.75
612.787	293.75
612.995	287.75
613.203	294.75
613.411	283.75
613.618	267.75
613.826	276.75
614.034	281.75
614.242	267.75
614.449	273.75
614.657	273.75
614.865	278.75
615.072	272.75
615.28	289.75
615.488	275.75
615.695	273.75
615.903	273.75
616.111	312.75
616.318	306.75
616.526	308.75
616.733	296.75
616.941	297.75
617.148	303.75
617.356	302.75
617.563	304.75
617.771	297.75
617.978	302.75
618.185	292.75
618.393	287.75
618.6	288.75
618.807	277.75
619.015	279.75
619.222	265.75
619.429	266.75
619.637	282.75
619.844	271.75
620.051	283.75
620.258	271.75
620.466	264.75
620.673	252.75
620.88	257.75
621.087	260.75
621.294	270.75
621.501	271.75
621.708	249.75
621.915	268.75
622.122	245.75
622.329	250.75
622.536	236.75
622.743	267.75
622.95	271.75
623.157	256.75
623.364	253.75
623.571	245.75
623.778	260.75
623.985	241.75
624.192	264.75
624.399	248.75
624.606	245.75
624.812	251.75
625.019	250.75
625.226	247.75
625.433	249.75
625.639	220.75
625.846	231.75
626.053	232.75
626.259	244.75
626.466	259.75
626.673	250.75
626.879	232.75
627.086	253.75
627.293	250.75
627.499	245.75
627.706	252.75
627.912	235.75
628.119	231.75
628.325	233.75
628.532	232.75
628.738	240.75
628.945	219.75
629.151	227.75
629.357	223.75
629.564	239.75
629.77	232.75
629.976	233.75
630.183	235.75
630.389	226.75
630.595	225.75
630.802	199.75
631.008	209.75
631.214	217.75
631.42	224.75
631.627	231.75
631.833	207.75
632.039	213.75
632.245	209.75
632.451	214.75
632.657	201.75
632.863	232.75
633.069	222.75
633.275	195.75
633.481	201.75
633.688	205.75
633.893	204.75
634.099	214.75
634.305	224.75
634.511	214.75
634.717	203.75
634.923	191.75
635.129	206.75
635.335	212.75
635.541	185.75
635.747	189.75
635.952	190.75
636.158	203.75
636.364	216.75
636.57	216.75
636.775	212.75
636.981	214.75
637.187	198.75
637.392	196.75
637.598	198.75
637.804	211.75
638.009	191.75
638.215	194.75
638.421	190.75
638.626	205.75
638.832	185.75
639.037	203.75
639.243	217.75
639.448	187.75
639.654	197.75
639.859	184.75
640.065	207.75
640.27	196.75
640.475	192.75
640.681	191.75
640.886	173.75
641.091	191.75
641.297	195.75
641.502	187.75
641.707	188.75
641.913	188.75
642.118	184.75
642.323	181.75
642.528	183.75
642.733	200.75
642.939	191.75
643.144	192.75
643.349	193.75
643.554	189.75
643.759	190.75
643.964	185.75
644.169	185.75
644.374	193.75
644.579	188.75
644.784	198.75
644.989	205.75
645.194	195.75
645.399	177.75
645.604	173.75
645.809	196.75
646.014	205.75
646.219	167.75
646.423	181.75
646.628	197.75
646.833	195.75
647.038	184.75
647.243	193.75
647.447	205.75
647.652	201.75
647.857	186.75
648.062	185.75
648.266	197.75
648.471	198.75
648.676	202.75
648.88	203.75
649.085	206.75
649.289	199.75
649.494	171.75
649.698	195.75
649.903	183.75
650.107	190.75
650.312	176.75
650.516	183.75
650.721	195.75
650.925	190.75
651.13	179.75
651.334	160.75
651.539	176.75
651.743	160.75
651.947	182.75
652.152	146.75
652.356	152.75
652.56	160.75
652.764	166.75
652.969	151.75
653.173	149.75
653.377	155.75
653.581	120.75
653.785	148.75
653.99	135.75
654.194	159.75
654.398	153.75
654.602	137.75
654.806	144.75
655.01	140.75
655.214	148.75
655.418	133.75
655.622	134.75
655.826	159.75
656.03	149.75
656.234	140.75
656.438	143.75
656.642	143.75
656.846	132.75
657.049	139.75
657.253	113.75
657.457	127.75
657.661	122.75
657.865	122.75
658.068	108.75
658.272	104.75
658.476	120.75
658.68	102.75
658.883	120.75
659.087	105.75
659.291	112.75
659.494	103.75
659.698	117.75
659.901	117.75
660.105	91.75
660.309	92.75
660.512	91.75
660.716	110.75
660.919	89.75
661.123	99.75
661.326	91.75
661.53	94.75
661.733	99.75
661.936	90.75
662.14	83.75
662.343	85.75
662.546	100.75
662.75	81.75
662.953	105.75
663.156	83.75
663.36	84.75
663.563	77.75
663.766	90.75
663.969	78.75
664.173	83.75
664.376	101.75
664.579	90.75
664.782	80.75
664.985	80.75
665.188	94.75
665.391	101.75
665.594	88.75
665.797	78.75
666	79.75
666.203	81.75
666.406	85.75
666.609	82.75
666.812	82.75
667.015	87.75
667.218	87.75
667.421	92.75
667.624	72.75
667.827	99.75
668.03	87.75
668.232	89.75
668.435	77.75
668.638	87.75
668.841	80.75
669.043	83.75
669.246	79.75
669.449	89.75
669.651	75.75
669.854	72.75
670.057	83.75
670.259	85.75
670.462	88.75
670.665	84.75
670.867	79.75
671.07	88.75
671.272	81.75
671.475	86.75
671.677	80.75
671.88	83.75
672.082	73.75
672.284	75.75
672.487	88.75
672.689	78.75
672.892	88.75
