Data from Ni(NO3)2@0.5M.TitratingCurve.Agarose3%dH2O.NegLispCup.LampEnergy10.LIBS07252019_HRD10591_17-57-15-564.txt Node
Date: Thu Jul 25 17:57:15 EDT 2019
User: cochatt
Spectrometer: HR+D1059
Trigger mode: 1
Integration Time (sec): 1.000000E-1
Scans to average: 1
Electric dark correction enabled: true
Nonlinearity correction enabled: false
Boxcar width: 0
XAxis mode: Wavelengths
Number of Pixels in Spectrum: 2048
>>>>>Begin Spectral Data<<<<<
223.165	-21.38
223.4	-21.38
223.635	-21.38
223.869	-9.38
224.104	-16.38
224.338	-3.38
224.573	-6.38
224.808	-23.38
225.042	-11.38
225.277	4.62
225.511	-19.38
225.746	-4.38
225.98	0.62
226.215	25.62
226.449	18.62
226.683	24.62
226.918	14.62
227.152	26.62
227.387	26.62
227.621	46.62
227.856	46.62
228.09	62.62
228.324	63.62
228.559	54.62
228.793	72.62
229.027	107.62
229.262	118.62
229.496	146.62
229.73	144.62
229.964	158.62
230.199	170.62
230.433	184.62
230.667	176.62
230.901	166.62
231.136	161.62
231.37	161.62
231.604	179.62
231.838	193.62
232.072	199.62
232.306	174.62
232.541	170.62
232.775	175.62
233.009	165.62
233.243	189.62
233.477	166.62
233.711	162.62
233.945	171.62
234.179	158.62
234.413	172.62
234.647	179.62
234.881	165.62
235.115	177.62
235.349	173.62
235.583	170.62
235.817	168.62
236.051	166.62
236.285	182.62
236.519	160.62
236.753	164.62
236.987	183.62
237.221	158.62
237.455	198.62
237.689	176.62
237.922	156.62
238.156	170.62
238.39	187.62
238.624	175.62
238.858	199.62
239.091	178.62
239.325	190.62
239.559	196.62
239.793	212.62
240.027	202.62
240.26	206.62
240.494	184.62
240.728	196.62
240.961	214.62
241.195	189.62
241.429	208.62
241.662	213.62
241.896	227.62
242.13	242.62
242.363	221.62
242.597	207.62
242.83	209.62
243.064	216.62
243.298	224.62
243.531	201.62
243.765	232.62
243.998	233.62
244.232	230.62
244.465	233.62
244.699	233.62
244.932	233.62
245.166	239.62
245.399	242.62
245.633	225.62
245.866	244.62
246.099	224.62
246.333	233.62
246.566	245.62
246.8	243.62
247.033	252.62
247.266	242.62
247.5	246.62
247.733	241.62
247.966	251.62
248.2	250.62
248.433	284.62
248.666	254.62
248.899	263.62
249.133	266.62
249.366	278.62
249.599	277.62
249.832	274.62
250.066	282.62
250.299	279.62
250.532	278.62
250.765	280.62
250.998	290.62
251.231	321.62
251.465	317.62
251.698	302.62
251.931	299.62
252.164	307.62
252.397	316.62
252.63	308.62
252.863	314.62
253.096	316.62
253.329	332.62
253.562	316.62
253.795	321.62
254.028	328.62
254.261	326.62
254.494	327.62
254.727	321.62
254.96	317.62
255.193	345.62
255.426	331.62
255.659	321.62
255.892	342.62
256.124	342.62
256.357	331.62
256.59	358.62
256.823	344.62
257.056	342.62
257.289	364.62
257.521	359.62
257.754	343.62
257.987	353.62
258.22	370.62
258.452	373.62
258.685	376.62
258.918	352.62
259.151	374.62
259.383	363.62
259.616	372.62
259.849	360.62
260.081	376.62
260.314	378.62
260.547	392.62
260.779	378.62
261.012	403.62
261.244	398.62
261.477	388.62
261.71	382.62
261.942	415.62
262.175	398.62
262.407	400.62
262.64	400.62
262.872	407.62
263.105	410.62
263.337	419.62
263.57	416.62
263.802	413.62
264.035	408.62
264.267	408.62
264.499	437.62
264.732	438.62
264.964	417.62
265.197	425.62
265.429	429.62
265.661	410.62
265.894	425.62
266.126	445.62
266.358	433.62
266.591	425.62
266.823	432.62
267.055	430.62
267.287	442.62
267.52	452.62
267.752	422.62
267.984	440.62
268.216	464.62
268.448	450.62
268.681	431.62
268.913	441.62
269.145	447.62
269.377	489.62
269.609	449.62
269.841	443.62
270.073	467.62
270.306	449.62
270.538	472.62
270.77	446.62
271.002	471.62
271.234	468.62
271.466	480.62
271.698	483.62
271.93	479.62
272.162	449.62
272.394	466.62
272.626	477.62
272.858	473.62
273.09	468.62
273.322	484.62
273.553	477.62
273.785	490.62
274.017	507.62
274.249	492.62
274.481	489.62
274.713	507.62
274.945	509.62
275.176	502.62
275.408	493.62
275.64	514.62
275.872	497.62
276.104	517.62
276.335	504.62
276.567	520.62
276.799	546.62
277.031	534.62
277.262	528.62
277.494	519.62
277.726	530.62
277.957	534.62
278.189	521.62
278.421	521.62
278.652	533.62
278.884	530.62
279.115	540.62
279.347	537.62
279.579	518.62
279.81	524.62
280.042	540.62
280.273	555.62
280.505	531.62
280.736	555.62
280.968	530.62
281.199	536.62
281.431	535.62
281.662	553.62
281.894	556.62
282.125	564.62
282.356	547.62
282.588	552.62
282.819	546.62
283.051	564.62
283.282	551.62
283.513	572.62
283.745	556.62
283.976	546.62
284.207	572.62
284.439	562.62
284.67	572.62
284.901	584.62
285.132	570.62
285.364	579.62
285.595	581.62
285.826	577.62
286.057	552.62
286.288	580.62
286.52	574.62
286.751	561.62
286.982	594.62
287.213	575.62
287.444	591.62
287.675	576.62
287.906	572.62
288.138	579.62
288.369	566.62
288.6	596.62
288.831	577.62
289.062	593.62
289.293	580.62
289.524	614.62
289.755	600.62
289.986	592.62
290.217	610.62
290.448	577.62
290.679	592.62
290.91	593.62
291.141	614.62
291.371	592.62
291.602	606.62
291.833	611.62
292.064	605.62
292.295	574.62
292.526	600.62
292.757	596.62
292.987	573.62
293.218	589.62
293.449	580.62
293.68	607.62
293.91	614.62
294.141	609.62
294.372	596.62
294.603	625.62
294.833	622.62
295.064	631.62
295.295	636.62
295.525	603.62
295.756	617.62
295.987	595.62
296.217	619.62
296.448	594.62
296.679	617.62
296.909	606.62
297.14	644.62
297.37	640.62
297.601	652.62
297.831	635.62
298.062	641.62
298.292	621.62
298.523	653.62
298.753	649.62
298.984	648.62
299.214	642.62
299.445	639.62
299.675	652.62
299.905	649.62
300.136	656.62
300.366	672.62
300.597	682.62
300.827	666.62
301.057	671.62
301.288	674.62
301.518	670.62
301.748	680.62
301.979	669.62
302.209	664.62
302.439	670.62
302.669	668.62
302.9	671.62
303.13	697.62
303.36	718.62
303.59	692.62
303.82	711.62
304.051	687.62
304.281	713.62
304.511	690.62
304.741	709.62
304.971	692.62
305.201	704.62
305.431	719.62
305.661	724.62
305.891	698.62
306.121	724.62
306.352	692.62
306.582	712.62
306.812	704.62
307.042	706.62
307.272	685.62
307.502	692.62
307.731	694.62
307.961	728.62
308.191	700.62
308.421	697.62
308.651	730.62
308.881	721.62
309.111	723.62
309.341	715.62
309.571	727.62
309.8	718.62
310.03	741.62
310.26	751.62
310.49	718.62
310.72	752.62
310.949	753.62
311.179	721.62
311.409	717.62
311.639	736.62
311.868	717.62
312.098	725.62
312.328	738.62
312.557	728.62
312.787	753.62
313.017	779.62
313.246	767.62
313.476	737.62
313.706	779.62
313.935	778.62
314.165	775.62
314.394	768.62
314.624	765.62
314.853	774.62
315.083	761.62
315.312	777.62
315.542	792.62
315.771	779.62
316.001	772.62
316.23	786.62
316.46	797.62
316.689	813.62
316.919	778.62
317.148	791.62
317.377	788.62
317.607	818.62
317.836	802.62
318.065	823.62
318.295	806.62
318.524	814.62
318.753	791.62
318.983	820.62
319.212	808.62
319.441	804.62
319.67	804.62
319.9	817.62
320.129	834.62
320.358	825.62
320.587	826.62
320.816	841.62
321.046	856.62
321.275	843.62
321.504	863.62
321.733	866.62
321.962	848.62
322.191	841.62
322.42	844.62
322.649	895.62
322.878	862.62
323.108	847.62
323.337	869.62
323.566	865.62
323.795	905.62
324.024	866.62
324.253	886.62
324.482	886.62
324.71	882.62
324.939	883.62
325.168	896.62
325.397	909.62
325.626	883.62
325.855	900.62
326.084	877.62
326.313	899.62
326.542	908.62
326.77	928.62
326.999	930.62
327.228	926.62
327.457	946.62
327.686	897.62
327.914	914.62
328.143	918.62
328.372	922.62
328.6	918.62
328.829	930.62
329.058	915.62
329.287	903.62
329.515	936.62
329.744	936.62
329.972	937.62
330.201	944.62
330.43	939.62
330.658	944.62
330.887	934.62
331.115	971.62
331.344	955.62
331.572	970.62
331.801	979.62
332.03	950.62
332.258	975.62
332.486	992.62
332.715	983.62
332.943	981.62
333.172	979.62
333.4	1008.62
333.629	998.62
333.857	1011.62
334.085	992.62
334.314	1011.62
334.542	1020.62
334.771	1052.62
334.999	1015.62
335.227	1021.62
335.455	1034.62
335.684	1057.62
335.912	1042.62
336.14	1049.62
336.369	1028.62
336.597	1027.62
336.825	1012.62
337.053	1047.62
337.281	1043.62
337.51	1023.62
337.738	1052.62
337.966	1039.62
338.194	1059.62
338.422	1018.62
338.65	1016.62
338.878	1019.62
339.106	1020.62
339.334	1058.62
339.562	1038.62
339.79	1024.62
340.018	1033.62
340.246	1019.62
340.474	1024.62
340.702	1033.62
340.93	1001.62
341.158	1018.62
341.386	1040.62
341.614	1056.62
341.842	1034.62
342.07	1005.62
342.298	1014.62
342.526	1008.62
342.754	1037.62
342.981	1013.62
343.209	1012.62
343.437	1048.62
343.665	1033.62
343.893	1042.62
344.12	1015.62
344.348	1027.62
344.576	1037.62
344.804	1054.62
345.031	1039.62
345.259	1043.62
345.487	1038.62
345.714	1050.62
345.942	1054.62
346.17	1057.62
346.397	1023.62
346.625	999.62
346.853	1003.62
347.08	989.62
347.308	1030.62
347.535	1024.62
347.763	978.62
347.99	976.62
348.218	983.62
348.445	1009.62
348.673	1003.62
348.9	980.62
349.128	971.62
349.355	1021.62
349.583	1037.62
349.81	1002.62
350.037	956.62
350.265	944.62
350.492	965.62
350.72	970.62
350.947	968.62
351.174	1007.62
351.402	1014.62
351.629	1030.62
351.856	1019.62
352.083	991.62
352.311	1026.62
352.538	1018.62
352.765	1017.62
352.992	955.62
353.22	961.62
353.447	966.62
353.674	962.62
353.901	952.62
354.128	971.62
354.355	976.62
354.583	942.62
354.81	978.62
355.037	963.62
355.264	952.62
355.491	977.62
355.718	950.62
355.945	970.62
356.172	935.62
356.399	958.62
356.626	965.62
356.853	988.62
357.08	983.62
357.307	943.62
357.534	988.62
357.761	926.62
357.988	988.62
358.215	968.62
358.441	946.62
358.668	954.62
358.895	967.62
359.122	959.62
359.349	979.62
359.576	990.62
359.802	973.62
360.029	975.62
360.256	963.62
360.483	935.62
360.709	994.62
360.936	970.62
361.163	994.62
361.39	964.62
361.616	998.62
361.843	983.62
362.07	1040.62
362.296	1020.62
362.523	957.62
362.749	987.62
362.976	981.62
363.203	958.62
363.429	922.62
363.656	969.62
363.882	983.62
364.109	979.62
364.335	968.62
364.562	968.62
364.788	933.62
365.015	986.62
365.241	988.62
365.468	992.62
365.694	979.62
365.92	974.62
366.147	968.62
366.373	953.62
366.599	960.62
366.826	988.62
367.052	966.62
367.278	991.62
367.505	992.62
367.731	967.62
367.957	964.62
368.184	960.62
368.41	963.62
368.636	1012.62
368.862	1002.62
369.089	977.62
369.315	969.62
369.541	983.62
369.767	987.62
369.993	971.62
370.219	1016.62
370.445	985.62
370.672	988.62
370.898	985.62
371.124	976.62
371.35	1020.62
371.576	999.62
371.802	987.62
372.028	991.62
372.254	1036.62
372.48	1010.62
372.706	995.62
372.932	1041.62
373.158	970.62
373.384	992.62
373.61	1018.62
373.835	1018.62
374.061	1040.62
374.287	992.62
374.513	1009.62
374.739	1005.62
374.965	1012.62
375.191	1021.62
375.416	1003.62
375.642	1003.62
375.868	999.62
376.094	1004.62
376.319	1000.62
376.545	988.62
376.771	998.62
376.997	984.62
377.222	987.62
377.448	986.62
377.674	1010.62
377.899	946.62
378.125	962.62
378.35	987.62
378.576	1006.62
378.802	975.62
379.027	984.62
379.253	976.62
379.478	967.62
379.704	951.62
379.929	954.62
380.155	991.62
380.38	978.62
380.606	975.62
380.831	1000.62
381.057	1018.62
381.282	966.62
381.507	975.62
381.733	994.62
381.958	1000.62
382.184	989.62
382.409	971.62
382.634	999.62
382.86	1008.62
383.085	994.62
383.31	1010.62
383.535	1014.62
383.761	1005.62
383.986	1034.62
384.211	1020.62
384.436	982.62
384.662	1043.62
384.887	1046.62
385.112	1005.62
385.337	1017.62
385.562	1044.62
385.787	1046.62
386.013	1045.62
386.238	1042.62
386.463	1057.62
386.688	1042.62
386.913	1038.62
387.138	1032.62
387.363	1041.62
387.588	1057.62
387.813	1066.62
388.038	1060.62
388.263	1044.62
388.488	1062.62
388.713	1051.62
388.938	1042.62
389.163	1078.62
389.387	1044.62
389.612	1088.62
389.837	1046.62
390.062	1059.62
390.287	1063.62
390.512	1076.62
390.736	1067.62
390.961	1080.62
391.186	1068.62
391.411	1086.62
391.636	1094.62
391.86	1084.62
392.085	1067.62
392.31	1070.62
392.534	1086.62
392.759	1110.62
392.984	1124.62
393.208	1074.62
393.433	1089.62
393.658	1101.62
393.882	1115.62
394.107	1080.62
394.331	1067.62
394.556	1080.62
394.78	1086.62
395.005	1090.62
395.229	1076.62
395.454	1103.62
395.678	1126.62
395.903	1084.62
396.127	1056.62
396.352	1076.62
396.576	1080.62
396.801	1115.62
397.025	1095.62
397.249	1137.62
397.474	1120.62
397.698	1118.62
397.922	1127.62
398.147	1121.62
398.371	1140.62
398.595	1148.62
398.82	1156.62
399.044	1188.62
399.268	1209.62
399.492	1189.62
399.717	1228.62
399.941	1254.62
400.165	1261.62
400.389	1221.62
400.613	1223.62
400.837	1199.62
401.062	1203.62
401.286	1181.62
401.51	1151.62
401.734	1139.62
401.958	1154.62
402.182	1136.62
402.406	1174.62
402.63	1206.62
402.854	1195.62
403.078	1154.62
403.302	1167.62
403.526	1181.62
403.75	1182.62
403.974	1226.62
404.198	1150.62
404.422	1176.62
404.645	1166.62
404.869	1189.62
405.093	1219.62
405.317	1190.62
405.541	1207.62
405.765	1199.62
405.988	1220.62
406.212	1210.62
406.436	1203.62
406.66	1267.62
406.883	1234.62
407.107	1242.62
407.331	1230.62
407.555	1257.62
407.778	1253.62
408.002	1260.62
408.226	1257.62
408.449	1294.62
408.673	1265.62
408.896	1256.62
409.12	1248.62
409.344	1234.62
409.567	1241.62
409.791	1214.62
410.014	1250.62
410.238	1247.62
410.461	1242.62
410.685	1230.62
410.908	1209.62
411.132	1213.62
411.355	1207.62
411.578	1209.62
411.802	1192.62
412.025	1207.62
412.249	1210.62
412.472	1197.62
412.695	1206.62
412.919	1217.62
413.142	1224.62
413.365	1204.62
413.589	1182.62
413.812	1205.62
414.035	1186.62
414.258	1182.62
414.482	1179.62
414.705	1192.62
414.928	1184.62
415.151	1173.62
415.374	1226.62
415.597	1176.62
415.821	1160.62
416.044	1147.62
416.267	1140.62
416.49	1158.62
416.713	1120.62
416.936	1192.62
417.159	1159.62
417.382	1165.62
417.605	1151.62
417.828	1131.62
418.051	1172.62
418.274	1142.62
418.497	1135.62
418.72	1118.62
418.943	1136.62
419.166	1184.62
419.389	1219.62
419.611	1214.62
419.834	1198.62
420.057	1179.62
420.28	1122.62
420.503	1151.62
420.726	1108.62
420.948	1130.62
421.171	1130.62
421.394	1159.62
421.617	1110.62
421.839	1144.62
422.062	1143.62
422.285	1136.62
422.507	1140.62
422.73	1138.62
422.953	1147.62
423.175	1113.62
423.398	1107.62
423.621	1117.62
423.843	1142.62
424.066	1140.62
424.288	1146.62
424.511	1134.62
424.733	1140.62
424.956	1113.62
425.178	1149.62
425.401	1116.62
425.623	1159.62
425.846	1126.62
426.068	1148.62
426.291	1138.62
426.513	1149.62
426.735	1132.62
426.958	1137.62
427.18	1162.62
427.402	1121.62
427.625	1107.62
427.847	1116.62
428.069	1128.62
428.292	1151.62
428.514	1126.62
428.736	1132.62
428.958	1153.62
429.181	1137.62
429.403	1139.62
429.625	1112.62
429.847	1107.62
430.069	1126.62
430.292	1158.62
430.514	1130.62
430.736	1131.62
430.958	1119.62
431.18	1133.62
431.402	1138.62
431.624	1126.62
431.846	1128.62
432.068	1121.62
432.29	1144.62
432.512	1098.62
432.734	1156.62
432.956	1130.62
433.178	1138.62
433.4	1171.62
433.622	1172.62
433.844	1176.62
434.066	1150.62
434.287	1151.62
434.509	1131.62
434.731	1116.62
434.953	1138.62
435.175	1180.62
435.397	1194.62
435.618	1163.62
435.84	1144.62
436.062	1134.62
436.284	1162.62
436.505	1120.62
436.727	1166.62
436.949	1161.62
437.17	1130.62
437.392	1110.62
437.614	1115.62
437.835	1072.62
438.057	1115.62
438.278	1119.62
438.5	1098.62
438.721	1120.62
438.943	1103.62
439.165	1084.62
439.386	1134.62
439.608	1132.62
439.829	1125.62
440.05	1113.62
440.272	1172.62
440.493	1161.62
440.715	1144.62
440.936	1155.62
441.158	1150.62
441.379	1138.62
441.6	1180.62
441.822	1147.62
442.043	1163.62
442.264	1168.62
442.486	1165.62
442.707	1149.62
442.928	1156.62
443.149	1159.62
443.371	1168.62
443.592	1225.62
443.813	1211.62
444.034	1162.62
444.255	1152.62
444.476	1145.62
444.698	1158.62
444.919	1208.62
445.14	1363.62
445.361	1257.62
445.582	1179.62
445.803	1144.62
446.024	1130.62
446.245	1134.62
446.466	1161.62
446.687	1129.62
446.908	1131.62
447.129	1111.62
447.35	1134.62
447.571	1102.62
447.792	1088.62
448.013	1094.62
448.234	1067.62
448.455	1079.62
448.675	1071.62
448.896	1055.62
449.117	1038.62
449.338	1043.62
449.559	1033.62
449.779	1064.62
450	1037.62
450.221	1037.62
450.442	1047.62
450.662	1052.62
450.883	1040.62
451.104	1071.62
451.324	1047.62
451.545	1015.62
451.766	1028.62
451.986	1049.62
452.207	1027.62
452.428	1023.62
452.648	1034.62
452.869	1028.62
453.089	1012.62
453.31	1062.62
453.53	1046.62
453.751	1019.62
453.971	1030.62
454.192	1024.62
454.412	1026.62
454.633	1019.62
454.853	1059.62
455.073	1004.62
455.294	1056.62
455.514	1021.62
455.734	1043.62
455.955	1044.62
456.175	1023.62
456.395	1018.62
456.616	997.62
456.836	1000.62
457.056	983.62
457.276	1014.62
457.497	1012.62
457.717	1022.62
457.937	1046.62
458.157	1028.62
458.377	1025.62
458.598	1040.62
458.818	1041.62
459.038	1037.62
459.258	1026.62
459.478	1134.62
459.698	1176.62
459.918	1148.62
460.138	1129.62
460.358	1140.62
460.578	1153.62
460.798	1154.62
461.018	1200.62
461.238	1165.62
461.458	1171.62
461.678	1145.62
461.898	1157.62
462.118	1134.62
462.338	1162.62
462.558	1187.62
462.777	1193.62
462.997	1225.62
463.217	1247.62
463.437	1276.62
463.657	1237.62
463.876	1229.62
464.096	1196.62
464.316	1226.62
464.536	1195.62
464.755	1171.62
464.975	1156.62
465.195	1155.62
465.414	1161.62
465.634	1131.62
465.854	1118.62
466.073	1087.62
466.293	1082.62
466.512	1086.62
466.732	1081.62
466.951	1104.62
467.171	1103.62
467.391	1121.62
467.61	1091.62
467.829	1066.62
468.049	1076.62
468.268	1078.62
468.488	1098.62
468.707	1082.62
468.927	1086.62
469.146	1094.62
469.365	1118.62
469.585	1097.62
469.804	1094.62
470.023	1106.62
470.243	1098.62
470.462	1136.62
470.681	1128.62
470.901	1103.62
471.12	1108.62
471.339	1116.62
471.558	1099.62
471.777	1103.62
471.997	1099.62
472.216	1100.62
472.435	1108.62
472.654	1085.62
472.873	1067.62
473.092	1082.62
473.311	1118.62
473.53	1127.62
473.749	1098.62
473.968	1091.62
474.187	1107.62
474.406	1108.62
474.625	1112.62
474.844	1124.62
475.063	1143.62
475.282	1146.62
475.501	1150.62
475.72	1164.62
475.939	1146.62
476.158	1160.62
476.377	1160.62
476.596	1170.62
476.814	1194.62
477.033	1185.62
477.252	1180.62
477.471	1182.62
477.69	1198.62
477.908	1214.62
478.127	1239.62
478.346	1230.62
478.564	1246.62
478.783	1268.62
479.002	1279.62
479.22	1326.62
479.439	1290.62
479.658	1238.62
479.876	1247.62
480.095	1302.62
480.313	1291.62
480.532	1295.62
480.751	1286.62
480.969	1272.62
481.188	1291.62
481.406	1265.62
481.624	1256.62
481.843	1260.62
482.061	1327.62
482.28	1283.62
482.498	1290.62
482.717	1305.62
482.935	1335.62
483.153	1342.62
483.372	1364.62
483.59	1346.62
483.808	1327.62
484.027	1321.62
484.245	1328.62
484.463	1360.62
484.681	1351.62
484.9	1323.62
485.118	1344.62
485.336	1352.62
485.554	1318.62
485.772	1337.62
485.99	1306.62
486.209	1366.62
486.427	1310.62
486.645	1315.62
486.863	1401.62
487.081	1385.62
487.299	1338.62
487.517	1345.62
487.735	1380.62
487.953	1422.62
488.171	1382.62
488.389	1378.62
488.607	1367.62
488.825	1325.62
489.043	1351.62
489.261	1371.62
489.479	1353.62
489.696	1348.62
489.914	1336.62
490.132	1387.62
490.35	1353.62
490.568	1367.62
490.786	1406.62
491.003	1412.62
491.221	1379.62
491.439	1405.62
491.657	1384.62
491.874	1414.62
492.092	1414.62
492.31	1442.62
492.527	1450.62
492.745	1444.62
492.963	1418.62
493.18	1407.62
493.398	1414.62
493.615	1424.62
493.833	1407.62
494.05	1430.62
494.268	1397.62
494.485	1395.62
494.703	1408.62
494.92	1426.62
495.138	1416.62
495.355	1418.62
495.573	1427.62
495.79	1453.62
496.008	1434.62
496.225	1456.62
496.442	1467.62
496.66	1504.62
496.877	1475.62
497.094	1464.62
497.312	1471.62
497.529	1498.62
497.746	1532.62
497.963	1503.62
498.181	1535.62
498.398	1553.62
498.615	1581.62
498.832	1607.62
499.049	1616.62
499.267	1675.62
499.484	1707.62
499.701	1722.62
499.918	1766.62
500.135	1815.62
500.352	1863.62
500.569	1818.62
500.786	1828.62
501.003	1775.62
501.22	1762.62
501.437	1750.62
501.654	1741.62
501.871	1700.62
502.088	1686.62
502.305	1615.62
502.522	1608.62
502.739	1594.62
502.956	1544.62
503.172	1529.62
503.389	1487.62
503.606	1480.62
503.823	1455.62
504.04	1446.62
504.256	1465.62
504.473	1405.62
504.69	1376.62
504.907	1407.62
505.123	1360.62
505.34	1375.62
505.557	1331.62
505.773	1331.62
505.99	1325.62
506.207	1288.62
506.423	1297.62
506.64	1276.62
506.856	1281.62
507.073	1292.62
507.289	1247.62
507.506	1271.62
507.722	1260.62
507.939	1244.62
508.155	1254.62
508.372	1214.62
508.588	1219.62
508.805	1234.62
509.021	1228.62
509.238	1189.62
509.454	1174.62
509.67	1183.62
509.887	1154.62
510.103	1193.62
510.319	1166.62
510.536	1173.62
510.752	1142.62
510.968	1158.62
511.184	1140.62
511.401	1164.62
511.617	1160.62
511.833	1144.62
512.049	1143.62
512.265	1129.62
512.481	1141.62
512.698	1108.62
512.914	1150.62
513.13	1163.62
513.346	1160.62
513.562	1155.62
513.778	1168.62
513.994	1115.62
514.21	1130.62
514.426	1132.62
514.642	1145.62
514.858	1137.62
515.074	1146.62
515.29	1165.62
515.506	1163.62
515.721	1177.62
515.937	1192.62
516.153	1143.62
516.369	1184.62
516.585	1167.62
516.801	1170.62
517.016	1190.62
517.232	1178.62
517.448	1175.62
517.664	1162.62
517.879	1164.62
518.095	1187.62
518.311	1181.62
518.527	1160.62
518.742	1173.62
518.958	1161.62
519.173	1168.62
519.389	1171.62
519.605	1144.62
519.82	1147.62
520.036	1113.62
520.251	1114.62
520.467	1118.62
520.682	1114.62
520.898	1074.62
521.113	1119.62
521.329	1073.62
521.544	1089.62
521.76	1077.62
521.975	1110.62
522.19	1068.62
522.406	1094.62
522.621	1092.62
522.836	1090.62
523.052	1058.62
523.267	1057.62
523.482	1054.62
523.698	1019.62
523.913	1070.62
524.128	1075.62
524.343	1075.62
524.559	1062.62
524.774	1050.62
524.989	1047.62
525.204	1042.62
525.419	1043.62
525.634	1058.62
525.849	1050.62
526.064	1026.62
526.28	1045.62
526.495	1044.62
526.71	1004.62
526.925	1016.62
527.14	1034.62
527.355	1033.62
527.57	975.62
527.785	1022.62
527.999	1001.62
528.214	1032.62
528.429	1032.62
528.644	998.62
528.859	1020.62
529.074	986.62
529.289	1009.62
529.503	1043.62
529.718	1002.62
529.933	1006.62
530.148	1010.62
530.363	1027.62
530.577	987.62
530.792	969.62
531.007	982.62
531.221	981.62
531.436	963.62
531.651	974.62
531.865	982.62
532.08	973.62
532.295	975.62
532.509	974.62
532.724	982.62
532.938	980.62
533.153	1002.62
533.367	995.62
533.582	984.62
533.796	1004.62
534.011	986.62
534.225	986.62
534.44	944.62
534.654	970.62
534.868	950.62
535.083	964.62
535.297	932.62
535.511	920.62
535.726	927.62
535.94	923.62
536.154	948.62
536.369	926.62
536.583	925.62
536.797	893.62
537.011	906.62
537.225	944.62
537.44	928.62
537.654	953.62
537.868	910.62
538.082	886.62
538.296	912.62
538.51	914.62
538.724	899.62
538.938	907.62
539.153	907.62
539.367	914.62
539.581	899.62
539.795	879.62
540.009	907.62
540.222	924.62
540.436	882.62
540.65	912.62
540.864	900.62
541.078	911.62
541.292	920.62
541.506	930.62
541.72	890.62
541.934	930.62
542.147	937.62
542.361	925.62
542.575	929.62
542.789	887.62
543.002	878.62
543.216	876.62
543.43	858.62
543.644	873.62
543.857	883.62
544.071	876.62
544.285	893.62
544.498	902.62
544.712	884.62
544.925	913.62
545.139	922.62
545.352	888.62
545.566	880.62
545.779	891.62
545.993	886.62
546.206	920.62
546.42	902.62
546.633	884.62
546.847	898.62
547.06	888.62
547.274	882.62
547.487	901.62
547.7	896.62
547.914	892.62
548.127	892.62
548.34	895.62
548.554	863.62
548.767	896.62
548.98	912.62
549.193	879.62
549.407	869.62
549.62	880.62
549.833	890.62
550.046	872.62
550.259	870.62
550.473	874.62
550.686	849.62
550.899	850.62
551.112	843.62
551.325	864.62
551.538	855.62
551.751	839.62
551.964	829.62
552.177	844.62
552.39	863.62
552.603	856.62
552.816	867.62
553.029	859.62
553.242	873.62
553.455	875.62
553.667	881.62
553.88	857.62
554.093	860.62
554.306	844.62
554.519	856.62
554.732	808.62
554.944	824.62
555.157	833.62
555.37	818.62
555.583	797.62
555.795	813.62
556.008	822.62
556.221	796.62
556.433	772.62
556.646	785.62
556.859	778.62
557.071	801.62
557.284	800.62
557.496	759.62
557.709	796.62
557.921	794.62
558.134	778.62
558.346	751.62
558.559	790.62
558.771	742.62
558.984	762.62
559.196	762.62
559.409	751.62
559.621	752.62
559.833	744.62
560.046	739.62
560.258	759.62
560.47	741.62
560.683	739.62
560.895	762.62
561.107	734.62
561.32	741.62
561.532	741.62
561.744	748.62
561.956	729.62
562.168	725.62
562.381	723.62
562.593	748.62
562.805	734.62
563.017	767.62
563.229	742.62
563.441	732.62
563.653	735.62
563.865	758.62
564.077	711.62
564.289	747.62
564.501	753.62
564.713	721.62
564.925	762.62
565.137	745.62
565.349	735.62
565.561	745.62
565.773	751.62
565.985	786.62
566.197	776.62
566.408	772.62
566.62	802.62
566.832	771.62
567.044	792.62
567.255	783.62
567.467	809.62
567.679	780.62
567.891	810.62
568.102	796.62
568.314	792.62
568.526	720.62
568.737	726.62
568.949	720.62
569.161	721.62
569.372	670.62
569.584	671.62
569.795	697.62
570.007	682.62
570.218	670.62
570.43	683.62
570.641	657.62
570.853	667.62
571.064	651.62
571.276	658.62
571.487	636.62
571.698	640.62
571.91	636.62
572.121	630.62
572.333	600.62
572.544	632.62
572.755	592.62
572.966	595.62
573.178	603.62
573.389	590.62
573.6	614.62
573.811	569.62
574.023	578.62
574.234	578.62
574.445	588.62
574.656	588.62
574.867	584.62
575.078	562.62
575.289	547.62
575.501	577.62
575.712	574.62
575.923	572.62
576.134	573.62
576.345	551.62
576.556	574.62
576.767	563.62
576.978	568.62
577.188	560.62
577.399	542.62
577.61	542.62
577.821	548.62
578.032	536.62
578.243	527.62
578.454	530.62
578.665	521.62
578.875	510.62
579.086	529.62
579.297	542.62
579.508	529.62
579.718	524.62
579.929	501.62
580.14	517.62
580.35	508.62
580.561	542.62
580.772	522.62
580.982	509.62
581.193	499.62
581.403	490.62
581.614	508.62
581.825	508.62
582.035	489.62
582.246	510.62
582.456	485.62
582.667	512.62
582.877	494.62
583.087	508.62
583.298	482.62
583.508	495.62
583.719	525.62
583.929	484.62
584.139	493.62
584.35	479.62
584.56	482.62
584.77	463.62
584.981	478.62
585.191	486.62
585.401	471.62
585.611	484.62
585.821	469.62
586.032	472.62
586.242	466.62
586.452	457.62
586.662	463.62
586.872	484.62
587.082	468.62
587.292	450.62
587.502	479.62
587.713	486.62
587.923	497.62
588.133	459.62
588.343	451.62
588.553	465.62
588.762	480.62
588.972	456.62
589.182	490.62
589.392	501.62
589.602	467.62
589.812	502.62
590.022	481.62
590.232	462.62
590.441	460.62
590.651	443.62
590.861	439.62
591.071	448.62
591.281	464.62
591.49	468.62
591.7	460.62
591.91	470.62
592.119	453.62
592.329	478.62
592.539	448.62
592.748	448.62
592.958	457.62
593.167	426.62
593.377	446.62
593.587	463.62
593.796	456.62
594.006	452.62
594.215	441.62
594.424	451.62
594.634	458.62
594.843	447.62
595.053	444.62
595.262	450.62
595.472	412.62
595.681	435.62
595.89	448.62
596.1	430.62
596.309	424.62
596.518	422.62
596.727	422.62
596.937	412.62
597.146	429.62
597.355	422.62
597.564	415.62
597.774	402.62
597.983	402.62
598.192	404.62
598.401	382.62
598.61	400.62
598.819	390.62
599.028	423.62
599.237	423.62
599.446	394.62
599.655	395.62
599.864	401.62
600.073	391.62
600.282	392.62
600.491	383.62
600.7	386.62
600.909	386.62
601.118	391.62
601.327	386.62
601.536	390.62
601.745	379.62
601.953	384.62
602.162	393.62
602.371	385.62
602.58	364.62
602.789	390.62
602.997	368.62
603.206	375.62
603.415	350.62
603.623	358.62
603.832	374.62
604.041	393.62
604.249	367.62
604.458	366.62
604.666	394.62
604.875	386.62
605.084	351.62
605.292	363.62
605.501	367.62
605.709	364.62
605.918	381.62
606.126	370.62
606.334	358.62
606.543	369.62
606.751	347.62
606.96	353.62
607.168	351.62
607.376	336.62
607.585	359.62
607.793	350.62
608.001	340.62
608.21	350.62
608.418	363.62
608.626	369.62
608.834	345.62
609.043	359.62
609.251	362.62
609.459	345.62
609.667	334.62
609.875	364.62
610.083	338.62
610.291	344.62
610.499	332.62
610.707	354.62
610.916	358.62
611.124	336.62
611.332	364.62
611.54	361.62
611.748	347.62
611.955	328.62
612.163	340.62
612.371	340.62
612.579	334.62
612.787	337.62
612.995	334.62
613.203	351.62
613.411	314.62
613.618	336.62
613.826	343.62
614.034	342.62
614.242	332.62
614.449	334.62
614.657	340.62
614.865	344.62
615.072	344.62
615.28	337.62
615.488	324.62
615.695	332.62
615.903	325.62
616.111	333.62
616.318	332.62
616.526	315.62
616.733	329.62
616.941	333.62
617.148	337.62
617.356	319.62
617.563	339.62
617.771	348.62
617.978	323.62
618.185	319.62
618.393	313.62
618.6	318.62
618.807	296.62
619.015	322.62
619.222	318.62
619.429	307.62
619.637	331.62
619.844	326.62
620.051	316.62
620.258	322.62
620.466	314.62
620.673	321.62
620.88	295.62
621.087	309.62
621.294	314.62
621.501	312.62
621.708	297.62
621.915	298.62
622.122	301.62
622.329	316.62
622.536	318.62
622.743	326.62
622.95	311.62
623.157	294.62
623.364	312.62
623.571	306.62
623.778	313.62
623.985	312.62
624.192	293.62
624.399	298.62
624.606	286.62
624.812	296.62
625.019	291.62
625.226	285.62
625.433	278.62
625.639	284.62
625.846	282.62
626.053	280.62
626.259	289.62
626.466	283.62
626.673	294.62
626.879	264.62
627.086	285.62
627.293	279.62
627.499	283.62
627.706	290.62
627.912	287.62
628.119	289.62
628.325	273.62
628.532	273.62
628.738	266.62
628.945	268.62
629.151	282.62
629.357	261.62
629.564	272.62
629.77	254.62
629.976	274.62
630.183	261.62
630.389	281.62
630.595	275.62
630.802	289.62
631.008	254.62
631.214	249.62
631.42	266.62
631.627	276.62
631.833	261.62
632.039	265.62
632.245	260.62
632.451	254.62
632.657	261.62
632.863	255.62
633.069	243.62
633.275	265.62
633.481	272.62
633.688	256.62
633.893	243.62
634.099	263.62
634.305	269.62
634.511	276.62
634.717	255.62
634.923	234.62
635.129	250.62
635.335	258.62
635.541	237.62
635.747	248.62
635.952	241.62
636.158	242.62
636.364	251.62
636.57	251.62
636.775	239.62
636.981	259.62
637.187	243.62
637.392	248.62
637.598	243.62
637.804	272.62
638.009	250.62
638.215	228.62
638.421	250.62
638.626	254.62
638.832	244.62
639.037	241.62
639.243	240.62
639.448	229.62
639.654	264.62
639.859	241.62
640.065	235.62
640.27	242.62
640.475	253.62
640.681	217.62
640.886	241.62
641.091	226.62
641.297	249.62
641.502	250.62
641.707	233.62
641.913	234.62
642.118	232.62
642.323	229.62
642.528	231.62
642.733	246.62
642.939	255.62
643.144	215.62
643.349	241.62
643.554	249.62
643.759	240.62
643.964	210.62
644.169	239.62
644.374	226.62
644.579	233.62
644.784	230.62
644.989	226.62
645.194	225.62
645.399	230.62
645.604	236.62
645.809	265.62
646.014	239.62
646.219	236.62
646.423	235.62
646.628	225.62
646.833	226.62
647.038	240.62
647.243	233.62
647.447	238.62
647.652	234.62
647.857	250.62
648.062	241.62
648.266	248.62
648.471	232.62
648.676	240.62
648.88	208.62
649.085	226.62
649.289	237.62
649.494	223.62
649.698	234.62
649.903	215.62
650.107	262.62
650.312	232.62
650.516	223.62
650.721	242.62
650.925	224.62
651.13	222.62
651.334	236.62
651.539	238.62
651.743	222.62
651.947	228.62
652.152	231.62
652.356	225.62
652.56	222.62
652.764	228.62
652.969	204.62
653.173	224.62
653.377	237.62
653.581	215.62
653.785	224.62
653.99	215.62
654.194	212.62
654.398	208.62
654.602	215.62
654.806	231.62
655.01	218.62
655.214	231.62
655.418	224.62
655.622	212.62
655.826	231.62
656.03	223.62
656.234	218.62
656.438	240.62
656.642	234.62
656.846	222.62
657.049	204.62
657.253	204.62
657.457	196.62
657.661	184.62
657.865	188.62
658.068	159.62
658.272	161.62
658.476	171.62
658.68	162.62
658.883	141.62
659.087	140.62
659.291	139.62
659.494	136.62
659.698	130.62
659.901	139.62
660.105	125.62
660.309	104.62
660.512	116.62
660.716	144.62
660.919	122.62
661.123	113.62
661.326	108.62
661.53	119.62
661.733	114.62
661.936	105.62
662.14	96.62
662.343	95.62
662.546	94.62
662.75	105.62
662.953	108.62
663.156	83.62
663.36	97.62
663.563	91.62
663.766	80.62
663.969	85.62
664.173	84.62
664.376	89.62
664.579	90.62
664.782	87.62
664.985	80.62
665.188	95.62
665.391	77.62
665.594	86.62
665.797	91.62
666	91.62
666.203	81.62
666.406	84.62
666.609	76.62
666.812	110.62
667.015	99.62
667.218	80.62
667.421	84.62
667.624	82.62
667.827	93.62
668.03	72.62
668.232	79.62
668.435	90.62
668.638	70.62
668.841	94.62
669.043	72.62
669.246	84.62
669.449	84.62
669.651	87.62
669.854	96.62
670.057	84.62
670.259	79.62
670.462	94.62
670.665	84.62
670.867	90.62
671.07	80.62
671.272	99.62
671.475	96.62
671.677	83.62
671.88	88.62
672.082	95.62
672.284	87.62
672.487	92.62
672.689	73.62
672.892	86.62
