Data from Ni(NO3)2@0.25M.TitratingCurve.Agarose3%dH2O.NegLispCup.LampEnergy10.LIBS07252019_HRD10591_18-03-03-565.txt Node
Date: Thu Jul 25 18:03:03 EDT 2019
User: cochatt
Spectrometer: HR+D1059
Trigger mode: 1
Integration Time (sec): 1.000000E-1
Scans to average: 1
Electric dark correction enabled: true
Nonlinearity correction enabled: false
Boxcar width: 0
XAxis mode: Wavelengths
Number of Pixels in Spectrum: 2048
>>>>>Begin Spectral Data<<<<<
223.165	-28.75
223.4	-28.75
223.635	-28.75
223.869	-33.75
224.104	-8.75
224.338	-16.75
224.573	-16.75
224.808	-5.75
225.042	-5.75
225.277	-12.75
225.511	-8.75
225.746	12.25
225.98	14.25
226.215	19.25
226.449	16.25
226.683	14.25
226.918	24.25
227.152	37.25
227.387	41.25
227.621	33.25
227.856	34.25
228.09	43.25
228.324	57.25
228.559	62.25
228.793	75.25
229.027	90.25
229.262	114.25
229.496	117.25
229.73	104.25
229.964	120.25
230.199	123.25
230.433	115.25
230.667	124.25
230.901	130.25
231.136	118.25
231.37	128.25
231.604	120.25
231.838	150.25
232.072	130.25
232.306	120.25
232.541	122.25
232.775	135.25
233.009	127.25
233.243	133.25
233.477	136.25
233.711	140.25
233.945	127.25
234.179	139.25
234.413	130.25
234.647	141.25
234.881	140.25
235.115	128.25
235.349	131.25
235.583	126.25
235.817	116.25
236.051	135.25
236.285	130.25
236.519	128.25
236.753	142.25
236.987	138.25
237.221	133.25
237.455	147.25
237.689	136.25
237.922	143.25
238.156	145.25
238.39	140.25
238.624	133.25
238.858	135.25
239.091	145.25
239.325	146.25
239.559	155.25
239.793	163.25
240.027	167.25
240.26	160.25
240.494	147.25
240.728	156.25
240.961	144.25
241.195	156.25
241.429	155.25
241.662	147.25
241.896	167.25
242.13	173.25
242.363	162.25
242.597	172.25
242.83	147.25
243.064	178.25
243.298	158.25
243.531	166.25
243.765	164.25
243.998	177.25
244.232	184.25
244.465	184.25
244.699	188.25
244.932	164.25
245.166	186.25
245.399	180.25
245.633	192.25
245.866	193.25
246.099	187.25
246.333	202.25
246.566	185.25
246.8	183.25
247.033	201.25
247.266	206.25
247.5	210.25
247.733	227.25
247.966	208.25
248.2	219.25
248.433	226.25
248.666	212.25
248.899	235.25
249.133	235.25
249.366	237.25
249.599	245.25
249.832	247.25
250.066	256.25
250.299	263.25
250.532	255.25
250.765	262.25
250.998	269.25
251.231	301.25
251.465	302.25
251.698	281.25
251.931	290.25
252.164	288.25
252.397	304.25
252.63	301.25
252.863	314.25
253.096	313.25
253.329	344.25
253.562	335.25
253.795	324.25
254.028	342.25
254.261	348.25
254.494	359.25
254.727	364.25
254.96	367.25
255.193	352.25
255.426	370.25
255.659	382.25
255.892	379.25
256.124	367.25
256.357	390.25
256.59	400.25
256.823	380.25
257.056	415.25
257.289	418.25
257.521	399.25
257.754	404.25
257.987	403.25
258.22	421.25
258.452	425.25
258.685	421.25
258.918	426.25
259.151	423.25
259.383	451.25
259.616	439.25
259.849	460.25
260.081	449.25
260.314	435.25
260.547	429.25
260.779	470.25
261.012	474.25
261.244	464.25
261.477	458.25
261.71	461.25
261.942	472.25
262.175	483.25
262.407	481.25
262.64	460.25
262.872	483.25
263.105	484.25
263.337	471.25
263.57	488.25
263.802	509.25
264.035	501.25
264.267	500.25
264.499	495.25
264.732	501.25
264.964	502.25
265.197	513.25
265.429	517.25
265.661	518.25
265.894	505.25
266.126	511.25
266.358	518.25
266.591	514.25
266.823	538.25
267.055	509.25
267.287	501.25
267.52	538.25
267.752	546.25
267.984	528.25
268.216	527.25
268.448	547.25
268.681	541.25
268.913	531.25
269.145	541.25
269.377	515.25
269.609	534.25
269.841	513.25
270.073	534.25
270.306	523.25
270.538	554.25
270.77	554.25
271.002	556.25
271.234	544.25
271.466	544.25
271.698	521.25
271.93	523.25
272.162	542.25
272.394	563.25
272.626	546.25
272.858	549.25
273.09	566.25
273.322	566.25
273.553	542.25
273.785	555.25
274.017	570.25
274.249	568.25
274.481	569.25
274.713	575.25
274.945	572.25
275.176	559.25
275.408	585.25
275.64	591.25
275.872	566.25
276.104	549.25
276.335	578.25
276.567	584.25
276.799	570.25
277.031	572.25
277.262	599.25
277.494	566.25
277.726	591.25
277.957	590.25
278.189	576.25
278.421	581.25
278.652	564.25
278.884	580.25
279.115	592.25
279.347	581.25
279.579	620.25
279.81	576.25
280.042	547.25
280.273	590.25
280.505	594.25
280.736	580.25
280.968	584.25
281.199	549.25
281.431	598.25
281.662	564.25
281.894	587.25
282.125	583.25
282.356	605.25
282.588	594.25
282.819	581.25
283.051	552.25
283.282	589.25
283.513	586.25
283.745	596.25
283.976	588.25
284.207	590.25
284.439	570.25
284.67	589.25
284.901	590.25
285.132	592.25
285.364	606.25
285.595	606.25
285.826	607.25
286.057	592.25
286.288	605.25
286.52	607.25
286.751	598.25
286.982	587.25
287.213	590.25
287.444	615.25
287.675	611.25
287.906	617.25
288.138	595.25
288.369	588.25
288.6	597.25
288.831	603.25
289.062	614.25
289.293	601.25
289.524	590.25
289.755	613.25
289.986	611.25
290.217	571.25
290.448	578.25
290.679	575.25
290.91	592.25
291.141	606.25
291.371	616.25
291.602	604.25
291.833	589.25
292.064	615.25
292.295	587.25
292.526	607.25
292.757	611.25
292.987	584.25
293.218	589.25
293.449	592.25
293.68	602.25
293.91	610.25
294.141	599.25
294.372	596.25
294.603	608.25
294.833	588.25
295.064	582.25
295.295	600.25
295.525	619.25
295.756	616.25
295.987	609.25
296.217	609.25
296.448	579.25
296.679	604.25
296.909	609.25
297.14	649.25
297.37	632.25
297.601	615.25
297.831	605.25
298.062	588.25
298.292	617.25
298.523	607.25
298.753	643.25
298.984	613.25
299.214	630.25
299.445	637.25
299.675	639.25
299.905	630.25
300.136	622.25
300.366	608.25
300.597	623.25
300.827	624.25
301.057	625.25
301.288	659.25
301.518	635.25
301.748	640.25
301.979	640.25
302.209	649.25
302.439	650.25
302.669	653.25
302.9	644.25
303.13	660.25
303.36	671.25
303.59	646.25
303.82	652.25
304.051	658.25
304.281	672.25
304.511	670.25
304.741	674.25
304.971	666.25
305.201	684.25
305.431	681.25
305.661	717.25
305.891	683.25
306.121	675.25
306.352	692.25
306.582	684.25
306.812	679.25
307.042	684.25
307.272	660.25
307.502	704.25
307.731	700.25
307.961	705.25
308.191	703.25
308.421	703.25
308.651	691.25
308.881	682.25
309.111	708.25
309.341	726.25
309.571	725.25
309.8	730.25
310.03	736.25
310.26	727.25
310.49	728.25
310.72	735.25
310.949	747.25
311.179	747.25
311.409	749.25
311.639	772.25
311.868	772.25
312.098	787.25
312.328	816.25
312.557	793.25
312.787	779.25
313.017	783.25
313.246	798.25
313.476	783.25
313.706	807.25
313.935	837.25
314.165	829.25
314.394	808.25
314.624	832.25
314.853	831.25
315.083	845.25
315.312	833.25
315.542	859.25
315.771	868.25
316.001	880.25
316.23	855.25
316.46	883.25
316.689	904.25
316.919	888.25
317.148	906.25
317.377	904.25
317.607	894.25
317.836	927.25
318.065	938.25
318.295	934.25
318.524	971.25
318.753	946.25
318.983	950.25
319.212	941.25
319.441	967.25
319.67	975.25
319.9	978.25
320.129	971.25
320.358	1005.25
320.587	984.25
320.816	1052.25
321.046	1026.25
321.275	995.25
321.504	1030.25
321.733	1051.25
321.962	1065.25
322.191	1054.25
322.42	1070.25
322.649	1084.25
322.878	1100.25
323.108	1085.25
323.337	1120.25
323.566	1095.25
323.795	1074.25
324.024	1154.25
324.253	1150.25
324.482	1146.25
324.71	1145.25
324.939	1176.25
325.168	1176.25
325.397	1168.25
325.626	1183.25
325.855	1186.25
326.084	1211.25
326.313	1227.25
326.542	1241.25
326.77	1254.25
326.999	1251.25
327.228	1228.25
327.457	1245.25
327.686	1274.25
327.914	1255.25
328.143	1286.25
328.372	1267.25
328.6	1256.25
328.829	1274.25
329.058	1264.25
329.287	1264.25
329.515	1272.25
329.744	1310.25
329.972	1337.25
330.201	1331.25
330.43	1325.25
330.658	1339.25
330.887	1347.25
331.115	1347.25
331.344	1343.25
331.572	1349.25
331.801	1387.25
332.03	1396.25
332.258	1390.25
332.486	1368.25
332.715	1429.25
332.943	1418.25
333.172	1407.25
333.4	1449.25
333.629	1453.25
333.857	1471.25
334.085	1484.25
334.314	1499.25
334.542	1491.25
334.771	1530.25
334.999	1478.25
335.227	1514.25
335.455	1501.25
335.684	1509.25
335.912	1552.25
336.14	1506.25
336.369	1539.25
336.597	1561.25
336.825	1541.25
337.053	1534.25
337.281	1494.25
337.51	1538.25
337.738	1560.25
337.966	1506.25
338.194	1538.25
338.422	1526.25
338.65	1496.25
338.878	1503.25
339.106	1524.25
339.334	1512.25
339.562	1494.25
339.79	1494.25
340.018	1485.25
340.246	1498.25
340.474	1503.25
340.702	1508.25
340.93	1495.25
341.158	1486.25
341.386	1474.25
341.614	1510.25
341.842	1485.25
342.07	1481.25
342.298	1473.25
342.526	1528.25
342.754	1512.25
342.981	1492.25
343.209	1502.25
343.437	1536.25
343.665	1516.25
343.893	1542.25
344.12	1547.25
344.348	1562.25
344.576	1511.25
344.804	1531.25
345.031	1544.25
345.259	1518.25
345.487	1516.25
345.714	1548.25
345.942	1499.25
346.17	1508.25
346.397	1479.25
346.625	1462.25
346.853	1502.25
347.08	1477.25
347.308	1504.25
347.535	1469.25
347.763	1457.25
347.99	1491.25
348.218	1485.25
348.445	1465.25
348.673	1451.25
348.9	1455.25
349.128	1488.25
349.355	1471.25
349.583	1438.25
349.81	1454.25
350.037	1456.25
350.265	1438.25
350.492	1441.25
350.72	1469.25
350.947	1459.25
351.174	1464.25
351.402	1462.25
351.629	1455.25
351.856	1446.25
352.083	1468.25
352.311	1404.25
352.538	1455.25
352.765	1440.25
352.992	1415.25
353.22	1442.25
353.447	1395.25
353.674	1435.25
353.901	1423.25
354.128	1414.25
354.355	1464.25
354.583	1437.25
354.81	1388.25
355.037	1414.25
355.264	1414.25
355.491	1447.25
355.718	1439.25
355.945	1439.25
356.172	1412.25
356.399	1431.25
356.626	1462.25
356.853	1422.25
357.08	1413.25
357.307	1434.25
357.534	1416.25
357.761	1417.25
357.988	1445.25
358.215	1420.25
358.441	1445.25
358.668	1422.25
358.895	1420.25
359.122	1429.25
359.349	1459.25
359.576	1432.25
359.802	1408.25
360.029	1379.25
360.256	1424.25
360.483	1383.25
360.709	1414.25
360.936	1410.25
361.163	1427.25
361.39	1435.25
361.616	1397.25
361.843	1401.25
362.07	1426.25
362.296	1422.25
362.523	1375.25
362.749	1426.25
362.976	1440.25
363.203	1405.25
363.429	1415.25
363.656	1421.25
363.882	1409.25
364.109	1403.25
364.335	1386.25
364.562	1420.25
364.788	1415.25
365.015	1419.25
365.241	1422.25
365.468	1450.25
365.694	1437.25
365.92	1417.25
366.147	1410.25
366.373	1411.25
366.599	1410.25
366.826	1393.25
367.052	1421.25
367.278	1395.25
367.505	1374.25
367.731	1378.25
367.957	1428.25
368.184	1410.25
368.41	1401.25
368.636	1417.25
368.862	1395.25
369.089	1425.25
369.315	1416.25
369.541	1396.25
369.767	1421.25
369.993	1415.25
370.219	1434.25
370.445	1406.25
370.672	1427.25
370.898	1391.25
371.124	1396.25
371.35	1444.25
371.576	1418.25
371.802	1421.25
372.028	1424.25
372.254	1428.25
372.48	1443.25
372.706	1414.25
372.932	1396.25
373.158	1410.25
373.384	1468.25
373.61	1432.25
373.835	1392.25
374.061	1388.25
374.287	1403.25
374.513	1381.25
374.739	1357.25
374.965	1385.25
375.191	1419.25
375.416	1392.25
375.642	1387.25
375.868	1391.25
376.094	1378.25
376.319	1369.25
376.545	1371.25
376.771	1371.25
376.997	1336.25
377.222	1327.25
377.448	1342.25
377.674	1358.25
377.899	1333.25
378.125	1321.25
378.35	1294.25
378.576	1350.25
378.802	1333.25
379.027	1335.25
379.253	1345.25
379.478	1303.25
379.704	1330.25
379.929	1375.25
380.155	1319.25
380.38	1351.25
380.606	1322.25
380.831	1300.25
381.057	1297.25
381.282	1290.25
381.507	1312.25
381.733	1341.25
381.958	1328.25
382.184	1318.25
382.409	1336.25
382.634	1325.25
382.86	1352.25
383.085	1332.25
383.31	1373.25
383.535	1337.25
383.761	1362.25
383.986	1346.25
384.211	1354.25
384.436	1359.25
384.662	1375.25
384.887	1352.25
385.112	1375.25
385.337	1415.25
385.562	1390.25
385.787	1384.25
386.013	1390.25
386.238	1400.25
386.463	1406.25
386.688	1427.25
386.913	1400.25
387.138	1409.25
387.363	1406.25
387.588	1386.25
387.813	1414.25
388.038	1396.25
388.263	1387.25
388.488	1413.25
388.713	1436.25
388.938	1392.25
389.163	1434.25
389.387	1402.25
389.612	1372.25
389.837	1408.25
390.062	1412.25
390.287	1393.25
390.512	1380.25
390.736	1421.25
390.961	1414.25
391.186	1418.25
391.411	1433.25
391.636	1459.25
391.86	1434.25
392.085	1436.25
392.31	1419.25
392.534	1436.25
392.759	1468.25
392.984	1435.25
393.208	1425.25
393.433	1423.25
393.658	1415.25
393.882	1435.25
394.107	1399.25
394.331	1453.25
394.556	1456.25
394.78	1439.25
395.005	1455.25
395.229	1403.25
395.454	1451.25
395.678	1448.25
395.903	1460.25
396.127	1462.25
396.352	1479.25
396.576	1449.25
396.801	1455.25
397.025	1470.25
397.249	1470.25
397.474	1477.25
397.698	1489.25
397.922	1493.25
398.147	1507.25
398.371	1534.25
398.595	1510.25
398.82	1567.25
399.044	1591.25
399.268	1588.25
399.492	1644.25
399.717	1668.25
399.941	1660.25
400.165	1667.25
400.389	1643.25
400.613	1658.25
400.837	1653.25
401.062	1667.25
401.286	1607.25
401.51	1596.25
401.734	1592.25
401.958	1609.25
402.182	1596.25
402.406	1564.25
402.63	1599.25
402.854	1584.25
403.078	1599.25
403.302	1599.25
403.526	1600.25
403.75	1620.25
403.974	1593.25
404.198	1590.25
404.422	1609.25
404.645	1633.25
404.869	1627.25
405.093	1629.25
405.317	1659.25
405.541	1625.25
405.765	1676.25
405.988	1664.25
406.212	1664.25
406.436	1698.25
406.66	1670.25
406.883	1686.25
407.107	1723.25
407.331	1800.25
407.555	1731.25
407.778	1771.25
408.002	1744.25
408.226	1743.25
408.449	1765.25
408.673	1734.25
408.896	1678.25
409.12	1734.25
409.344	1790.25
409.567	1742.25
409.791	1732.25
410.014	1706.25
410.238	1718.25
410.461	1718.25
410.685	1695.25
410.908	1694.25
411.132	1693.25
411.355	1707.25
411.578	1721.25
411.802	1669.25
412.025	1693.25
412.249	1695.25
412.472	1714.25
412.695	1670.25
412.919	1642.25
413.142	1692.25
413.365	1700.25
413.589	1694.25
413.812	1686.25
414.035	1692.25
414.258	1698.25
414.482	1671.25
414.705	1669.25
414.928	1657.25
415.151	1665.25
415.374	1693.25
415.597	1693.25
415.821	1635.25
416.044	1654.25
416.267	1640.25
416.49	1661.25
416.713	1593.25
416.936	1655.25
417.159	1656.25
417.382	1671.25
417.605	1650.25
417.828	1593.25
418.051	1655.25
418.274	1657.25
418.497	1644.25
418.72	1654.25
418.943	1623.25
419.166	1741.25
419.389	1832.25
419.611	1797.25
419.834	1753.25
420.057	1728.25
420.28	1682.25
420.503	1630.25
420.726	1672.25
420.948	1676.25
421.171	1646.25
421.394	1677.25
421.617	1656.25
421.839	1674.25
422.062	1657.25
422.285	1612.25
422.507	1686.25
422.73	1660.25
422.953	1700.25
423.175	1691.25
423.398	1692.25
423.621	1694.25
423.843	1710.25
424.066	1682.25
424.288	1667.25
424.511	1720.25
424.733	1701.25
424.956	1739.25
425.178	1736.25
425.401	1715.25
425.623	1684.25
425.846	1668.25
426.068	1664.25
426.291	1689.25
426.513	1685.25
426.735	1692.25
426.958	1686.25
427.18	1667.25
427.402	1686.25
427.625	1764.25
427.847	1726.25
428.069	1711.25
428.292	1711.25
428.514	1691.25
428.736	1735.25
428.958	1716.25
429.181	1671.25
429.403	1701.25
429.625	1720.25
429.847	1685.25
430.069	1675.25
430.292	1727.25
430.514	1729.25
430.736	1738.25
430.958	1738.25
431.18	1687.25
431.402	1726.25
431.624	1686.25
431.846	1703.25
432.068	1705.25
432.29	1736.25
432.512	1719.25
432.734	1708.25
432.956	1747.25
433.178	1722.25
433.4	1719.25
433.622	1740.25
433.844	1762.25
434.066	1746.25
434.287	1721.25
434.509	1740.25
434.731	1731.25
434.953	1742.25
435.175	1758.25
435.397	1771.25
435.618	1747.25
435.84	1717.25
436.062	1709.25
436.284	1731.25
436.505	1746.25
436.727	1739.25
436.949	1682.25
437.17	1732.25
437.392	1733.25
437.614	1690.25
437.835	1653.25
438.057	1709.25
438.278	1700.25
438.5	1688.25
438.721	1689.25
438.943	1753.25
439.165	1695.25
439.386	1706.25
439.608	1732.25
439.829	1711.25
440.05	1739.25
440.272	1730.25
440.493	1699.25
440.715	1734.25
440.936	1727.25
441.158	1743.25
441.379	1734.25
441.6	1749.25
441.822	1740.25
442.043	1771.25
442.264	1709.25
442.486	1735.25
442.707	1756.25
442.928	1731.25
443.149	1745.25
443.371	1770.25
443.592	1743.25
443.813	1740.25
444.034	1755.25
444.255	1783.25
444.476	1791.25
444.698	1805.25
444.919	1802.25
445.14	1900.25
445.361	1844.25
445.582	1780.25
445.803	1727.25
446.024	1738.25
446.245	1727.25
446.466	1742.25
446.687	1700.25
446.908	1697.25
447.129	1702.25
447.35	1698.25
447.571	1678.25
447.792	1652.25
448.013	1650.25
448.234	1651.25
448.455	1643.25
448.675	1618.25
448.896	1632.25
449.117	1633.25
449.338	1644.25
449.559	1579.25
449.779	1608.25
450	1611.25
450.221	1599.25
450.442	1647.25
450.662	1648.25
450.883	1629.25
451.104	1625.25
451.324	1584.25
451.545	1602.25
451.766	1628.25
451.986	1591.25
452.207	1594.25
452.428	1606.25
452.648	1616.25
452.869	1582.25
453.089	1589.25
453.31	1613.25
453.53	1571.25
453.751	1547.25
453.971	1566.25
454.192	1548.25
454.412	1546.25
454.633	1572.25
454.853	1538.25
455.073	1509.25
455.294	1560.25
455.514	1592.25
455.734	1612.25
455.955	1567.25
456.175	1534.25
456.395	1538.25
456.616	1558.25
456.836	1589.25
457.056	1584.25
457.276	1538.25
457.497	1608.25
457.717	1555.25
457.937	1602.25
458.157	1590.25
458.377	1581.25
458.598	1615.25
458.818	1631.25
459.038	1633.25
459.258	1621.25
459.478	1656.25
459.698	1675.25
459.918	1694.25
460.138	1688.25
460.358	1734.25
460.578	1716.25
460.798	1737.25
461.018	1769.25
461.238	1746.25
461.458	1741.25
461.678	1732.25
461.898	1778.25
462.118	1764.25
462.338	1821.25
462.558	1845.25
462.777	1808.25
462.997	1869.25
463.217	1852.25
463.437	1901.25
463.657	1862.25
463.876	1846.25
464.096	1883.25
464.316	1830.25
464.536	1837.25
464.755	1807.25
464.975	1812.25
465.195	1783.25
465.414	1808.25
465.634	1716.25
465.854	1722.25
466.073	1736.25
466.293	1698.25
466.512	1700.25
466.732	1668.25
466.951	1717.25
467.171	1689.25
467.391	1678.25
467.61	1662.25
467.829	1660.25
468.049	1703.25
468.268	1704.25
468.488	1661.25
468.707	1717.25
468.927	1666.25
469.146	1646.25
469.365	1686.25
469.585	1658.25
469.804	1685.25
470.023	1692.25
470.243	1675.25
470.462	1680.25
470.681	1701.25
470.901	1720.25
471.12	1714.25
471.339	1717.25
471.558	1704.25
471.777	1738.25
471.997	1681.25
472.216	1694.25
472.435	1708.25
472.654	1676.25
472.873	1677.25
473.092	1727.25
473.311	1717.25
473.53	1719.25
473.749	1721.25
473.968	1749.25
474.187	1758.25
474.406	1758.25
474.625	1776.25
474.844	1764.25
475.063	1770.25
475.282	1763.25
475.501	1786.25
475.72	1798.25
475.939	1787.25
476.158	1777.25
476.377	1862.25
476.596	1832.25
476.814	1876.25
477.033	1850.25
477.252	1862.25
477.471	1850.25
477.69	1894.25
477.908	1875.25
478.127	1932.25
478.346	1910.25
478.564	1948.25
478.783	1963.25
479.002	2035.25
479.22	2021.25
479.439	1985.25
479.658	1986.25
479.876	1971.25
480.095	2015.25
480.313	2003.25
480.532	2047.25
480.751	2010.25
480.969	2054.25
481.188	2042.25
481.406	2060.25
481.624	2036.25
481.843	2048.25
482.061	2030.25
482.28	2018.25
482.498	2077.25
482.717	2070.25
482.935	2064.25
483.153	2061.25
483.372	2109.25
483.59	2133.25
483.808	2096.25
484.027	2082.25
484.245	2110.25
484.463	2097.25
484.681	2127.25
484.9	2105.25
485.118	2112.25
485.336	2084.25
485.554	2125.25
485.772	2122.25
485.99	2123.25
486.209	2098.25
486.427	2096.25
486.645	2115.25
486.863	2171.25
487.081	2127.25
487.299	2152.25
487.517	2155.25
487.735	2151.25
487.953	2160.25
488.171	2182.25
488.389	2146.25
488.607	2133.25
488.825	2178.25
489.043	2171.25
489.261	2134.25
489.479	2145.25
489.696	2118.25
489.914	2184.25
490.132	2171.25
490.35	2172.25
490.568	2201.25
490.786	2243.25
491.003	2199.25
491.221	2209.25
491.439	2246.25
491.657	2215.25
491.874	2273.25
492.092	2242.25
492.31	2287.25
492.527	2290.25
492.745	2302.25
492.963	2269.25
493.18	2282.25
493.398	2261.25
493.615	2262.25
493.833	2313.25
494.05	2253.25
494.268	2250.25
494.485	2296.25
494.703	2304.25
494.92	2337.25
495.138	2296.25
495.355	2319.25
495.573	2351.25
495.79	2334.25
496.008	2358.25
496.225	2340.25
496.442	2362.25
496.66	2377.25
496.877	2348.25
497.094	2384.25
497.312	2436.25
497.529	2439.25
497.746	2492.25
497.963	2486.25
498.181	2544.25
498.398	2505.25
498.615	2575.25
498.832	2620.25
499.049	2663.25
499.267	2712.25
499.484	2719.25
499.701	2793.25
499.918	2854.25
500.135	2891.25
500.352	2976.25
500.569	2954.25
500.786	2959.25
501.003	2951.25
501.22	2851.25
501.437	2884.25
501.654	2761.25
501.871	2767.25
502.088	2656.25
502.305	2617.25
502.522	2593.25
502.739	2630.25
502.956	2586.25
503.172	2538.25
503.389	2476.25
503.606	2450.25
503.823	2458.25
504.04	2409.25
504.256	2379.25
504.473	2374.25
504.69	2324.25
504.907	2349.25
505.123	2307.25
505.34	2276.25
505.557	2241.25
505.773	2202.25
505.99	2191.25
506.207	2218.25
506.423	2152.25
506.64	2132.25
506.856	2111.25
507.073	2125.25
507.289	2103.25
507.506	2097.25
507.722	2120.25
507.939	2129.25
508.155	2009.25
508.372	2014.25
508.588	2036.25
508.805	1992.25
509.021	2022.25
509.238	2007.25
509.454	1991.25
509.67	1971.25
509.887	1981.25
510.103	1976.25
510.319	1927.25
510.536	1989.25
510.752	1936.25
510.968	1914.25
511.184	1902.25
511.401	1914.25
511.617	1934.25
511.833	1957.25
512.049	1928.25
512.265	1912.25
512.481	1935.25
512.698	1916.25
512.914	1885.25
513.13	1894.25
513.346	1884.25
513.562	1886.25
513.778	1925.25
513.994	1899.25
514.21	1890.25
514.426	1930.25
514.642	1924.25
514.858	1952.25
515.074	1924.25
515.29	1929.25
515.506	1931.25
515.721	1969.25
515.937	1944.25
516.153	1932.25
516.369	1934.25
516.585	1971.25
516.801	1933.25
517.016	1954.25
517.232	1997.25
517.448	1984.25
517.664	2007.25
517.879	1998.25
518.095	1982.25
518.311	1996.25
518.527	1963.25
518.742	1970.25
518.958	1938.25
519.173	1935.25
519.389	1916.25
519.605	1894.25
519.82	1918.25
520.036	1914.25
520.251	1857.25
520.467	1843.25
520.682	1890.25
520.898	1870.25
521.113	1823.25
521.329	1842.25
521.544	1846.25
521.76	1871.25
521.975	1829.25
522.19	1810.25
522.406	1806.25
522.621	1776.25
522.836	1791.25
523.052	1739.25
523.267	1760.25
523.482	1786.25
523.698	1782.25
523.913	1757.25
524.128	1784.25
524.343	1778.25
524.559	1787.25
524.774	1762.25
524.989	1759.25
525.204	1780.25
525.419	1772.25
525.634	1753.25
525.849	1744.25
526.064	1717.25
526.28	1738.25
526.495	1704.25
526.71	1719.25
526.925	1680.25
527.14	1672.25
527.355	1717.25
527.57	1727.25
527.785	1692.25
527.999	1710.25
528.214	1695.25
528.429	1727.25
528.644	1671.25
528.859	1722.25
529.074	1723.25
529.289	1702.25
529.503	1724.25
529.718	1662.25
529.933	1678.25
530.148	1695.25
530.363	1661.25
530.577	1654.25
530.792	1673.25
531.007	1635.25
531.221	1714.25
531.436	1675.25
531.651	1668.25
531.865	1666.25
532.08	1655.25
532.295	1678.25
532.509	1659.25
532.724	1643.25
532.938	1605.25
533.153	1622.25
533.367	1638.25
533.582	1662.25
533.796	1584.25
534.011	1649.25
534.225	1652.25
534.44	1574.25
534.654	1609.25
534.868	1619.25
535.083	1596.25
535.297	1604.25
535.511	1600.25
535.726	1581.25
535.94	1590.25
536.154	1547.25
536.369	1563.25
536.583	1552.25
536.797	1517.25
537.011	1563.25
537.225	1547.25
537.44	1551.25
537.654	1529.25
537.868	1595.25
538.082	1507.25
538.296	1536.25
538.51	1528.25
538.724	1544.25
538.938	1536.25
539.153	1522.25
539.367	1550.25
539.581	1498.25
539.795	1550.25
540.009	1508.25
540.222	1509.25
540.436	1486.25
540.65	1486.25
540.864	1530.25
541.078	1501.25
541.292	1526.25
541.506	1484.25
541.72	1527.25
541.934	1513.25
542.147	1535.25
542.361	1517.25
542.575	1468.25
542.789	1485.25
543.002	1471.25
543.216	1460.25
543.43	1492.25
543.644	1478.25
543.857	1492.25
544.071	1457.25
544.285	1469.25
544.498	1471.25
544.712	1451.25
544.925	1512.25
545.139	1485.25
545.352	1445.25
545.566	1477.25
545.779	1456.25
545.993	1472.25
546.206	1492.25
546.42	1459.25
546.633	1431.25
546.847	1443.25
547.06	1467.25
547.274	1487.25
547.487	1479.25
547.7	1470.25
547.914	1465.25
548.127	1433.25
548.34	1453.25
548.554	1475.25
548.767	1452.25
548.98	1451.25
549.193	1450.25
549.407	1422.25
549.62	1460.25
549.833	1430.25
550.046	1418.25
550.259	1398.25
550.473	1402.25
550.686	1418.25
550.899	1439.25
551.112	1397.25
551.325	1438.25
551.538	1434.25
551.751	1395.25
551.964	1414.25
552.177	1384.25
552.39	1396.25
552.603	1410.25
552.816	1421.25
553.029	1416.25
553.242	1401.25
553.455	1403.25
553.667	1418.25
553.88	1426.25
554.093	1399.25
554.306	1391.25
554.519	1361.25
554.732	1373.25
554.944	1324.25
555.157	1308.25
555.37	1334.25
555.583	1312.25
555.795	1304.25
556.008	1320.25
556.221	1294.25
556.433	1314.25
556.646	1273.25
556.859	1294.25
557.071	1310.25
557.284	1286.25
557.496	1261.25
557.709	1253.25
557.921	1264.25
558.134	1274.25
558.346	1240.25
558.559	1234.25
558.771	1270.25
558.984	1254.25
559.196	1234.25
559.409	1242.25
559.621	1230.25
559.833	1239.25
560.046	1269.25
560.258	1209.25
560.47	1236.25
560.683	1182.25
560.895	1213.25
561.107	1200.25
561.32	1206.25
561.532	1199.25
561.744	1238.25
561.956	1250.25
562.168	1215.25
562.381	1202.25
562.593	1222.25
562.805	1195.25
563.017	1227.25
563.229	1229.25
563.441	1193.25
563.653	1215.25
563.865	1228.25
564.077	1226.25
564.289	1197.25
564.501	1241.25
564.713	1214.25
564.925	1220.25
565.137	1211.25
565.349	1241.25
565.561	1236.25
565.773	1229.25
565.985	1217.25
566.197	1267.25
566.408	1292.25
566.62	1247.25
566.832	1266.25
567.044	1286.25
567.255	1278.25
567.467	1288.25
567.679	1293.25
567.891	1232.25
568.102	1241.25
568.314	1242.25
568.526	1199.25
568.737	1202.25
568.949	1220.25
569.161	1174.25
569.372	1131.25
569.584	1138.25
569.795	1130.25
570.007	1118.25
570.218	1097.25
570.43	1104.25
570.641	1105.25
570.853	1094.25
571.064	1083.25
571.276	1043.25
571.487	1072.25
571.698	1041.25
571.91	1038.25
572.121	1039.25
572.333	1050.25
572.544	1005.25
572.755	1006.25
572.966	1021.25
573.178	992.25
573.389	970.25
573.6	951.25
573.811	969.25
574.023	955.25
574.234	967.25
574.445	948.25
574.656	935.25
574.867	960.25
575.078	981.25
575.289	931.25
575.501	933.25
575.712	916.25
575.923	920.25
576.134	927.25
576.345	926.25
576.556	908.25
576.767	899.25
576.978	892.25
577.188	876.25
577.399	906.25
577.61	912.25
577.821	897.25
578.032	870.25
578.243	862.25
578.454	877.25
578.665	870.25
578.875	869.25
579.086	875.25
579.297	867.25
579.508	861.25
579.718	846.25
579.929	858.25
580.14	840.25
580.35	843.25
580.561	852.25
580.772	846.25
580.982	823.25
581.193	830.25
581.403	829.25
581.614	843.25
581.825	796.25
582.035	840.25
582.246	822.25
582.456	797.25
582.667	822.25
582.877	782.25
583.087	805.25
583.298	804.25
583.508	807.25
583.719	805.25
583.929	798.25
584.139	796.25
584.35	784.25
584.56	764.25
584.77	755.25
584.981	786.25
585.191	783.25
585.401	791.25
585.611	799.25
585.821	808.25
586.032	763.25
586.242	767.25
586.452	775.25
586.662	756.25
586.872	747.25
587.082	758.25
587.292	756.25
587.502	735.25
587.713	731.25
587.923	733.25
588.133	745.25
588.343	757.25
588.553	738.25
588.762	747.25
588.972	723.25
589.182	741.25
589.392	752.25
589.602	734.25
589.812	733.25
590.022	721.25
590.232	709.25
590.441	702.25
590.651	721.25
590.861	715.25
591.071	714.25
591.281	721.25
591.49	722.25
591.7	760.25
591.91	732.25
592.119	738.25
592.329	717.25
592.539	725.25
592.748	748.25
592.958	722.25
593.167	734.25
593.377	712.25
593.587	701.25
593.796	732.25
594.006	729.25
594.215	715.25
594.424	736.25
594.634	687.25
594.843	699.25
595.053	710.25
595.262	712.25
595.472	682.25
595.681	690.25
595.89	674.25
596.1	664.25
596.309	663.25
596.518	667.25
596.727	673.25
596.937	655.25
597.146	664.25
597.355	666.25
597.564	663.25
597.774	657.25
597.983	649.25
598.192	644.25
598.401	633.25
598.61	629.25
598.819	637.25
599.028	641.25
599.237	613.25
599.446	611.25
599.655	610.25
599.864	613.25
600.073	627.25
600.282	619.25
600.491	613.25
600.7	626.25
600.909	593.25
601.118	587.25
601.327	600.25
601.536	603.25
601.745	568.25
601.953	596.25
602.162	608.25
602.371	602.25
602.58	594.25
602.789	612.25
602.997	580.25
603.206	591.25
603.415	563.25
603.623	579.25
603.832	580.25
604.041	569.25
604.249	574.25
604.458	578.25
604.666	561.25
604.875	578.25
605.084	551.25
605.292	565.25
605.501	575.25
605.709	556.25
605.918	536.25
606.126	575.25
606.334	552.25
606.543	558.25
606.751	552.25
606.96	548.25
607.168	550.25
607.376	542.25
607.585	553.25
607.793	524.25
608.001	550.25
608.21	539.25
608.418	542.25
608.626	554.25
608.834	514.25
609.043	547.25
609.251	555.25
609.459	534.25
609.667	539.25
609.875	541.25
610.083	517.25
610.291	538.25
610.499	532.25
610.707	523.25
610.916	502.25
611.124	523.25
611.332	510.25
611.54	516.25
611.748	526.25
611.955	510.25
612.163	509.25
612.371	524.25
612.579	507.25
612.787	496.25
612.995	508.25
613.203	514.25
613.411	526.25
613.618	513.25
613.826	491.25
614.034	516.25
614.242	506.25
614.449	495.25
614.657	484.25
614.865	525.25
615.072	506.25
615.28	501.25
615.488	517.25
615.695	502.25
615.903	494.25
616.111	489.25
616.318	488.25
616.526	501.25
616.733	526.25
616.941	509.25
617.148	498.25
617.356	489.25
617.563	478.25
617.771	490.25
617.978	469.25
618.185	495.25
618.393	493.25
618.6	476.25
618.807	470.25
619.015	493.25
619.222	478.25
619.429	478.25
619.637	472.25
619.844	458.25
620.051	460.25
620.258	464.25
620.466	456.25
620.673	463.25
620.88	425.25
621.087	455.25
621.294	458.25
621.501	444.25
621.708	456.25
621.915	439.25
622.122	464.25
622.329	437.25
622.536	464.25
622.743	439.25
622.95	441.25
623.157	430.25
623.364	458.25
623.571	438.25
623.778	438.25
623.985	448.25
624.192	438.25
624.399	423.25
624.606	447.25
624.812	434.25
625.019	424.25
625.226	427.25
625.433	442.25
625.639	423.25
625.846	426.25
626.053	413.25
626.259	424.25
626.466	394.25
626.673	425.25
626.879	400.25
627.086	415.25
627.293	397.25
627.499	415.25
627.706	392.25
627.912	421.25
628.119	415.25
628.325	397.25
628.532	408.25
628.738	398.25
628.945	390.25
629.151	389.25
629.357	399.25
629.564	402.25
629.77	396.25
629.976	386.25
630.183	392.25
630.389	389.25
630.595	383.25
630.802	391.25
631.008	379.25
631.214	361.25
631.42	369.25
631.627	376.25
631.833	380.25
632.039	378.25
632.245	371.25
632.451	376.25
632.657	382.25
632.863	395.25
633.069	367.25
633.275	393.25
633.481	380.25
633.688	370.25
633.893	359.25
634.099	364.25
634.305	380.25
634.511	341.25
634.717	356.25
634.923	365.25
635.129	341.25
635.335	345.25
635.541	349.25
635.747	362.25
635.952	351.25
636.158	359.25
636.364	354.25
636.57	347.25
636.775	351.25
636.981	356.25
637.187	342.25
637.392	353.25
637.598	349.25
637.804	349.25
638.009	356.25
638.215	330.25
638.421	332.25
638.626	317.25
638.832	323.25
639.037	342.25
639.243	348.25
639.448	348.25
639.654	326.25
639.859	328.25
640.065	339.25
640.27	322.25
640.475	347.25
640.681	332.25
640.886	342.25
641.091	328.25
641.297	336.25
641.502	328.25
641.707	319.25
641.913	316.25
642.118	328.25
642.323	321.25
642.528	309.25
642.733	342.25
642.939	310.25
643.144	330.25
643.349	339.25
643.554	303.25
643.759	316.25
643.964	295.25
644.169	331.25
644.374	327.25
644.579	323.25
644.784	323.25
644.989	329.25
645.194	317.25
645.399	332.25
645.604	322.25
645.809	314.25
646.014	315.25
646.219	306.25
646.423	314.25
646.628	318.25
646.833	322.25
647.038	298.25
647.243	319.25
647.447	326.25
647.652	308.25
647.857	312.25
648.062	314.25
648.266	330.25
648.471	319.25
648.676	300.25
648.88	322.25
649.085	301.25
649.289	312.25
649.494	312.25
649.698	320.25
649.903	292.25
650.107	316.25
650.312	308.25
650.516	307.25
650.721	308.25
650.925	318.25
651.13	294.25
651.334	296.25
651.539	285.25
651.743	272.25
651.947	278.25
652.152	302.25
652.356	262.25
652.56	263.25
652.764	276.25
652.969	287.25
653.173	263.25
653.377	255.25
653.581	270.25
653.785	254.25
653.99	251.25
654.194	244.25
654.398	237.25
654.602	244.25
654.806	244.25
655.01	242.25
655.214	252.25
655.418	233.25
655.622	228.25
655.826	243.25
656.03	221.25
656.234	235.25
656.438	229.25
656.642	210.25
656.846	213.25
657.049	199.25
657.253	194.25
657.457	207.25
657.661	185.25
657.865	198.25
658.068	174.25
658.272	180.25
658.476	181.25
658.68	140.25
658.883	153.25
659.087	154.25
659.291	135.25
659.494	125.25
659.698	138.25
659.901	139.25
660.105	118.25
660.309	138.25
660.512	120.25
660.716	123.25
660.919	118.25
661.123	122.25
661.326	110.25
661.53	117.25
661.733	114.25
661.936	123.25
662.14	98.25
662.343	91.25
662.546	91.25
662.75	91.25
662.953	114.25
663.156	99.25
663.36	106.25
663.563	93.25
663.766	89.25
663.969	90.25
664.173	80.25
664.376	90.25
664.579	71.25
664.782	93.25
664.985	76.25
665.188	80.25
665.391	80.25
665.594	95.25
665.797	97.25
666	89.25
666.203	90.25
666.406	81.25
666.609	78.25
666.812	84.25
667.015	86.25
667.218	83.25
667.421	87.25
667.624	75.25
667.827	86.25
668.03	86.25
668.232	86.25
668.435	87.25
668.638	83.25
668.841	90.25
669.043	88.25
669.246	86.25
669.449	84.25
669.651	74.25
669.854	80.25
670.057	95.25
670.259	87.25
670.462	88.25
670.665	83.25
670.867	79.25
671.07	90.25
671.272	76.25
671.475	93.25
671.677	96.25
671.88	77.25
672.082	82.25
672.284	84.25
672.487	85.25
672.689	95.25
672.892	75.25
