Data from Ni(NO3)2@0.25M.TitratingCurve.Agarose3%dH2O.NegLispCup.LampEnergy10.LIBS07252019_HRD10591_18-04-15-566.txt Node
Date: Thu Jul 25 18:04:15 EDT 2019
User: cochatt
Spectrometer: HR+D1059
Trigger mode: 1
Integration Time (sec): 1.000000E-1
Scans to average: 1
Electric dark correction enabled: true
Nonlinearity correction enabled: false
Boxcar width: 0
XAxis mode: Wavelengths
Number of Pixels in Spectrum: 2048
>>>>>Begin Spectral Data<<<<<
223.165	-17.12
223.4	-17.12
223.635	-17.12
223.869	-14.12
224.104	-27.12
224.338	-13.12
224.573	-6.12
224.808	-13.12
225.042	-10.12
225.277	-4.12
225.511	-4.12
225.746	7.88
225.98	-0.12
226.215	20.88
226.449	7.88
226.683	22.88
226.918	23.88
227.152	25.88
227.387	43.88
227.621	29.88
227.856	45.88
228.09	56.88
228.324	55.88
228.559	64.88
228.793	70.88
229.027	122.88
229.262	126.88
229.496	130.88
229.73	134.88
229.964	148.88
230.199	171.88
230.433	161.88
230.667	174.88
230.901	157.88
231.136	155.88
231.37	151.88
231.604	156.88
231.838	167.88
232.072	156.88
232.306	173.88
232.541	191.88
232.775	173.88
233.009	166.88
233.243	168.88
233.477	171.88
233.711	157.88
233.945	169.88
234.179	187.88
234.413	170.88
234.647	179.88
234.881	174.88
235.115	164.88
235.349	174.88
235.583	174.88
235.817	180.88
236.051	185.88
236.285	169.88
236.519	182.88
236.753	190.88
236.987	166.88
237.221	194.88
237.455	174.88
237.689	172.88
237.922	190.88
238.156	185.88
238.39	202.88
238.624	198.88
238.858	196.88
239.091	199.88
239.325	208.88
239.559	206.88
239.793	207.88
240.027	194.88
240.26	209.88
240.494	201.88
240.728	207.88
240.961	187.88
241.195	221.88
241.429	223.88
241.662	224.88
241.896	228.88
242.13	220.88
242.363	232.88
242.597	243.88
242.83	227.88
243.064	224.88
243.298	227.88
243.531	242.88
243.765	227.88
243.998	244.88
244.232	234.88
244.465	217.88
244.699	230.88
244.932	243.88
245.166	247.88
245.399	250.88
245.633	230.88
245.866	249.88
246.099	251.88
246.333	265.88
246.566	265.88
246.8	257.88
247.033	263.88
247.266	261.88
247.5	274.88
247.733	273.88
247.966	276.88
248.2	286.88
248.433	282.88
248.666	264.88
248.899	293.88
249.133	270.88
249.366	290.88
249.599	286.88
249.832	293.88
250.066	299.88
250.299	308.88
250.532	325.88
250.765	321.88
250.998	307.88
251.231	303.88
251.465	322.88
251.698	320.88
251.931	351.88
252.164	339.88
252.397	332.88
252.63	326.88
252.863	321.88
253.096	338.88
253.329	347.88
253.562	329.88
253.795	340.88
254.028	341.88
254.261	356.88
254.494	358.88
254.727	362.88
254.96	336.88
255.193	341.88
255.426	376.88
255.659	383.88
255.892	403.88
256.124	368.88
256.357	379.88
256.59	387.88
256.823	374.88
257.056	372.88
257.289	389.88
257.521	401.88
257.754	382.88
257.987	388.88
258.22	379.88
258.452	390.88
258.685	390.88
258.918	398.88
259.151	402.88
259.383	423.88
259.616	401.88
259.849	429.88
260.081	424.88
260.314	426.88
260.547	405.88
260.779	443.88
261.012	434.88
261.244	402.88
261.477	435.88
261.71	448.88
261.942	439.88
262.175	435.88
262.407	426.88
262.64	427.88
262.872	449.88
263.105	441.88
263.337	426.88
263.57	449.88
263.802	450.88
264.035	458.88
264.267	462.88
264.499	456.88
264.732	427.88
264.964	456.88
265.197	458.88
265.429	458.88
265.661	474.88
265.894	460.88
266.126	458.88
266.358	474.88
266.591	483.88
266.823	477.88
267.055	494.88
267.287	463.88
267.52	481.88
267.752	485.88
267.984	492.88
268.216	511.88
268.448	507.88
268.681	501.88
268.913	497.88
269.145	468.88
269.377	509.88
269.609	494.88
269.841	506.88
270.073	499.88
270.306	497.88
270.538	508.88
270.77	499.88
271.002	502.88
271.234	516.88
271.466	526.88
271.698	515.88
271.93	523.88
272.162	511.88
272.394	521.88
272.626	537.88
272.858	535.88
273.09	531.88
273.322	538.88
273.553	522.88
273.785	533.88
274.017	550.88
274.249	561.88
274.481	555.88
274.713	533.88
274.945	537.88
275.176	559.88
275.408	571.88
275.64	554.88
275.872	567.88
276.104	553.88
276.335	568.88
276.567	563.88
276.799	570.88
277.031	576.88
277.262	587.88
277.494	574.88
277.726	564.88
277.957	555.88
278.189	581.88
278.421	592.88
278.652	591.88
278.884	598.88
279.115	591.88
279.347	586.88
279.579	594.88
279.81	582.88
280.042	598.88
280.273	600.88
280.505	585.88
280.736	597.88
280.968	601.88
281.199	610.88
281.431	600.88
281.662	605.88
281.894	606.88
282.125	619.88
282.356	615.88
282.588	621.88
282.819	617.88
283.051	615.88
283.282	634.88
283.513	614.88
283.745	611.88
283.976	628.88
284.207	613.88
284.439	632.88
284.67	622.88
284.901	622.88
285.132	638.88
285.364	649.88
285.595	617.88
285.826	626.88
286.057	624.88
286.288	638.88
286.52	640.88
286.751	651.88
286.982	656.88
287.213	655.88
287.444	659.88
287.675	669.88
287.906	661.88
288.138	695.88
288.369	665.88
288.6	675.88
288.831	672.88
289.062	674.88
289.293	666.88
289.524	669.88
289.755	652.88
289.986	678.88
290.217	697.88
290.448	675.88
290.679	699.88
290.91	655.88
291.141	656.88
291.371	687.88
291.602	661.88
291.833	670.88
292.064	665.88
292.295	693.88
292.526	702.88
292.757	702.88
292.987	674.88
293.218	681.88
293.449	656.88
293.68	696.88
293.91	687.88
294.141	670.88
294.372	706.88
294.603	669.88
294.833	692.88
295.064	682.88
295.295	717.88
295.525	684.88
295.756	671.88
295.987	701.88
296.217	697.88
296.448	696.88
296.679	703.88
296.909	685.88
297.14	706.88
297.37	702.88
297.601	731.88
297.831	724.88
298.062	731.88
298.292	736.88
298.523	745.88
298.753	771.88
298.984	745.88
299.214	739.88
299.445	734.88
299.675	737.88
299.905	738.88
300.136	742.88
300.366	775.88
300.597	766.88
300.827	758.88
301.057	780.88
301.288	746.88
301.518	773.88
301.748	801.88
301.979	758.88
302.209	759.88
302.439	786.88
302.669	771.88
302.9	779.88
303.13	768.88
303.36	793.88
303.59	758.88
303.82	763.88
304.051	805.88
304.281	745.88
304.511	789.88
304.741	789.88
304.971	781.88
305.201	794.88
305.431	790.88
305.661	815.88
305.891	778.88
306.121	777.88
306.352	777.88
306.582	765.88
306.812	774.88
307.042	797.88
307.272	776.88
307.502	785.88
307.731	785.88
307.961	765.88
308.191	771.88
308.421	786.88
308.651	799.88
308.881	761.88
309.111	757.88
309.341	798.88
309.571	770.88
309.8	789.88
310.03	769.88
310.26	819.88
310.49	823.88
310.72	778.88
310.949	795.88
311.179	811.88
311.409	790.88
311.639	804.88
311.868	798.88
312.098	792.88
312.328	805.88
312.557	812.88
312.787	828.88
313.017	833.88
313.246	840.88
313.476	861.88
313.706	855.88
313.935	859.88
314.165	852.88
314.394	815.88
314.624	845.88
314.853	845.88
315.083	865.88
315.312	870.88
315.542	853.88
315.771	853.88
316.001	863.88
316.23	859.88
316.46	855.88
316.689	859.88
316.919	865.88
317.148	846.88
317.377	862.88
317.607	868.88
317.836	857.88
318.065	877.88
318.295	888.88
318.524	874.88
318.753	869.88
318.983	870.88
319.212	896.88
319.441	891.88
319.67	884.88
319.9	880.88
320.129	887.88
320.358	875.88
320.587	887.88
320.816	883.88
321.046	927.88
321.275	879.88
321.504	881.88
321.733	901.88
321.962	888.88
322.191	895.88
322.42	917.88
322.649	915.88
322.878	915.88
323.108	953.88
323.337	947.88
323.566	917.88
323.795	926.88
324.024	931.88
324.253	898.88
324.482	947.88
324.71	931.88
324.939	958.88
325.168	954.88
325.397	962.88
325.626	984.88
325.855	956.88
326.084	997.88
326.313	999.88
326.542	976.88
326.77	1027.88
326.999	1025.88
327.228	977.88
327.457	1010.88
327.686	976.88
327.914	999.88
328.143	985.88
328.372	1055.88
328.6	1034.88
328.829	991.88
329.058	1031.88
329.287	1030.88
329.515	1005.88
329.744	994.88
329.972	1059.88
330.201	1085.88
330.43	1047.88
330.658	1068.88
330.887	1062.88
331.115	1074.88
331.344	1085.88
331.572	1085.88
331.801	1118.88
332.03	1115.88
332.258	1142.88
332.486	1153.88
332.715	1171.88
332.943	1209.88
333.172	1189.88
333.4	1245.88
333.629	1291.88
333.857	1275.88
334.085	1267.88
334.314	1314.88
334.542	1322.88
334.771	1307.88
334.999	1279.88
335.227	1295.88
335.455	1330.88
335.684	1332.88
335.912	1303.88
336.14	1274.88
336.369	1289.88
336.597	1283.88
336.825	1295.88
337.053	1301.88
337.281	1262.88
337.51	1287.88
337.738	1225.88
337.966	1229.88
338.194	1230.88
338.422	1227.88
338.65	1199.88
338.878	1199.88
339.106	1179.88
339.334	1189.88
339.562	1221.88
339.79	1171.88
340.018	1151.88
340.246	1128.88
340.474	1099.88
340.702	1111.88
340.93	1149.88
341.158	1150.88
341.386	1146.88
341.614	1187.88
341.842	1142.88
342.07	1133.88
342.298	1089.88
342.526	1144.88
342.754	1139.88
342.981	1147.88
343.209	1111.88
343.437	1195.88
343.665	1237.88
343.893	1267.88
344.12	1290.88
344.348	1260.88
344.576	1220.88
344.804	1238.88
345.031	1181.88
345.259	1167.88
345.487	1172.88
345.714	1168.88
345.942	1178.88
346.17	1167.88
346.397	1171.88
346.625	1115.88
346.853	1093.88
347.08	1090.88
347.308	1093.88
347.535	1070.88
347.763	1065.88
347.99	1105.88
348.218	1070.88
348.445	1081.88
348.673	1075.88
348.9	1066.88
349.128	1070.88
349.355	1060.88
349.583	1115.88
349.81	1060.88
350.037	1068.88
350.265	1055.88
350.492	1038.88
350.72	1051.88
350.947	1065.88
351.174	1063.88
351.402	1097.88
351.629	1082.88
351.856	1074.88
352.083	1083.88
352.311	1059.88
352.538	1104.88
352.765	1066.88
352.992	1070.88
353.22	1029.88
353.447	1051.88
353.674	1036.88
353.901	1032.88
354.128	1042.88
354.355	1031.88
354.583	1048.88
354.81	1062.88
355.037	1039.88
355.264	1020.88
355.491	1032.88
355.718	1036.88
355.945	1050.88
356.172	1033.88
356.399	1027.88
356.626	1052.88
356.853	1082.88
357.08	1076.88
357.307	1046.88
357.534	1072.88
357.761	1051.88
357.988	1055.88
358.215	1027.88
358.441	1037.88
358.668	1050.88
358.895	1032.88
359.122	1041.88
359.349	1019.88
359.576	1017.88
359.802	1060.88
360.029	1048.88
360.256	1042.88
360.483	1044.88
360.709	1069.88
360.936	1042.88
361.163	1054.88
361.39	1051.88
361.616	1060.88
361.843	1086.88
362.07	1087.88
362.296	1064.88
362.523	1039.88
362.749	1053.88
362.976	1023.88
363.203	1045.88
363.429	1033.88
363.656	1045.88
363.882	1050.88
364.109	1023.88
364.335	1046.88
364.562	1039.88
364.788	1007.88
365.015	1027.88
365.241	1017.88
365.468	1031.88
365.694	1037.88
365.92	1065.88
366.147	1079.88
366.373	1033.88
366.599	1046.88
366.826	1048.88
367.052	1000.88
367.278	1046.88
367.505	1033.88
367.731	1038.88
367.957	1029.88
368.184	1025.88
368.41	1056.88
368.636	1042.88
368.862	1033.88
369.089	1075.88
369.315	1039.88
369.541	1076.88
369.767	1096.88
369.993	1081.88
370.219	1084.88
370.445	1083.88
370.672	1121.88
370.898	1087.88
371.124	1099.88
371.35	1099.88
371.576	1100.88
371.802	1081.88
372.028	1122.88
372.254	1133.88
372.48	1115.88
372.706	1154.88
372.932	1163.88
373.158	1146.88
373.384	1119.88
373.61	1131.88
373.835	1110.88
374.061	1124.88
374.287	1129.88
374.513	1142.88
374.739	1172.88
374.965	1182.88
375.191	1179.88
375.416	1186.88
375.642	1165.88
375.868	1195.88
376.094	1144.88
376.319	1146.88
376.545	1141.88
376.771	1171.88
376.997	1109.88
377.222	1099.88
377.448	1103.88
377.674	1121.88
377.899	1075.88
378.125	1106.88
378.35	1067.88
378.576	1081.88
378.802	1067.88
379.027	1092.88
379.253	1049.88
379.478	1105.88
379.704	1084.88
379.929	1084.88
380.155	1079.88
380.38	1109.88
380.606	1078.88
380.831	1079.88
381.057	1086.88
381.282	1063.88
381.507	1088.88
381.733	1079.88
381.958	1099.88
382.184	1105.88
382.409	1146.88
382.634	1138.88
382.86	1145.88
383.085	1144.88
383.31	1135.88
383.535	1143.88
383.761	1167.88
383.986	1156.88
384.211	1191.88
384.436	1231.88
384.662	1207.88
384.887	1231.88
385.112	1242.88
385.337	1257.88
385.562	1277.88
385.787	1297.88
386.013	1292.88
386.238	1311.88
386.463	1252.88
386.688	1299.88
386.913	1286.88
387.138	1295.88
387.363	1329.88
387.588	1315.88
387.813	1283.88
388.038	1244.88
388.263	1305.88
388.488	1299.88
388.713	1301.88
388.938	1298.88
389.163	1295.88
389.387	1286.88
389.612	1270.88
389.837	1308.88
390.062	1267.88
390.287	1285.88
390.512	1301.88
390.736	1320.88
390.961	1313.88
391.186	1353.88
391.411	1355.88
391.636	1363.88
391.86	1388.88
392.085	1428.88
392.31	1398.88
392.534	1373.88
392.759	1431.88
392.984	1358.88
393.208	1382.88
393.433	1400.88
393.658	1363.88
393.882	1382.88
394.107	1369.88
394.331	1381.88
394.556	1394.88
394.78	1379.88
395.005	1415.88
395.229	1385.88
395.454	1460.88
395.678	1443.88
395.903	1399.88
396.127	1434.88
396.352	1460.88
396.576	1425.88
396.801	1390.88
397.025	1431.88
397.249	1431.88
397.474	1464.88
397.698	1502.88
397.922	1550.88
398.147	1523.88
398.371	1548.88
398.595	1599.88
398.82	1646.88
399.044	1748.88
399.268	1796.88
399.492	1907.88
399.717	2052.88
399.941	2001.88
400.165	1998.88
400.389	1865.88
400.613	1793.88
400.837	1782.88
401.062	1729.88
401.286	1720.88
401.51	1665.88
401.734	1626.88
401.958	1621.88
402.182	1641.88
402.406	1641.88
402.63	1650.88
402.854	1673.88
403.078	1672.88
403.302	1647.88
403.526	1731.88
403.75	1703.88
403.974	1724.88
404.198	1708.88
404.422	1717.88
404.645	1699.88
404.869	1694.88
405.093	1727.88
405.317	1742.88
405.541	1779.88
405.765	1736.88
405.988	1731.88
406.212	1750.88
406.436	1741.88
406.66	1810.88
406.883	1807.88
407.107	1878.88
407.331	1894.88
407.555	1966.88
407.778	1949.88
408.002	1946.88
408.226	1940.88
408.449	1920.88
408.673	1851.88
408.896	1824.88
409.12	1862.88
409.344	1827.88
409.567	1849.88
409.791	1795.88
410.014	1785.88
410.238	1757.88
410.461	1759.88
410.685	1764.88
410.908	1732.88
411.132	1737.88
411.355	1683.88
411.578	1690.88
411.802	1710.88
412.025	1702.88
412.249	1731.88
412.472	1683.88
412.695	1699.88
412.919	1656.88
413.142	1665.88
413.365	1657.88
413.589	1678.88
413.812	1657.88
414.035	1678.88
414.258	1646.88
414.482	1635.88
414.705	1649.88
414.928	1706.88
415.151	1668.88
415.374	1651.88
415.597	1637.88
415.821	1636.88
416.044	1634.88
416.267	1596.88
416.49	1595.88
416.713	1557.88
416.936	1607.88
417.159	1593.88
417.382	1587.88
417.605	1627.88
417.828	1564.88
418.051	1617.88
418.274	1616.88
418.497	1585.88
418.72	1590.88
418.943	1612.88
419.166	1721.88
419.389	1801.88
419.611	1806.88
419.834	1723.88
420.057	1698.88
420.28	1627.88
420.503	1603.88
420.726	1605.88
420.948	1594.88
421.171	1600.88
421.394	1615.88
421.617	1602.88
421.839	1589.88
422.062	1606.88
422.285	1592.88
422.507	1590.88
422.73	1600.88
422.953	1609.88
423.175	1609.88
423.398	1650.88
423.621	1626.88
423.843	1693.88
424.066	1631.88
424.288	1665.88
424.511	1597.88
424.733	1638.88
424.956	1611.88
425.178	1605.88
425.401	1607.88
425.623	1580.88
425.846	1595.88
426.068	1606.88
426.291	1559.88
426.513	1541.88
426.735	1521.88
426.958	1581.88
427.18	1514.88
427.402	1529.88
427.625	1544.88
427.847	1492.88
428.069	1491.88
428.292	1524.88
428.514	1498.88
428.736	1523.88
428.958	1509.88
429.181	1452.88
429.403	1479.88
429.625	1471.88
429.847	1444.88
430.069	1469.88
430.292	1487.88
430.514	1458.88
430.736	1513.88
430.958	1503.88
431.18	1472.88
431.402	1491.88
431.624	1510.88
431.846	1493.88
432.068	1489.88
432.29	1545.88
432.512	1475.88
432.734	1543.88
432.956	1521.88
433.178	1496.88
433.4	1507.88
433.622	1542.88
433.844	1551.88
434.066	1539.88
434.287	1562.88
434.509	1540.88
434.731	1601.88
434.953	1609.88
435.175	1628.88
435.397	1627.88
435.618	1573.88
435.84	1548.88
436.062	1498.88
436.284	1519.88
436.505	1521.88
436.727	1496.88
436.949	1498.88
437.17	1500.88
437.392	1503.88
437.614	1462.88
437.835	1451.88
438.057	1461.88
438.278	1451.88
438.5	1435.88
438.721	1458.88
438.943	1446.88
439.165	1444.88
439.386	1458.88
439.608	1509.88
439.829	1505.88
440.05	1508.88
440.272	1560.88
440.493	1528.88
440.715	1544.88
440.936	1560.88
441.158	1589.88
441.379	1574.88
441.6	1631.88
441.822	1607.88
442.043	1617.88
442.264	1638.88
442.486	1542.88
442.707	1602.88
442.928	1614.88
443.149	1596.88
443.371	1609.88
443.592	1654.88
443.813	1650.88
444.034	1629.88
444.255	1675.88
444.476	1721.88
444.698	1763.88
444.919	1794.88
445.14	1865.88
445.361	1775.88
445.582	1731.88
445.803	1599.88
446.024	1624.88
446.245	1552.88
446.466	1544.88
446.687	1540.88
446.908	1507.88
447.129	1497.88
447.35	1476.88
447.571	1452.88
447.792	1428.88
448.013	1422.88
448.234	1436.88
448.455	1382.88
448.675	1430.88
448.896	1384.88
449.117	1367.88
449.338	1373.88
449.559	1382.88
449.779	1370.88
450	1346.88
450.221	1342.88
450.442	1378.88
450.662	1398.88
450.883	1366.88
451.104	1397.88
451.324	1366.88
451.545	1381.88
451.766	1380.88
451.986	1341.88
452.207	1357.88
452.428	1351.88
452.648	1361.88
452.869	1313.88
453.089	1324.88
453.31	1361.88
453.53	1293.88
453.751	1308.88
453.971	1303.88
454.192	1333.88
454.412	1316.88
454.633	1299.88
454.853	1294.88
455.073	1326.88
455.294	1336.88
455.514	1271.88
455.734	1316.88
455.955	1327.88
456.175	1298.88
456.395	1291.88
456.616	1252.88
456.836	1305.88
457.056	1324.88
457.276	1289.88
457.497	1268.88
457.717	1301.88
457.937	1351.88
458.157	1349.88
458.377	1319.88
458.598	1381.88
458.818	1394.88
459.038	1420.88
459.258	1486.88
459.478	1507.88
459.698	1534.88
459.918	1583.88
460.138	1559.88
460.358	1671.88
460.578	1661.88
460.798	1670.88
461.018	1726.88
461.238	1707.88
461.458	1715.88
461.678	1682.88
461.898	1722.88
462.118	1759.88
462.338	1854.88
462.558	1853.88
462.777	1909.88
462.997	1921.88
463.217	2061.88
463.437	2052.88
463.657	2000.88
463.876	1953.88
464.096	1941.88
464.316	1918.88
464.536	1915.88
464.755	1851.88
464.975	1796.88
465.195	1703.88
465.414	1688.88
465.634	1599.88
465.854	1585.88
466.073	1525.88
466.293	1489.88
466.512	1465.88
466.732	1483.88
466.951	1458.88
467.171	1449.88
467.391	1443.88
467.61	1413.88
467.829	1412.88
468.049	1427.88
468.268	1362.88
468.488	1383.88
468.707	1393.88
468.927	1384.88
469.146	1387.88
469.365	1432.88
469.585	1400.88
469.804	1423.88
470.023	1449.88
470.243	1468.88
470.462	1469.88
470.681	1413.88
470.901	1490.88
471.12	1426.88
471.339	1439.88
471.558	1440.88
471.777	1438.88
471.997	1426.88
472.216	1410.88
472.435	1403.88
472.654	1391.88
472.873	1382.88
473.092	1394.88
473.311	1371.88
473.53	1367.88
473.749	1389.88
473.968	1379.88
474.187	1377.88
474.406	1342.88
474.625	1363.88
474.844	1374.88
475.063	1401.88
475.282	1390.88
475.501	1411.88
475.72	1419.88
475.939	1415.88
476.158	1434.88
476.377	1417.88
476.596	1462.88
476.814	1485.88
477.033	1460.88
477.252	1495.88
477.471	1498.88
477.69	1525.88
477.908	1574.88
478.127	1610.88
478.346	1592.88
478.564	1614.88
478.783	1623.88
479.002	1715.88
479.22	1689.88
479.439	1706.88
479.658	1688.88
479.876	1685.88
480.095	1671.88
480.313	1729.88
480.532	1728.88
480.751	1730.88
480.969	1690.88
481.188	1623.88
481.406	1649.88
481.624	1579.88
481.843	1629.88
482.061	1609.88
482.28	1603.88
482.498	1586.88
482.717	1567.88
482.935	1578.88
483.153	1597.88
483.372	1600.88
483.59	1602.88
483.808	1612.88
484.027	1603.88
484.245	1593.88
484.463	1591.88
484.681	1644.88
484.9	1624.88
485.118	1661.88
485.336	1619.88
485.554	1611.88
485.772	1619.88
485.99	1641.88
486.209	1622.88
486.427	1653.88
486.645	1635.88
486.863	1653.88
487.081	1659.88
487.299	1609.88
487.517	1653.88
487.735	1680.88
487.953	1690.88
488.171	1652.88
488.389	1670.88
488.607	1643.88
488.825	1628.88
489.043	1606.88
489.261	1644.88
489.479	1622.88
489.696	1620.88
489.914	1692.88
490.132	1635.88
490.35	1669.88
490.568	1685.88
490.786	1692.88
491.003	1650.88
491.221	1708.88
491.439	1702.88
491.657	1682.88
491.874	1734.88
492.092	1732.88
492.31	1772.88
492.527	1705.88
492.745	1747.88
492.963	1734.88
493.18	1747.88
493.398	1767.88
493.615	1725.88
493.833	1756.88
494.05	1770.88
494.268	1789.88
494.485	1825.88
494.703	1762.88
494.92	1806.88
495.138	1794.88
495.355	1804.88
495.573	1849.88
495.79	1837.88
496.008	1895.88
496.225	1858.88
496.442	1896.88
496.66	1915.88
496.877	1936.88
497.094	1983.88
497.312	1975.88
497.529	2047.88
497.746	2094.88
497.963	2154.88
498.181	2267.88
498.398	2280.88
498.615	2436.88
498.832	2528.88
499.049	2681.88
499.267	2817.88
499.484	3010.88
499.701	3172.88
499.918	3398.88
500.135	3639.88
500.352	3807.88
500.569	3846.88
500.786	3863.88
501.003	3808.88
501.22	3552.88
501.437	3366.88
501.654	3126.88
501.871	2961.88
502.088	2793.88
502.305	2667.88
502.522	2515.88
502.739	2443.88
502.956	2340.88
503.172	2269.88
503.389	2209.88
503.606	2133.88
503.823	2117.88
504.04	2059.88
504.256	2080.88
504.473	2077.88
504.69	2034.88
504.907	2016.88
505.123	1917.88
505.34	1882.88
505.557	1807.88
505.773	1775.88
505.99	1713.88
506.207	1678.88
506.423	1686.88
506.64	1669.88
506.856	1640.88
507.073	1609.88
507.289	1619.88
507.506	1625.88
507.722	1574.88
507.939	1580.88
508.155	1548.88
508.372	1555.88
508.588	1542.88
508.805	1474.88
509.021	1500.88
509.238	1505.88
509.454	1470.88
509.67	1493.88
509.887	1438.88
510.103	1421.88
510.319	1422.88
510.536	1420.88
510.752	1446.88
510.968	1434.88
511.184	1401.88
511.401	1404.88
511.617	1408.88
511.833	1420.88
512.049	1386.88
512.265	1409.88
512.481	1423.88
512.698	1419.88
512.914	1436.88
513.13	1417.88
513.346	1393.88
513.562	1403.88
513.778	1398.88
513.994	1435.88
514.21	1416.88
514.426	1435.88
514.642	1459.88
514.858	1442.88
515.074	1480.88
515.29	1458.88
515.506	1494.88
515.721	1539.88
515.937	1530.88
516.153	1545.88
516.369	1560.88
516.585	1586.88
516.801	1658.88
517.016	1658.88
517.232	1738.88
517.448	1746.88
517.664	1802.88
517.879	1758.88
518.095	1744.88
518.311	1739.88
518.527	1702.88
518.742	1675.88
518.958	1655.88
519.173	1612.88
519.389	1584.88
519.605	1510.88
519.82	1529.88
520.036	1496.88
520.251	1461.88
520.467	1432.88
520.682	1440.88
520.898	1426.88
521.113	1400.88
521.329	1411.88
521.544	1367.88
521.76	1351.88
521.975	1372.88
522.19	1377.88
522.406	1377.88
522.621	1310.88
522.836	1320.88
523.052	1325.88
523.267	1289.88
523.482	1327.88
523.698	1294.88
523.913	1338.88
524.128	1290.88
524.343	1320.88
524.559	1273.88
524.774	1293.88
524.989	1316.88
525.204	1301.88
525.419	1292.88
525.634	1261.88
525.849	1262.88
526.064	1275.88
526.28	1259.88
526.495	1254.88
526.71	1281.88
526.925	1256.88
527.14	1264.88
527.355	1253.88
527.57	1263.88
527.785	1260.88
527.999	1247.88
528.214	1239.88
528.429	1269.88
528.644	1263.88
528.859	1250.88
529.074	1281.88
529.289	1272.88
529.503	1276.88
529.718	1255.88
529.933	1241.88
530.148	1229.88
530.363	1246.88
530.577	1288.88
530.792	1229.88
531.007	1246.88
531.221	1244.88
531.436	1249.88
531.651	1229.88
531.865	1246.88
532.08	1199.88
532.295	1243.88
532.509	1242.88
532.724	1229.88
532.938	1191.88
533.153	1222.88
533.367	1208.88
533.582	1221.88
533.796	1222.88
534.011	1204.88
534.225	1238.88
534.44	1185.88
534.654	1196.88
534.868	1227.88
535.083	1226.88
535.297	1190.88
535.511	1194.88
535.726	1151.88
535.94	1203.88
536.154	1151.88
536.369	1178.88
536.583	1138.88
536.797	1145.88
537.011	1145.88
537.225	1138.88
537.44	1103.88
537.654	1141.88
537.868	1141.88
538.082	1133.88
538.296	1167.88
538.51	1141.88
538.724	1112.88
538.938	1116.88
539.153	1112.88
539.367	1131.88
539.581	1142.88
539.795	1155.88
540.009	1122.88
540.222	1146.88
540.436	1102.88
540.65	1123.88
540.864	1130.88
541.078	1118.88
541.292	1115.88
541.506	1133.88
541.72	1121.88
541.934	1150.88
542.147	1124.88
542.361	1124.88
542.575	1116.88
542.789	1121.88
543.002	1096.88
543.216	1083.88
543.43	1124.88
543.644	1131.88
543.857	1111.88
544.071	1094.88
544.285	1107.88
544.498	1101.88
544.712	1118.88
544.925	1130.88
545.139	1120.88
545.352	1125.88
545.566	1148.88
545.779	1132.88
545.993	1142.88
546.206	1137.88
546.42	1137.88
546.633	1153.88
546.847	1156.88
547.06	1111.88
547.274	1102.88
547.487	1116.88
547.7	1144.88
547.914	1120.88
548.127	1144.88
548.34	1125.88
548.554	1129.88
548.767	1129.88
548.98	1142.88
549.193	1153.88
549.407	1159.88
549.62	1157.88
549.833	1134.88
550.046	1124.88
550.259	1150.88
550.473	1139.88
550.686	1147.88
550.899	1117.88
551.112	1125.88
551.325	1124.88
551.538	1107.88
551.751	1109.88
551.964	1106.88
552.177	1113.88
552.39	1174.88
552.603	1175.88
552.816	1170.88
553.029	1171.88
553.242	1171.88
553.455	1189.88
553.667	1178.88
553.88	1187.88
554.093	1150.88
554.306	1128.88
554.519	1131.88
554.732	1082.88
554.944	1094.88
555.157	1080.88
555.37	1049.88
555.583	1054.88
555.795	1030.88
556.008	1025.88
556.221	1013.88
556.433	1015.88
556.646	973.88
556.859	985.88
557.071	970.88
557.284	986.88
557.496	971.88
557.709	964.88
557.921	979.88
558.134	962.88
558.346	964.88
558.559	965.88
558.771	945.88
558.984	957.88
559.196	948.88
559.409	953.88
559.621	930.88
559.833	947.88
560.046	935.88
560.258	902.88
560.47	928.88
560.683	919.88
560.895	939.88
561.107	929.88
561.32	926.88
561.532	931.88
561.744	927.88
561.956	903.88
562.168	940.88
562.381	937.88
562.593	952.88
562.805	933.88
563.017	955.88
563.229	927.88
563.441	956.88
563.653	987.88
563.865	975.88
564.077	957.88
564.289	978.88
564.501	997.88
564.713	1037.88
564.925	1018.88
565.137	1055.88
565.349	1067.88
565.561	1059.88
565.773	1098.88
565.985	1163.88
566.197	1178.88
566.408	1194.88
566.62	1279.88
566.832	1318.88
567.044	1324.88
567.255	1354.88
567.467	1360.88
567.679	1427.88
567.891	1456.88
568.102	1411.88
568.314	1372.88
568.526	1273.88
568.737	1232.88
568.949	1157.88
569.161	1155.88
569.372	1083.88
569.584	1041.88
569.795	1012.88
570.007	987.88
570.218	963.88
570.43	962.88
570.641	922.88
570.853	906.88
571.064	921.88
571.276	917.88
571.487	900.88
571.698	877.88
571.91	874.88
572.121	870.88
572.333	831.88
572.544	830.88
572.755	813.88
572.966	787.88
573.178	783.88
573.389	769.88
573.6	749.88
573.811	744.88
574.023	772.88
574.234	753.88
574.445	726.88
574.656	727.88
574.867	743.88
575.078	740.88
575.289	724.88
575.501	767.88
575.712	717.88
575.923	733.88
576.134	731.88
576.345	706.88
576.556	722.88
576.767	701.88
576.978	713.88
577.188	709.88
577.399	713.88
577.61	684.88
577.821	691.88
578.032	682.88
578.243	662.88
578.454	647.88
578.665	677.88
578.875	677.88
579.086	658.88
579.297	653.88
579.508	665.88
579.718	659.88
579.929	651.88
580.14	652.88
580.35	621.88
580.561	648.88
580.772	616.88
580.982	639.88
581.193	635.88
581.403	640.88
581.614	644.88
581.825	648.88
582.035	637.88
582.246	616.88
582.456	619.88
582.667	637.88
582.877	613.88
583.087	620.88
583.298	633.88
583.508	604.88
583.719	606.88
583.929	618.88
584.139	598.88
584.35	615.88
584.56	631.88
584.77	611.88
584.981	605.88
585.191	615.88
585.401	604.88
585.611	590.88
585.821	597.88
586.032	627.88
586.242	623.88
586.452	601.88
586.662	586.88
586.872	596.88
587.082	599.88
587.292	592.88
587.502	581.88
587.713	596.88
587.923	573.88
588.133	592.88
588.343	582.88
588.553	601.88
588.762	595.88
588.972	585.88
589.182	622.88
589.392	623.88
589.602	589.88
589.812	629.88
590.022	625.88
590.232	605.88
590.441	589.88
590.651	569.88
590.861	589.88
591.071	625.88
591.281	615.88
591.49	629.88
591.7	625.88
591.91	611.88
592.119	633.88
592.329	644.88
592.539	645.88
592.748	664.88
592.958	652.88
593.167	680.88
593.377	660.88
593.587	683.88
593.796	675.88
594.006	675.88
594.215	673.88
594.424	691.88
594.634	662.88
594.843	663.88
595.053	630.88
595.262	632.88
595.472	619.88
595.681	591.88
595.89	586.88
596.1	603.88
596.309	578.88
596.518	573.88
596.727	562.88
596.937	542.88
597.146	550.88
597.355	527.88
597.564	549.88
597.774	522.88
597.983	519.88
598.192	535.88
598.401	528.88
598.61	524.88
598.819	524.88
599.028	487.88
599.237	507.88
599.446	518.88
599.655	512.88
599.864	487.88
600.073	492.88
600.282	502.88
600.491	480.88
600.7	467.88
600.909	475.88
601.118	484.88
601.327	472.88
601.536	464.88
601.745	479.88
601.953	473.88
602.162	461.88
602.371	463.88
602.58	451.88
602.789	460.88
602.997	471.88
603.206	468.88
603.415	466.88
603.623	450.88
603.832	459.88
604.041	475.88
604.249	473.88
604.458	438.88
604.666	438.88
604.875	436.88
605.084	449.88
605.292	466.88
605.501	445.88
605.709	470.88
605.918	458.88
606.126	449.88
606.334	442.88
606.543	443.88
606.751	433.88
606.96	439.88
607.168	445.88
607.376	423.88
607.585	447.88
607.793	453.88
608.001	441.88
608.21	457.88
608.418	436.88
608.626	422.88
608.834	437.88
609.043	433.88
609.251	462.88
609.459	430.88
609.667	436.88
609.875	421.88
610.083	436.88
610.291	421.88
610.499	415.88
610.707	424.88
610.916	425.88
611.124	423.88
611.332	436.88
611.54	406.88
611.748	429.88
611.955	419.88
612.163	419.88
612.371	413.88
612.579	411.88
612.787	387.88
612.995	433.88
613.203	423.88
613.411	419.88
613.618	411.88
613.826	393.88
614.034	408.88
614.242	402.88
614.449	414.88
614.657	406.88
614.865	409.88
615.072	426.88
615.28	415.88
615.488	381.88
615.695	399.88
615.903	412.88
616.111	390.88
616.318	415.88
616.526	426.88
616.733	399.88
616.941	403.88
617.148	417.88
617.356	398.88
617.563	384.88
617.771	406.88
617.978	386.88
618.185	395.88
618.393	388.88
618.6	397.88
618.807	392.88
619.015	391.88
619.222	383.88
619.429	380.88
619.637	392.88
619.844	384.88
620.051	378.88
620.258	385.88
620.466	374.88
620.673	379.88
620.88	354.88
621.087	374.88
621.294	367.88
621.501	367.88
621.708	374.88
621.915	377.88
622.122	379.88
622.329	366.88
622.536	383.88
622.743	351.88
622.95	362.88
623.157	379.88
623.364	358.88
623.571	355.88
623.778	358.88
623.985	366.88
624.192	347.88
624.399	369.88
624.606	365.88
624.812	355.88
625.019	358.88
625.226	346.88
625.433	364.88
625.639	350.88
625.846	362.88
626.053	334.88
626.259	333.88
626.466	359.88
626.673	350.88
626.879	335.88
627.086	331.88
627.293	323.88
627.499	335.88
627.706	347.88
627.912	341.88
628.119	338.88
628.325	335.88
628.532	341.88
628.738	337.88
628.945	332.88
629.151	313.88
629.357	311.88
629.564	329.88
629.77	317.88
629.976	336.88
630.183	327.88
630.389	323.88
630.595	317.88
630.802	294.88
631.008	319.88
631.214	302.88
631.42	333.88
631.627	331.88
631.833	314.88
632.039	289.88
632.245	290.88
632.451	318.88
632.657	300.88
632.863	306.88
633.069	312.88
633.275	310.88
633.481	300.88
633.688	305.88
633.893	305.88
634.099	310.88
634.305	298.88
634.511	294.88
634.717	298.88
634.923	314.88
635.129	311.88
635.335	287.88
635.541	301.88
635.747	295.88
635.952	279.88
636.158	279.88
636.364	282.88
636.57	286.88
636.775	284.88
636.981	278.88
637.187	283.88
637.392	311.88
637.598	294.88
637.804	277.88
638.009	276.88
638.215	272.88
638.421	280.88
638.626	266.88
638.832	266.88
639.037	276.88
639.243	281.88
639.448	275.88
639.654	271.88
639.859	271.88
640.065	268.88
640.27	265.88
640.475	273.88
640.681	271.88
640.886	267.88
641.091	269.88
641.297	277.88
641.502	259.88
641.707	261.88
641.913	261.88
642.118	269.88
642.323	268.88
642.528	263.88
642.733	266.88
642.939	265.88
643.144	261.88
643.349	249.88
643.554	261.88
643.759	266.88
643.964	266.88
644.169	241.88
644.374	244.88
644.579	255.88
644.784	259.88
644.989	261.88
645.194	247.88
645.399	249.88
645.604	255.88
645.809	258.88
646.014	249.88
646.219	252.88
646.423	263.88
646.628	262.88
646.833	260.88
647.038	243.88
647.243	249.88
647.447	275.88
647.652	257.88
647.857	257.88
648.062	277.88
648.266	246.88
648.471	262.88
648.676	256.88
648.88	268.88
649.085	268.88
649.289	269.88
649.494	243.88
649.698	238.88
649.903	259.88
650.107	245.88
650.312	247.88
650.516	241.88
650.721	255.88
650.925	250.88
651.13	238.88
651.334	232.88
651.539	226.88
651.743	242.88
651.947	236.88
652.152	227.88
652.356	221.88
652.56	218.88
652.764	205.88
652.969	201.88
653.173	221.88
653.377	196.88
653.581	202.88
653.785	193.88
653.99	198.88
654.194	227.88
654.398	195.88
654.602	189.88
654.806	191.88
655.01	195.88
655.214	197.88
655.418	204.88
655.622	187.88
655.826	179.88
656.03	191.88
656.234	180.88
656.438	184.88
656.642	194.88
656.846	196.88
657.049	169.88
657.253	161.88
657.457	172.88
657.661	167.88
657.865	155.88
658.068	147.88
658.272	147.88
658.476	149.88
658.68	150.88
658.883	143.88
659.087	145.88
659.291	130.88
659.494	125.88
659.698	116.88
659.901	123.88
660.105	110.88
660.309	101.88
660.512	114.88
660.716	112.88
660.919	105.88
661.123	109.88
661.326	111.88
661.53	106.88
661.733	106.88
661.936	102.88
662.14	105.88
662.343	86.88
662.546	97.88
662.75	100.88
662.953	97.88
663.156	87.88
663.36	88.88
663.563	78.88
663.766	91.88
663.969	88.88
664.173	76.88
664.376	84.88
664.579	86.88
664.782	83.88
664.985	74.88
665.188	74.88
665.391	71.88
665.594	83.88
665.797	95.88
666	70.88
666.203	74.88
666.406	91.88
666.609	89.88
666.812	75.88
667.015	91.88
667.218	74.88
667.421	87.88
667.624	87.88
667.827	66.88
668.03	75.88
668.232	87.88
668.435	87.88
668.638	82.88
668.841	95.88
669.043	85.88
669.246	83.88
669.449	101.88
669.651	86.88
669.854	92.88
670.057	72.88
670.259	86.88
670.462	70.88
670.665	95.88
670.867	89.88
671.07	79.88
671.272	100.88
671.475	83.88
671.677	85.88
671.88	82.88
672.082	83.88
672.284	83.88
672.487	99.88
672.689	77.88
672.892	77.88
