Data from Ni(NO3)2@0.25M.TitratingCurve.Agarose3%dH2O.NegLispCup.LampEnergy10.LIBS07252019_HRD10591_18-03-40-566.txt Node
Date: Thu Jul 25 18:03:40 EDT 2019
User: cochatt
Spectrometer: HR+D1059
Trigger mode: 1
Integration Time (sec): 1.000000E-1
Scans to average: 1
Electric dark correction enabled: true
Nonlinearity correction enabled: false
Boxcar width: 0
XAxis mode: Wavelengths
Number of Pixels in Spectrum: 2048
>>>>>Begin Spectral Data<<<<<
223.165	-14.5
223.4	-14.5
223.635	-14.5
223.869	-8.5
224.104	-18.5
224.338	-19.5
224.573	-30.5
224.808	-22.5
225.042	-7.5
225.277	-2.5
225.511	14.5
225.746	-5.5
225.98	10.5
226.215	3.5
226.449	15.5
226.683	35.5
226.918	20.5
227.152	29.5
227.387	31.5
227.621	34.5
227.856	33.5
228.09	46.5
228.324	50.5
228.559	67.5
228.793	55.5
229.027	100.5
229.262	112.5
229.496	115.5
229.73	123.5
229.964	108.5
230.199	111.5
230.433	113.5
230.667	134.5
230.901	136.5
231.136	119.5
231.37	108.5
231.604	115.5
231.838	146.5
232.072	119.5
232.306	129.5
232.541	144.5
232.775	125.5
233.009	134.5
233.243	131.5
233.477	132.5
233.711	134.5
233.945	121.5
234.179	117.5
234.413	132.5
234.647	139.5
234.881	129.5
235.115	144.5
235.349	139.5
235.583	152.5
235.817	142.5
236.051	151.5
236.285	138.5
236.519	131.5
236.753	145.5
236.987	131.5
237.221	125.5
237.455	158.5
237.689	138.5
237.922	135.5
238.156	133.5
238.39	135.5
238.624	126.5
238.858	156.5
239.091	155.5
239.325	140.5
239.559	159.5
239.793	147.5
240.027	156.5
240.26	153.5
240.494	157.5
240.728	158.5
240.961	165.5
241.195	163.5
241.429	150.5
241.662	157.5
241.896	161.5
242.13	158.5
242.363	174.5
242.597	163.5
242.83	175.5
243.064	187.5
243.298	154.5
243.531	159.5
243.765	174.5
243.998	188.5
244.232	166.5
244.465	180.5
244.699	171.5
244.932	198.5
245.166	177.5
245.399	183.5
245.633	193.5
245.866	193.5
246.099	200.5
246.333	183.5
246.566	197.5
246.8	195.5
247.033	197.5
247.266	186.5
247.5	187.5
247.733	188.5
247.966	201.5
248.2	195.5
248.433	209.5
248.666	202.5
248.899	221.5
249.133	205.5
249.366	214.5
249.599	206.5
249.832	204.5
250.066	235.5
250.299	231.5
250.532	213.5
250.765	236.5
250.998	228.5
251.231	225.5
251.465	233.5
251.698	249.5
251.931	230.5
252.164	235.5
252.397	242.5
252.63	234.5
252.863	238.5
253.096	253.5
253.329	234.5
253.562	271.5
253.795	272.5
254.028	255.5
254.261	259.5
254.494	261.5
254.727	273.5
254.96	274.5
255.193	281.5
255.426	277.5
255.659	267.5
255.892	263.5
256.124	293.5
256.357	280.5
256.59	282.5
256.823	293.5
257.056	280.5
257.289	284.5
257.521	273.5
257.754	293.5
257.987	297.5
258.22	302.5
258.452	313.5
258.685	323.5
258.918	323.5
259.151	298.5
259.383	324.5
259.616	306.5
259.849	316.5
260.081	302.5
260.314	320.5
260.547	309.5
260.779	310.5
261.012	328.5
261.244	317.5
261.477	317.5
261.71	326.5
261.942	345.5
262.175	332.5
262.407	324.5
262.64	315.5
262.872	329.5
263.105	349.5
263.337	330.5
263.57	350.5
263.802	318.5
264.035	342.5
264.267	335.5
264.499	353.5
264.732	345.5
264.964	344.5
265.197	340.5
265.429	341.5
265.661	344.5
265.894	367.5
266.126	354.5
266.358	362.5
266.591	350.5
266.823	370.5
267.055	350.5
267.287	343.5
267.52	335.5
267.752	351.5
267.984	365.5
268.216	355.5
268.448	380.5
268.681	361.5
268.913	368.5
269.145	361.5
269.377	363.5
269.609	374.5
269.841	373.5
270.073	358.5
270.306	365.5
270.538	385.5
270.77	371.5
271.002	396.5
271.234	388.5
271.466	381.5
271.698	372.5
271.93	389.5
272.162	382.5
272.394	365.5
272.626	399.5
272.858	389.5
273.09	384.5
273.322	402.5
273.553	398.5
273.785	387.5
274.017	400.5
274.249	399.5
274.481	396.5
274.713	400.5
274.945	419.5
275.176	403.5
275.408	428.5
275.64	407.5
275.872	403.5
276.104	422.5
276.335	396.5
276.567	385.5
276.799	405.5
277.031	415.5
277.262	395.5
277.494	421.5
277.726	438.5
277.957	423.5
278.189	418.5
278.421	386.5
278.652	410.5
278.884	424.5
279.115	406.5
279.347	446.5
279.579	433.5
279.81	436.5
280.042	421.5
280.273	430.5
280.505	460.5
280.736	436.5
280.968	439.5
281.199	457.5
281.431	444.5
281.662	446.5
281.894	456.5
282.125	449.5
282.356	449.5
282.588	447.5
282.819	436.5
283.051	437.5
283.282	429.5
283.513	459.5
283.745	459.5
283.976	466.5
284.207	423.5
284.439	443.5
284.67	460.5
284.901	443.5
285.132	438.5
285.364	437.5
285.595	458.5
285.826	447.5
286.057	447.5
286.288	467.5
286.52	470.5
286.751	468.5
286.982	463.5
287.213	469.5
287.444	475.5
287.675	475.5
287.906	473.5
288.138	486.5
288.369	479.5
288.6	474.5
288.831	471.5
289.062	463.5
289.293	494.5
289.524	450.5
289.755	466.5
289.986	501.5
290.217	473.5
290.448	466.5
290.679	493.5
290.91	475.5
291.141	478.5
291.371	472.5
291.602	487.5
291.833	509.5
292.064	478.5
292.295	471.5
292.526	485.5
292.757	494.5
292.987	512.5
293.218	486.5
293.449	485.5
293.68	466.5
293.91	481.5
294.141	481.5
294.372	484.5
294.603	471.5
294.833	487.5
295.064	490.5
295.295	460.5
295.525	492.5
295.756	486.5
295.987	475.5
296.217	491.5
296.448	484.5
296.679	482.5
296.909	510.5
297.14	506.5
297.37	522.5
297.601	525.5
297.831	526.5
298.062	500.5
298.292	531.5
298.523	531.5
298.753	524.5
298.984	522.5
299.214	507.5
299.445	542.5
299.675	533.5
299.905	539.5
300.136	536.5
300.366	539.5
300.597	545.5
300.827	554.5
301.057	532.5
301.288	555.5
301.518	553.5
301.748	525.5
301.979	576.5
302.209	554.5
302.439	561.5
302.669	536.5
302.9	569.5
303.13	556.5
303.36	554.5
303.59	546.5
303.82	552.5
304.051	548.5
304.281	557.5
304.511	547.5
304.741	546.5
304.971	580.5
305.201	563.5
305.431	559.5
305.661	564.5
305.891	561.5
306.121	551.5
306.352	554.5
306.582	551.5
306.812	529.5
307.042	551.5
307.272	558.5
307.502	557.5
307.731	546.5
307.961	563.5
308.191	565.5
308.421	549.5
308.651	568.5
308.881	541.5
309.111	527.5
309.341	537.5
309.571	561.5
309.8	579.5
310.03	549.5
310.26	546.5
310.49	584.5
310.72	579.5
310.949	594.5
311.179	579.5
311.409	559.5
311.639	575.5
311.868	573.5
312.098	576.5
312.328	598.5
312.557	583.5
312.787	587.5
313.017	604.5
313.246	618.5
313.476	625.5
313.706	612.5
313.935	641.5
314.165	612.5
314.394	619.5
314.624	614.5
314.853	609.5
315.083	621.5
315.312	635.5
315.542	633.5
315.771	628.5
316.001	621.5
316.23	637.5
316.46	612.5
316.689	629.5
316.919	616.5
317.148	633.5
317.377	633.5
317.607	625.5
317.836	624.5
318.065	640.5
318.295	650.5
318.524	625.5
318.753	664.5
318.983	630.5
319.212	639.5
319.441	634.5
319.67	636.5
319.9	646.5
320.129	662.5
320.358	655.5
320.587	648.5
320.816	660.5
321.046	673.5
321.275	691.5
321.504	675.5
321.733	684.5
321.962	704.5
322.191	687.5
322.42	675.5
322.649	687.5
322.878	679.5
323.108	689.5
323.337	717.5
323.566	682.5
323.795	711.5
324.024	707.5
324.253	690.5
324.482	744.5
324.71	725.5
324.939	729.5
325.168	726.5
325.397	719.5
325.626	713.5
325.855	741.5
326.084	789.5
326.313	749.5
326.542	759.5
326.77	810.5
326.999	781.5
327.228	759.5
327.457	762.5
327.686	772.5
327.914	785.5
328.143	773.5
328.372	779.5
328.6	789.5
328.829	796.5
329.058	827.5
329.287	821.5
329.515	825.5
329.744	787.5
329.972	812.5
330.201	821.5
330.43	833.5
330.658	837.5
330.887	802.5
331.115	831.5
331.344	847.5
331.572	859.5
331.801	901.5
332.03	905.5
332.258	924.5
332.486	927.5
332.715	940.5
332.943	951.5
333.172	1023.5
333.4	1037.5
333.629	1052.5
333.857	1087.5
334.085	1072.5
334.314	1086.5
334.542	1043.5
334.771	1032.5
334.999	1007.5
335.227	1021.5
335.455	1017.5
335.684	985.5
335.912	996.5
336.14	994.5
336.369	994.5
336.597	987.5
336.825	1012.5
337.053	975.5
337.281	995.5
337.51	960.5
337.738	981.5
337.966	981.5
338.194	947.5
338.422	918.5
338.65	936.5
338.878	926.5
339.106	925.5
339.334	949.5
339.562	912.5
339.79	913.5
340.018	882.5
340.246	908.5
340.474	895.5
340.702	898.5
340.93	893.5
341.158	912.5
341.386	925.5
341.614	930.5
341.842	913.5
342.07	899.5
342.298	901.5
342.526	897.5
342.754	908.5
342.981	888.5
343.209	898.5
343.437	977.5
343.665	988.5
343.893	1044.5
344.12	1066.5
344.348	1032.5
344.576	1015.5
344.804	1006.5
345.031	950.5
345.259	934.5
345.487	917.5
345.714	889.5
345.942	895.5
346.17	908.5
346.397	915.5
346.625	876.5
346.853	870.5
347.08	863.5
347.308	867.5
347.535	879.5
347.763	873.5
347.99	875.5
348.218	863.5
348.445	869.5
348.673	866.5
348.9	861.5
349.128	852.5
349.355	869.5
349.583	867.5
349.81	852.5
350.037	821.5
350.265	848.5
350.492	851.5
350.72	869.5
350.947	848.5
351.174	860.5
351.402	886.5
351.629	875.5
351.856	866.5
352.083	849.5
352.311	863.5
352.538	860.5
352.765	846.5
352.992	833.5
353.22	797.5
353.447	825.5
353.674	817.5
353.901	839.5
354.128	834.5
354.355	817.5
354.583	819.5
354.81	821.5
355.037	854.5
355.264	836.5
355.491	833.5
355.718	833.5
355.945	835.5
356.172	836.5
356.399	849.5
356.626	823.5
356.853	845.5
357.08	839.5
357.307	847.5
357.534	829.5
357.761	843.5
357.988	843.5
358.215	836.5
358.441	820.5
358.668	810.5
358.895	829.5
359.122	825.5
359.349	831.5
359.576	832.5
359.802	825.5
360.029	835.5
360.256	827.5
360.483	820.5
360.709	820.5
360.936	833.5
361.163	851.5
361.39	859.5
361.616	830.5
361.843	846.5
362.07	872.5
362.296	859.5
362.523	809.5
362.749	817.5
362.976	845.5
363.203	807.5
363.429	813.5
363.656	847.5
363.882	809.5
364.109	806.5
364.335	821.5
364.562	816.5
364.788	805.5
365.015	840.5
365.241	808.5
365.468	797.5
365.694	822.5
365.92	814.5
366.147	806.5
366.373	825.5
366.599	803.5
366.826	804.5
367.052	825.5
367.278	813.5
367.505	818.5
367.731	806.5
367.957	807.5
368.184	830.5
368.41	838.5
368.636	833.5
368.862	831.5
369.089	824.5
369.315	830.5
369.541	843.5
369.767	848.5
369.993	833.5
370.219	834.5
370.445	828.5
370.672	863.5
370.898	877.5
371.124	859.5
371.35	848.5
371.576	863.5
371.802	857.5
372.028	891.5
372.254	862.5
372.48	858.5
372.706	886.5
372.932	887.5
373.158	871.5
373.384	872.5
373.61	865.5
373.835	873.5
374.061	887.5
374.287	876.5
374.513	890.5
374.739	896.5
374.965	930.5
375.191	945.5
375.416	906.5
375.642	906.5
375.868	918.5
376.094	893.5
376.319	873.5
376.545	871.5
376.771	853.5
376.997	877.5
377.222	864.5
377.448	842.5
377.674	875.5
377.899	850.5
378.125	837.5
378.35	828.5
378.576	820.5
378.802	829.5
379.027	837.5
379.253	825.5
379.478	803.5
379.704	811.5
379.929	823.5
380.155	805.5
380.38	810.5
380.606	839.5
380.831	830.5
381.057	835.5
381.282	842.5
381.507	838.5
381.733	852.5
381.958	856.5
382.184	861.5
382.409	857.5
382.634	829.5
382.86	836.5
383.085	886.5
383.31	887.5
383.535	874.5
383.761	922.5
383.986	924.5
384.211	893.5
384.436	942.5
384.662	949.5
384.887	972.5
385.112	966.5
385.337	991.5
385.562	972.5
385.787	971.5
386.013	972.5
386.238	979.5
386.463	988.5
386.688	990.5
386.913	955.5
387.138	971.5
387.363	997.5
387.588	963.5
387.813	981.5
388.038	978.5
388.263	953.5
388.488	981.5
388.713	937.5
388.938	977.5
389.163	947.5
389.387	970.5
389.612	940.5
389.837	949.5
390.062	961.5
390.287	938.5
390.512	981.5
390.736	965.5
390.961	966.5
391.186	998.5
391.411	1051.5
391.636	1054.5
391.86	1067.5
392.085	1065.5
392.31	1103.5
392.534	1062.5
392.759	1048.5
392.984	1050.5
393.208	1060.5
393.433	1039.5
393.658	1054.5
393.882	1037.5
394.107	1035.5
394.331	1045.5
394.556	1053.5
394.78	1048.5
395.005	1068.5
395.229	1042.5
395.454	1083.5
395.678	1107.5
395.903	1090.5
396.127	1085.5
396.352	1053.5
396.576	1044.5
396.801	1032.5
397.025	1074.5
397.249	1092.5
397.474	1097.5
397.698	1110.5
397.922	1135.5
398.147	1121.5
398.371	1149.5
398.595	1181.5
398.82	1256.5
399.044	1272.5
399.268	1423.5
399.492	1551.5
399.717	1705.5
399.941	1736.5
400.165	1559.5
400.389	1439.5
400.613	1378.5
400.837	1301.5
401.062	1268.5
401.286	1237.5
401.51	1245.5
401.734	1225.5
401.958	1243.5
402.182	1257.5
402.406	1247.5
402.63	1286.5
402.854	1286.5
403.078	1298.5
403.302	1320.5
403.526	1352.5
403.75	1358.5
403.974	1359.5
404.198	1333.5
404.422	1383.5
404.645	1356.5
404.869	1362.5
405.093	1334.5
405.317	1351.5
405.541	1348.5
405.765	1335.5
405.988	1303.5
406.212	1364.5
406.436	1355.5
406.66	1393.5
406.883	1379.5
407.107	1470.5
407.331	1486.5
407.555	1515.5
407.778	1547.5
408.002	1498.5
408.226	1478.5
408.449	1455.5
408.673	1421.5
408.896	1375.5
409.12	1413.5
409.344	1387.5
409.567	1372.5
409.791	1371.5
410.014	1367.5
410.238	1362.5
410.461	1341.5
410.685	1347.5
410.908	1300.5
411.132	1329.5
411.355	1309.5
411.578	1287.5
411.802	1285.5
412.025	1315.5
412.249	1309.5
412.472	1323.5
412.695	1302.5
412.919	1267.5
413.142	1266.5
413.365	1239.5
413.589	1271.5
413.812	1236.5
414.035	1249.5
414.258	1262.5
414.482	1249.5
414.705	1298.5
414.928	1288.5
415.151	1277.5
415.374	1243.5
415.597	1243.5
415.821	1236.5
416.044	1251.5
416.267	1227.5
416.49	1251.5
416.713	1226.5
416.936	1221.5
417.159	1225.5
417.382	1240.5
417.605	1236.5
417.828	1256.5
418.051	1252.5
418.274	1266.5
418.497	1268.5
418.72	1303.5
418.943	1270.5
419.166	1365.5
419.389	1466.5
419.611	1406.5
419.834	1370.5
420.057	1322.5
420.28	1301.5
420.503	1283.5
420.726	1257.5
420.948	1227.5
421.171	1263.5
421.394	1295.5
421.617	1292.5
421.839	1262.5
422.062	1267.5
422.285	1249.5
422.507	1249.5
422.73	1284.5
422.953	1281.5
423.175	1322.5
423.398	1342.5
423.621	1319.5
423.843	1321.5
424.066	1333.5
424.288	1324.5
424.511	1339.5
424.733	1325.5
424.956	1275.5
425.178	1277.5
425.401	1312.5
425.623	1325.5
425.846	1261.5
426.068	1246.5
426.291	1243.5
426.513	1222.5
426.735	1240.5
426.958	1232.5
427.18	1221.5
427.402	1215.5
427.625	1216.5
427.847	1184.5
428.069	1203.5
428.292	1193.5
428.514	1157.5
428.736	1183.5
428.958	1206.5
429.181	1161.5
429.403	1173.5
429.625	1153.5
429.847	1188.5
430.069	1143.5
430.292	1150.5
430.514	1124.5
430.736	1169.5
430.958	1157.5
431.18	1157.5
431.402	1163.5
431.624	1178.5
431.846	1149.5
432.068	1173.5
432.29	1188.5
432.512	1158.5
432.734	1205.5
432.956	1178.5
433.178	1236.5
433.4	1197.5
433.622	1190.5
433.844	1226.5
434.066	1194.5
434.287	1170.5
434.509	1226.5
434.731	1281.5
434.953	1278.5
435.175	1317.5
435.397	1297.5
435.618	1238.5
435.84	1192.5
436.062	1195.5
436.284	1213.5
436.505	1217.5
436.727	1177.5
436.949	1191.5
437.17	1163.5
437.392	1162.5
437.614	1187.5
437.835	1161.5
438.057	1142.5
438.278	1148.5
438.5	1165.5
438.721	1121.5
438.943	1157.5
439.165	1147.5
439.386	1218.5
439.608	1175.5
439.829	1191.5
440.05	1178.5
440.272	1215.5
440.493	1206.5
440.715	1233.5
440.936	1260.5
441.158	1257.5
441.379	1285.5
441.6	1332.5
441.822	1330.5
442.043	1325.5
442.264	1309.5
442.486	1288.5
442.707	1269.5
442.928	1298.5
443.149	1302.5
443.371	1268.5
443.592	1333.5
443.813	1347.5
444.034	1336.5
444.255	1378.5
444.476	1458.5
444.698	1484.5
444.919	1527.5
445.14	1577.5
445.361	1441.5
445.582	1387.5
445.803	1335.5
446.024	1265.5
446.245	1265.5
446.466	1278.5
446.687	1228.5
446.908	1216.5
447.129	1179.5
447.35	1181.5
447.571	1176.5
447.792	1153.5
448.013	1143.5
448.234	1110.5
448.455	1153.5
448.675	1108.5
448.896	1132.5
449.117	1123.5
449.338	1107.5
449.559	1107.5
449.779	1099.5
450	1080.5
450.221	1102.5
450.442	1097.5
450.662	1095.5
450.883	1116.5
451.104	1128.5
451.324	1100.5
451.545	1122.5
451.766	1107.5
451.986	1088.5
452.207	1087.5
452.428	1068.5
452.648	1108.5
452.869	1078.5
453.089	1063.5
453.31	1071.5
453.53	1076.5
453.751	1058.5
453.971	1050.5
454.192	1053.5
454.412	1027.5
454.633	1037.5
454.853	1036.5
455.073	1038.5
455.294	1066.5
455.514	1029.5
455.734	1037.5
455.955	1046.5
456.175	1023.5
456.395	1030.5
456.616	995.5
456.836	1028.5
457.056	1039.5
457.276	1022.5
457.497	1049.5
457.717	1029.5
457.937	1041.5
458.157	1076.5
458.377	1061.5
458.598	1082.5
458.818	1102.5
459.038	1131.5
459.258	1164.5
459.478	1173.5
459.698	1261.5
459.918	1258.5
460.138	1326.5
460.358	1390.5
460.578	1367.5
460.798	1396.5
461.018	1390.5
461.238	1395.5
461.458	1396.5
461.678	1378.5
461.898	1427.5
462.118	1425.5
462.338	1485.5
462.558	1480.5
462.777	1595.5
462.997	1687.5
463.217	1754.5
463.437	1741.5
463.657	1660.5
463.876	1591.5
464.096	1584.5
464.316	1601.5
464.536	1558.5
464.755	1553.5
464.975	1470.5
465.195	1433.5
465.414	1351.5
465.634	1279.5
465.854	1258.5
466.073	1219.5
466.293	1187.5
466.512	1168.5
466.732	1178.5
466.951	1160.5
467.171	1163.5
467.391	1162.5
467.61	1160.5
467.829	1133.5
468.049	1119.5
468.268	1139.5
468.488	1108.5
468.707	1115.5
468.927	1130.5
469.146	1134.5
469.365	1124.5
469.585	1141.5
469.804	1167.5
470.023	1173.5
470.243	1189.5
470.462	1190.5
470.681	1225.5
470.901	1213.5
471.12	1209.5
471.339	1156.5
471.558	1161.5
471.777	1155.5
471.997	1149.5
472.216	1151.5
472.435	1108.5
472.654	1120.5
472.873	1069.5
473.092	1105.5
473.311	1106.5
473.53	1114.5
473.749	1106.5
473.968	1089.5
474.187	1069.5
474.406	1077.5
474.625	1106.5
474.844	1107.5
475.063	1109.5
475.282	1122.5
475.501	1088.5
475.72	1107.5
475.939	1143.5
476.158	1153.5
476.377	1179.5
476.596	1152.5
476.814	1162.5
477.033	1159.5
477.252	1203.5
477.471	1211.5
477.69	1237.5
477.908	1244.5
478.127	1301.5
478.346	1300.5
478.564	1325.5
478.783	1342.5
479.002	1378.5
479.22	1362.5
479.439	1363.5
479.658	1346.5
479.876	1364.5
480.095	1354.5
480.313	1415.5
480.532	1413.5
480.751	1400.5
480.969	1369.5
481.188	1299.5
481.406	1310.5
481.624	1290.5
481.843	1255.5
482.061	1261.5
482.28	1273.5
482.498	1261.5
482.717	1237.5
482.935	1250.5
483.153	1277.5
483.372	1269.5
483.59	1252.5
483.808	1297.5
484.027	1246.5
484.245	1282.5
484.463	1311.5
484.681	1320.5
484.9	1278.5
485.118	1309.5
485.336	1295.5
485.554	1301.5
485.772	1325.5
485.99	1293.5
486.209	1306.5
486.427	1315.5
486.645	1295.5
486.863	1343.5
487.081	1312.5
487.299	1298.5
487.517	1300.5
487.735	1336.5
487.953	1345.5
488.171	1360.5
488.389	1318.5
488.607	1293.5
488.825	1297.5
489.043	1313.5
489.261	1283.5
489.479	1269.5
489.696	1303.5
489.914	1353.5
490.132	1337.5
490.35	1333.5
490.568	1353.5
490.786	1347.5
491.003	1341.5
491.221	1352.5
491.439	1345.5
491.657	1322.5
491.874	1361.5
492.092	1409.5
492.31	1403.5
492.527	1405.5
492.745	1381.5
492.963	1384.5
493.18	1376.5
493.398	1404.5
493.615	1387.5
493.833	1413.5
494.05	1447.5
494.268	1404.5
494.485	1429.5
494.703	1414.5
494.92	1410.5
495.138	1437.5
495.355	1454.5
495.573	1434.5
495.79	1453.5
496.008	1490.5
496.225	1492.5
496.442	1490.5
496.66	1528.5
496.877	1513.5
497.094	1538.5
497.312	1587.5
497.529	1591.5
497.746	1662.5
497.963	1679.5
498.181	1755.5
498.398	1892.5
498.615	1914.5
498.832	2003.5
499.049	2113.5
499.267	2252.5
499.484	2457.5
499.701	2648.5
499.918	2914.5
500.135	3176.5
500.352	3525.5
500.569	3585.5
500.786	3579.5
501.003	3411.5
501.22	3133.5
501.437	2833.5
501.654	2562.5
501.871	2396.5
502.088	2241.5
502.305	2105.5
502.522	2004.5
502.739	1941.5
502.956	1882.5
503.172	1764.5
503.389	1677.5
503.606	1680.5
503.823	1630.5
504.04	1599.5
504.256	1619.5
504.473	1670.5
504.69	1692.5
504.907	1615.5
505.123	1579.5
505.34	1472.5
505.557	1459.5
505.773	1349.5
505.99	1371.5
506.207	1353.5
506.423	1368.5
506.64	1322.5
506.856	1297.5
507.073	1273.5
507.289	1277.5
507.506	1273.5
507.722	1282.5
507.939	1224.5
508.155	1225.5
508.372	1205.5
508.588	1217.5
508.805	1230.5
509.021	1196.5
509.238	1187.5
509.454	1201.5
509.67	1170.5
509.887	1175.5
510.103	1154.5
510.319	1142.5
510.536	1169.5
510.752	1157.5
510.968	1124.5
511.184	1154.5
511.401	1131.5
511.617	1147.5
511.833	1132.5
512.049	1123.5
512.265	1161.5
512.481	1122.5
512.698	1135.5
512.914	1177.5
513.13	1151.5
513.346	1153.5
513.562	1151.5
513.778	1163.5
513.994	1154.5
514.21	1163.5
514.426	1210.5
514.642	1203.5
514.858	1143.5
515.074	1196.5
515.29	1205.5
515.506	1222.5
515.721	1225.5
515.937	1228.5
516.153	1240.5
516.369	1265.5
516.585	1300.5
516.801	1306.5
517.016	1352.5
517.232	1427.5
517.448	1431.5
517.664	1532.5
517.879	1526.5
518.095	1461.5
518.311	1481.5
518.527	1434.5
518.742	1393.5
518.958	1346.5
519.173	1265.5
519.389	1304.5
519.605	1262.5
519.82	1237.5
520.036	1217.5
520.251	1174.5
520.467	1147.5
520.682	1158.5
520.898	1145.5
521.113	1128.5
521.329	1089.5
521.544	1111.5
521.76	1133.5
521.975	1093.5
522.19	1077.5
522.406	1100.5
522.621	1067.5
522.836	1081.5
523.052	1050.5
523.267	1043.5
523.482	1087.5
523.698	1084.5
523.913	1046.5
524.128	1045.5
524.343	1083.5
524.559	1067.5
524.774	1019.5
524.989	1060.5
525.204	1061.5
525.419	1018.5
525.634	1067.5
525.849	1063.5
526.064	1033.5
526.28	1041.5
526.495	1029.5
526.71	1013.5
526.925	1004.5
527.14	1014.5
527.355	1013.5
527.57	1021.5
527.785	1015.5
527.999	1035.5
528.214	1030.5
528.429	999.5
528.644	1025.5
528.859	1011.5
529.074	1006.5
529.289	1034.5
529.503	995.5
529.718	1019.5
529.933	1011.5
530.148	1029.5
530.363	1009.5
530.577	1019.5
530.792	990.5
531.007	1032.5
531.221	1029.5
531.436	998.5
531.651	999.5
531.865	1026.5
532.08	981.5
532.295	1036.5
532.509	1005.5
532.724	1004.5
532.938	985.5
533.153	1010.5
533.367	1038.5
533.582	1025.5
533.796	987.5
534.011	1013.5
534.225	997.5
534.44	984.5
534.654	995.5
534.868	1001.5
535.083	986.5
535.297	990.5
535.511	979.5
535.726	940.5
535.94	964.5
536.154	977.5
536.369	945.5
536.583	949.5
536.797	967.5
537.011	957.5
537.225	922.5
537.44	965.5
537.654	945.5
537.868	916.5
538.082	942.5
538.296	922.5
538.51	934.5
538.724	917.5
538.938	929.5
539.153	917.5
539.367	946.5
539.581	943.5
539.795	910.5
540.009	943.5
540.222	912.5
540.436	936.5
540.65	928.5
540.864	920.5
541.078	906.5
541.292	931.5
541.506	911.5
541.72	934.5
541.934	949.5
542.147	927.5
542.361	920.5
542.575	940.5
542.789	929.5
543.002	921.5
543.216	902.5
543.43	907.5
543.644	897.5
543.857	913.5
544.071	921.5
544.285	962.5
544.498	932.5
544.712	911.5
544.925	934.5
545.139	947.5
545.352	970.5
545.566	969.5
545.779	959.5
545.993	950.5
546.206	964.5
546.42	953.5
546.633	973.5
546.847	936.5
547.06	953.5
547.274	937.5
547.487	921.5
547.7	932.5
547.914	990.5
548.127	978.5
548.34	988.5
548.554	945.5
548.767	942.5
548.98	967.5
549.193	934.5
549.407	969.5
549.62	963.5
549.833	959.5
550.046	949.5
550.259	955.5
550.473	943.5
550.686	946.5
550.899	911.5
551.112	909.5
551.325	918.5
551.538	914.5
551.751	940.5
551.964	913.5
552.177	954.5
552.39	936.5
552.603	973.5
552.816	968.5
553.029	979.5
553.242	989.5
553.455	1005.5
553.667	1017.5
553.88	982.5
554.093	987.5
554.306	937.5
554.519	940.5
554.732	953.5
554.944	923.5
555.157	903.5
555.37	910.5
555.583	855.5
555.795	869.5
556.008	857.5
556.221	863.5
556.433	824.5
556.646	827.5
556.859	825.5
557.071	805.5
557.284	814.5
557.496	839.5
557.709	841.5
557.921	810.5
558.134	801.5
558.346	789.5
558.559	791.5
558.771	807.5
558.984	794.5
559.196	791.5
559.409	780.5
559.621	805.5
559.833	770.5
560.046	794.5
560.258	800.5
560.47	795.5
560.683	778.5
560.895	785.5
561.107	783.5
561.32	786.5
561.532	775.5
561.744	791.5
561.956	769.5
562.168	815.5
562.381	776.5
562.593	787.5
562.805	783.5
563.017	769.5
563.229	785.5
563.441	796.5
563.653	802.5
563.865	798.5
564.077	791.5
564.289	798.5
564.501	829.5
564.713	817.5
564.925	829.5
565.137	858.5
565.349	859.5
565.561	883.5
565.773	909.5
565.985	927.5
566.197	994.5
566.408	1045.5
566.62	1086.5
566.832	1137.5
567.044	1147.5
567.255	1173.5
567.467	1181.5
567.679	1255.5
567.891	1319.5
568.102	1247.5
568.314	1213.5
568.526	1138.5
568.737	1069.5
568.949	996.5
569.161	931.5
569.372	884.5
569.584	873.5
569.795	833.5
570.007	815.5
570.218	782.5
570.43	771.5
570.641	774.5
570.853	757.5
571.064	773.5
571.276	747.5
571.487	746.5
571.698	730.5
571.91	717.5
572.121	697.5
572.333	710.5
572.544	689.5
572.755	677.5
572.966	676.5
573.178	666.5
573.389	663.5
573.6	656.5
573.811	655.5
574.023	621.5
574.234	615.5
574.445	630.5
574.656	631.5
574.867	630.5
575.078	607.5
575.289	630.5
575.501	619.5
575.712	594.5
575.923	606.5
576.134	597.5
576.345	590.5
576.556	585.5
576.767	605.5
576.978	618.5
577.188	604.5
577.399	595.5
577.61	601.5
577.821	569.5
578.032	573.5
578.243	564.5
578.454	570.5
578.665	577.5
578.875	549.5
579.086	547.5
579.297	544.5
579.508	532.5
579.718	553.5
579.929	556.5
580.14	553.5
580.35	541.5
580.561	530.5
580.772	553.5
580.982	540.5
581.193	532.5
581.403	528.5
581.614	534.5
581.825	490.5
582.035	532.5
582.246	509.5
582.456	511.5
582.667	506.5
582.877	535.5
583.087	515.5
583.298	505.5
583.508	502.5
583.719	515.5
583.929	536.5
584.139	515.5
584.35	513.5
584.56	524.5
584.77	512.5
584.981	509.5
585.191	519.5
585.401	514.5
585.611	498.5
585.821	491.5
586.032	513.5
586.242	503.5
586.452	484.5
586.662	515.5
586.872	474.5
587.082	515.5
587.292	497.5
587.502	490.5
587.713	486.5
587.923	488.5
588.133	491.5
588.343	487.5
588.553	502.5
588.762	503.5
588.972	496.5
589.182	524.5
589.392	521.5
589.602	505.5
589.812	500.5
590.022	514.5
590.232	503.5
590.441	491.5
590.651	494.5
590.861	500.5
591.071	505.5
591.281	521.5
591.49	515.5
591.7	534.5
591.91	529.5
592.119	553.5
592.329	539.5
592.539	557.5
592.748	578.5
592.958	566.5
593.167	597.5
593.377	577.5
593.587	587.5
593.796	603.5
594.006	600.5
594.215	590.5
594.424	593.5
594.634	593.5
594.843	540.5
595.053	570.5
595.262	537.5
595.472	515.5
595.681	535.5
595.89	492.5
596.1	490.5
596.309	510.5
596.518	497.5
596.727	465.5
596.937	439.5
597.146	446.5
597.355	453.5
597.564	470.5
597.774	464.5
597.983	444.5
598.192	445.5
598.401	439.5
598.61	418.5
598.819	420.5
599.028	423.5
599.237	435.5
599.446	402.5
599.655	428.5
599.864	411.5
600.073	410.5
600.282	430.5
600.491	417.5
600.7	407.5
600.909	419.5
601.118	418.5
601.327	400.5
601.536	402.5
601.745	399.5
601.953	403.5
602.162	376.5
602.371	414.5
602.58	412.5
602.789	393.5
602.997	402.5
603.206	395.5
603.415	399.5
603.623	403.5
603.832	392.5
604.041	405.5
604.249	389.5
604.458	373.5
604.666	393.5
604.875	372.5
605.084	373.5
605.292	392.5
605.501	395.5
605.709	369.5
605.918	377.5
606.126	381.5
606.334	375.5
606.543	379.5
606.751	381.5
606.96	379.5
607.168	376.5
607.376	381.5
607.585	384.5
607.793	403.5
608.001	371.5
608.21	381.5
608.418	355.5
608.626	379.5
608.834	359.5
609.043	375.5
609.251	348.5
609.459	364.5
609.667	365.5
609.875	366.5
610.083	348.5
610.291	357.5
610.499	367.5
610.707	367.5
610.916	354.5
611.124	365.5
611.332	352.5
611.54	334.5
611.748	353.5
611.955	358.5
612.163	344.5
612.371	357.5
612.579	357.5
612.787	337.5
612.995	378.5
613.203	358.5
613.411	334.5
613.618	341.5
613.826	357.5
614.034	354.5
614.242	353.5
614.449	354.5
614.657	360.5
614.865	343.5
615.072	339.5
615.28	349.5
615.488	348.5
615.695	366.5
615.903	340.5
616.111	342.5
616.318	356.5
616.526	342.5
616.733	333.5
616.941	357.5
617.148	332.5
617.356	345.5
617.563	328.5
617.771	327.5
617.978	329.5
618.185	349.5
618.393	335.5
618.6	343.5
618.807	346.5
619.015	327.5
619.222	331.5
619.429	329.5
619.637	344.5
619.844	341.5
620.051	327.5
620.258	339.5
620.466	329.5
620.673	319.5
620.88	326.5
621.087	323.5
621.294	315.5
621.501	314.5
621.708	323.5
621.915	333.5
622.122	335.5
622.329	314.5
622.536	332.5
622.743	319.5
622.95	333.5
623.157	314.5
623.364	321.5
623.571	315.5
623.778	322.5
623.985	302.5
624.192	325.5
624.399	308.5
624.606	297.5
624.812	309.5
625.019	291.5
625.226	296.5
625.433	303.5
625.639	311.5
625.846	314.5
626.053	295.5
626.259	289.5
626.466	304.5
626.673	285.5
626.879	305.5
627.086	277.5
627.293	292.5
627.499	319.5
627.706	313.5
627.912	297.5
628.119	279.5
628.325	299.5
628.532	292.5
628.738	289.5
628.945	298.5
629.151	302.5
629.357	302.5
629.564	287.5
629.77	280.5
629.976	279.5
630.183	269.5
630.389	281.5
630.595	260.5
630.802	279.5
631.008	293.5
631.214	282.5
631.42	275.5
631.627	281.5
631.833	261.5
632.039	281.5
632.245	270.5
632.451	271.5
632.657	274.5
632.863	278.5
633.069	273.5
633.275	272.5
633.481	265.5
633.688	256.5
633.893	271.5
634.099	264.5
634.305	248.5
634.511	255.5
634.717	265.5
634.923	243.5
635.129	250.5
635.335	266.5
635.541	258.5
635.747	258.5
635.952	265.5
636.158	249.5
636.364	247.5
636.57	242.5
636.775	248.5
636.981	243.5
637.187	249.5
637.392	250.5
637.598	261.5
637.804	254.5
638.009	273.5
638.215	263.5
638.421	260.5
638.626	267.5
638.832	236.5
639.037	242.5
639.243	230.5
639.448	252.5
639.654	232.5
639.859	229.5
640.065	227.5
640.27	238.5
640.475	234.5
640.681	242.5
640.886	221.5
641.091	239.5
641.297	229.5
641.502	229.5
641.707	254.5
641.913	234.5
642.118	225.5
642.323	234.5
642.528	228.5
642.733	225.5
642.939	213.5
643.144	217.5
643.349	229.5
643.554	223.5
643.759	234.5
643.964	247.5
644.169	216.5
644.374	217.5
644.579	246.5
644.784	231.5
644.989	221.5
645.194	217.5
645.399	214.5
645.604	233.5
645.809	222.5
646.014	228.5
646.219	223.5
646.423	223.5
646.628	230.5
646.833	228.5
647.038	217.5
647.243	230.5
647.447	232.5
647.652	243.5
647.857	246.5
648.062	243.5
648.266	234.5
648.471	222.5
648.676	214.5
648.88	228.5
649.085	207.5
649.289	223.5
649.494	234.5
649.698	208.5
649.903	222.5
650.107	220.5
650.312	223.5
650.516	203.5
650.721	211.5
650.925	211.5
651.13	205.5
651.334	200.5
651.539	199.5
651.743	205.5
651.947	193.5
652.152	195.5
652.356	202.5
652.56	179.5
652.764	196.5
652.969	178.5
653.173	187.5
653.377	181.5
653.581	188.5
653.785	180.5
653.99	175.5
654.194	181.5
654.398	175.5
654.602	179.5
654.806	179.5
655.01	165.5
655.214	161.5
655.418	159.5
655.622	168.5
655.826	168.5
656.03	167.5
656.234	169.5
656.438	161.5
656.642	146.5
656.846	177.5
657.049	154.5
657.253	149.5
657.457	138.5
657.661	157.5
657.865	146.5
658.068	136.5
658.272	125.5
658.476	135.5
658.68	132.5
658.883	117.5
659.087	123.5
659.291	133.5
659.494	111.5
659.698	113.5
659.901	123.5
660.105	120.5
660.309	117.5
660.512	107.5
660.716	91.5
660.919	94.5
661.123	125.5
661.326	100.5
661.53	85.5
661.733	99.5
661.936	112.5
662.14	92.5
662.343	98.5
662.546	111.5
662.75	92.5
662.953	95.5
663.156	100.5
663.36	89.5
663.563	89.5
663.766	80.5
663.969	88.5
664.173	77.5
664.376	89.5
664.579	76.5
664.782	74.5
664.985	78.5
665.188	81.5
665.391	84.5
665.594	69.5
665.797	76.5
666	84.5
666.203	86.5
666.406	95.5
666.609	82.5
666.812	93.5
667.015	84.5
667.218	83.5
667.421	76.5
667.624	69.5
667.827	73.5
668.03	79.5
668.232	65.5
668.435	90.5
668.638	82.5
668.841	95.5
669.043	97.5
669.246	87.5
669.449	77.5
669.651	81.5
669.854	68.5
670.057	96.5
670.259	81.5
670.462	79.5
670.665	76.5
670.867	73.5
671.07	85.5
671.272	90.5
671.475	89.5
671.677	70.5
671.88	91.5
672.082	81.5
672.284	81.5
672.487	76.5
672.689	92.5
672.892	74.5
