Data from Ni(NO3)2@0.5M.TitratingCurve.Agarose3%dH2O.NegLispCup.LampEnergy10.LIBS07252019_HRD10591_17-58-27-564.txt Node
Date: Thu Jul 25 17:58:27 EDT 2019
User: cochatt
Spectrometer: HR+D1059
Trigger mode: 1
Integration Time (sec): 1.000000E-1
Scans to average: 1
Electric dark correction enabled: true
Nonlinearity correction enabled: false
Boxcar width: 0
XAxis mode: Wavelengths
Number of Pixels in Spectrum: 2048
>>>>>Begin Spectral Data<<<<<
223.165	-20.19
223.4	-20.19
223.635	-20.19
223.869	-19.19
224.104	-9.19
224.338	-19.19
224.573	-7.19
224.808	-15.19
225.042	8.81
225.277	-8.19
225.511	-2.19
225.746	-6.19
225.98	3.81
226.215	10.81
226.449	13.81
226.683	18.81
226.918	21.81
227.152	28.81
227.387	48.81
227.621	42.81
227.856	50.81
228.09	50.81
228.324	37.81
228.559	52.81
228.793	80.81
229.027	96.81
229.262	129.81
229.496	130.81
229.73	124.81
229.964	156.81
230.199	174.81
230.433	180.81
230.667	164.81
230.901	171.81
231.136	148.81
231.37	157.81
231.604	150.81
231.838	178.81
232.072	178.81
232.306	183.81
232.541	156.81
232.775	165.81
233.009	157.81
233.243	144.81
233.477	136.81
233.711	156.81
233.945	160.81
234.179	156.81
234.413	159.81
234.647	156.81
234.881	162.81
235.115	147.81
235.349	157.81
235.583	146.81
235.817	143.81
236.051	139.81
236.285	156.81
236.519	155.81
236.753	153.81
236.987	151.81
237.221	152.81
237.455	141.81
237.689	140.81
237.922	149.81
238.156	167.81
238.39	148.81
238.624	156.81
238.858	155.81
239.091	164.81
239.325	174.81
239.559	194.81
239.793	173.81
240.027	193.81
240.26	178.81
240.494	179.81
240.728	171.81
240.961	173.81
241.195	165.81
241.429	168.81
241.662	177.81
241.896	196.81
242.13	199.81
242.363	186.81
242.597	170.81
242.83	170.81
243.064	163.81
243.298	176.81
243.531	185.81
243.765	182.81
243.998	195.81
244.232	218.81
244.465	219.81
244.699	192.81
244.932	195.81
245.166	178.81
245.399	204.81
245.633	190.81
245.866	200.81
246.099	187.81
246.333	179.81
246.566	188.81
246.8	191.81
247.033	204.81
247.266	194.81
247.5	192.81
247.733	214.81
247.966	205.81
248.2	211.81
248.433	219.81
248.666	202.81
248.899	205.81
249.133	227.81
249.366	216.81
249.599	209.81
249.832	217.81
250.066	213.81
250.299	209.81
250.532	235.81
250.765	222.81
250.998	237.81
251.231	258.81
251.465	275.81
251.698	270.81
251.931	254.81
252.164	234.81
252.397	238.81
252.63	247.81
252.863	242.81
253.096	252.81
253.329	237.81
253.562	250.81
253.795	246.81
254.028	254.81
254.261	258.81
254.494	244.81
254.727	262.81
254.96	280.81
255.193	246.81
255.426	263.81
255.659	272.81
255.892	273.81
256.124	258.81
256.357	265.81
256.59	259.81
256.823	268.81
257.056	263.81
257.289	280.81
257.521	251.81
257.754	273.81
257.987	278.81
258.22	289.81
258.452	271.81
258.685	284.81
258.918	289.81
259.151	298.81
259.383	289.81
259.616	273.81
259.849	308.81
260.081	294.81
260.314	288.81
260.547	278.81
260.779	291.81
261.012	298.81
261.244	310.81
261.477	312.81
261.71	306.81
261.942	313.81
262.175	317.81
262.407	293.81
262.64	314.81
262.872	296.81
263.105	299.81
263.337	298.81
263.57	309.81
263.802	315.81
264.035	320.81
264.267	325.81
264.499	301.81
264.732	327.81
264.964	322.81
265.197	322.81
265.429	316.81
265.661	336.81
265.894	325.81
266.126	325.81
266.358	322.81
266.591	328.81
266.823	318.81
267.055	316.81
267.287	331.81
267.52	330.81
267.752	336.81
267.984	356.81
268.216	340.81
268.448	337.81
268.681	346.81
268.913	346.81
269.145	336.81
269.377	354.81
269.609	350.81
269.841	333.81
270.073	352.81
270.306	346.81
270.538	355.81
270.77	346.81
271.002	348.81
271.234	341.81
271.466	345.81
271.698	343.81
271.93	347.81
272.162	338.81
272.394	353.81
272.626	349.81
272.858	347.81
273.09	362.81
273.322	372.81
273.553	346.81
273.785	375.81
274.017	366.81
274.249	384.81
274.481	368.81
274.713	376.81
274.945	398.81
275.176	361.81
275.408	388.81
275.64	386.81
275.872	375.81
276.104	364.81
276.335	382.81
276.567	378.81
276.799	392.81
277.031	390.81
277.262	391.81
277.494	403.81
277.726	380.81
277.957	401.81
278.189	382.81
278.421	388.81
278.652	402.81
278.884	409.81
279.115	395.81
279.347	406.81
279.579	432.81
279.81	405.81
280.042	424.81
280.273	424.81
280.505	430.81
280.736	407.81
280.968	404.81
281.199	395.81
281.431	413.81
281.662	411.81
281.894	406.81
282.125	421.81
282.356	415.81
282.588	428.81
282.819	403.81
283.051	429.81
283.282	427.81
283.513	432.81
283.745	418.81
283.976	442.81
284.207	457.81
284.439	446.81
284.67	435.81
284.901	427.81
285.132	415.81
285.364	447.81
285.595	440.81
285.826	439.81
286.057	428.81
286.288	450.81
286.52	439.81
286.751	446.81
286.982	458.81
287.213	453.81
287.444	440.81
287.675	459.81
287.906	442.81
288.138	466.81
288.369	457.81
288.6	464.81
288.831	469.81
289.062	448.81
289.293	432.81
289.524	443.81
289.755	451.81
289.986	457.81
290.217	469.81
290.448	458.81
290.679	462.81
290.91	474.81
291.141	462.81
291.371	463.81
291.602	452.81
291.833	471.81
292.064	445.81
292.295	459.81
292.526	448.81
292.757	451.81
292.987	444.81
293.218	442.81
293.449	469.81
293.68	487.81
293.91	472.81
294.141	441.81
294.372	458.81
294.603	460.81
294.833	461.81
295.064	458.81
295.295	446.81
295.525	457.81
295.756	475.81
295.987	463.81
296.217	487.81
296.448	475.81
296.679	483.81
296.909	477.81
297.14	503.81
297.37	482.81
297.601	493.81
297.831	486.81
298.062	487.81
298.292	478.81
298.523	527.81
298.753	514.81
298.984	480.81
299.214	517.81
299.445	498.81
299.675	520.81
299.905	496.81
300.136	506.81
300.366	536.81
300.597	550.81
300.827	556.81
301.057	540.81
301.288	522.81
301.518	549.81
301.748	537.81
301.979	534.81
302.209	547.81
302.439	528.81
302.669	527.81
302.9	534.81
303.13	530.81
303.36	554.81
303.59	531.81
303.82	530.81
304.051	550.81
304.281	556.81
304.511	538.81
304.741	560.81
304.971	549.81
305.201	571.81
305.431	566.81
305.661	562.81
305.891	560.81
306.121	540.81
306.352	534.81
306.582	534.81
306.812	522.81
307.042	567.81
307.272	564.81
307.502	526.81
307.731	525.81
307.961	556.81
308.191	540.81
308.421	537.81
308.651	540.81
308.881	527.81
309.111	542.81
309.341	555.81
309.571	578.81
309.8	561.81
310.03	582.81
310.26	602.81
310.49	597.81
310.72	568.81
310.949	568.81
311.179	568.81
311.409	547.81
311.639	562.81
311.868	545.81
312.098	557.81
312.328	545.81
312.557	575.81
312.787	561.81
313.017	600.81
313.246	611.81
313.476	618.81
313.706	596.81
313.935	597.81
314.165	578.81
314.394	576.81
314.624	587.81
314.853	574.81
315.083	577.81
315.312	578.81
315.542	604.81
315.771	598.81
316.001	597.81
316.23	612.81
316.46	597.81
316.689	600.81
316.919	605.81
317.148	592.81
317.377	592.81
317.607	605.81
317.836	603.81
318.065	609.81
318.295	626.81
318.524	598.81
318.753	608.81
318.983	612.81
319.212	619.81
319.441	596.81
319.67	635.81
319.9	620.81
320.129	625.81
320.358	642.81
320.587	621.81
320.816	628.81
321.046	632.81
321.275	620.81
321.504	644.81
321.733	643.81
321.962	647.81
322.191	631.81
322.42	637.81
322.649	650.81
322.878	649.81
323.108	658.81
323.337	637.81
323.566	674.81
323.795	664.81
324.024	667.81
324.253	652.81
324.482	677.81
324.71	648.81
324.939	668.81
325.168	644.81
325.397	653.81
325.626	695.81
325.855	652.81
326.084	675.81
326.313	646.81
326.542	664.81
326.77	684.81
326.999	684.81
327.228	675.81
327.457	694.81
327.686	670.81
327.914	677.81
328.143	676.81
328.372	696.81
328.6	708.81
328.829	682.81
329.058	706.81
329.287	700.81
329.515	686.81
329.744	692.81
329.972	693.81
330.201	700.81
330.43	708.81
330.658	708.81
330.887	701.81
331.115	724.81
331.344	722.81
331.572	731.81
331.801	743.81
332.03	706.81
332.258	754.81
332.486	714.81
332.715	727.81
332.943	765.81
333.172	758.81
333.4	790.81
333.629	783.81
333.857	790.81
334.085	806.81
334.314	790.81
334.542	772.81
334.771	800.81
334.999	812.81
335.227	807.81
335.455	798.81
335.684	820.81
335.912	794.81
336.14	793.81
336.369	799.81
336.597	795.81
336.825	808.81
337.053	812.81
337.281	806.81
337.51	811.81
337.738	795.81
337.966	798.81
338.194	813.81
338.422	792.81
338.65	792.81
338.878	761.81
339.106	800.81
339.334	820.81
339.562	790.81
339.79	764.81
340.018	752.81
340.246	743.81
340.474	766.81
340.702	754.81
340.93	749.81
341.158	800.81
341.386	788.81
341.614	835.81
341.842	806.81
342.07	772.81
342.298	771.81
342.526	803.81
342.754	769.81
342.981	747.81
343.209	778.81
343.437	800.81
343.665	824.81
343.893	820.81
344.12	829.81
344.348	810.81
344.576	820.81
344.804	797.81
345.031	792.81
345.259	776.81
345.487	788.81
345.714	795.81
345.942	822.81
346.17	813.81
346.397	782.81
346.625	758.81
346.853	719.81
347.08	752.81
347.308	781.81
347.535	745.81
347.763	706.81
347.99	737.81
348.218	737.81
348.445	724.81
348.673	715.81
348.9	748.81
349.128	757.81
349.355	768.81
349.583	769.81
349.81	723.81
350.037	731.81
350.265	743.81
350.492	727.81
350.72	722.81
350.947	736.81
351.174	753.81
351.402	762.81
351.629	772.81
351.856	770.81
352.083	755.81
352.311	768.81
352.538	773.81
352.765	767.81
352.992	740.81
353.22	736.81
353.447	734.81
353.674	718.81
353.901	725.81
354.128	700.81
354.355	711.81
354.583	707.81
354.81	701.81
355.037	701.81
355.264	705.81
355.491	684.81
355.718	712.81
355.945	688.81
356.172	735.81
356.399	715.81
356.626	745.81
356.853	748.81
357.08	748.81
357.307	710.81
357.534	707.81
357.761	720.81
357.988	724.81
358.215	737.81
358.441	717.81
358.668	710.81
358.895	742.81
359.122	700.81
359.349	720.81
359.576	716.81
359.802	718.81
360.029	739.81
360.256	718.81
360.483	714.81
360.709	726.81
360.936	738.81
361.163	739.81
361.39	746.81
361.616	741.81
361.843	772.81
362.07	788.81
362.296	785.81
362.523	743.81
362.749	740.81
362.976	718.81
363.203	729.81
363.429	708.81
363.656	748.81
363.882	707.81
364.109	725.81
364.335	709.81
364.562	717.81
364.788	726.81
365.015	737.81
365.241	708.81
365.468	724.81
365.694	742.81
365.92	712.81
366.147	729.81
366.373	732.81
366.599	724.81
366.826	728.81
367.052	731.81
367.278	733.81
367.505	730.81
367.731	759.81
367.957	726.81
368.184	719.81
368.41	744.81
368.636	722.81
368.862	745.81
369.089	748.81
369.315	749.81
369.541	739.81
369.767	729.81
369.993	739.81
370.219	743.81
370.445	755.81
370.672	754.81
370.898	727.81
371.124	742.81
371.35	754.81
371.576	790.81
371.802	773.81
372.028	795.81
372.254	769.81
372.48	770.81
372.706	773.81
372.932	788.81
373.158	782.81
373.384	769.81
373.61	792.81
373.835	780.81
374.061	755.81
374.287	765.81
374.513	748.81
374.739	786.81
374.965	796.81
375.191	794.81
375.416	793.81
375.642	782.81
375.868	790.81
376.094	798.81
376.319	766.81
376.545	770.81
376.771	775.81
376.997	761.81
377.222	755.81
377.448	745.81
377.674	760.81
377.899	761.81
378.125	765.81
378.35	776.81
378.576	781.81
378.802	768.81
379.027	756.81
379.253	784.81
379.478	769.81
379.704	755.81
379.929	753.81
380.155	750.81
380.38	760.81
380.606	752.81
380.831	771.81
381.057	781.81
381.282	750.81
381.507	794.81
381.733	748.81
381.958	760.81
382.184	780.81
382.409	796.81
382.634	808.81
382.86	798.81
383.085	792.81
383.31	779.81
383.535	806.81
383.761	806.81
383.986	819.81
384.211	818.81
384.436	832.81
384.662	802.81
384.887	821.81
385.112	811.81
385.337	846.81
385.562	803.81
385.787	852.81
386.013	856.81
386.238	842.81
386.463	866.81
386.688	858.81
386.913	860.81
387.138	834.81
387.363	852.81
387.588	852.81
387.813	860.81
388.038	852.81
388.263	869.81
388.488	850.81
388.713	850.81
388.938	857.81
389.163	868.81
389.387	863.81
389.612	870.81
389.837	861.81
390.062	868.81
390.287	882.81
390.512	884.81
390.736	870.81
390.961	893.81
391.186	868.81
391.411	888.81
391.636	908.81
391.86	920.81
392.085	915.81
392.31	932.81
392.534	911.81
392.759	912.81
392.984	864.81
393.208	907.81
393.433	914.81
393.658	925.81
393.882	868.81
394.107	880.81
394.331	896.81
394.556	907.81
394.78	903.81
395.005	897.81
395.229	909.81
395.454	907.81
395.678	930.81
395.903	939.81
396.127	888.81
396.352	906.81
396.576	898.81
396.801	926.81
397.025	933.81
397.249	953.81
397.474	930.81
397.698	974.81
397.922	969.81
398.147	934.81
398.371	961.81
398.595	972.81
398.82	998.81
399.044	1029.81
399.268	1054.81
399.492	1108.81
399.717	1156.81
399.941	1125.81
400.165	1134.81
400.389	1100.81
400.613	1056.81
400.837	1057.81
401.062	1006.81
401.286	1013.81
401.51	984.81
401.734	1010.81
401.958	1027.81
402.182	999.81
402.406	1002.81
402.63	1005.81
402.854	1024.81
403.078	1030.81
403.302	1018.81
403.526	1036.81
403.75	1034.81
403.974	1064.81
404.198	1023.81
404.422	1035.81
404.645	1032.81
404.869	1044.81
405.093	1056.81
405.317	1032.81
405.541	1062.81
405.765	1037.81
405.988	1055.81
406.212	1047.81
406.436	1034.81
406.66	1072.81
406.883	1046.81
407.107	1125.81
407.331	1122.81
407.555	1142.81
407.778	1114.81
408.002	1138.81
408.226	1168.81
408.449	1123.81
408.673	1108.81
408.896	1107.81
409.12	1097.81
409.344	1105.81
409.567	1053.81
409.791	1105.81
410.014	1093.81
410.238	1069.81
410.461	1060.81
410.685	1064.81
410.908	1055.81
411.132	1057.81
411.355	1065.81
411.578	1038.81
411.802	1037.81
412.025	1054.81
412.249	1028.81
412.472	1060.81
412.695	1026.81
412.919	1035.81
413.142	1021.81
413.365	1022.81
413.589	1010.81
413.812	1027.81
414.035	1009.81
414.258	1038.81
414.482	1015.81
414.705	1016.81
414.928	1006.81
415.151	1004.81
415.374	1010.81
415.597	999.81
415.821	951.81
416.044	1012.81
416.267	966.81
416.49	976.81
416.713	973.81
416.936	996.81
417.159	958.81
417.382	1007.81
417.605	980.81
417.828	956.81
418.051	962.81
418.274	957.81
418.497	976.81
418.72	996.81
418.943	959.81
419.166	1044.81
419.389	1100.81
419.611	1057.81
419.834	1014.81
420.057	1021.81
420.28	1002.81
420.503	966.81
420.726	984.81
420.948	982.81
421.171	954.81
421.394	964.81
421.617	938.81
421.839	947.81
422.062	990.81
422.285	966.81
422.507	946.81
422.73	984.81
422.953	971.81
423.175	983.81
423.398	983.81
423.621	932.81
423.843	983.81
424.066	985.81
424.288	973.81
424.511	965.81
424.733	978.81
424.956	966.81
425.178	1006.81
425.401	980.81
425.623	1005.81
425.846	951.81
426.068	952.81
426.291	929.81
426.513	964.81
426.735	951.81
426.958	944.81
427.18	951.81
427.402	967.81
427.625	964.81
427.847	934.81
428.069	944.81
428.292	961.81
428.514	920.81
428.736	914.81
428.958	937.81
429.181	935.81
429.403	939.81
429.625	952.81
429.847	936.81
430.069	937.81
430.292	932.81
430.514	914.81
430.736	947.81
430.958	923.81
431.18	932.81
431.402	944.81
431.624	927.81
431.846	940.81
432.068	922.81
432.29	967.81
432.512	914.81
432.734	931.81
432.956	949.81
433.178	978.81
433.4	988.81
433.622	990.81
433.844	968.81
434.066	957.81
434.287	977.81
434.509	942.81
434.731	955.81
434.953	949.81
435.175	1003.81
435.397	1027.81
435.618	983.81
435.84	966.81
436.062	958.81
436.284	934.81
436.505	956.81
436.727	940.81
436.949	904.81
437.17	953.81
437.392	935.81
437.614	942.81
437.835	922.81
438.057	934.81
438.278	883.81
438.5	948.81
438.721	910.81
438.943	955.81
439.165	925.81
439.386	933.81
439.608	928.81
439.829	962.81
440.05	945.81
440.272	943.81
440.493	960.81
440.715	977.81
440.936	948.81
441.158	957.81
441.379	976.81
441.6	992.81
441.822	1025.81
442.043	996.81
442.264	985.81
442.486	984.81
442.707	968.81
442.928	974.81
443.149	1014.81
443.371	1014.81
443.592	1064.81
443.813	1068.81
444.034	998.81
444.255	1012.81
444.476	1028.81
444.698	1062.81
444.919	1086.81
445.14	1166.81
445.361	1105.81
445.582	1044.81
445.803	1001.81
446.024	1014.81
446.245	1000.81
446.466	990.81
446.687	949.81
446.908	936.81
447.129	928.81
447.35	935.81
447.571	907.81
447.792	905.81
448.013	894.81
448.234	872.81
448.455	880.81
448.675	877.81
448.896	888.81
449.117	867.81
449.338	889.81
449.559	900.81
449.779	874.81
450	874.81
450.221	883.81
450.442	862.81
450.662	899.81
450.883	929.81
451.104	918.81
451.324	896.81
451.545	882.81
451.766	903.81
451.986	860.81
452.207	882.81
452.428	857.81
452.648	853.81
452.869	859.81
453.089	863.81
453.31	890.81
453.53	856.81
453.751	832.81
453.971	836.81
454.192	890.81
454.412	854.81
454.633	864.81
454.853	861.81
455.073	841.81
455.294	863.81
455.514	878.81
455.734	869.81
455.955	878.81
456.175	848.81
456.395	851.81
456.616	819.81
456.836	845.81
457.056	837.81
457.276	837.81
457.497	874.81
457.717	910.81
457.937	876.81
458.157	894.81
458.377	900.81
458.598	892.81
458.818	905.81
459.038	915.81
459.258	939.81
459.478	1000.81
459.698	1021.81
459.918	1031.81
460.138	1015.81
460.358	1020.81
460.578	1034.81
460.798	1076.81
461.018	1069.81
461.238	1023.81
461.458	1046.81
461.678	1006.81
461.898	1022.81
462.118	1023.81
462.338	1080.81
462.558	1106.81
462.777	1114.81
462.997	1130.81
463.217	1165.81
463.437	1217.81
463.657	1197.81
463.876	1143.81
464.096	1125.81
464.316	1108.81
464.536	1132.81
464.755	1045.81
464.975	1032.81
465.195	1000.81
465.414	1011.81
465.634	995.81
465.854	970.81
466.073	967.81
466.293	940.81
466.512	948.81
466.732	947.81
466.951	942.81
467.171	970.81
467.391	930.81
467.61	928.81
467.829	887.81
468.049	918.81
468.268	889.81
468.488	913.81
468.707	912.81
468.927	927.81
469.146	922.81
469.365	953.81
469.585	922.81
469.804	896.81
470.023	936.81
470.243	906.81
470.462	928.81
470.681	906.81
470.901	939.81
471.12	925.81
471.339	925.81
471.558	924.81
471.777	908.81
471.997	900.81
472.216	888.81
472.435	922.81
472.654	898.81
472.873	908.81
473.092	904.81
473.311	891.81
473.53	905.81
473.749	904.81
473.968	904.81
474.187	898.81
474.406	904.81
474.625	915.81
474.844	911.81
475.063	951.81
475.282	952.81
475.501	928.81
475.72	930.81
475.939	950.81
476.158	920.81
476.377	952.81
476.596	939.81
476.814	984.81
477.033	951.81
477.252	954.81
477.471	992.81
477.69	981.81
477.908	1022.81
478.127	1037.81
478.346	1032.81
478.564	1048.81
478.783	1049.81
479.002	1076.81
479.22	1097.81
479.439	1098.81
479.658	1073.81
479.876	1105.81
480.095	1079.81
480.313	1076.81
480.532	1073.81
480.751	1065.81
480.969	1075.81
481.188	1092.81
481.406	1047.81
481.624	1063.81
481.843	1027.81
482.061	1054.81
482.28	1025.81
482.498	1030.81
482.717	1052.81
482.935	1048.81
483.153	1044.81
483.372	1082.81
483.59	1128.81
483.808	1098.81
484.027	1052.81
484.245	1054.81
484.463	1057.81
484.681	1063.81
484.9	1046.81
485.118	1052.81
485.336	1036.81
485.554	1049.81
485.772	1067.81
485.99	1073.81
486.209	1078.81
486.427	1063.81
486.645	1097.81
486.863	1073.81
487.081	1095.81
487.299	1068.81
487.517	1117.81
487.735	1106.81
487.953	1138.81
488.171	1128.81
488.389	1117.81
488.607	1102.81
488.825	1096.81
489.043	1083.81
489.261	1067.81
489.479	1082.81
489.696	1074.81
489.914	1065.81
490.132	1077.81
490.35	1098.81
490.568	1080.81
490.786	1126.81
491.003	1111.81
491.221	1108.81
491.439	1137.81
491.657	1116.81
491.874	1138.81
492.092	1166.81
492.31	1176.81
492.527	1154.81
492.745	1152.81
492.963	1140.81
493.18	1151.81
493.398	1150.81
493.615	1152.81
493.833	1166.81
494.05	1150.81
494.268	1118.81
494.485	1140.81
494.703	1178.81
494.92	1202.81
495.138	1166.81
495.355	1168.81
495.573	1172.81
495.79	1184.81
496.008	1199.81
496.225	1200.81
496.442	1228.81
496.66	1240.81
496.877	1210.81
497.094	1260.81
497.312	1232.81
497.529	1285.81
497.746	1317.81
497.963	1336.81
498.181	1318.81
498.398	1364.81
498.615	1402.81
498.832	1398.81
499.049	1502.81
499.267	1531.81
499.484	1609.81
499.701	1652.81
499.918	1699.81
500.135	1765.81
500.352	1885.81
500.569	1863.81
500.786	1842.81
501.003	1859.81
501.22	1754.81
501.437	1672.81
501.654	1634.81
501.871	1609.81
502.088	1522.81
502.305	1514.81
502.522	1446.81
502.739	1466.81
502.956	1377.81
503.172	1328.81
503.389	1309.81
503.606	1313.81
503.823	1284.81
504.04	1282.81
504.256	1222.81
504.473	1254.81
504.69	1203.81
504.907	1222.81
505.123	1178.81
505.34	1181.81
505.557	1122.81
505.773	1110.81
505.99	1107.81
506.207	1076.81
506.423	1085.81
506.64	1070.81
506.856	1072.81
507.073	1044.81
507.289	1054.81
507.506	1072.81
507.722	1026.81
507.939	1034.81
508.155	1063.81
508.372	1037.81
508.588	1014.81
508.805	1020.81
509.021	992.81
509.238	1013.81
509.454	992.81
509.67	979.81
509.887	984.81
510.103	959.81
510.319	986.81
510.536	935.81
510.752	970.81
510.968	969.81
511.184	957.81
511.401	927.81
511.617	954.81
511.833	925.81
512.049	942.81
512.265	972.81
512.481	924.81
512.698	928.81
512.914	944.81
513.13	926.81
513.346	945.81
513.562	943.81
513.778	953.81
513.994	945.81
514.21	931.81
514.426	948.81
514.642	944.81
514.858	924.81
515.074	969.81
515.29	967.81
515.506	966.81
515.721	992.81
515.937	963.81
516.153	970.81
516.369	995.81
516.585	1013.81
516.801	994.81
517.016	1011.81
517.232	1005.81
517.448	1017.81
517.664	1033.81
517.879	1035.81
518.095	1010.81
518.311	1034.81
518.527	1031.81
518.742	1020.81
518.958	1013.81
519.173	985.81
519.389	962.81
519.605	953.81
519.82	925.81
520.036	945.81
520.251	920.81
520.467	924.81
520.682	926.81
520.898	941.81
521.113	925.81
521.329	891.81
521.544	885.81
521.76	928.81
521.975	904.81
522.19	877.81
522.406	889.81
522.621	888.81
522.836	907.81
523.052	877.81
523.267	888.81
523.482	843.81
523.698	845.81
523.913	842.81
524.128	900.81
524.343	852.81
524.559	860.81
524.774	859.81
524.989	847.81
525.204	844.81
525.419	844.81
525.634	832.81
525.849	859.81
526.064	871.81
526.28	847.81
526.495	845.81
526.71	843.81
526.925	823.81
527.14	827.81
527.355	826.81
527.57	861.81
527.785	824.81
527.999	830.81
528.214	813.81
528.429	830.81
528.644	830.81
528.859	825.81
529.074	822.81
529.289	835.81
529.503	840.81
529.718	841.81
529.933	807.81
530.148	839.81
530.363	824.81
530.577	800.81
530.792	807.81
531.007	796.81
531.221	796.81
531.436	805.81
531.651	788.81
531.865	814.81
532.08	802.81
532.295	794.81
532.509	789.81
532.724	816.81
532.938	803.81
533.153	832.81
533.367	783.81
533.582	786.81
533.796	790.81
534.011	819.81
534.225	794.81
534.44	792.81
534.654	793.81
534.868	798.81
535.083	777.81
535.297	775.81
535.511	780.81
535.726	778.81
535.94	785.81
536.154	777.81
536.369	796.81
536.583	768.81
536.797	760.81
537.011	782.81
537.225	752.81
537.44	776.81
537.654	780.81
537.868	763.81
538.082	744.81
538.296	741.81
538.51	765.81
538.724	775.81
538.938	756.81
539.153	745.81
539.367	784.81
539.581	776.81
539.795	725.81
540.009	730.81
540.222	750.81
540.436	704.81
540.65	748.81
540.864	739.81
541.078	734.81
541.292	773.81
541.506	760.81
541.72	745.81
541.934	745.81
542.147	779.81
542.361	729.81
542.575	743.81
542.789	723.81
543.002	737.81
543.216	741.81
543.43	742.81
543.644	739.81
543.857	740.81
544.071	725.81
544.285	772.81
544.498	744.81
544.712	744.81
544.925	713.81
545.139	733.81
545.352	725.81
545.566	744.81
545.779	729.81
545.993	734.81
546.206	756.81
546.42	734.81
546.633	737.81
546.847	746.81
547.06	740.81
547.274	753.81
547.487	728.81
547.7	754.81
547.914	767.81
548.127	747.81
548.34	746.81
548.554	733.81
548.767	725.81
548.98	745.81
549.193	720.81
549.407	745.81
549.62	739.81
549.833	717.81
550.046	727.81
550.259	716.81
550.473	726.81
550.686	728.81
550.899	739.81
551.112	718.81
551.325	714.81
551.538	721.81
551.751	720.81
551.964	725.81
552.177	730.81
552.39	713.81
552.603	727.81
552.816	726.81
553.029	738.81
553.242	735.81
553.455	729.81
553.667	765.81
553.88	741.81
554.093	708.81
554.306	728.81
554.519	688.81
554.732	701.81
554.944	708.81
555.157	690.81
555.37	668.81
555.583	673.81
555.795	654.81
556.008	664.81
556.221	672.81
556.433	668.81
556.646	667.81
556.859	671.81
557.071	643.81
557.284	662.81
557.496	660.81
557.709	644.81
557.921	634.81
558.134	646.81
558.346	615.81
558.559	648.81
558.771	650.81
558.984	633.81
559.196	627.81
559.409	633.81
559.621	642.81
559.833	639.81
560.046	608.81
560.258	597.81
560.47	624.81
560.683	628.81
560.895	628.81
561.107	641.81
561.32	624.81
561.532	610.81
561.744	612.81
561.956	620.81
562.168	616.81
562.381	637.81
562.593	613.81
562.805	644.81
563.017	655.81
563.229	647.81
563.441	614.81
563.653	622.81
563.865	642.81
564.077	617.81
564.289	652.81
564.501	656.81
564.713	648.81
564.925	673.81
565.137	660.81
565.349	636.81
565.561	675.81
565.773	699.81
565.985	688.81
566.197	717.81
566.408	702.81
566.62	720.81
566.832	736.81
567.044	733.81
567.255	749.81
567.467	740.81
567.679	749.81
567.891	756.81
568.102	749.81
568.314	723.81
568.526	723.81
568.737	714.81
568.949	688.81
569.161	671.81
569.372	632.81
569.584	616.81
569.795	621.81
570.007	634.81
570.218	608.81
570.43	621.81
570.641	606.81
570.853	583.81
571.064	594.81
571.276	567.81
571.487	588.81
571.698	563.81
571.91	558.81
572.121	542.81
572.333	555.81
572.544	557.81
572.755	528.81
572.966	519.81
573.178	517.81
573.389	497.81
573.6	523.81
573.811	485.81
574.023	515.81
574.234	512.81
574.445	493.81
574.656	503.81
574.867	498.81
575.078	488.81
575.289	492.81
575.501	499.81
575.712	491.81
575.923	480.81
576.134	482.81
576.345	478.81
576.556	474.81
576.767	493.81
576.978	501.81
577.188	482.81
577.399	472.81
577.61	480.81
577.821	470.81
578.032	487.81
578.243	449.81
578.454	444.81
578.665	487.81
578.875	467.81
579.086	474.81
579.297	445.81
579.508	454.81
579.718	449.81
579.929	451.81
580.14	443.81
580.35	435.81
580.561	448.81
580.772	429.81
580.982	446.81
581.193	441.81
581.403	441.81
581.614	412.81
581.825	427.81
582.035	434.81
582.246	442.81
582.456	442.81
582.667	419.81
582.877	421.81
583.087	439.81
583.298	414.81
583.508	404.81
583.719	403.81
583.929	416.81
584.139	402.81
584.35	408.81
584.56	433.81
584.77	420.81
584.981	418.81
585.191	411.81
585.401	424.81
585.611	412.81
585.821	411.81
586.032	414.81
586.242	421.81
586.452	401.81
586.662	410.81
586.872	424.81
587.082	417.81
587.292	408.81
587.502	410.81
587.713	408.81
587.923	391.81
588.133	395.81
588.343	413.81
588.553	397.81
588.762	393.81
588.972	402.81
589.182	451.81
589.392	441.81
589.602	402.81
589.812	397.81
590.022	410.81
590.232	398.81
590.441	407.81
590.651	396.81
590.861	388.81
591.071	412.81
591.281	405.81
591.49	420.81
591.7	412.81
591.91	413.81
592.119	416.81
592.329	419.81
592.539	413.81
592.748	421.81
592.958	439.81
593.167	412.81
593.377	413.81
593.587	421.81
593.796	420.81
594.006	411.81
594.215	416.81
594.424	424.81
594.634	417.81
594.843	400.81
595.053	393.81
595.262	397.81
595.472	396.81
595.681	386.81
595.89	392.81
596.1	396.81
596.309	398.81
596.518	375.81
596.727	381.81
596.937	363.81
597.146	368.81
597.355	353.81
597.564	362.81
597.774	377.81
597.983	362.81
598.192	340.81
598.401	363.81
598.61	345.81
598.819	335.81
599.028	341.81
599.237	329.81
599.446	344.81
599.655	355.81
599.864	339.81
600.073	315.81
600.282	343.81
600.491	343.81
600.7	361.81
600.909	342.81
601.118	352.81
601.327	345.81
601.536	349.81
601.745	330.81
601.953	337.81
602.162	336.81
602.371	331.81
602.58	325.81
602.789	335.81
602.997	334.81
603.206	331.81
603.415	340.81
603.623	333.81
603.832	330.81
604.041	337.81
604.249	328.81
604.458	319.81
604.666	320.81
604.875	323.81
605.084	317.81
605.292	316.81
605.501	302.81
605.709	318.81
605.918	322.81
606.126	332.81
606.334	311.81
606.543	326.81
606.751	322.81
606.96	317.81
607.168	310.81
607.376	310.81
607.585	305.81
607.793	321.81
608.001	307.81
608.21	299.81
608.418	308.81
608.626	307.81
608.834	320.81
609.043	305.81
609.251	302.81
609.459	298.81
609.667	313.81
609.875	314.81
610.083	289.81
610.291	294.81
610.499	298.81
610.707	293.81
610.916	320.81
611.124	293.81
611.332	296.81
611.54	294.81
611.748	276.81
611.955	305.81
612.163	312.81
612.371	308.81
612.579	305.81
612.787	306.81
612.995	301.81
613.203	292.81
613.411	312.81
613.618	319.81
613.826	298.81
614.034	276.81
614.242	306.81
614.449	296.81
614.657	278.81
614.865	298.81
615.072	287.81
615.28	278.81
615.488	289.81
615.695	295.81
615.903	283.81
616.111	293.81
616.318	287.81
616.526	295.81
616.733	296.81
616.941	289.81
617.148	296.81
617.356	281.81
617.563	268.81
617.771	282.81
617.978	279.81
618.185	281.81
618.393	280.81
618.6	298.81
618.807	279.81
619.015	282.81
619.222	288.81
619.429	276.81
619.637	274.81
619.844	279.81
620.051	283.81
620.258	278.81
620.466	267.81
620.673	272.81
620.88	267.81
621.087	264.81
621.294	284.81
621.501	260.81
621.708	260.81
621.915	274.81
622.122	266.81
622.329	274.81
622.536	259.81
622.743	276.81
622.95	266.81
623.157	256.81
623.364	260.81
623.571	261.81
623.778	277.81
623.985	259.81
624.192	282.81
624.399	282.81
624.606	269.81
624.812	254.81
625.019	272.81
625.226	258.81
625.433	264.81
625.639	239.81
625.846	254.81
626.053	235.81
626.259	246.81
626.466	250.81
626.673	251.81
626.879	250.81
627.086	255.81
627.293	238.81
627.499	264.81
627.706	249.81
627.912	263.81
628.119	258.81
628.325	252.81
628.532	251.81
628.738	237.81
628.945	246.81
629.151	256.81
629.357	248.81
629.564	234.81
629.77	234.81
629.976	238.81
630.183	239.81
630.389	240.81
630.595	245.81
630.802	242.81
631.008	231.81
631.214	216.81
631.42	238.81
631.627	240.81
631.833	234.81
632.039	227.81
632.245	251.81
632.451	221.81
632.657	236.81
632.863	233.81
633.069	222.81
633.275	235.81
633.481	216.81
633.688	220.81
633.893	236.81
634.099	229.81
634.305	223.81
634.511	240.81
634.717	217.81
634.923	228.81
635.129	225.81
635.335	231.81
635.541	222.81
635.747	216.81
635.952	217.81
636.158	238.81
636.364	218.81
636.57	242.81
636.775	226.81
636.981	219.81
637.187	224.81
637.392	216.81
637.598	230.81
637.804	217.81
638.009	213.81
638.215	229.81
638.421	229.81
638.626	208.81
638.832	200.81
639.037	233.81
639.243	213.81
639.448	226.81
639.654	203.81
639.859	206.81
640.065	211.81
640.27	216.81
640.475	210.81
640.681	204.81
640.886	217.81
641.091	204.81
641.297	212.81
641.502	214.81
641.707	208.81
641.913	218.81
642.118	197.81
642.323	214.81
642.528	207.81
642.733	208.81
642.939	229.81
643.144	217.81
643.349	219.81
643.554	198.81
643.759	208.81
643.964	216.81
644.169	220.81
644.374	195.81
644.579	195.81
644.784	203.81
644.989	192.81
645.194	215.81
645.399	213.81
645.604	201.81
645.809	217.81
646.014	205.81
646.219	193.81
646.423	214.81
646.628	213.81
646.833	198.81
647.038	216.81
647.243	214.81
647.447	188.81
647.652	212.81
647.857	206.81
648.062	204.81
648.266	206.81
648.471	210.81
648.676	205.81
648.88	212.81
649.085	204.81
649.289	209.81
649.494	211.81
649.698	215.81
649.903	198.81
650.107	213.81
650.312	216.81
650.516	211.81
650.721	217.81
650.925	200.81
651.13	201.81
651.334	189.81
651.539	189.81
651.743	210.81
651.947	191.81
652.152	206.81
652.356	178.81
652.56	209.81
652.764	183.81
652.969	173.81
653.173	201.81
653.377	197.81
653.581	181.81
653.785	193.81
653.99	179.81
654.194	186.81
654.398	178.81
654.602	185.81
654.806	184.81
655.01	177.81
655.214	182.81
655.418	187.81
655.622	188.81
655.826	172.81
656.03	178.81
656.234	192.81
656.438	181.81
656.642	167.81
656.846	156.81
657.049	176.81
657.253	169.81
657.457	160.81
657.661	157.81
657.865	154.81
658.068	143.81
658.272	145.81
658.476	142.81
658.68	131.81
658.883	121.81
659.087	118.81
659.291	109.81
659.494	112.81
659.698	109.81
659.901	106.81
660.105	112.81
660.309	120.81
660.512	126.81
660.716	106.81
660.919	115.81
661.123	91.81
661.326	97.81
661.53	94.81
661.733	81.81
661.936	102.81
662.14	91.81
662.343	100.81
662.546	100.81
662.75	98.81
662.953	81.81
663.156	89.81
663.36	87.81
663.563	73.81
663.766	83.81
663.969	82.81
664.173	82.81
664.376	92.81
664.579	80.81
664.782	89.81
664.985	83.81
665.188	78.81
665.391	79.81
665.594	72.81
665.797	79.81
666	65.81
666.203	84.81
666.406	73.81
666.609	74.81
666.812	82.81
667.015	67.81
667.218	84.81
667.421	84.81
667.624	78.81
667.827	74.81
668.03	75.81
668.232	78.81
668.435	85.81
668.638	72.81
668.841	91.81
669.043	96.81
669.246	82.81
669.449	99.81
669.651	79.81
669.854	84.81
670.057	87.81
670.259	62.81
670.462	92.81
670.665	81.81
670.867	85.81
671.07	69.81
671.272	76.81
671.475	95.81
671.677	84.81
671.88	82.81
672.082	89.81
672.284	84.81
672.487	80.81
672.689	86.81
672.892	86.81
