Data from Ni(NO3)2Standard.Agarose3%.GreenCap.LampEnergy5.5.E.O_HRD10591_14-39-56-187.txt Node
Date: Mon Jul 22 14:39:56 EDT 2019
User: cochatt
Spectrometer: HR+D1059
Trigger mode: 1
Integration Time (sec): 1.000000E-1
Scans to average: 1
Electric dark correction enabled: true
Nonlinearity correction enabled: false
Boxcar width: 0
XAxis mode: Wavelengths
Number of Pixels in Spectrum: 2048
>>>>>Begin Spectral Data<<<<<
223.165	-20.62
223.4	-20.62
223.635	-20.62
223.869	-9.62
224.104	-26.62
224.338	-21.62
224.573	-2.62
224.808	-9.62
225.042	5.38
225.277	-12.62
225.511	-12.62
225.746	7.38
225.98	0.38
226.215	19.38
226.449	13.38
226.683	19.38
226.918	23.38
227.152	27.38
227.387	36.38
227.621	51.38
227.856	39.38
228.09	45.38
228.324	46.38
228.559	66.38
228.793	65.38
229.027	76.38
229.262	63.38
229.496	64.38
229.73	80.38
229.964	84.38
230.199	84.38
230.433	80.38
230.667	79.38
230.901	90.38
231.136	81.38
231.37	90.38
231.604	78.38
231.838	92.38
232.072	89.38
232.306	86.38
232.541	83.38
232.775	82.38
233.009	80.38
233.243	91.38
233.477	93.38
233.711	102.38
233.945	90.38
234.179	78.38
234.413	100.38
234.647	64.38
234.881	87.38
235.115	90.38
235.349	83.38
235.583	83.38
235.817	84.38
236.051	73.38
236.285	74.38
236.519	74.38
236.753	80.38
236.987	83.38
237.221	94.38
237.455	85.38
237.689	89.38
237.922	93.38
238.156	85.38
238.39	81.38
238.624	85.38
238.858	74.38
239.091	86.38
239.325	90.38
239.559	82.38
239.793	84.38
240.027	75.38
240.26	74.38
240.494	99.38
240.728	81.38
240.961	82.38
241.195	89.38
241.429	79.38
241.662	79.38
241.896	83.38
242.13	76.38
242.363	81.38
242.597	76.38
242.83	78.38
243.064	84.38
243.298	81.38
243.531	91.38
243.765	98.38
243.998	78.38
244.232	92.38
244.465	91.38
244.699	88.38
244.932	81.38
245.166	92.38
245.399	89.38
245.633	74.38
245.866	93.38
246.099	89.38
246.333	96.38
246.566	79.38
246.8	90.38
247.033	84.38
247.266	83.38
247.5	88.38
247.733	87.38
247.966	79.38
248.2	79.38
248.433	92.38
248.666	94.38
248.899	91.38
249.133	88.38
249.366	83.38
249.599	71.38
249.832	94.38
250.066	85.38
250.299	71.38
250.532	86.38
250.765	92.38
250.998	91.38
251.231	86.38
251.465	88.38
251.698	83.38
251.931	92.38
252.164	91.38
252.397	71.38
252.63	74.38
252.863	88.38
253.096	80.38
253.329	91.38
253.562	75.38
253.795	86.38
254.028	96.38
254.261	73.38
254.494	81.38
254.727	79.38
254.96	87.38
255.193	86.38
255.426	90.38
255.659	83.38
255.892	94.38
256.124	81.38
256.357	83.38
256.59	80.38
256.823	81.38
257.056	95.38
257.289	99.38
257.521	97.38
257.754	87.38
257.987	78.38
258.22	81.38
258.452	88.38
258.685	88.38
258.918	75.38
259.151	89.38
259.383	99.38
259.616	97.38
259.849	88.38
260.081	81.38
260.314	88.38
260.547	98.38
260.779	103.38
261.012	80.38
261.244	87.38
261.477	107.38
261.71	97.38
261.942	88.38
262.175	86.38
262.407	92.38
262.64	83.38
262.872	78.38
263.105	80.38
263.337	95.38
263.57	94.38
263.802	102.38
264.035	89.38
264.267	76.38
264.499	95.38
264.732	105.38
264.964	79.38
265.197	86.38
265.429	98.38
265.661	96.38
265.894	87.38
266.126	93.38
266.358	97.38
266.591	95.38
266.823	90.38
267.055	76.38
267.287	88.38
267.52	82.38
267.752	82.38
267.984	92.38
268.216	94.38
268.448	90.38
268.681	90.38
268.913	99.38
269.145	76.38
269.377	83.38
269.609	93.38
269.841	95.38
270.073	92.38
270.306	90.38
270.538	99.38
270.77	92.38
271.002	93.38
271.234	91.38
271.466	92.38
271.698	82.38
271.93	85.38
272.162	92.38
272.394	93.38
272.626	87.38
272.858	79.38
273.09	109.38
273.322	83.38
273.553	74.38
273.785	97.38
274.017	85.38
274.249	93.38
274.481	93.38
274.713	89.38
274.945	78.38
275.176	85.38
275.408	92.38
275.64	85.38
275.872	107.38
276.104	82.38
276.335	79.38
276.567	90.38
276.799	96.38
277.031	81.38
277.262	94.38
277.494	95.38
277.726	86.38
277.957	84.38
278.189	96.38
278.421	96.38
278.652	89.38
278.884	89.38
279.115	90.38
279.347	92.38
279.579	88.38
279.81	74.38
280.042	90.38
280.273	87.38
280.505	94.38
280.736	95.38
280.968	89.38
281.199	93.38
281.431	88.38
281.662	91.38
281.894	86.38
282.125	71.38
282.356	93.38
282.588	88.38
282.819	96.38
283.051	97.38
283.282	97.38
283.513	91.38
283.745	89.38
283.976	88.38
284.207	97.38
284.439	104.38
284.67	81.38
284.901	95.38
285.132	90.38
285.364	78.38
285.595	106.38
285.826	97.38
286.057	87.38
286.288	79.38
286.52	108.38
286.751	96.38
286.982	98.38
287.213	94.38
287.444	96.38
287.675	95.38
287.906	89.38
288.138	88.38
288.369	97.38
288.6	92.38
288.831	96.38
289.062	85.38
289.293	91.38
289.524	70.38
289.755	100.38
289.986	86.38
290.217	103.38
290.448	83.38
290.679	101.38
290.91	88.38
291.141	98.38
291.371	94.38
291.602	92.38
291.833	84.38
292.064	86.38
292.295	99.38
292.526	90.38
292.757	86.38
292.987	83.38
293.218	78.38
293.449	83.38
293.68	93.38
293.91	100.38
294.141	84.38
294.372	109.38
294.603	76.38
294.833	90.38
295.064	93.38
295.295	82.38
295.525	92.38
295.756	84.38
295.987	100.38
296.217	88.38
296.448	82.38
296.679	92.38
296.909	98.38
297.14	89.38
297.37	96.38
297.601	93.38
297.831	104.38
298.062	82.38
298.292	85.38
298.523	94.38
298.753	98.38
298.984	90.38
299.214	92.38
299.445	90.38
299.675	98.38
299.905	100.38
300.136	88.38
300.366	90.38
300.597	98.38
300.827	90.38
301.057	83.38
301.288	96.38
301.518	88.38
301.748	92.38
301.979	93.38
302.209	104.38
302.439	92.38
302.669	103.38
302.9	86.38
303.13	94.38
303.36	88.38
303.59	86.38
303.82	87.38
304.051	84.38
304.281	75.38
304.511	96.38
304.741	101.38
304.971	78.38
305.201	92.38
305.431	102.38
305.661	89.38
305.891	89.38
306.121	99.38
306.352	83.38
306.582	82.38
306.812	89.38
307.042	87.38
307.272	98.38
307.502	85.38
307.731	84.38
307.961	92.38
308.191	100.38
308.421	98.38
308.651	110.38
308.881	89.38
309.111	90.38
309.341	111.38
309.571	94.38
309.8	96.38
310.03	99.38
310.26	87.38
310.49	79.38
310.72	100.38
310.949	85.38
311.179	75.38
311.409	89.38
311.639	99.38
311.868	83.38
312.098	102.38
312.328	90.38
312.557	91.38
312.787	94.38
313.017	94.38
313.246	83.38
313.476	90.38
313.706	98.38
313.935	91.38
314.165	81.38
314.394	86.38
314.624	81.38
314.853	110.38
315.083	102.38
315.312	100.38
315.542	94.38
315.771	102.38
316.001	96.38
316.23	84.38
316.46	85.38
316.689	83.38
316.919	102.38
317.148	98.38
317.377	78.38
317.607	86.38
317.836	92.38
318.065	81.38
318.295	99.38
318.524	85.38
318.753	86.38
318.983	107.38
319.212	86.38
319.441	82.38
319.67	83.38
319.9	91.38
320.129	84.38
320.358	85.38
320.587	86.38
320.816	80.38
321.046	73.38
321.275	96.38
321.504	92.38
321.733	100.38
321.962	89.38
322.191	88.38
322.42	79.38
322.649	82.38
322.878	100.38
323.108	85.38
323.337	101.38
323.566	100.38
323.795	74.38
324.024	96.38
324.253	81.38
324.482	88.38
324.71	103.38
324.939	91.38
325.168	95.38
325.397	94.38
325.626	87.38
325.855	94.38
326.084	106.38
326.313	94.38
326.542	84.38
326.77	89.38
326.999	87.38
327.228	89.38
327.457	95.38
327.686	80.38
327.914	106.38
328.143	96.38
328.372	77.38
328.6	85.38
328.829	88.38
329.058	99.38
329.287	86.38
329.515	92.38
329.744	110.38
329.972	86.38
330.201	95.38
330.43	94.38
330.658	96.38
330.887	99.38
331.115	90.38
331.344	114.38
331.572	101.38
331.801	99.38
332.03	96.38
332.258	86.38
332.486	89.38
332.715	92.38
332.943	93.38
333.172	90.38
333.4	92.38
333.629	98.38
333.857	98.38
334.085	89.38
334.314	92.38
334.542	95.38
334.771	90.38
334.999	90.38
335.227	78.38
335.455	88.38
335.684	103.38
335.912	99.38
336.14	96.38
336.369	83.38
336.597	99.38
336.825	96.38
337.053	90.38
337.281	94.38
337.51	87.38
337.738	113.38
337.966	99.38
338.194	90.38
338.422	97.38
338.65	99.38
338.878	84.38
339.106	113.38
339.334	84.38
339.562	95.38
339.79	91.38
340.018	100.38
340.246	83.38
340.474	91.38
340.702	98.38
340.93	90.38
341.158	98.38
341.386	100.38
341.614	86.38
341.842	91.38
342.07	91.38
342.298	92.38
342.526	91.38
342.754	99.38
342.981	100.38
343.209	106.38
343.437	88.38
343.665	98.38
343.893	107.38
344.12	113.38
344.348	92.38
344.576	95.38
344.804	88.38
345.031	85.38
345.259	93.38
345.487	99.38
345.714	103.38
345.942	108.38
346.17	96.38
346.397	94.38
346.625	90.38
346.853	81.38
347.08	83.38
347.308	94.38
347.535	93.38
347.763	83.38
347.99	102.38
348.218	82.38
348.445	83.38
348.673	93.38
348.9	95.38
349.128	82.38
349.355	94.38
349.583	90.38
349.81	91.38
350.037	104.38
350.265	81.38
350.492	83.38
350.72	88.38
350.947	82.38
351.174	97.38
351.402	83.38
351.629	99.38
351.856	110.38
352.083	90.38
352.311	98.38
352.538	96.38
352.765	87.38
352.992	106.38
353.22	96.38
353.447	90.38
353.674	107.38
353.901	92.38
354.128	84.38
354.355	82.38
354.583	78.38
354.81	84.38
355.037	92.38
355.264	91.38
355.491	93.38
355.718	91.38
355.945	81.38
356.172	93.38
356.399	95.38
356.626	83.38
356.853	82.38
357.08	96.38
357.307	88.38
357.534	101.38
357.761	96.38
357.988	88.38
358.215	82.38
358.441	100.38
358.668	95.38
358.895	94.38
359.122	92.38
359.349	100.38
359.576	91.38
359.802	83.38
360.029	88.38
360.256	78.38
360.483	103.38
360.709	76.38
360.936	89.38
361.163	84.38
361.39	91.38
361.616	91.38
361.843	94.38
362.07	78.38
362.296	90.38
362.523	84.38
362.749	90.38
362.976	85.38
363.203	90.38
363.429	89.38
363.656	106.38
363.882	91.38
364.109	91.38
364.335	92.38
364.562	95.38
364.788	99.38
365.015	99.38
365.241	91.38
365.468	81.38
365.694	90.38
365.92	90.38
366.147	88.38
366.373	81.38
366.599	90.38
366.826	76.38
367.052	92.38
367.278	96.38
367.505	90.38
367.731	83.38
367.957	97.38
368.184	98.38
368.41	88.38
368.636	93.38
368.862	93.38
369.089	86.38
369.315	98.38
369.541	98.38
369.767	93.38
369.993	104.38
370.219	84.38
370.445	87.38
370.672	87.38
370.898	91.38
371.124	78.38
371.35	100.38
371.576	94.38
371.802	85.38
372.028	103.38
372.254	87.38
372.48	111.38
372.706	103.38
372.932	110.38
373.158	93.38
373.384	96.38
373.61	67.38
373.835	75.38
374.061	83.38
374.287	98.38
374.513	84.38
374.739	106.38
374.965	78.38
375.191	90.38
375.416	80.38
375.642	97.38
375.868	105.38
376.094	80.38
376.319	76.38
376.545	91.38
376.771	83.38
376.997	88.38
377.222	90.38
377.448	90.38
377.674	92.38
377.899	87.38
378.125	93.38
378.35	89.38
378.576	79.38
378.802	90.38
379.027	83.38
379.253	94.38
379.478	88.38
379.704	96.38
379.929	97.38
380.155	99.38
380.38	96.38
380.606	96.38
380.831	88.38
381.057	98.38
381.282	82.38
381.507	91.38
381.733	87.38
381.958	99.38
382.184	89.38
382.409	96.38
382.634	87.38
382.86	101.38
383.085	91.38
383.31	88.38
383.535	97.38
383.761	88.38
383.986	88.38
384.211	94.38
384.436	94.38
384.662	100.38
384.887	97.38
385.112	93.38
385.337	99.38
385.562	93.38
385.787	92.38
386.013	103.38
386.238	84.38
386.463	105.38
386.688	103.38
386.913	96.38
387.138	93.38
387.363	89.38
387.588	100.38
387.813	88.38
388.038	95.38
388.263	96.38
388.488	89.38
388.713	103.38
388.938	94.38
389.163	94.38
389.387	82.38
389.612	75.38
389.837	91.38
390.062	88.38
390.287	100.38
390.512	95.38
390.736	83.38
390.961	85.38
391.186	91.38
391.411	91.38
391.636	84.38
391.86	94.38
392.085	91.38
392.31	88.38
392.534	84.38
392.759	91.38
392.984	88.38
393.208	103.38
393.433	91.38
393.658	90.38
393.882	95.38
394.107	85.38
394.331	87.38
394.556	91.38
394.78	101.38
395.005	79.38
395.229	87.38
395.454	77.38
395.678	92.38
395.903	88.38
396.127	89.38
396.352	91.38
396.576	92.38
396.801	94.38
397.025	97.38
397.249	94.38
397.474	78.38
397.698	93.38
397.922	99.38
398.147	84.38
398.371	98.38
398.595	88.38
398.82	91.38
399.044	84.38
399.268	86.38
399.492	92.38
399.717	92.38
399.941	92.38
400.165	92.38
400.389	90.38
400.613	86.38
400.837	68.38
401.062	92.38
401.286	92.38
401.51	100.38
401.734	92.38
401.958	109.38
402.182	92.38
402.406	94.38
402.63	82.38
402.854	90.38
403.078	78.38
403.302	77.38
403.526	96.38
403.75	100.38
403.974	83.38
404.198	89.38
404.422	85.38
404.645	83.38
404.869	100.38
405.093	91.38
405.317	90.38
405.541	89.38
405.765	96.38
405.988	98.38
406.212	91.38
406.436	90.38
406.66	81.38
406.883	87.38
407.107	88.38
407.331	108.38
407.555	107.38
407.778	95.38
408.002	89.38
408.226	96.38
408.449	78.38
408.673	104.38
408.896	95.38
409.12	93.38
409.344	91.38
409.567	83.38
409.791	89.38
410.014	100.38
410.238	93.38
410.461	93.38
410.685	91.38
410.908	95.38
411.132	89.38
411.355	108.38
411.578	95.38
411.802	94.38
412.025	98.38
412.249	93.38
412.472	92.38
412.695	86.38
412.919	102.38
413.142	100.38
413.365	108.38
413.589	85.38
413.812	109.38
414.035	106.38
414.258	96.38
414.482	100.38
414.705	106.38
414.928	104.38
415.151	103.38
415.374	95.38
415.597	107.38
415.821	87.38
416.044	81.38
416.267	90.38
416.49	88.38
416.713	103.38
416.936	84.38
417.159	78.38
417.382	111.38
417.605	85.38
417.828	82.38
418.051	84.38
418.274	87.38
418.497	94.38
418.72	94.38
418.943	97.38
419.166	93.38
419.389	89.38
419.611	105.38
419.834	104.38
420.057	94.38
420.28	82.38
420.503	81.38
420.726	86.38
420.948	87.38
421.171	99.38
421.394	77.38
421.617	94.38
421.839	91.38
422.062	94.38
422.285	91.38
422.507	89.38
422.73	95.38
422.953	74.38
423.175	94.38
423.398	92.38
423.621	88.38
423.843	87.38
424.066	83.38
424.288	99.38
424.511	106.38
424.733	89.38
424.956	79.38
425.178	99.38
425.401	91.38
425.623	107.38
425.846	99.38
426.068	101.38
426.291	88.38
426.513	99.38
426.735	112.38
426.958	85.38
427.18	102.38
427.402	95.38
427.625	102.38
427.847	96.38
428.069	81.38
428.292	102.38
428.514	78.38
428.736	83.38
428.958	85.38
429.181	87.38
429.403	97.38
429.625	97.38
429.847	83.38
430.069	83.38
430.292	90.38
430.514	90.38
430.736	95.38
430.958	86.38
431.18	87.38
431.402	84.38
431.624	83.38
431.846	93.38
432.068	98.38
432.29	98.38
432.512	84.38
432.734	90.38
432.956	90.38
433.178	99.38
433.4	96.38
433.622	80.38
433.844	83.38
434.066	83.38
434.287	88.38
434.509	98.38
434.731	90.38
434.953	91.38
435.175	84.38
435.397	102.38
435.618	85.38
435.84	90.38
436.062	83.38
436.284	109.38
436.505	80.38
436.727	90.38
436.949	85.38
437.17	93.38
437.392	92.38
437.614	87.38
437.835	80.38
438.057	95.38
438.278	84.38
438.5	91.38
438.721	98.38
438.943	94.38
439.165	83.38
439.386	73.38
439.608	92.38
439.829	84.38
440.05	99.38
440.272	98.38
440.493	81.38
440.715	104.38
440.936	98.38
441.158	101.38
441.379	91.38
441.6	105.38
441.822	88.38
442.043	81.38
442.264	90.38
442.486	90.38
442.707	97.38
442.928	88.38
443.149	102.38
443.371	99.38
443.592	96.38
443.813	91.38
444.034	94.38
444.255	80.38
444.476	88.38
444.698	92.38
444.919	91.38
445.14	210.38
445.361	152.38
445.582	103.38
445.803	109.38
446.024	78.38
446.245	85.38
446.466	82.38
446.687	100.38
446.908	105.38
447.129	77.38
447.35	83.38
447.571	105.38
447.792	78.38
448.013	111.38
448.234	95.38
448.455	90.38
448.675	91.38
448.896	102.38
449.117	101.38
449.338	93.38
449.559	103.38
449.779	89.38
450	77.38
450.221	86.38
450.442	97.38
450.662	90.38
450.883	88.38
451.104	105.38
451.324	77.38
451.545	95.38
451.766	96.38
451.986	89.38
452.207	85.38
452.428	87.38
452.648	91.38
452.869	93.38
453.089	93.38
453.31	82.38
453.53	95.38
453.751	88.38
453.971	86.38
454.192	76.38
454.412	94.38
454.633	95.38
454.853	82.38
455.073	83.38
455.294	100.38
455.514	92.38
455.734	88.38
455.955	93.38
456.175	90.38
456.395	89.38
456.616	78.38
456.836	91.38
457.056	102.38
457.276	104.38
457.497	90.38
457.717	85.38
457.937	95.38
458.157	87.38
458.377	99.38
458.598	88.38
458.818	86.38
459.038	94.38
459.258	95.38
459.478	78.38
459.698	82.38
459.918	104.38
460.138	88.38
460.358	95.38
460.578	89.38
460.798	104.38
461.018	89.38
461.238	98.38
461.458	112.38
461.678	106.38
461.898	97.38
462.118	98.38
462.338	87.38
462.558	97.38
462.777	90.38
462.997	99.38
463.217	94.38
463.437	95.38
463.657	90.38
463.876	90.38
464.096	101.38
464.316	114.38
464.536	101.38
464.755	81.38
464.975	102.38
465.195	95.38
465.414	106.38
465.634	94.38
465.854	89.38
466.073	117.38
466.293	95.38
466.512	95.38
466.732	94.38
466.951	98.38
467.171	87.38
467.391	92.38
467.61	87.38
467.829	84.38
468.049	101.38
468.268	96.38
468.488	98.38
468.707	92.38
468.927	89.38
469.146	101.38
469.365	93.38
469.585	88.38
469.804	81.38
470.023	99.38
470.243	96.38
470.462	102.38
470.681	94.38
470.901	96.38
471.12	97.38
471.339	99.38
471.558	92.38
471.777	93.38
471.997	97.38
472.216	79.38
472.435	94.38
472.654	92.38
472.873	101.38
473.092	89.38
473.311	88.38
473.53	98.38
473.749	99.38
473.968	93.38
474.187	104.38
474.406	99.38
474.625	105.38
474.844	86.38
475.063	97.38
475.282	105.38
475.501	102.38
475.72	99.38
475.939	100.38
476.158	87.38
476.377	104.38
476.596	75.38
476.814	84.38
477.033	93.38
477.252	88.38
477.471	98.38
477.69	108.38
477.908	96.38
478.127	100.38
478.346	103.38
478.564	112.38
478.783	99.38
479.002	84.38
479.22	91.38
479.439	91.38
479.658	99.38
479.876	88.38
480.095	98.38
480.313	108.38
480.532	98.38
480.751	105.38
480.969	87.38
481.188	86.38
481.406	107.38
481.624	105.38
481.843	95.38
482.061	106.38
482.28	94.38
482.498	99.38
482.717	110.38
482.935	91.38
483.153	88.38
483.372	99.38
483.59	102.38
483.808	101.38
484.027	96.38
484.245	108.38
484.463	103.38
484.681	110.38
484.9	119.38
485.118	84.38
485.336	100.38
485.554	104.38
485.772	92.38
485.99	102.38
486.209	92.38
486.427	99.38
486.645	104.38
486.863	95.38
487.081	84.38
487.299	90.38
487.517	106.38
487.735	104.38
487.953	96.38
488.171	103.38
488.389	93.38
488.607	106.38
488.825	97.38
489.043	106.38
489.261	99.38
489.479	105.38
489.696	97.38
489.914	101.38
490.132	112.38
490.35	109.38
490.568	103.38
490.786	109.38
491.003	114.38
491.221	107.38
491.439	88.38
491.657	104.38
491.874	106.38
492.092	100.38
492.31	103.38
492.527	94.38
492.745	99.38
492.963	102.38
493.18	109.38
493.398	113.38
493.615	88.38
493.833	103.38
494.05	98.38
494.268	107.38
494.485	122.38
494.703	99.38
494.92	96.38
495.138	104.38
495.355	103.38
495.573	97.38
495.79	103.38
496.008	110.38
496.225	113.38
496.442	110.38
496.66	99.38
496.877	88.38
497.094	116.38
497.312	85.38
497.529	92.38
497.746	111.38
497.963	102.38
498.181	107.38
498.398	106.38
498.615	104.38
498.832	108.38
499.049	107.38
499.267	112.38
499.484	113.38
499.701	123.38
499.918	106.38
500.135	118.38
500.352	123.38
500.569	101.38
500.786	118.38
501.003	120.38
501.22	105.38
501.437	120.38
501.654	105.38
501.871	104.38
502.088	120.38
502.305	108.38
502.522	105.38
502.739	118.38
502.956	96.38
503.172	114.38
503.389	96.38
503.606	98.38
503.823	106.38
504.04	115.38
504.256	110.38
504.473	100.38
504.69	99.38
504.907	101.38
505.123	103.38
505.34	111.38
505.557	104.38
505.773	96.38
505.99	105.38
506.207	105.38
506.423	100.38
506.64	88.38
506.856	107.38
507.073	101.38
507.289	107.38
507.506	106.38
507.722	104.38
507.939	104.38
508.155	94.38
508.372	97.38
508.588	92.38
508.805	97.38
509.021	103.38
509.238	103.38
509.454	94.38
509.67	106.38
509.887	90.38
510.103	100.38
510.319	94.38
510.536	78.38
510.752	99.38
510.968	90.38
511.184	93.38
511.401	96.38
511.617	101.38
511.833	103.38
512.049	91.38
512.265	93.38
512.481	92.38
512.698	107.38
512.914	98.38
513.13	114.38
513.346	95.38
513.562	102.38
513.778	99.38
513.994	98.38
514.21	99.38
514.426	100.38
514.642	105.38
514.858	109.38
515.074	106.38
515.29	104.38
515.506	98.38
515.721	83.38
515.937	86.38
516.153	87.38
516.369	101.38
516.585	117.38
516.801	100.38
517.016	103.38
517.232	90.38
517.448	98.38
517.664	90.38
517.879	95.38
518.095	86.38
518.311	99.38
518.527	101.38
518.742	86.38
518.958	104.38
519.173	103.38
519.389	95.38
519.605	108.38
519.82	97.38
520.036	99.38
520.251	108.38
520.467	98.38
520.682	98.38
520.898	96.38
521.113	94.38
521.329	105.38
521.544	87.38
521.76	81.38
521.975	94.38
522.19	102.38
522.406	115.38
522.621	79.38
522.836	93.38
523.052	88.38
523.267	95.38
523.482	87.38
523.698	94.38
523.913	96.38
524.128	88.38
524.343	96.38
524.559	95.38
524.774	104.38
524.989	107.38
525.204	94.38
525.419	91.38
525.634	88.38
525.849	83.38
526.064	102.38
526.28	93.38
526.495	88.38
526.71	96.38
526.925	97.38
527.14	94.38
527.355	94.38
527.57	99.38
527.785	107.38
527.999	92.38
528.214	100.38
528.429	86.38
528.644	92.38
528.859	101.38
529.074	102.38
529.289	96.38
529.503	89.38
529.718	97.38
529.933	102.38
530.148	93.38
530.363	92.38
530.577	88.38
530.792	95.38
531.007	93.38
531.221	93.38
531.436	104.38
531.651	90.38
531.865	89.38
532.08	82.38
532.295	117.38
532.509	99.38
532.724	93.38
532.938	88.38
533.153	99.38
533.367	97.38
533.582	107.38
533.796	98.38
534.011	100.38
534.225	96.38
534.44	104.38
534.654	93.38
534.868	94.38
535.083	105.38
535.297	97.38
535.511	88.38
535.726	101.38
535.94	79.38
536.154	85.38
536.369	109.38
536.583	95.38
536.797	105.38
537.011	98.38
537.225	103.38
537.44	112.38
537.654	95.38
537.868	96.38
538.082	91.38
538.296	84.38
538.51	113.38
538.724	92.38
538.938	112.38
539.153	96.38
539.367	95.38
539.581	102.38
539.795	91.38
540.009	97.38
540.222	93.38
540.436	104.38
540.65	99.38
540.864	94.38
541.078	113.38
541.292	103.38
541.506	103.38
541.72	110.38
541.934	95.38
542.147	111.38
542.361	93.38
542.575	101.38
542.789	108.38
543.002	103.38
543.216	90.38
543.43	103.38
543.644	100.38
543.857	100.38
544.071	100.38
544.285	109.38
544.498	97.38
544.712	92.38
544.925	111.38
545.139	84.38
545.352	93.38
545.566	102.38
545.779	91.38
545.993	102.38
546.206	105.38
546.42	99.38
546.633	94.38
546.847	87.38
547.06	98.38
547.274	96.38
547.487	100.38
547.7	90.38
547.914	84.38
548.127	90.38
548.34	109.38
548.554	110.38
548.767	103.38
548.98	98.38
549.193	99.38
549.407	100.38
549.62	99.38
549.833	93.38
550.046	85.38
550.259	96.38
550.473	115.38
550.686	102.38
550.899	96.38
551.112	96.38
551.325	83.38
551.538	92.38
551.751	81.38
551.964	89.38
552.177	98.38
552.39	102.38
552.603	107.38
552.816	97.38
553.029	89.38
553.242	88.38
553.455	104.38
553.667	102.38
553.88	111.38
554.093	100.38
554.306	109.38
554.519	90.38
554.732	97.38
554.944	93.38
555.157	99.38
555.37	90.38
555.583	97.38
555.795	109.38
556.008	90.38
556.221	89.38
556.433	88.38
556.646	102.38
556.859	90.38
557.071	90.38
557.284	92.38
557.496	106.38
557.709	91.38
557.921	81.38
558.134	94.38
558.346	95.38
558.559	96.38
558.771	93.38
558.984	87.38
559.196	104.38
559.409	103.38
559.621	101.38
559.833	103.38
560.046	87.38
560.258	91.38
560.47	100.38
560.683	109.38
560.895	93.38
561.107	93.38
561.32	105.38
561.532	103.38
561.744	95.38
561.956	95.38
562.168	102.38
562.381	91.38
562.593	96.38
562.805	92.38
563.017	100.38
563.229	91.38
563.441	85.38
563.653	94.38
563.865	93.38
564.077	90.38
564.289	95.38
564.501	97.38
564.713	110.38
564.925	107.38
565.137	93.38
565.349	100.38
565.561	83.38
565.773	99.38
565.985	95.38
566.197	84.38
566.408	96.38
566.62	87.38
566.832	95.38
567.044	90.38
567.255	93.38
567.467	90.38
567.679	94.38
567.891	95.38
568.102	103.38
568.314	104.38
568.526	102.38
568.737	105.38
568.949	91.38
569.161	87.38
569.372	103.38
569.584	94.38
569.795	109.38
570.007	93.38
570.218	100.38
570.43	89.38
570.641	113.38
570.853	88.38
571.064	92.38
571.276	79.38
571.487	92.38
571.698	86.38
571.91	82.38
572.121	89.38
572.333	93.38
572.544	86.38
572.755	85.38
572.966	84.38
573.178	91.38
573.389	102.38
573.6	89.38
573.811	104.38
574.023	105.38
574.234	96.38
574.445	95.38
574.656	83.38
574.867	86.38
575.078	86.38
575.289	88.38
575.501	97.38
575.712	93.38
575.923	104.38
576.134	90.38
576.345	82.38
576.556	95.38
576.767	90.38
576.978	86.38
577.188	108.38
577.399	104.38
577.61	108.38
577.821	99.38
578.032	104.38
578.243	84.38
578.454	100.38
578.665	99.38
578.875	100.38
579.086	81.38
579.297	95.38
579.508	108.38
579.718	115.38
579.929	110.38
580.14	103.38
580.35	89.38
580.561	80.38
580.772	92.38
580.982	89.38
581.193	92.38
581.403	87.38
581.614	110.38
581.825	94.38
582.035	99.38
582.246	87.38
582.456	88.38
582.667	96.38
582.877	96.38
583.087	105.38
583.298	92.38
583.508	105.38
583.719	99.38
583.929	102.38
584.139	82.38
584.35	87.38
584.56	90.38
584.77	87.38
584.981	91.38
585.191	86.38
585.401	90.38
585.611	87.38
585.821	95.38
586.032	90.38
586.242	103.38
586.452	90.38
586.662	94.38
586.872	94.38
587.082	102.38
587.292	90.38
587.502	86.38
587.713	97.38
587.923	84.38
588.133	99.38
588.343	94.38
588.553	94.38
588.762	104.38
588.972	112.38
589.182	96.38
589.392	90.38
589.602	111.38
589.812	90.38
590.022	95.38
590.232	93.38
590.441	98.38
590.651	84.38
590.861	95.38
591.071	94.38
591.281	83.38
591.49	91.38
591.7	90.38
591.91	99.38
592.119	88.38
592.329	109.38
592.539	89.38
592.748	81.38
592.958	92.38
593.167	97.38
593.377	91.38
593.587	96.38
593.796	97.38
594.006	84.38
594.215	76.38
594.424	80.38
594.634	105.38
594.843	94.38
595.053	97.38
595.262	102.38
595.472	82.38
595.681	94.38
595.89	94.38
596.1	98.38
596.309	94.38
596.518	80.38
596.727	83.38
596.937	92.38
597.146	92.38
597.355	84.38
597.564	86.38
597.774	91.38
597.983	84.38
598.192	84.38
598.401	96.38
598.61	96.38
598.819	83.38
599.028	99.38
599.237	88.38
599.446	86.38
599.655	89.38
599.864	99.38
600.073	95.38
600.282	99.38
600.491	90.38
600.7	105.38
600.909	88.38
601.118	94.38
601.327	84.38
601.536	105.38
601.745	98.38
601.953	95.38
602.162	89.38
602.371	105.38
602.58	85.38
602.789	96.38
602.997	84.38
603.206	84.38
603.415	94.38
603.623	85.38
603.832	90.38
604.041	100.38
604.249	82.38
604.458	83.38
604.666	102.38
604.875	84.38
605.084	83.38
605.292	98.38
605.501	98.38
605.709	85.38
605.918	98.38
606.126	104.38
606.334	92.38
606.543	85.38
606.751	90.38
606.96	84.38
607.168	103.38
607.376	108.38
607.585	77.38
607.793	87.38
608.001	94.38
608.21	91.38
608.418	97.38
608.626	104.38
608.834	90.38
609.043	86.38
609.251	84.38
609.459	99.38
609.667	94.38
609.875	85.38
610.083	94.38
610.291	96.38
610.499	100.38
610.707	80.38
610.916	92.38
611.124	88.38
611.332	84.38
611.54	112.38
611.748	92.38
611.955	79.38
612.163	90.38
612.371	88.38
612.579	94.38
612.787	88.38
612.995	87.38
613.203	100.38
613.411	92.38
613.618	100.38
613.826	91.38
614.034	80.38
614.242	78.38
614.449	89.38
614.657	110.38
614.865	105.38
615.072	109.38
615.28	102.38
615.488	96.38
615.695	87.38
615.903	96.38
616.111	89.38
616.318	82.38
616.526	105.38
616.733	103.38
616.941	91.38
617.148	77.38
617.356	101.38
617.563	82.38
617.771	93.38
617.978	91.38
618.185	97.38
618.393	96.38
618.6	99.38
618.807	74.38
619.015	84.38
619.222	76.38
619.429	78.38
619.637	88.38
619.844	90.38
620.051	87.38
620.258	80.38
620.466	91.38
620.673	92.38
620.88	87.38
621.087	80.38
621.294	95.38
621.501	99.38
621.708	98.38
621.915	99.38
622.122	81.38
622.329	100.38
622.536	95.38
622.743	80.38
622.95	89.38
623.157	64.38
623.364	93.38
623.571	91.38
623.778	96.38
623.985	94.38
624.192	84.38
624.399	71.38
624.606	88.38
624.812	98.38
625.019	79.38
625.226	93.38
625.433	112.38
625.639	84.38
625.846	78.38
626.053	90.38
626.259	84.38
626.466	78.38
626.673	92.38
626.879	93.38
627.086	88.38
627.293	79.38
627.499	79.38
627.706	97.38
627.912	96.38
628.119	89.38
628.325	85.38
628.532	102.38
628.738	101.38
628.945	92.38
629.151	95.38
629.357	85.38
629.564	87.38
629.77	83.38
629.976	97.38
630.183	90.38
630.389	95.38
630.595	87.38
630.802	90.38
631.008	82.38
631.214	95.38
631.42	107.38
631.627	101.38
631.833	100.38
632.039	82.38
632.245	88.38
632.451	83.38
632.657	99.38
632.863	95.38
633.069	95.38
633.275	89.38
633.481	89.38
633.688	96.38
633.893	95.38
634.099	91.38
634.305	88.38
634.511	84.38
634.717	82.38
634.923	87.38
635.129	94.38
635.335	98.38
635.541	90.38
635.747	91.38
635.952	79.38
636.158	89.38
636.364	95.38
636.57	92.38
636.775	82.38
636.981	95.38
637.187	88.38
637.392	87.38
637.598	84.38
637.804	88.38
638.009	97.38
638.215	82.38
638.421	91.38
638.626	98.38
638.832	102.38
639.037	100.38
639.243	93.38
639.448	82.38
639.654	85.38
639.859	80.38
640.065	90.38
640.27	86.38
640.475	86.38
640.681	80.38
640.886	86.38
641.091	91.38
641.297	96.38
641.502	89.38
641.707	87.38
641.913	101.38
642.118	90.38
642.323	92.38
642.528	93.38
642.733	83.38
642.939	80.38
643.144	82.38
643.349	98.38
643.554	84.38
643.759	96.38
643.964	74.38
644.169	78.38
644.374	82.38
644.579	97.38
644.784	83.38
644.989	93.38
645.194	91.38
645.399	107.38
645.604	84.38
645.809	109.38
646.014	99.38
646.219	90.38
646.423	80.38
646.628	87.38
646.833	76.38
647.038	89.38
647.243	95.38
647.447	88.38
647.652	99.38
647.857	93.38
648.062	81.38
648.266	96.38
648.471	84.38
648.676	102.38
648.88	99.38
649.085	85.38
649.289	73.38
649.494	66.38
649.698	80.38
649.903	79.38
650.107	88.38
650.312	91.38
650.516	69.38
650.721	87.38
650.925	97.38
651.13	93.38
651.334	94.38
651.539	84.38
651.743	92.38
651.947	89.38
652.152	84.38
652.356	83.38
652.56	87.38
652.764	89.38
652.969	97.38
653.173	87.38
653.377	96.38
653.581	73.38
653.785	77.38
653.99	93.38
654.194	87.38
654.398	85.38
654.602	94.38
654.806	93.38
655.01	95.38
655.214	76.38
655.418	88.38
655.622	82.38
655.826	103.38
656.03	81.38
656.234	99.38
656.438	103.38
656.642	99.38
656.846	74.38
657.049	83.38
657.253	97.38
657.457	80.38
657.661	91.38
657.865	79.38
658.068	89.38
658.272	95.38
658.476	104.38
658.68	99.38
658.883	92.38
659.087	84.38
659.291	90.38
659.494	92.38
659.698	76.38
659.901	95.38
660.105	80.38
660.309	80.38
660.512	82.38
660.716	89.38
660.919	82.38
661.123	72.38
661.326	92.38
661.53	90.38
661.733	77.38
661.936	106.38
662.14	92.38
662.343	84.38
662.546	88.38
662.75	71.38
662.953	97.38
663.156	90.38
663.36	86.38
663.563	89.38
663.766	97.38
663.969	86.38
664.173	98.38
664.376	80.38
664.579	89.38
664.782	78.38
664.985	93.38
665.188	88.38
665.391	82.38
665.594	92.38
665.797	90.38
666	89.38
666.203	89.38
666.406	91.38
666.609	88.38
666.812	99.38
667.015	88.38
667.218	94.38
667.421	76.38
667.624	88.38
667.827	88.38
668.03	94.38
668.232	96.38
668.435	89.38
668.638	93.38
668.841	90.38
669.043	79.38
669.246	88.38
669.449	93.38
669.651	82.38
669.854	104.38
670.057	90.38
670.259	80.38
670.462	90.38
670.665	79.38
670.867	95.38
671.07	82.38
671.272	98.38
671.475	90.38
671.677	87.38
671.88	93.38
672.082	93.38
672.284	86.38
672.487	89.38
672.689	96.38
672.892	95.38
