Data from Ni(NO3)2@0.25M.TitratingCurve.Agarose3%dH2O.NegLispCup.LampEnergy10.LIBS07252019_HRD10591_18-04-23-566.txt Node
Date: Thu Jul 25 18:04:23 EDT 2019
User: cochatt
Spectrometer: HR+D1059
Trigger mode: 1
Integration Time (sec): 1.000000E-1
Scans to average: 1
Electric dark correction enabled: true
Nonlinearity correction enabled: false
Boxcar width: 0
XAxis mode: Wavelengths
Number of Pixels in Spectrum: 2048
>>>>>Begin Spectral Data<<<<<
223.165	-14.25
223.4	-14.25
223.635	-14.25
223.869	-18.25
224.104	-18.25
224.338	-8.25
224.573	-30.25
224.808	5.75
225.042	-8.25
225.277	10.75
225.511	-11.25
225.746	-0.25
225.98	10.75
226.215	10.75
226.449	3.75
226.683	20.75
226.918	26.75
227.152	19.75
227.387	37.75
227.621	26.75
227.856	55.75
228.09	35.75
228.324	51.75
228.559	65.75
228.793	69.75
229.027	122.75
229.262	144.75
229.496	152.75
229.73	150.75
229.964	142.75
230.199	146.75
230.433	172.75
230.667	155.75
230.901	172.75
231.136	167.75
231.37	176.75
231.604	181.75
231.838	184.75
232.072	200.75
232.306	168.75
232.541	193.75
232.775	187.75
233.009	200.75
233.243	178.75
233.477	175.75
233.711	185.75
233.945	184.75
234.179	183.75
234.413	186.75
234.647	187.75
234.881	184.75
235.115	184.75
235.349	191.75
235.583	184.75
235.817	187.75
236.051	190.75
236.285	199.75
236.519	185.75
236.753	188.75
236.987	193.75
237.221	193.75
237.455	211.75
237.689	196.75
237.922	211.75
238.156	214.75
238.39	197.75
238.624	209.75
238.858	215.75
239.091	208.75
239.325	220.75
239.559	230.75
239.793	232.75
240.027	240.75
240.26	228.75
240.494	221.75
240.728	218.75
240.961	233.75
241.195	251.75
241.429	236.75
241.662	236.75
241.896	242.75
242.13	255.75
242.363	249.75
242.597	256.75
242.83	247.75
243.064	229.75
243.298	252.75
243.531	264.75
243.765	265.75
243.998	275.75
244.232	260.75
244.465	280.75
244.699	264.75
244.932	269.75
245.166	285.75
245.399	287.75
245.633	268.75
245.866	291.75
246.099	278.75
246.333	287.75
246.566	286.75
246.8	291.75
247.033	282.75
247.266	313.75
247.5	307.75
247.733	321.75
247.966	308.75
248.2	299.75
248.433	317.75
248.666	303.75
248.899	292.75
249.133	320.75
249.366	322.75
249.599	327.75
249.832	324.75
250.066	354.75
250.299	332.75
250.532	345.75
250.765	345.75
250.998	370.75
251.231	335.75
251.465	360.75
251.698	357.75
251.931	356.75
252.164	360.75
252.397	372.75
252.63	373.75
252.863	381.75
253.096	368.75
253.329	375.75
253.562	360.75
253.795	385.75
254.028	394.75
254.261	392.75
254.494	405.75
254.727	385.75
254.96	409.75
255.193	409.75
255.426	414.75
255.659	422.75
255.892	424.75
256.124	428.75
256.357	420.75
256.59	433.75
256.823	392.75
257.056	418.75
257.289	442.75
257.521	441.75
257.754	443.75
257.987	452.75
258.22	441.75
258.452	443.75
258.685	448.75
258.918	451.75
259.151	439.75
259.383	471.75
259.616	465.75
259.849	431.75
260.081	472.75
260.314	448.75
260.547	454.75
260.779	484.75
261.012	475.75
261.244	468.75
261.477	470.75
261.71	482.75
261.942	474.75
262.175	474.75
262.407	473.75
262.64	459.75
262.872	484.75
263.105	522.75
263.337	499.75
263.57	499.75
263.802	506.75
264.035	540.75
264.267	514.75
264.499	524.75
264.732	532.75
264.964	516.75
265.197	516.75
265.429	495.75
265.661	527.75
265.894	523.75
266.126	535.75
266.358	537.75
266.591	531.75
266.823	512.75
267.055	539.75
267.287	543.75
267.52	543.75
267.752	536.75
267.984	548.75
268.216	561.75
268.448	561.75
268.681	572.75
268.913	554.75
269.145	576.75
269.377	563.75
269.609	563.75
269.841	560.75
270.073	561.75
270.306	565.75
270.538	566.75
270.77	579.75
271.002	594.75
271.234	568.75
271.466	573.75
271.698	567.75
271.93	592.75
272.162	580.75
272.394	612.75
272.626	581.75
272.858	609.75
273.09	590.75
273.322	603.75
273.553	617.75
273.785	609.75
274.017	626.75
274.249	611.75
274.481	629.75
274.713	625.75
274.945	605.75
275.176	627.75
275.408	625.75
275.64	629.75
275.872	610.75
276.104	655.75
276.335	627.75
276.567	630.75
276.799	631.75
277.031	652.75
277.262	641.75
277.494	632.75
277.726	630.75
277.957	637.75
278.189	636.75
278.421	657.75
278.652	651.75
278.884	655.75
279.115	655.75
279.347	648.75
279.579	665.75
279.81	666.75
280.042	656.75
280.273	672.75
280.505	683.75
280.736	675.75
280.968	661.75
281.199	683.75
281.431	672.75
281.662	683.75
281.894	703.75
282.125	680.75
282.356	689.75
282.588	675.75
282.819	692.75
283.051	696.75
283.282	708.75
283.513	713.75
283.745	721.75
283.976	734.75
284.207	695.75
284.439	699.75
284.67	708.75
284.901	709.75
285.132	721.75
285.364	733.75
285.595	739.75
285.826	723.75
286.057	726.75
286.288	716.75
286.52	718.75
286.751	738.75
286.982	737.75
287.213	744.75
287.444	745.75
287.675	735.75
287.906	733.75
288.138	768.75
288.369	775.75
288.6	746.75
288.831	734.75
289.062	754.75
289.293	769.75
289.524	752.75
289.755	750.75
289.986	732.75
290.217	785.75
290.448	759.75
290.679	767.75
290.91	784.75
291.141	767.75
291.371	753.75
291.602	780.75
291.833	748.75
292.064	774.75
292.295	787.75
292.526	765.75
292.757	733.75
292.987	751.75
293.218	773.75
293.449	779.75
293.68	773.75
293.91	764.75
294.141	787.75
294.372	786.75
294.603	781.75
294.833	777.75
295.064	785.75
295.295	797.75
295.525	784.75
295.756	786.75
295.987	792.75
296.217	806.75
296.448	794.75
296.679	787.75
296.909	794.75
297.14	819.75
297.37	805.75
297.601	817.75
297.831	819.75
298.062	833.75
298.292	853.75
298.523	872.75
298.753	828.75
298.984	849.75
299.214	844.75
299.445	829.75
299.675	845.75
299.905	835.75
300.136	843.75
300.366	854.75
300.597	873.75
300.827	866.75
301.057	883.75
301.288	915.75
301.518	869.75
301.748	858.75
301.979	905.75
302.209	916.75
302.439	885.75
302.669	881.75
302.9	870.75
303.13	864.75
303.36	859.75
303.59	900.75
303.82	910.75
304.051	901.75
304.281	880.75
304.511	884.75
304.741	882.75
304.971	888.75
305.201	914.75
305.431	915.75
305.661	899.75
305.891	893.75
306.121	903.75
306.352	859.75
306.582	862.75
306.812	868.75
307.042	856.75
307.272	864.75
307.502	867.75
307.731	888.75
307.961	867.75
308.191	878.75
308.421	867.75
308.651	860.75
308.881	870.75
309.111	866.75
309.341	882.75
309.571	919.75
309.8	895.75
310.03	873.75
310.26	938.75
310.49	949.75
310.72	901.75
310.949	889.75
311.179	900.75
311.409	900.75
311.639	913.75
311.868	906.75
312.098	937.75
312.328	917.75
312.557	943.75
312.787	927.75
313.017	951.75
313.246	954.75
313.476	963.75
313.706	986.75
313.935	973.75
314.165	927.75
314.394	947.75
314.624	941.75
314.853	972.75
315.083	975.75
315.312	952.75
315.542	950.75
315.771	980.75
316.001	980.75
316.23	960.75
316.46	999.75
316.689	971.75
316.919	981.75
317.148	981.75
317.377	937.75
317.607	963.75
317.836	995.75
318.065	973.75
318.295	982.75
318.524	977.75
318.753	968.75
318.983	965.75
319.212	970.75
319.441	990.75
319.67	1013.75
319.9	1007.75
320.129	1001.75
320.358	1012.75
320.587	985.75
320.816	1010.75
321.046	989.75
321.275	1011.75
321.504	1023.75
321.733	1009.75
321.962	1011.75
322.191	1007.75
322.42	1060.75
322.649	1069.75
322.878	1059.75
323.108	1037.75
323.337	1031.75
323.566	1066.75
323.795	1057.75
324.024	1049.75
324.253	1064.75
324.482	1057.75
324.71	1078.75
324.939	1079.75
325.168	1079.75
325.397	1099.75
325.626	1082.75
325.855	1112.75
326.084	1154.75
326.313	1123.75
326.542	1143.75
326.77	1144.75
326.999	1155.75
327.228	1141.75
327.457	1117.75
327.686	1141.75
327.914	1151.75
328.143	1126.75
328.372	1105.75
328.6	1122.75
328.829	1143.75
329.058	1153.75
329.287	1130.75
329.515	1115.75
329.744	1179.75
329.972	1173.75
330.201	1199.75
330.43	1204.75
330.658	1169.75
330.887	1226.75
331.115	1213.75
331.344	1234.75
331.572	1202.75
331.801	1251.75
332.03	1263.75
332.258	1241.75
332.486	1309.75
332.715	1341.75
332.943	1318.75
333.172	1368.75
333.4	1362.75
333.629	1372.75
333.857	1419.75
334.085	1451.75
334.314	1475.75
334.542	1445.75
334.771	1476.75
334.999	1469.75
335.227	1428.75
335.455	1459.75
335.684	1468.75
335.912	1509.75
336.14	1452.75
336.369	1427.75
336.597	1467.75
336.825	1443.75
337.053	1459.75
337.281	1461.75
337.51	1394.75
337.738	1374.75
337.966	1375.75
338.194	1370.75
338.422	1361.75
338.65	1314.75
338.878	1331.75
339.106	1303.75
339.334	1329.75
339.562	1317.75
339.79	1283.75
340.018	1281.75
340.246	1258.75
340.474	1237.75
340.702	1275.75
340.93	1265.75
341.158	1281.75
341.386	1305.75
341.614	1327.75
341.842	1331.75
342.07	1269.75
342.298	1265.75
342.526	1249.75
342.754	1283.75
342.981	1261.75
343.209	1281.75
343.437	1346.75
343.665	1369.75
343.893	1403.75
344.12	1416.75
344.348	1451.75
344.576	1401.75
344.804	1387.75
345.031	1341.75
345.259	1288.75
345.487	1279.75
345.714	1287.75
345.942	1304.75
346.17	1312.75
346.397	1270.75
346.625	1215.75
346.853	1176.75
347.08	1228.75
347.308	1220.75
347.535	1221.75
347.763	1224.75
347.99	1205.75
348.218	1206.75
348.445	1204.75
348.673	1187.75
348.9	1195.75
349.128	1193.75
349.355	1207.75
349.583	1239.75
349.81	1180.75
350.037	1165.75
350.265	1168.75
350.492	1161.75
350.72	1155.75
350.947	1167.75
351.174	1173.75
351.402	1192.75
351.629	1217.75
351.856	1232.75
352.083	1200.75
352.311	1191.75
352.538	1223.75
352.765	1224.75
352.992	1151.75
353.22	1165.75
353.447	1140.75
353.674	1140.75
353.901	1151.75
354.128	1123.75
354.355	1127.75
354.583	1129.75
354.81	1160.75
355.037	1128.75
355.264	1141.75
355.491	1149.75
355.718	1160.75
355.945	1157.75
356.172	1142.75
356.399	1163.75
356.626	1202.75
356.853	1221.75
357.08	1170.75
357.307	1154.75
357.534	1166.75
357.761	1133.75
357.988	1169.75
358.215	1127.75
358.441	1125.75
358.668	1142.75
358.895	1155.75
359.122	1155.75
359.349	1144.75
359.576	1149.75
359.802	1171.75
360.029	1147.75
360.256	1163.75
360.483	1159.75
360.709	1162.75
360.936	1208.75
361.163	1175.75
361.39	1167.75
361.616	1171.75
361.843	1167.75
362.07	1229.75
362.296	1230.75
362.523	1119.75
362.749	1159.75
362.976	1182.75
363.203	1164.75
363.429	1152.75
363.656	1169.75
363.882	1144.75
364.109	1153.75
364.335	1164.75
364.562	1161.75
364.788	1157.75
365.015	1185.75
365.241	1119.75
365.468	1163.75
365.694	1169.75
365.92	1163.75
366.147	1173.75
366.373	1153.75
366.599	1151.75
366.826	1136.75
367.052	1153.75
367.278	1177.75
367.505	1186.75
367.731	1179.75
367.957	1177.75
368.184	1176.75
368.41	1189.75
368.636	1179.75
368.862	1168.75
369.089	1170.75
369.315	1175.75
369.541	1184.75
369.767	1191.75
369.993	1196.75
370.219	1237.75
370.445	1223.75
370.672	1214.75
370.898	1214.75
371.124	1219.75
371.35	1235.75
371.576	1238.75
371.802	1225.75
372.028	1233.75
372.254	1243.75
372.48	1270.75
372.706	1248.75
372.932	1257.75
373.158	1257.75
373.384	1265.75
373.61	1280.75
373.835	1257.75
374.061	1259.75
374.287	1275.75
374.513	1301.75
374.739	1279.75
374.965	1336.75
375.191	1331.75
375.416	1346.75
375.642	1308.75
375.868	1278.75
376.094	1258.75
376.319	1269.75
376.545	1247.75
376.771	1240.75
376.997	1217.75
377.222	1212.75
377.448	1229.75
377.674	1203.75
377.899	1205.75
378.125	1192.75
378.35	1215.75
378.576	1201.75
378.802	1197.75
379.027	1194.75
379.253	1201.75
379.478	1203.75
379.704	1209.75
379.929	1193.75
380.155	1217.75
380.38	1214.75
380.606	1198.75
380.831	1247.75
381.057	1251.75
381.282	1196.75
381.507	1209.75
381.733	1250.75
381.958	1229.75
382.184	1226.75
382.409	1247.75
382.634	1279.75
382.86	1258.75
383.085	1256.75
383.31	1305.75
383.535	1303.75
383.761	1310.75
383.986	1342.75
384.211	1310.75
384.436	1372.75
384.662	1324.75
384.887	1395.75
385.112	1371.75
385.337	1423.75
385.562	1423.75
385.787	1406.75
386.013	1451.75
386.238	1418.75
386.463	1437.75
386.688	1459.75
386.913	1435.75
387.138	1447.75
387.363	1440.75
387.588	1427.75
387.813	1474.75
388.038	1440.75
388.263	1439.75
388.488	1452.75
388.713	1473.75
388.938	1448.75
389.163	1413.75
389.387	1468.75
389.612	1415.75
389.837	1394.75
390.062	1440.75
390.287	1434.75
390.512	1441.75
390.736	1466.75
390.961	1459.75
391.186	1498.75
391.411	1497.75
391.636	1549.75
391.86	1555.75
392.085	1597.75
392.31	1577.75
392.534	1524.75
392.759	1563.75
392.984	1538.75
393.208	1536.75
393.433	1538.75
393.658	1540.75
393.882	1539.75
394.107	1549.75
394.331	1532.75
394.556	1574.75
394.78	1563.75
395.005	1541.75
395.229	1510.75
395.454	1562.75
395.678	1631.75
395.903	1601.75
396.127	1614.75
396.352	1606.75
396.576	1550.75
396.801	1562.75
397.025	1565.75
397.249	1624.75
397.474	1633.75
397.698	1642.75
397.922	1651.75
398.147	1660.75
398.371	1730.75
398.595	1753.75
398.82	1794.75
399.044	1896.75
399.268	1969.75
399.492	2110.75
399.717	2231.75
399.941	2287.75
400.165	2226.75
400.389	2122.75
400.613	1996.75
400.837	1894.75
401.062	1903.75
401.286	1884.75
401.51	1824.75
401.734	1793.75
401.958	1827.75
402.182	1786.75
402.406	1795.75
402.63	1840.75
402.854	1824.75
403.078	1825.75
403.302	1867.75
403.526	1851.75
403.75	1892.75
403.974	1915.75
404.198	1879.75
404.422	1904.75
404.645	1883.75
404.869	1920.75
405.093	1915.75
405.317	1891.75
405.541	1903.75
405.765	1953.75
405.988	1918.75
406.212	1930.75
406.436	1959.75
406.66	1990.75
406.883	2020.75
407.107	2100.75
407.331	2162.75
407.555	2230.75
407.778	2190.75
408.002	2154.75
408.226	2142.75
408.449	2115.75
408.673	2071.75
408.896	2031.75
409.12	2064.75
409.344	2077.75
409.567	1999.75
409.791	2000.75
410.014	1999.75
410.238	1934.75
410.461	1948.75
410.685	1962.75
410.908	1959.75
411.132	1905.75
411.355	1884.75
411.578	1869.75
411.802	1894.75
412.025	1907.75
412.249	1914.75
412.472	1937.75
412.695	1888.75
412.919	1871.75
413.142	1861.75
413.365	1839.75
413.589	1829.75
413.812	1789.75
414.035	1798.75
414.258	1796.75
414.482	1809.75
414.705	1849.75
414.928	1820.75
415.151	1825.75
415.374	1828.75
415.597	1768.75
415.821	1823.75
416.044	1734.75
416.267	1759.75
416.49	1773.75
416.713	1769.75
416.936	1759.75
417.159	1790.75
417.382	1771.75
417.605	1703.75
417.828	1713.75
418.051	1771.75
418.274	1763.75
418.497	1782.75
418.72	1779.75
418.943	1770.75
419.166	1903.75
419.389	1998.75
419.611	2004.75
419.834	1884.75
420.057	1880.75
420.28	1816.75
420.503	1743.75
420.726	1743.75
420.948	1728.75
421.171	1736.75
421.394	1736.75
421.617	1778.75
421.839	1776.75
422.062	1766.75
422.285	1780.75
422.507	1805.75
422.73	1783.75
422.953	1815.75
423.175	1830.75
423.398	1759.75
423.621	1771.75
423.843	1814.75
424.066	1811.75
424.288	1833.75
424.511	1782.75
424.733	1795.75
424.956	1736.75
425.178	1801.75
425.401	1768.75
425.623	1787.75
425.846	1724.75
426.068	1719.75
426.291	1711.75
426.513	1737.75
426.735	1691.75
426.958	1703.75
427.18	1688.75
427.402	1670.75
427.625	1726.75
427.847	1667.75
428.069	1649.75
428.292	1699.75
428.514	1667.75
428.736	1637.75
428.958	1668.75
429.181	1607.75
429.403	1647.75
429.625	1631.75
429.847	1615.75
430.069	1672.75
430.292	1644.75
430.514	1608.75
430.736	1655.75
430.958	1621.75
431.18	1629.75
431.402	1658.75
431.624	1647.75
431.846	1643.75
432.068	1623.75
432.29	1667.75
432.512	1657.75
432.734	1687.75
432.956	1657.75
433.178	1663.75
433.4	1677.75
433.622	1686.75
433.844	1691.75
434.066	1673.75
434.287	1682.75
434.509	1711.75
434.731	1750.75
434.953	1746.75
435.175	1811.75
435.397	1791.75
435.618	1752.75
435.84	1705.75
436.062	1662.75
436.284	1649.75
436.505	1616.75
436.727	1691.75
436.949	1678.75
437.17	1668.75
437.392	1623.75
437.614	1625.75
437.835	1594.75
438.057	1573.75
438.278	1564.75
438.5	1601.75
438.721	1597.75
438.943	1640.75
439.165	1634.75
439.386	1595.75
439.608	1599.75
439.829	1603.75
440.05	1673.75
440.272	1631.75
440.493	1663.75
440.715	1694.75
440.936	1707.75
441.158	1677.75
441.379	1728.75
441.6	1779.75
441.822	1768.75
442.043	1791.75
442.264	1759.75
442.486	1764.75
442.707	1806.75
442.928	1761.75
443.149	1790.75
443.371	1802.75
443.592	1770.75
443.813	1831.75
444.034	1825.75
444.255	1840.75
444.476	1886.75
444.698	1915.75
444.919	1971.75
445.14	2033.75
445.361	1923.75
445.582	1850.75
445.803	1793.75
446.024	1745.75
446.245	1749.75
446.466	1729.75
446.687	1665.75
446.908	1695.75
447.129	1645.75
447.35	1592.75
447.571	1633.75
447.792	1589.75
448.013	1617.75
448.234	1550.75
448.455	1555.75
448.675	1514.75
448.896	1521.75
449.117	1494.75
449.338	1551.75
449.559	1499.75
449.779	1509.75
450	1520.75
450.221	1521.75
450.442	1519.75
450.662	1489.75
450.883	1477.75
451.104	1513.75
451.324	1545.75
451.545	1498.75
451.766	1493.75
451.986	1495.75
452.207	1506.75
452.428	1495.75
452.648	1501.75
452.869	1443.75
453.089	1445.75
453.31	1463.75
453.53	1440.75
453.751	1435.75
453.971	1455.75
454.192	1425.75
454.412	1418.75
454.633	1425.75
454.853	1395.75
455.073	1408.75
455.294	1434.75
455.514	1382.75
455.734	1447.75
455.955	1375.75
456.175	1451.75
456.395	1457.75
456.616	1413.75
456.836	1404.75
457.056	1384.75
457.276	1378.75
457.497	1435.75
457.717	1449.75
457.937	1441.75
458.157	1469.75
458.377	1474.75
458.598	1500.75
458.818	1498.75
459.038	1567.75
459.258	1587.75
459.478	1636.75
459.698	1687.75
459.918	1748.75
460.138	1755.75
460.358	1783.75
460.578	1817.75
460.798	1869.75
461.018	1876.75
461.238	1853.75
461.458	1841.75
461.678	1865.75
461.898	1904.75
462.118	1900.75
462.338	1999.75
462.558	2033.75
462.777	2115.75
462.997	2164.75
463.217	2215.75
463.437	2274.75
463.657	2245.75
463.876	2132.75
464.096	2138.75
464.316	2074.75
464.536	2094.75
464.755	2023.75
464.975	1946.75
465.195	1908.75
465.414	1865.75
465.634	1737.75
465.854	1729.75
466.073	1683.75
466.293	1645.75
466.512	1646.75
466.732	1574.75
466.951	1609.75
467.171	1585.75
467.391	1589.75
467.61	1583.75
467.829	1560.75
468.049	1572.75
468.268	1521.75
468.488	1568.75
468.707	1511.75
468.927	1528.75
469.146	1529.75
469.365	1511.75
469.585	1546.75
469.804	1578.75
470.023	1613.75
470.243	1551.75
470.462	1554.75
470.681	1580.75
470.901	1613.75
471.12	1604.75
471.339	1577.75
471.558	1561.75
471.777	1565.75
471.997	1550.75
472.216	1552.75
472.435	1530.75
472.654	1519.75
472.873	1523.75
473.092	1510.75
473.311	1483.75
473.53	1515.75
473.749	1512.75
473.968	1503.75
474.187	1493.75
474.406	1455.75
474.625	1498.75
474.844	1520.75
475.063	1525.75
475.282	1532.75
475.501	1541.75
475.72	1525.75
475.939	1541.75
476.158	1581.75
476.377	1594.75
476.596	1611.75
476.814	1570.75
477.033	1603.75
477.252	1671.75
477.471	1643.75
477.69	1694.75
477.908	1691.75
478.127	1763.75
478.346	1771.75
478.564	1818.75
478.783	1796.75
479.002	1856.75
479.22	1862.75
479.439	1847.75
479.658	1824.75
479.876	1829.75
480.095	1808.75
480.313	1889.75
480.532	1848.75
480.751	1905.75
480.969	1836.75
481.188	1837.75
481.406	1789.75
481.624	1795.75
481.843	1798.75
482.061	1727.75
482.28	1731.75
482.498	1714.75
482.717	1740.75
482.935	1752.75
483.153	1757.75
483.372	1785.75
483.59	1774.75
483.808	1764.75
484.027	1745.75
484.245	1798.75
484.463	1775.75
484.681	1756.75
484.9	1811.75
485.118	1766.75
485.336	1800.75
485.554	1801.75
485.772	1836.75
485.99	1805.75
486.209	1798.75
486.427	1805.75
486.645	1788.75
486.863	1809.75
487.081	1805.75
487.299	1841.75
487.517	1839.75
487.735	1820.75
487.953	1839.75
488.171	1798.75
488.389	1813.75
488.607	1795.75
488.825	1787.75
489.043	1764.75
489.261	1793.75
489.479	1820.75
489.696	1793.75
489.914	1801.75
490.132	1805.75
490.35	1811.75
490.568	1857.75
490.786	1829.75
491.003	1808.75
491.221	1835.75
491.439	1839.75
491.657	1845.75
491.874	1902.75
492.092	1875.75
492.31	1883.75
492.527	1865.75
492.745	1896.75
492.963	1854.75
493.18	1887.75
493.398	1930.75
493.615	1914.75
493.833	1917.75
494.05	1931.75
494.268	1940.75
494.485	1947.75
494.703	1971.75
494.92	1978.75
495.138	1960.75
495.355	1970.75
495.573	1993.75
495.79	1984.75
496.008	2027.75
496.225	2018.75
496.442	2055.75
496.66	2086.75
496.877	2113.75
497.094	2127.75
497.312	2234.75
497.529	2268.75
497.746	2281.75
497.963	2373.75
498.181	2418.75
498.398	2491.75
498.615	2649.75
498.832	2766.75
499.049	2933.75
499.267	3094.75
499.484	3296.75
499.701	3473.75
499.918	3751.75
500.135	4017.75
500.352	4192.75
500.569	4296.75
500.786	4306.75
501.003	4157.75
501.22	3985.75
501.437	3727.75
501.654	3354.75
501.871	3225.75
502.088	3115.75
502.305	2880.75
502.522	2743.75
502.739	2689.75
502.956	2534.75
503.172	2454.75
503.389	2392.75
503.606	2305.75
503.823	2287.75
504.04	2254.75
504.256	2281.75
504.473	2214.75
504.69	2197.75
504.907	2149.75
505.123	2073.75
505.34	2018.75
505.557	1965.75
505.773	1920.75
505.99	1865.75
506.207	1863.75
506.423	1833.75
506.64	1811.75
506.856	1758.75
507.073	1734.75
507.289	1779.75
507.506	1760.75
507.722	1713.75
507.939	1704.75
508.155	1676.75
508.372	1695.75
508.588	1676.75
508.805	1663.75
509.021	1634.75
509.238	1636.75
509.454	1621.75
509.67	1633.75
509.887	1596.75
510.103	1572.75
510.319	1581.75
510.536	1586.75
510.752	1570.75
510.968	1557.75
511.184	1539.75
511.401	1558.75
511.617	1553.75
511.833	1567.75
512.049	1541.75
512.265	1571.75
512.481	1572.75
512.698	1538.75
512.914	1552.75
513.13	1533.75
513.346	1541.75
513.562	1554.75
513.778	1573.75
513.994	1578.75
514.21	1573.75
514.426	1613.75
514.642	1565.75
514.858	1583.75
515.074	1609.75
515.29	1617.75
515.506	1630.75
515.721	1676.75
515.937	1665.75
516.153	1691.75
516.369	1730.75
516.585	1767.75
516.801	1800.75
517.016	1850.75
517.232	1881.75
517.448	1907.75
517.664	1955.75
517.879	1905.75
518.095	1971.75
518.311	1957.75
518.527	1883.75
518.742	1888.75
518.958	1829.75
519.173	1800.75
519.389	1685.75
519.605	1684.75
519.82	1656.75
520.036	1674.75
520.251	1558.75
520.467	1600.75
520.682	1540.75
520.898	1568.75
521.113	1515.75
521.329	1521.75
521.544	1537.75
521.76	1478.75
521.975	1514.75
522.19	1491.75
522.406	1474.75
522.621	1457.75
522.836	1449.75
523.052	1430.75
523.267	1412.75
523.482	1399.75
523.698	1435.75
523.913	1377.75
524.128	1427.75
524.343	1435.75
524.559	1446.75
524.774	1403.75
524.989	1448.75
525.204	1431.75
525.419	1400.75
525.634	1385.75
525.849	1421.75
526.064	1398.75
526.28	1372.75
526.495	1379.75
526.71	1404.75
526.925	1384.75
527.14	1343.75
527.355	1370.75
527.57	1363.75
527.785	1376.75
527.999	1344.75
528.214	1377.75
528.429	1383.75
528.644	1353.75
528.859	1373.75
529.074	1360.75
529.289	1344.75
529.503	1354.75
529.718	1385.75
529.933	1354.75
530.148	1347.75
530.363	1340.75
530.577	1340.75
530.792	1340.75
531.007	1348.75
531.221	1388.75
531.436	1361.75
531.651	1336.75
531.865	1353.75
532.08	1360.75
532.295	1326.75
532.509	1319.75
532.724	1374.75
532.938	1354.75
533.153	1353.75
533.367	1353.75
533.582	1339.75
533.796	1327.75
534.011	1343.75
534.225	1340.75
534.44	1298.75
534.654	1296.75
534.868	1303.75
535.083	1333.75
535.297	1295.75
535.511	1281.75
535.726	1286.75
535.94	1308.75
536.154	1299.75
536.369	1284.75
536.583	1257.75
536.797	1275.75
537.011	1263.75
537.225	1296.75
537.44	1268.75
537.654	1249.75
537.868	1254.75
538.082	1251.75
538.296	1231.75
538.51	1234.75
538.724	1242.75
538.938	1238.75
539.153	1259.75
539.367	1221.75
539.581	1240.75
539.795	1248.75
540.009	1204.75
540.222	1236.75
540.436	1226.75
540.65	1233.75
540.864	1205.75
541.078	1203.75
541.292	1208.75
541.506	1219.75
541.72	1220.75
541.934	1226.75
542.147	1225.75
542.361	1213.75
542.575	1196.75
542.789	1226.75
543.002	1202.75
543.216	1216.75
543.43	1207.75
543.644	1203.75
543.857	1194.75
544.071	1199.75
544.285	1244.75
544.498	1235.75
544.712	1247.75
544.925	1247.75
545.139	1218.75
545.352	1226.75
545.566	1195.75
545.779	1211.75
545.993	1228.75
546.206	1223.75
546.42	1226.75
546.633	1235.75
546.847	1227.75
547.06	1229.75
547.274	1219.75
547.487	1242.75
547.7	1268.75
547.914	1218.75
548.127	1247.75
548.34	1279.75
548.554	1250.75
548.767	1245.75
548.98	1232.75
549.193	1251.75
549.407	1252.75
549.62	1255.75
549.833	1245.75
550.046	1266.75
550.259	1240.75
550.473	1222.75
550.686	1213.75
550.899	1235.75
551.112	1200.75
551.325	1211.75
551.538	1233.75
551.751	1207.75
551.964	1205.75
552.177	1238.75
552.39	1234.75
552.603	1242.75
552.816	1275.75
553.029	1301.75
553.242	1289.75
553.455	1264.75
553.667	1309.75
553.88	1275.75
554.093	1264.75
554.306	1254.75
554.519	1227.75
554.732	1217.75
554.944	1152.75
555.157	1157.75
555.37	1164.75
555.583	1146.75
555.795	1150.75
556.008	1117.75
556.221	1111.75
556.433	1095.75
556.646	1097.75
556.859	1073.75
557.071	1079.75
557.284	1069.75
557.496	1017.75
557.709	1075.75
557.921	1037.75
558.134	1044.75
558.346	1044.75
558.559	1035.75
558.771	1032.75
558.984	1018.75
559.196	1005.75
559.409	1030.75
559.621	1004.75
559.833	995.75
560.046	1033.75
560.258	1026.75
560.47	1039.75
560.683	1023.75
560.895	1044.75
561.107	1014.75
561.32	1007.75
561.532	1004.75
561.744	1008.75
561.956	983.75
562.168	1001.75
562.381	1026.75
562.593	1007.75
562.805	1023.75
563.017	1025.75
563.229	1032.75
563.441	1040.75
563.653	1015.75
563.865	1040.75
564.077	1068.75
564.289	1058.75
564.501	1121.75
564.713	1144.75
564.925	1112.75
565.137	1102.75
565.349	1142.75
565.561	1165.75
565.773	1189.75
565.985	1245.75
566.197	1273.75
566.408	1328.75
566.62	1400.75
566.832	1438.75
567.044	1444.75
567.255	1487.75
567.467	1472.75
567.679	1543.75
567.891	1581.75
568.102	1553.75
568.314	1514.75
568.526	1414.75
568.737	1357.75
568.949	1272.75
569.161	1225.75
569.372	1193.75
569.584	1157.75
569.795	1102.75
570.007	1079.75
570.218	1053.75
570.43	1039.75
570.641	1045.75
570.853	1030.75
571.064	1007.75
571.276	1015.75
571.487	963.75
571.698	967.75
571.91	927.75
572.121	920.75
572.333	913.75
572.544	877.75
572.755	853.75
572.966	865.75
573.178	861.75
573.389	843.75
573.6	841.75
573.811	838.75
574.023	839.75
574.234	833.75
574.445	810.75
574.656	815.75
574.867	825.75
575.078	830.75
575.289	809.75
575.501	803.75
575.712	795.75
575.923	795.75
576.134	802.75
576.345	755.75
576.556	771.75
576.767	761.75
576.978	744.75
577.188	755.75
577.399	748.75
577.61	743.75
577.821	751.75
578.032	728.75
578.243	725.75
578.454	758.75
578.665	765.75
578.875	760.75
579.086	707.75
579.297	728.75
579.508	728.75
579.718	715.75
579.929	717.75
580.14	722.75
580.35	697.75
580.561	695.75
580.772	707.75
580.982	676.75
581.193	678.75
581.403	707.75
581.614	693.75
581.825	691.75
582.035	683.75
582.246	667.75
582.456	656.75
582.667	680.75
582.877	689.75
583.087	683.75
583.298	672.75
583.508	673.75
583.719	653.75
583.929	661.75
584.139	657.75
584.35	688.75
584.56	665.75
584.77	673.75
584.981	656.75
585.191	667.75
585.401	643.75
585.611	643.75
585.821	667.75
586.032	674.75
586.242	652.75
586.452	651.75
586.662	653.75
586.872	656.75
587.082	648.75
587.292	659.75
587.502	643.75
587.713	651.75
587.923	656.75
588.133	643.75
588.343	643.75
588.553	660.75
588.762	631.75
588.972	670.75
589.182	649.75
589.392	671.75
589.602	673.75
589.812	674.75
590.022	665.75
590.232	651.75
590.441	669.75
590.651	656.75
590.861	637.75
591.071	659.75
591.281	631.75
591.49	665.75
591.7	696.75
591.91	683.75
592.119	685.75
592.329	687.75
592.539	689.75
592.748	712.75
592.958	720.75
593.167	725.75
593.377	711.75
593.587	730.75
593.796	750.75
594.006	737.75
594.215	754.75
594.424	728.75
594.634	702.75
594.843	715.75
595.053	705.75
595.262	703.75
595.472	659.75
595.681	639.75
595.89	623.75
596.1	638.75
596.309	650.75
596.518	609.75
596.727	596.75
596.937	583.75
597.146	601.75
597.355	592.75
597.564	574.75
597.774	580.75
597.983	555.75
598.192	551.75
598.401	557.75
598.61	555.75
598.819	576.75
599.028	558.75
599.237	546.75
599.446	537.75
599.655	527.75
599.864	555.75
600.073	529.75
600.282	529.75
600.491	523.75
600.7	534.75
600.909	538.75
601.118	507.75
601.327	532.75
601.536	490.75
601.745	511.75
601.953	526.75
602.162	512.75
602.371	511.75
602.58	478.75
602.789	498.75
602.997	511.75
603.206	485.75
603.415	481.75
603.623	485.75
603.832	481.75
604.041	481.75
604.249	488.75
604.458	497.75
604.666	489.75
604.875	491.75
605.084	474.75
605.292	501.75
605.501	479.75
605.709	491.75
605.918	473.75
606.126	481.75
606.334	489.75
606.543	483.75
606.751	476.75
606.96	459.75
607.168	475.75
607.376	456.75
607.585	477.75
607.793	462.75
608.001	479.75
608.21	469.75
608.418	466.75
608.626	460.75
608.834	452.75
609.043	484.75
609.251	456.75
609.459	483.75
609.667	418.75
609.875	460.75
610.083	457.75
610.291	443.75
610.499	441.75
610.707	450.75
610.916	454.75
611.124	469.75
611.332	469.75
611.54	474.75
611.748	453.75
611.955	445.75
612.163	456.75
612.371	456.75
612.579	450.75
612.787	433.75
612.995	417.75
613.203	448.75
613.411	418.75
613.618	448.75
613.826	441.75
614.034	447.75
614.242	449.75
614.449	438.75
614.657	444.75
614.865	425.75
615.072	431.75
615.28	435.75
615.488	441.75
615.695	423.75
615.903	424.75
616.111	417.75
616.318	437.75
616.526	433.75
616.733	418.75
616.941	416.75
617.148	411.75
617.356	412.75
617.563	412.75
617.771	435.75
617.978	425.75
618.185	423.75
618.393	417.75
618.6	440.75
618.807	411.75
619.015	405.75
619.222	428.75
619.429	397.75
619.637	403.75
619.844	403.75
620.051	418.75
620.258	417.75
620.466	407.75
620.673	379.75
620.88	384.75
621.087	392.75
621.294	393.75
621.501	388.75
621.708	380.75
621.915	397.75
622.122	400.75
622.329	409.75
622.536	395.75
622.743	389.75
622.95	400.75
623.157	388.75
623.364	400.75
623.571	393.75
623.778	375.75
623.985	373.75
624.192	390.75
624.399	395.75
624.606	381.75
624.812	363.75
625.019	354.75
625.226	375.75
625.433	385.75
625.639	383.75
625.846	371.75
626.053	340.75
626.259	358.75
626.466	360.75
626.673	361.75
626.879	373.75
627.086	359.75
627.293	351.75
627.499	352.75
627.706	348.75
627.912	373.75
628.119	360.75
628.325	357.75
628.532	358.75
628.738	370.75
628.945	337.75
629.151	347.75
629.357	365.75
629.564	354.75
629.77	344.75
629.976	345.75
630.183	328.75
630.389	351.75
630.595	325.75
630.802	349.75
631.008	337.75
631.214	321.75
631.42	342.75
631.627	326.75
631.833	320.75
632.039	328.75
632.245	314.75
632.451	325.75
632.657	323.75
632.863	314.75
633.069	324.75
633.275	335.75
633.481	314.75
633.688	321.75
633.893	320.75
634.099	332.75
634.305	299.75
634.511	311.75
634.717	310.75
634.923	302.75
635.129	302.75
635.335	313.75
635.541	301.75
635.747	323.75
635.952	300.75
636.158	300.75
636.364	297.75
636.57	288.75
636.775	304.75
636.981	294.75
637.187	289.75
637.392	296.75
637.598	294.75
637.804	304.75
638.009	299.75
638.215	279.75
638.421	297.75
638.626	288.75
638.832	283.75
639.037	314.75
639.243	276.75
639.448	296.75
639.654	293.75
639.859	307.75
640.065	283.75
640.27	294.75
640.475	282.75
640.681	281.75
640.886	293.75
641.091	301.75
641.297	278.75
641.502	275.75
641.707	287.75
641.913	282.75
642.118	270.75
642.323	272.75
642.528	307.75
642.733	258.75
642.939	264.75
643.144	266.75
643.349	276.75
643.554	271.75
643.759	287.75
643.964	273.75
644.169	268.75
644.374	291.75
644.579	276.75
644.784	285.75
644.989	276.75
645.194	267.75
645.399	272.75
645.604	269.75
645.809	266.75
646.014	260.75
646.219	283.75
646.423	278.75
646.628	267.75
646.833	281.75
647.038	274.75
647.243	264.75
647.447	266.75
647.652	269.75
647.857	280.75
648.062	279.75
648.266	263.75
648.471	290.75
648.676	274.75
648.88	281.75
649.085	311.75
649.289	264.75
649.494	273.75
649.698	261.75
649.903	280.75
650.107	267.75
650.312	257.75
650.516	239.75
650.721	247.75
650.925	227.75
651.13	234.75
651.334	257.75
651.539	245.75
651.743	241.75
651.947	238.75
652.152	235.75
652.356	240.75
652.56	226.75
652.764	233.75
652.969	205.75
653.173	226.75
653.377	214.75
653.581	213.75
653.785	221.75
653.99	211.75
654.194	209.75
654.398	203.75
654.602	197.75
654.806	220.75
655.01	211.75
655.214	204.75
655.418	193.75
655.622	193.75
655.826	217.75
656.03	201.75
656.234	207.75
656.438	192.75
656.642	201.75
656.846	170.75
657.049	185.75
657.253	174.75
657.457	170.75
657.661	164.75
657.865	164.75
658.068	145.75
658.272	143.75
658.476	139.75
658.68	131.75
658.883	141.75
659.087	133.75
659.291	146.75
659.494	117.75
659.698	108.75
659.901	117.75
660.105	129.75
660.309	127.75
660.512	112.75
660.716	122.75
660.919	100.75
661.123	101.75
661.326	87.75
661.53	100.75
661.733	105.75
661.936	101.75
662.14	97.75
662.343	96.75
662.546	98.75
662.75	88.75
662.953	83.75
663.156	81.75
663.36	91.75
663.563	89.75
663.766	93.75
663.969	75.75
664.173	96.75
664.376	89.75
664.579	78.75
664.782	79.75
664.985	86.75
665.188	80.75
665.391	83.75
665.594	83.75
665.797	78.75
666	60.75
666.203	63.75
666.406	81.75
666.609	72.75
666.812	80.75
667.015	90.75
667.218	77.75
667.421	76.75
667.624	94.75
667.827	75.75
668.03	85.75
668.232	74.75
668.435	97.75
668.638	83.75
668.841	90.75
669.043	97.75
669.246	74.75
669.449	76.75
669.651	96.75
669.854	77.75
670.057	79.75
670.259	73.75
670.462	87.75
670.665	82.75
670.867	84.75
671.07	80.75
671.272	75.75
671.475	86.75
671.677	73.75
671.88	76.75
672.082	77.75
672.284	95.75
672.487	70.75
672.689	84.75
672.892	76.75
