Data from Ni(NO3)2@0.125M.TitratingCurve.Agarose3%dH2O.NegLispCup.LampEnergy10.LIBS07252019_HRD10591_18-11-33-569.txt Node
Date: Thu Jul 25 18:11:33 EDT 2019
User: cochatt
Spectrometer: HR+D1059
Trigger mode: 1
Integration Time (sec): 1.000000E-1
Scans to average: 1
Electric dark correction enabled: true
Nonlinearity correction enabled: false
Boxcar width: 0
XAxis mode: Wavelengths
Number of Pixels in Spectrum: 2048
>>>>>Begin Spectral Data<<<<<
223.165	-15.94
223.4	-15.94
223.635	-15.94
223.869	-15.94
224.104	-20.94
224.338	-9.94
224.573	-18.94
224.808	-22.94
225.042	7.06
225.277	0.06
225.511	-0.94
225.746	9.06
225.98	0.06
226.215	9.06
226.449	13.06
226.683	19.06
226.918	18.06
227.152	30.06
227.387	40.06
227.621	34.06
227.856	51.06
228.09	56.06
228.324	46.06
228.559	54.06
228.793	68.06
229.027	118.06
229.262	118.06
229.496	116.06
229.73	121.06
229.964	135.06
230.199	114.06
230.433	146.06
230.667	137.06
230.901	165.06
231.136	130.06
231.37	152.06
231.604	148.06
231.838	155.06
232.072	148.06
232.306	166.06
232.541	160.06
232.775	154.06
233.009	156.06
233.243	166.06
233.477	154.06
233.711	165.06
233.945	154.06
234.179	157.06
234.413	157.06
234.647	157.06
234.881	169.06
235.115	174.06
235.349	170.06
235.583	154.06
235.817	140.06
236.051	154.06
236.285	164.06
236.519	139.06
236.753	165.06
236.987	171.06
237.221	158.06
237.455	180.06
237.689	173.06
237.922	186.06
238.156	189.06
238.39	178.06
238.624	182.06
238.858	183.06
239.091	194.06
239.325	198.06
239.559	194.06
239.793	196.06
240.027	186.06
240.26	188.06
240.494	201.06
240.728	189.06
240.961	195.06
241.195	204.06
241.429	209.06
241.662	215.06
241.896	205.06
242.13	200.06
242.363	200.06
242.597	221.06
242.83	209.06
243.064	201.06
243.298	218.06
243.531	209.06
243.765	215.06
243.998	219.06
244.232	220.06
244.465	242.06
244.699	222.06
244.932	236.06
245.166	245.06
245.399	232.06
245.633	238.06
245.866	236.06
246.099	244.06
246.333	234.06
246.566	240.06
246.8	241.06
247.033	240.06
247.266	238.06
247.5	236.06
247.733	246.06
247.966	257.06
248.2	259.06
248.433	256.06
248.666	248.06
248.899	256.06
249.133	266.06
249.366	262.06
249.599	277.06
249.832	256.06
250.066	291.06
250.299	267.06
250.532	288.06
250.765	307.06
250.998	283.06
251.231	285.06
251.465	290.06
251.698	285.06
251.931	311.06
252.164	281.06
252.397	294.06
252.63	306.06
252.863	299.06
253.096	296.06
253.329	307.06
253.562	292.06
253.795	297.06
254.028	321.06
254.261	307.06
254.494	305.06
254.727	304.06
254.96	301.06
255.193	323.06
255.426	309.06
255.659	339.06
255.892	320.06
256.124	321.06
256.357	325.06
256.59	332.06
256.823	325.06
257.056	331.06
257.289	334.06
257.521	360.06
257.754	334.06
257.987	338.06
258.22	333.06
258.452	345.06
258.685	323.06
258.918	357.06
259.151	333.06
259.383	347.06
259.616	339.06
259.849	345.06
260.081	344.06
260.314	349.06
260.547	338.06
260.779	354.06
261.012	347.06
261.244	355.06
261.477	354.06
261.71	368.06
261.942	375.06
262.175	368.06
262.407	350.06
262.64	351.06
262.872	350.06
263.105	364.06
263.337	387.06
263.57	369.06
263.802	380.06
264.035	386.06
264.267	371.06
264.499	374.06
264.732	387.06
264.964	404.06
265.197	389.06
265.429	391.06
265.661	397.06
265.894	400.06
266.126	398.06
266.358	396.06
266.591	403.06
266.823	380.06
267.055	371.06
267.287	412.06
267.52	407.06
267.752	411.06
267.984	404.06
268.216	407.06
268.448	425.06
268.681	432.06
268.913	419.06
269.145	404.06
269.377	423.06
269.609	403.06
269.841	430.06
270.073	414.06
270.306	418.06
270.538	394.06
270.77	456.06
271.002	431.06
271.234	417.06
271.466	434.06
271.698	436.06
271.93	438.06
272.162	445.06
272.394	436.06
272.626	432.06
272.858	448.06
273.09	453.06
273.322	460.06
273.553	476.06
273.785	455.06
274.017	445.06
274.249	456.06
274.481	467.06
274.713	471.06
274.945	475.06
275.176	455.06
275.408	461.06
275.64	460.06
275.872	465.06
276.104	462.06
276.335	461.06
276.567	477.06
276.799	486.06
277.031	471.06
277.262	473.06
277.494	462.06
277.726	482.06
277.957	478.06
278.189	498.06
278.421	476.06
278.652	483.06
278.884	500.06
279.115	505.06
279.347	489.06
279.579	501.06
279.81	490.06
280.042	471.06
280.273	502.06
280.505	521.06
280.736	497.06
280.968	499.06
281.199	503.06
281.431	512.06
281.662	524.06
281.894	524.06
282.125	522.06
282.356	540.06
282.588	535.06
282.819	550.06
283.051	532.06
283.282	525.06
283.513	535.06
283.745	527.06
283.976	532.06
284.207	530.06
284.439	539.06
284.67	569.06
284.901	549.06
285.132	530.06
285.364	549.06
285.595	546.06
285.826	539.06
286.057	573.06
286.288	558.06
286.52	555.06
286.751	580.06
286.982	564.06
287.213	572.06
287.444	565.06
287.675	589.06
287.906	589.06
288.138	557.06
288.369	581.06
288.6	592.06
288.831	574.06
289.062	564.06
289.293	564.06
289.524	555.06
289.755	584.06
289.986	605.06
290.217	586.06
290.448	597.06
290.679	590.06
290.91	593.06
291.141	597.06
291.371	618.06
291.602	589.06
291.833	566.06
292.064	584.06
292.295	613.06
292.526	580.06
292.757	599.06
292.987	569.06
293.218	586.06
293.449	593.06
293.68	588.06
293.91	600.06
294.141	608.06
294.372	600.06
294.603	586.06
294.833	597.06
295.064	594.06
295.295	619.06
295.525	587.06
295.756	612.06
295.987	596.06
296.217	603.06
296.448	602.06
296.679	613.06
296.909	613.06
297.14	644.06
297.37	618.06
297.601	611.06
297.831	648.06
298.062	646.06
298.292	634.06
298.523	653.06
298.753	674.06
298.984	662.06
299.214	642.06
299.445	651.06
299.675	625.06
299.905	630.06
300.136	640.06
300.366	636.06
300.597	653.06
300.827	663.06
301.057	669.06
301.288	696.06
301.518	661.06
301.748	681.06
301.979	696.06
302.209	703.06
302.439	667.06
302.669	667.06
302.9	669.06
303.13	679.06
303.36	637.06
303.59	657.06
303.82	663.06
304.051	657.06
304.281	659.06
304.511	662.06
304.741	673.06
304.971	691.06
305.201	667.06
305.431	668.06
305.661	646.06
305.891	632.06
306.121	662.06
306.352	663.06
306.582	662.06
306.812	649.06
307.042	664.06
307.272	642.06
307.502	653.06
307.731	665.06
307.961	678.06
308.191	649.06
308.421	661.06
308.651	653.06
308.881	632.06
309.111	642.06
309.341	642.06
309.571	652.06
309.8	688.06
310.03	669.06
310.26	642.06
310.49	690.06
310.72	676.06
310.949	665.06
311.179	672.06
311.409	683.06
311.639	670.06
311.868	693.06
312.098	700.06
312.328	690.06
312.557	691.06
312.787	672.06
313.017	694.06
313.246	700.06
313.476	715.06
313.706	724.06
313.935	711.06
314.165	704.06
314.394	738.06
314.624	722.06
314.853	726.06
315.083	702.06
315.312	693.06
315.542	686.06
315.771	693.06
316.001	690.06
316.23	694.06
316.46	715.06
316.689	696.06
316.919	691.06
317.148	698.06
317.377	710.06
317.607	710.06
317.836	724.06
318.065	706.06
318.295	690.06
318.524	667.06
318.753	678.06
318.983	710.06
319.212	730.06
319.441	694.06
319.67	701.06
319.9	694.06
320.129	685.06
320.358	690.06
320.587	712.06
320.816	713.06
321.046	704.06
321.275	705.06
321.504	704.06
321.733	719.06
321.962	696.06
322.191	676.06
322.42	727.06
322.649	703.06
322.878	717.06
323.108	697.06
323.337	736.06
323.566	725.06
323.795	741.06
324.024	698.06
324.253	717.06
324.482	722.06
324.71	731.06
324.939	735.06
325.168	725.06
325.397	728.06
325.626	743.06
325.855	761.06
326.084	737.06
326.313	791.06
326.542	759.06
326.77	787.06
326.999	743.06
327.228	740.06
327.457	737.06
327.686	754.06
327.914	776.06
328.143	768.06
328.372	794.06
328.6	764.06
328.829	802.06
329.058	768.06
329.287	792.06
329.515	793.06
329.744	766.06
329.972	818.06
330.201	802.06
330.43	792.06
330.658	788.06
330.887	792.06
331.115	812.06
331.344	825.06
331.572	797.06
331.801	869.06
332.03	854.06
332.258	856.06
332.486	904.06
332.715	933.06
332.943	992.06
333.172	1003.06
333.4	1052.06
333.629	1076.06
333.857	1091.06
334.085	1078.06
334.314	1053.06
334.542	1020.06
334.771	1028.06
334.999	1019.06
335.227	970.06
335.455	972.06
335.684	982.06
335.912	955.06
336.14	930.06
336.369	944.06
336.597	942.06
336.825	944.06
337.053	934.06
337.281	919.06
337.51	892.06
337.738	903.06
337.966	876.06
338.194	866.06
338.422	842.06
338.65	879.06
338.878	832.06
339.106	839.06
339.334	858.06
339.562	848.06
339.79	829.06
340.018	833.06
340.246	813.06
340.474	820.06
340.702	796.06
340.93	835.06
341.158	826.06
341.386	831.06
341.614	828.06
341.842	822.06
342.07	803.06
342.298	785.06
342.526	767.06
342.754	790.06
342.981	829.06
343.209	802.06
343.437	887.06
343.665	942.06
343.893	997.06
344.12	1064.06
344.348	971.06
344.576	910.06
344.804	876.06
345.031	852.06
345.259	842.06
345.487	809.06
345.714	827.06
345.942	810.06
346.17	786.06
346.397	814.06
346.625	786.06
346.853	790.06
347.08	789.06
347.308	800.06
347.535	818.06
347.763	824.06
347.99	816.06
348.218	807.06
348.445	809.06
348.673	790.06
348.9	779.06
349.128	797.06
349.355	758.06
349.583	758.06
349.81	750.06
350.037	762.06
350.265	753.06
350.492	770.06
350.72	752.06
350.947	772.06
351.174	757.06
351.402	757.06
351.629	748.06
351.856	770.06
352.083	752.06
352.311	724.06
352.538	754.06
352.765	743.06
352.992	734.06
353.22	769.06
353.447	742.06
353.674	744.06
353.901	742.06
354.128	748.06
354.355	763.06
354.583	766.06
354.81	779.06
355.037	779.06
355.264	779.06
355.491	772.06
355.718	746.06
355.945	771.06
356.172	794.06
356.399	754.06
356.626	756.06
356.853	746.06
357.08	741.06
357.307	772.06
357.534	766.06
357.761	758.06
357.988	747.06
358.215	762.06
358.441	735.06
358.668	732.06
358.895	748.06
359.122	768.06
359.349	748.06
359.576	766.06
359.802	763.06
360.029	777.06
360.256	750.06
360.483	743.06
360.709	755.06
360.936	756.06
361.163	746.06
361.39	747.06
361.616	788.06
361.843	759.06
362.07	741.06
362.296	754.06
362.523	748.06
362.749	761.06
362.976	758.06
363.203	730.06
363.429	728.06
363.656	773.06
363.882	730.06
364.109	741.06
364.335	739.06
364.562	737.06
364.788	753.06
365.015	760.06
365.241	739.06
365.468	730.06
365.694	757.06
365.92	767.06
366.147	766.06
366.373	745.06
366.599	755.06
366.826	724.06
367.052	724.06
367.278	772.06
367.505	770.06
367.731	755.06
367.957	733.06
368.184	750.06
368.41	750.06
368.636	781.06
368.862	786.06
369.089	770.06
369.315	770.06
369.541	792.06
369.767	810.06
369.993	794.06
370.219	797.06
370.445	792.06
370.672	805.06
370.898	801.06
371.124	823.06
371.35	841.06
371.576	833.06
371.802	829.06
372.028	826.06
372.254	818.06
372.48	842.06
372.706	862.06
372.932	869.06
373.158	858.06
373.384	834.06
373.61	828.06
373.835	842.06
374.061	835.06
374.287	827.06
374.513	856.06
374.739	867.06
374.965	915.06
375.191	930.06
375.416	934.06
375.642	910.06
375.868	871.06
376.094	840.06
376.319	847.06
376.545	862.06
376.771	843.06
376.997	852.06
377.222	828.06
377.448	828.06
377.674	826.06
377.899	830.06
378.125	806.06
378.35	835.06
378.576	823.06
378.802	792.06
379.027	813.06
379.253	794.06
379.478	789.06
379.704	813.06
379.929	821.06
380.155	813.06
380.38	812.06
380.606	799.06
380.831	812.06
381.057	804.06
381.282	823.06
381.507	837.06
381.733	832.06
381.958	826.06
382.184	853.06
382.409	852.06
382.634	855.06
382.86	887.06
383.085	890.06
383.31	923.06
383.535	922.06
383.761	940.06
383.986	944.06
384.211	969.06
384.436	979.06
384.662	985.06
384.887	1019.06
385.112	994.06
385.337	1017.06
385.562	1006.06
385.787	1001.06
386.013	993.06
386.238	993.06
386.463	1012.06
386.688	998.06
386.913	988.06
387.138	981.06
387.363	1025.06
387.588	984.06
387.813	987.06
388.038	1003.06
388.263	1008.06
388.488	996.06
388.713	991.06
388.938	988.06
389.163	970.06
389.387	981.06
389.612	969.06
389.837	987.06
390.062	982.06
390.287	981.06
390.512	953.06
390.736	984.06
390.961	1014.06
391.186	1030.06
391.411	1055.06
391.636	1069.06
391.86	1107.06
392.085	1144.06
392.31	1123.06
392.534	1099.06
392.759	1070.06
392.984	1076.06
393.208	1060.06
393.433	1033.06
393.658	1076.06
393.882	1052.06
394.107	1060.06
394.331	1052.06
394.556	1069.06
394.78	1073.06
395.005	1079.06
395.229	1099.06
395.454	1113.06
395.678	1135.06
395.903	1117.06
396.127	1110.06
396.352	1062.06
396.576	1036.06
396.801	1063.06
397.025	1078.06
397.249	1063.06
397.474	1122.06
397.698	1122.06
397.922	1121.06
398.147	1116.06
398.371	1130.06
398.595	1168.06
398.82	1213.06
399.044	1330.06
399.268	1456.06
399.492	1738.06
399.717	2000.06
399.941	1956.06
400.165	1724.06
400.389	1572.06
400.613	1394.06
400.837	1311.06
401.062	1253.06
401.286	1246.06
401.51	1259.06
401.734	1247.06
401.958	1272.06
402.182	1270.06
402.406	1303.06
402.63	1319.06
402.854	1333.06
403.078	1385.06
403.302	1409.06
403.526	1422.06
403.75	1435.06
403.974	1489.06
404.198	1498.06
404.422	1533.06
404.645	1522.06
404.869	1463.06
405.093	1496.06
405.317	1417.06
405.541	1408.06
405.765	1400.06
405.988	1342.06
406.212	1400.06
406.436	1394.06
406.66	1429.06
406.883	1438.06
407.107	1537.06
407.331	1630.06
407.555	1652.06
407.778	1644.06
408.002	1620.06
408.226	1560.06
408.449	1487.06
408.673	1460.06
408.896	1440.06
409.12	1402.06
409.344	1441.06
409.567	1456.06
409.791	1434.06
410.014	1433.06
410.238	1390.06
410.461	1403.06
410.685	1380.06
410.908	1387.06
411.132	1350.06
411.355	1342.06
411.578	1318.06
411.802	1286.06
412.025	1344.06
412.249	1334.06
412.472	1307.06
412.695	1290.06
412.919	1284.06
413.142	1288.06
413.365	1285.06
413.589	1281.06
413.812	1266.06
414.035	1233.06
414.258	1235.06
414.482	1255.06
414.705	1279.06
414.928	1294.06
415.151	1269.06
415.374	1287.06
415.597	1259.06
415.821	1227.06
416.044	1196.06
416.267	1228.06
416.49	1254.06
416.713	1218.06
416.936	1224.06
417.159	1225.06
417.382	1223.06
417.605	1230.06
417.828	1204.06
418.051	1257.06
418.274	1276.06
418.497	1261.06
418.72	1288.06
418.943	1287.06
419.166	1362.06
419.389	1426.06
419.611	1422.06
419.834	1314.06
420.057	1298.06
420.28	1260.06
420.503	1210.06
420.726	1201.06
420.948	1245.06
421.171	1249.06
421.394	1234.06
421.617	1220.06
421.839	1270.06
422.062	1241.06
422.285	1240.06
422.507	1290.06
422.73	1291.06
422.953	1303.06
423.175	1300.06
423.398	1354.06
423.621	1313.06
423.843	1361.06
424.066	1358.06
424.288	1324.06
424.511	1295.06
424.733	1340.06
424.956	1286.06
425.178	1278.06
425.401	1264.06
425.623	1244.06
425.846	1206.06
426.068	1188.06
426.291	1156.06
426.513	1173.06
426.735	1174.06
426.958	1161.06
427.18	1114.06
427.402	1097.06
427.625	1130.06
427.847	1106.06
428.069	1106.06
428.292	1124.06
428.514	1107.06
428.736	1083.06
428.958	1087.06
429.181	1080.06
429.403	1062.06
429.625	1051.06
429.847	1085.06
430.069	1058.06
430.292	1094.06
430.514	1053.06
430.736	1074.06
430.958	1091.06
431.18	1072.06
431.402	1073.06
431.624	1075.06
431.846	1095.06
432.068	1118.06
432.29	1122.06
432.512	1109.06
432.734	1107.06
432.956	1089.06
433.178	1099.06
433.4	1133.06
433.622	1124.06
433.844	1152.06
434.066	1129.06
434.287	1114.06
434.509	1165.06
434.731	1252.06
434.953	1243.06
435.175	1245.06
435.397	1258.06
435.618	1193.06
435.84	1151.06
436.062	1094.06
436.284	1125.06
436.505	1100.06
436.727	1082.06
436.949	1125.06
437.17	1113.06
437.392	1082.06
437.614	1073.06
437.835	1035.06
438.057	1062.06
438.278	1057.06
438.5	1033.06
438.721	1067.06
438.943	1083.06
439.165	1064.06
439.386	1056.06
439.608	1095.06
439.829	1065.06
440.05	1093.06
440.272	1104.06
440.493	1102.06
440.715	1143.06
440.936	1154.06
441.158	1152.06
441.379	1184.06
441.6	1261.06
441.822	1275.06
442.043	1278.06
442.264	1232.06
442.486	1216.06
442.707	1237.06
442.928	1210.06
443.149	1223.06
443.371	1200.06
443.592	1235.06
443.813	1243.06
444.034	1265.06
444.255	1308.06
444.476	1372.06
444.698	1464.06
444.919	1508.06
445.14	1557.06
445.361	1407.06
445.582	1282.06
445.803	1203.06
446.024	1170.06
446.245	1186.06
446.466	1141.06
446.687	1113.06
446.908	1122.06
447.129	1104.06
447.35	1063.06
447.571	1075.06
447.792	1018.06
448.013	1042.06
448.234	982.06
448.455	996.06
448.675	999.06
448.896	1016.06
449.117	979.06
449.338	1028.06
449.559	970.06
449.779	1006.06
450	971.06
450.221	999.06
450.442	982.06
450.662	1007.06
450.883	1022.06
451.104	1049.06
451.324	1032.06
451.545	1016.06
451.766	1004.06
451.986	974.06
452.207	1012.06
452.428	1023.06
452.648	1012.06
452.869	976.06
453.089	964.06
453.31	991.06
453.53	985.06
453.751	998.06
453.971	968.06
454.192	958.06
454.412	951.06
454.633	933.06
454.853	943.06
455.073	933.06
455.294	960.06
455.514	950.06
455.734	935.06
455.955	904.06
456.175	926.06
456.395	924.06
456.616	917.06
456.836	917.06
457.056	952.06
457.276	916.06
457.497	911.06
457.717	915.06
457.937	964.06
458.157	941.06
458.377	973.06
458.598	974.06
458.818	1012.06
459.038	1049.06
459.258	1052.06
459.478	1113.06
459.698	1152.06
459.918	1176.06
460.138	1226.06
460.358	1282.06
460.578	1280.06
460.798	1324.06
461.018	1320.06
461.238	1280.06
461.458	1269.06
461.678	1297.06
461.898	1311.06
462.118	1332.06
462.338	1396.06
462.558	1404.06
462.777	1417.06
462.997	1639.06
463.217	1789.06
463.437	1806.06
463.657	1627.06
463.876	1537.06
464.096	1547.06
464.316	1577.06
464.536	1558.06
464.755	1496.06
464.975	1448.06
465.195	1355.06
465.414	1267.06
465.634	1164.06
465.854	1176.06
466.073	1104.06
466.293	1102.06
466.512	1047.06
466.732	1076.06
466.951	1045.06
467.171	1011.06
467.391	1076.06
467.61	1065.06
467.829	1033.06
468.049	1043.06
468.268	1026.06
468.488	993.06
468.707	997.06
468.927	988.06
469.146	969.06
469.365	1026.06
469.585	1012.06
469.804	1056.06
470.023	1068.06
470.243	1089.06
470.462	1112.06
470.681	1109.06
470.901	1113.06
471.12	1072.06
471.339	1058.06
471.558	1049.06
471.777	1032.06
471.997	1024.06
472.216	1032.06
472.435	990.06
472.654	954.06
472.873	997.06
473.092	994.06
473.311	972.06
473.53	984.06
473.749	960.06
473.968	990.06
474.187	968.06
474.406	929.06
474.625	987.06
474.844	980.06
475.063	988.06
475.282	982.06
475.501	969.06
475.72	1001.06
475.939	995.06
476.158	1028.06
476.377	1013.06
476.596	1030.06
476.814	1032.06
477.033	1036.06
477.252	1073.06
477.471	1064.06
477.69	1086.06
477.908	1121.06
478.127	1142.06
478.346	1160.06
478.564	1180.06
478.783	1185.06
479.002	1258.06
479.22	1219.06
479.439	1248.06
479.658	1224.06
479.876	1238.06
480.095	1256.06
480.313	1276.06
480.532	1346.06
480.751	1331.06
480.969	1268.06
481.188	1212.06
481.406	1194.06
481.624	1150.06
481.843	1158.06
482.061	1134.06
482.28	1111.06
482.498	1122.06
482.717	1072.06
482.935	1115.06
483.153	1121.06
483.372	1098.06
483.59	1109.06
483.808	1149.06
484.027	1106.06
484.245	1151.06
484.463	1133.06
484.681	1150.06
484.9	1156.06
485.118	1164.06
485.336	1180.06
485.554	1177.06
485.772	1201.06
485.99	1182.06
486.209	1184.06
486.427	1180.06
486.645	1160.06
486.863	1202.06
487.081	1202.06
487.299	1165.06
487.517	1170.06
487.735	1184.06
487.953	1196.06
488.171	1192.06
488.389	1167.06
488.607	1175.06
488.825	1159.06
489.043	1177.06
489.261	1174.06
489.479	1189.06
489.696	1187.06
489.914	1181.06
490.132	1195.06
490.35	1163.06
490.568	1194.06
490.786	1158.06
491.003	1172.06
491.221	1216.06
491.439	1158.06
491.657	1179.06
491.874	1188.06
492.092	1190.06
492.31	1188.06
492.527	1182.06
492.745	1239.06
492.963	1203.06
493.18	1220.06
493.398	1180.06
493.615	1209.06
493.833	1237.06
494.05	1217.06
494.268	1207.06
494.485	1196.06
494.703	1237.06
494.92	1248.06
495.138	1217.06
495.355	1212.06
495.573	1213.06
495.79	1250.06
496.008	1266.06
496.225	1260.06
496.442	1259.06
496.66	1292.06
496.877	1310.06
497.094	1346.06
497.312	1347.06
497.529	1358.06
497.746	1404.06
497.963	1466.06
498.181	1521.06
498.398	1542.06
498.615	1687.06
498.832	1789.06
499.049	1963.06
499.267	2060.06
499.484	2276.06
499.701	2554.06
499.918	2854.06
500.135	3363.06
500.352	3832.06
500.569	4062.06
500.786	3994.06
501.003	3714.06
501.22	3248.06
501.437	2873.06
501.654	2469.06
501.871	2238.06
502.088	2037.06
502.305	1907.06
502.522	1839.06
502.739	1776.06
502.956	1639.06
503.172	1586.06
503.389	1470.06
503.606	1457.06
503.823	1396.06
504.04	1430.06
504.256	1459.06
504.473	1465.06
504.69	1511.06
504.907	1505.06
505.123	1395.06
505.34	1260.06
505.557	1251.06
505.773	1198.06
505.99	1168.06
506.207	1146.06
506.423	1161.06
506.64	1112.06
506.856	1103.06
507.073	1080.06
507.289	1105.06
507.506	1086.06
507.722	1077.06
507.939	1079.06
508.155	1065.06
508.372	1052.06
508.588	1039.06
508.805	1016.06
509.021	1026.06
509.238	1027.06
509.454	1059.06
509.67	1019.06
509.887	1005.06
510.103	1002.06
510.319	998.06
510.536	1001.06
510.752	989.06
510.968	1001.06
511.184	978.06
511.401	975.06
511.617	991.06
511.833	993.06
512.049	988.06
512.265	993.06
512.481	987.06
512.698	958.06
512.914	992.06
513.13	991.06
513.346	1000.06
513.562	999.06
513.778	987.06
513.994	1006.06
514.21	1010.06
514.426	1004.06
514.642	968.06
514.858	1017.06
515.074	1038.06
515.29	1061.06
515.506	1045.06
515.721	1072.06
515.937	1074.06
516.153	1096.06
516.369	1130.06
516.585	1128.06
516.801	1197.06
517.016	1239.06
517.232	1332.06
517.448	1376.06
517.664	1431.06
517.879	1428.06
518.095	1417.06
518.311	1420.06
518.527	1345.06
518.742	1295.06
518.958	1209.06
519.173	1182.06
519.389	1138.06
519.605	1098.06
519.82	1041.06
520.036	1052.06
520.251	1019.06
520.467	1024.06
520.682	1019.06
520.898	1005.06
521.113	993.06
521.329	979.06
521.544	972.06
521.76	996.06
521.975	975.06
522.19	973.06
522.406	919.06
522.621	929.06
522.836	941.06
523.052	922.06
523.267	919.06
523.482	906.06
523.698	903.06
523.913	916.06
524.128	903.06
524.343	905.06
524.559	935.06
524.774	924.06
524.989	898.06
525.204	890.06
525.419	902.06
525.634	896.06
525.849	887.06
526.064	913.06
526.28	882.06
526.495	920.06
526.71	915.06
526.925	864.06
527.14	889.06
527.355	902.06
527.57	876.06
527.785	899.06
527.999	912.06
528.214	898.06
528.429	911.06
528.644	902.06
528.859	894.06
529.074	900.06
529.289	923.06
529.503	922.06
529.718	861.06
529.933	910.06
530.148	869.06
530.363	920.06
530.577	871.06
530.792	896.06
531.007	922.06
531.221	893.06
531.436	900.06
531.651	930.06
531.865	875.06
532.08	930.06
532.295	904.06
532.509	874.06
532.724	886.06
532.938	894.06
533.153	905.06
533.367	898.06
533.582	886.06
533.796	910.06
534.011	887.06
534.225	916.06
534.44	877.06
534.654	901.06
534.868	864.06
535.083	880.06
535.297	876.06
535.511	865.06
535.726	865.06
535.94	887.06
536.154	854.06
536.369	843.06
536.583	814.06
536.797	850.06
537.011	835.06
537.225	836.06
537.44	825.06
537.654	811.06
537.868	816.06
538.082	810.06
538.296	826.06
538.51	800.06
538.724	786.06
538.938	830.06
539.153	800.06
539.367	820.06
539.581	777.06
539.795	812.06
540.009	798.06
540.222	800.06
540.436	801.06
540.65	796.06
540.864	771.06
541.078	795.06
541.292	803.06
541.506	809.06
541.72	810.06
541.934	789.06
542.147	818.06
542.361	809.06
542.575	766.06
542.789	783.06
543.002	765.06
543.216	786.06
543.43	775.06
543.644	757.06
543.857	780.06
544.071	800.06
544.285	768.06
544.498	797.06
544.712	798.06
544.925	797.06
545.139	808.06
545.352	811.06
545.566	815.06
545.779	829.06
545.993	845.06
546.206	822.06
546.42	812.06
546.633	826.06
546.847	818.06
547.06	842.06
547.274	809.06
547.487	793.06
547.7	789.06
547.914	830.06
548.127	809.06
548.34	808.06
548.554	808.06
548.767	831.06
548.98	821.06
549.193	842.06
549.407	816.06
549.62	845.06
549.833	878.06
550.046	847.06
550.259	830.06
550.473	807.06
550.686	802.06
550.899	788.06
551.112	815.06
551.325	795.06
551.538	766.06
551.751	792.06
551.964	795.06
552.177	823.06
552.39	809.06
552.603	861.06
552.816	869.06
553.029	882.06
553.242	902.06
553.455	911.06
553.667	904.06
553.88	877.06
554.093	861.06
554.306	852.06
554.519	842.06
554.732	797.06
554.944	816.06
555.157	794.06
555.37	776.06
555.583	752.06
555.795	745.06
556.008	742.06
556.221	701.06
556.433	711.06
556.646	713.06
556.859	721.06
557.071	692.06
557.284	685.06
557.496	709.06
557.709	678.06
557.921	697.06
558.134	690.06
558.346	701.06
558.559	695.06
558.771	699.06
558.984	677.06
559.196	673.06
559.409	662.06
559.621	664.06
559.833	682.06
560.046	697.06
560.258	650.06
560.47	672.06
560.683	661.06
560.895	674.06
561.107	665.06
561.32	641.06
561.532	663.06
561.744	676.06
561.956	674.06
562.168	660.06
562.381	665.06
562.593	667.06
562.805	693.06
563.017	672.06
563.229	684.06
563.441	677.06
563.653	669.06
563.865	686.06
564.077	691.06
564.289	699.06
564.501	718.06
564.713	711.06
564.925	722.06
565.137	747.06
565.349	736.06
565.561	758.06
565.773	804.06
565.985	810.06
566.197	889.06
566.408	948.06
566.62	1046.06
566.832	1136.06
567.044	1154.06
567.255	1140.06
567.467	1180.06
567.679	1258.06
567.891	1375.06
568.102	1405.06
568.314	1333.06
568.526	1178.06
568.737	1078.06
568.949	963.06
569.161	906.06
569.372	823.06
569.584	772.06
569.795	749.06
570.007	720.06
570.218	716.06
570.43	705.06
570.641	728.06
570.853	686.06
571.064	714.06
571.276	719.06
571.487	685.06
571.698	672.06
571.91	626.06
572.121	609.06
572.333	618.06
572.544	595.06
572.755	594.06
572.966	596.06
573.178	585.06
573.389	587.06
573.6	562.06
573.811	556.06
574.023	562.06
574.234	556.06
574.445	562.06
574.656	550.06
574.867	544.06
575.078	550.06
575.289	567.06
575.501	562.06
575.712	539.06
575.923	527.06
576.134	537.06
576.345	538.06
576.556	523.06
576.767	532.06
576.978	551.06
577.188	522.06
577.399	508.06
577.61	532.06
577.821	492.06
578.032	530.06
578.243	494.06
578.454	490.06
578.665	482.06
578.875	489.06
579.086	473.06
579.297	472.06
579.508	470.06
579.718	478.06
579.929	494.06
580.14	475.06
580.35	469.06
580.561	473.06
580.772	463.06
580.982	455.06
581.193	461.06
581.403	476.06
581.614	472.06
581.825	475.06
582.035	460.06
582.246	470.06
582.456	449.06
582.667	461.06
582.877	467.06
583.087	449.06
583.298	418.06
583.508	445.06
583.719	455.06
583.929	453.06
584.139	467.06
584.35	444.06
584.56	429.06
584.77	441.06
584.981	441.06
585.191	449.06
585.401	455.06
585.611	449.06
585.821	420.06
586.032	450.06
586.242	422.06
586.452	436.06
586.662	442.06
586.872	445.06
587.082	435.06
587.292	424.06
587.502	437.06
587.713	442.06
587.923	445.06
588.133	452.06
588.343	440.06
588.553	440.06
588.762	432.06
588.972	434.06
589.182	442.06
589.392	442.06
589.602	443.06
589.812	454.06
590.022	442.06
590.232	432.06
590.441	433.06
590.651	454.06
590.861	461.06
591.071	445.06
591.281	457.06
591.49	442.06
591.7	473.06
591.91	477.06
592.119	488.06
592.329	496.06
592.539	518.06
592.748	536.06
592.958	554.06
593.167	555.06
593.377	584.06
593.587	560.06
593.796	576.06
594.006	587.06
594.215	585.06
594.424	590.06
594.634	573.06
594.843	557.06
595.053	516.06
595.262	500.06
595.472	488.06
595.681	482.06
595.89	475.06
596.1	459.06
596.309	436.06
596.518	430.06
596.727	426.06
596.937	421.06
597.146	398.06
597.355	398.06
597.564	401.06
597.774	417.06
597.983	396.06
598.192	406.06
598.401	390.06
598.61	381.06
598.819	385.06
599.028	361.06
599.237	367.06
599.446	402.06
599.655	378.06
599.864	368.06
600.073	355.06
600.282	374.06
600.491	376.06
600.7	370.06
600.909	375.06
601.118	381.06
601.327	386.06
601.536	374.06
601.745	347.06
601.953	341.06
602.162	345.06
602.371	350.06
602.58	344.06
602.789	374.06
602.997	373.06
603.206	365.06
603.415	353.06
603.623	351.06
603.832	356.06
604.041	332.06
604.249	350.06
604.458	355.06
604.666	352.06
604.875	344.06
605.084	353.06
605.292	339.06
605.501	371.06
605.709	362.06
605.918	346.06
606.126	335.06
606.334	345.06
606.543	342.06
606.751	322.06
606.96	368.06
607.168	334.06
607.376	334.06
607.585	338.06
607.793	335.06
608.001	340.06
608.21	316.06
608.418	334.06
608.626	325.06
608.834	332.06
609.043	347.06
609.251	345.06
609.459	332.06
609.667	329.06
609.875	324.06
610.083	328.06
610.291	321.06
610.499	322.06
610.707	336.06
610.916	329.06
611.124	325.06
611.332	323.06
611.54	325.06
611.748	327.06
611.955	330.06
612.163	326.06
612.371	317.06
612.579	324.06
612.787	315.06
612.995	307.06
613.203	304.06
613.411	324.06
613.618	317.06
613.826	309.06
614.034	312.06
614.242	326.06
614.449	324.06
614.657	321.06
614.865	327.06
615.072	324.06
615.28	328.06
615.488	315.06
615.695	319.06
615.903	325.06
616.111	316.06
616.318	327.06
616.526	341.06
616.733	334.06
616.941	335.06
617.148	332.06
617.356	338.06
617.563	321.06
617.771	333.06
617.978	321.06
618.185	331.06
618.393	306.06
618.6	329.06
618.807	324.06
619.015	307.06
619.222	321.06
619.429	326.06
619.637	303.06
619.844	315.06
620.051	311.06
620.258	309.06
620.466	310.06
620.673	312.06
620.88	280.06
621.087	292.06
621.294	283.06
621.501	305.06
621.708	289.06
621.915	279.06
622.122	297.06
622.329	290.06
622.536	284.06
622.743	309.06
622.95	293.06
623.157	273.06
623.364	294.06
623.571	279.06
623.778	269.06
623.985	283.06
624.192	283.06
624.399	275.06
624.606	280.06
624.812	276.06
625.019	270.06
625.226	276.06
625.433	278.06
625.639	275.06
625.846	274.06
626.053	271.06
626.259	269.06
626.466	280.06
626.673	281.06
626.879	261.06
627.086	263.06
627.293	269.06
627.499	254.06
627.706	244.06
627.912	253.06
628.119	258.06
628.325	265.06
628.532	263.06
628.738	260.06
628.945	259.06
629.151	264.06
629.357	254.06
629.564	228.06
629.77	263.06
629.976	258.06
630.183	234.06
630.389	260.06
630.595	268.06
630.802	258.06
631.008	233.06
631.214	244.06
631.42	225.06
631.627	251.06
631.833	237.06
632.039	235.06
632.245	219.06
632.451	244.06
632.657	236.06
632.863	217.06
633.069	227.06
633.275	247.06
633.481	244.06
633.688	229.06
633.893	236.06
634.099	245.06
634.305	233.06
634.511	219.06
634.717	213.06
634.923	244.06
635.129	228.06
635.335	211.06
635.541	234.06
635.747	228.06
635.952	220.06
636.158	227.06
636.364	240.06
636.57	221.06
636.775	229.06
636.981	220.06
637.187	202.06
637.392	214.06
637.598	221.06
637.804	237.06
638.009	231.06
638.215	223.06
638.421	225.06
638.626	206.06
638.832	229.06
639.037	218.06
639.243	233.06
639.448	224.06
639.654	219.06
639.859	206.06
640.065	200.06
640.27	210.06
640.475	210.06
640.681	203.06
640.886	221.06
641.091	216.06
641.297	205.06
641.502	200.06
641.707	199.06
641.913	199.06
642.118	206.06
642.323	205.06
642.528	221.06
642.733	215.06
642.939	227.06
643.144	212.06
643.349	206.06
643.554	216.06
643.759	202.06
643.964	206.06
644.169	198.06
644.374	201.06
644.579	209.06
644.784	189.06
644.989	206.06
645.194	200.06
645.399	213.06
645.604	212.06
645.809	217.06
646.014	210.06
646.219	205.06
646.423	211.06
646.628	221.06
646.833	212.06
647.038	204.06
647.243	221.06
647.447	209.06
647.652	210.06
647.857	216.06
648.062	216.06
648.266	227.06
648.471	228.06
648.676	211.06
648.88	213.06
649.085	211.06
649.289	206.06
649.494	192.06
649.698	192.06
649.903	206.06
650.107	212.06
650.312	221.06
650.516	186.06
650.721	205.06
650.925	189.06
651.13	200.06
651.334	179.06
651.539	182.06
651.743	191.06
651.947	182.06
652.152	182.06
652.356	170.06
652.56	166.06
652.764	171.06
652.969	180.06
653.173	185.06
653.377	173.06
653.581	152.06
653.785	159.06
653.99	178.06
654.194	160.06
654.398	160.06
654.602	146.06
654.806	158.06
655.01	175.06
655.214	131.06
655.418	150.06
655.622	156.06
655.826	165.06
656.03	168.06
656.234	193.06
656.438	167.06
656.642	156.06
656.846	170.06
657.049	163.06
657.253	144.06
657.457	153.06
657.661	145.06
657.865	136.06
658.068	132.06
658.272	137.06
658.476	134.06
658.68	122.06
658.883	115.06
659.087	103.06
659.291	104.06
659.494	101.06
659.698	123.06
659.901	104.06
660.105	100.06
660.309	100.06
660.512	109.06
660.716	97.06
660.919	99.06
661.123	92.06
661.326	107.06
661.53	99.06
661.733	94.06
661.936	89.06
662.14	86.06
662.343	88.06
662.546	88.06
662.75	88.06
662.953	79.06
663.156	93.06
663.36	100.06
663.563	76.06
663.766	79.06
663.969	82.06
664.173	82.06
664.376	78.06
664.579	86.06
664.782	85.06
664.985	78.06
665.188	83.06
665.391	100.06
665.594	81.06
665.797	72.06
666	77.06
666.203	79.06
666.406	86.06
666.609	86.06
666.812	79.06
667.015	70.06
667.218	78.06
667.421	84.06
667.624	80.06
667.827	82.06
668.03	68.06
668.232	92.06
668.435	86.06
668.638	87.06
668.841	80.06
669.043	89.06
669.246	86.06
669.449	79.06
669.651	88.06
669.854	79.06
670.057	81.06
670.259	83.06
670.462	86.06
670.665	82.06
670.867	83.06
671.07	84.06
671.272	83.06
671.475	72.06
671.677	76.06
671.88	96.06
672.082	89.06
672.284	78.06
672.487	85.06
672.689	101.06
672.892	77.06
