Data from Ni(NO3)2@0.0625M.TitratingCurve.Agarose3%dH2O.NegLispCup.LampEnergy10.LIBS07252019_HRD10591_18-14-08-568.txt Node
Date: Thu Jul 25 18:14:08 EDT 2019
User: cochatt
Spectrometer: HR+D1059
Trigger mode: 1
Integration Time (sec): 1.000000E-1
Scans to average: 1
Electric dark correction enabled: true
Nonlinearity correction enabled: false
Boxcar width: 0
XAxis mode: Wavelengths
Number of Pixels in Spectrum: 2048
>>>>>Begin Spectral Data<<<<<
223.165	-12.75
223.4	-12.75
223.635	-12.75
223.869	-22.75
224.104	-26.75
224.338	-15.75
224.573	-3.75
224.808	-12.75
225.042	-3.75
225.277	-10.75
225.511	6.25
225.746	-3.75
225.98	11.25
226.215	16.25
226.449	19.25
226.683	12.25
226.918	13.25
227.152	34.25
227.387	13.25
227.621	39.25
227.856	42.25
228.09	39.25
228.324	50.25
228.559	41.25
228.793	71.25
229.027	113.25
229.262	102.25
229.496	125.25
229.73	121.25
229.964	106.25
230.199	125.25
230.433	129.25
230.667	122.25
230.901	142.25
231.136	147.25
231.37	153.25
231.604	138.25
231.838	153.25
232.072	162.25
232.306	163.25
232.541	151.25
232.775	135.25
233.009	154.25
233.243	139.25
233.477	150.25
233.711	147.25
233.945	160.25
234.179	153.25
234.413	142.25
234.647	156.25
234.881	144.25
235.115	161.25
235.349	148.25
235.583	157.25
235.817	145.25
236.051	160.25
236.285	153.25
236.519	153.25
236.753	158.25
236.987	166.25
237.221	165.25
237.455	174.25
237.689	159.25
237.922	167.25
238.156	166.25
238.39	175.25
238.624	170.25
238.858	181.25
239.091	192.25
239.325	170.25
239.559	170.25
239.793	190.25
240.027	182.25
240.26	176.25
240.494	170.25
240.728	185.25
240.961	200.25
241.195	197.25
241.429	192.25
241.662	191.25
241.896	189.25
242.13	199.25
242.363	213.25
242.597	183.25
242.83	191.25
243.064	192.25
243.298	201.25
243.531	211.25
243.765	202.25
243.998	216.25
244.232	216.25
244.465	206.25
244.699	205.25
244.932	218.25
245.166	211.25
245.399	234.25
245.633	218.25
245.866	218.25
246.099	228.25
246.333	218.25
246.566	234.25
246.8	228.25
247.033	232.25
247.266	232.25
247.5	222.25
247.733	243.25
247.966	240.25
248.2	247.25
248.433	248.25
248.666	261.25
248.899	244.25
249.133	256.25
249.366	261.25
249.599	251.25
249.832	253.25
250.066	264.25
250.299	279.25
250.532	264.25
250.765	255.25
250.998	263.25
251.231	265.25
251.465	258.25
251.698	267.25
251.931	266.25
252.164	272.25
252.397	291.25
252.63	297.25
252.863	285.25
253.096	273.25
253.329	278.25
253.562	289.25
253.795	264.25
254.028	288.25
254.261	272.25
254.494	277.25
254.727	280.25
254.96	280.25
255.193	310.25
255.426	303.25
255.659	280.25
255.892	303.25
256.124	291.25
256.357	296.25
256.59	307.25
256.823	291.25
257.056	309.25
257.289	315.25
257.521	305.25
257.754	297.25
257.987	299.25
258.22	310.25
258.452	327.25
258.685	317.25
258.918	314.25
259.151	296.25
259.383	318.25
259.616	311.25
259.849	328.25
260.081	325.25
260.314	320.25
260.547	327.25
260.779	323.25
261.012	323.25
261.244	327.25
261.477	340.25
261.71	317.25
261.942	327.25
262.175	316.25
262.407	347.25
262.64	334.25
262.872	349.25
263.105	345.25
263.337	346.25
263.57	353.25
263.802	353.25
264.035	350.25
264.267	340.25
264.499	362.25
264.732	355.25
264.964	351.25
265.197	353.25
265.429	367.25
265.661	349.25
265.894	373.25
266.126	348.25
266.358	335.25
266.591	361.25
266.823	376.25
267.055	365.25
267.287	392.25
267.52	371.25
267.752	362.25
267.984	373.25
268.216	383.25
268.448	397.25
268.681	402.25
268.913	385.25
269.145	392.25
269.377	389.25
269.609	386.25
269.841	385.25
270.073	393.25
270.306	416.25
270.538	401.25
270.77	407.25
271.002	393.25
271.234	392.25
271.466	409.25
271.698	389.25
271.93	385.25
272.162	381.25
272.394	418.25
272.626	410.25
272.858	398.25
273.09	425.25
273.322	415.25
273.553	414.25
273.785	421.25
274.017	431.25
274.249	421.25
274.481	425.25
274.713	406.25
274.945	426.25
275.176	426.25
275.408	410.25
275.64	444.25
275.872	418.25
276.104	434.25
276.335	438.25
276.567	437.25
276.799	439.25
277.031	442.25
277.262	435.25
277.494	438.25
277.726	430.25
277.957	450.25
278.189	432.25
278.421	456.25
278.652	466.25
278.884	456.25
279.115	461.25
279.347	454.25
279.579	457.25
279.81	474.25
280.042	472.25
280.273	446.25
280.505	471.25
280.736	474.25
280.968	463.25
281.199	468.25
281.431	465.25
281.662	470.25
281.894	487.25
282.125	476.25
282.356	510.25
282.588	479.25
282.819	480.25
283.051	485.25
283.282	483.25
283.513	498.25
283.745	498.25
283.976	503.25
284.207	498.25
284.439	491.25
284.67	469.25
284.901	515.25
285.132	506.25
285.364	520.25
285.595	511.25
285.826	496.25
286.057	511.25
286.288	522.25
286.52	491.25
286.751	512.25
286.982	523.25
287.213	537.25
287.444	558.25
287.675	539.25
287.906	553.25
288.138	531.25
288.369	534.25
288.6	530.25
288.831	549.25
289.062	562.25
289.293	545.25
289.524	538.25
289.755	546.25
289.986	535.25
290.217	528.25
290.448	549.25
290.679	543.25
290.91	534.25
291.141	548.25
291.371	533.25
291.602	549.25
291.833	551.25
292.064	540.25
292.295	554.25
292.526	568.25
292.757	568.25
292.987	514.25
293.218	573.25
293.449	562.25
293.68	545.25
293.91	529.25
294.141	559.25
294.372	533.25
294.603	564.25
294.833	536.25
295.064	536.25
295.295	580.25
295.525	548.25
295.756	576.25
295.987	579.25
296.217	569.25
296.448	574.25
296.679	579.25
296.909	590.25
297.14	571.25
297.37	573.25
297.601	610.25
297.831	591.25
298.062	589.25
298.292	588.25
298.523	618.25
298.753	607.25
298.984	579.25
299.214	590.25
299.445	600.25
299.675	600.25
299.905	600.25
300.136	580.25
300.366	603.25
300.597	613.25
300.827	621.25
301.057	621.25
301.288	628.25
301.518	614.25
301.748	643.25
301.979	659.25
302.209	654.25
302.439	645.25
302.669	651.25
302.9	628.25
303.13	611.25
303.36	608.25
303.59	604.25
303.82	604.25
304.051	622.25
304.281	632.25
304.511	630.25
304.741	607.25
304.971	627.25
305.201	607.25
305.431	630.25
305.661	613.25
305.891	613.25
306.121	623.25
306.352	632.25
306.582	617.25
306.812	615.25
307.042	633.25
307.272	621.25
307.502	613.25
307.731	611.25
307.961	608.25
308.191	615.25
308.421	590.25
308.651	599.25
308.881	604.25
309.111	618.25
309.341	621.25
309.571	615.25
309.8	606.25
310.03	615.25
310.26	622.25
310.49	610.25
310.72	617.25
310.949	612.25
311.179	655.25
311.409	629.25
311.639	628.25
311.868	636.25
312.098	619.25
312.328	642.25
312.557	639.25
312.787	618.25
313.017	639.25
313.246	667.25
313.476	675.25
313.706	658.25
313.935	672.25
314.165	647.25
314.394	662.25
314.624	674.25
314.853	647.25
315.083	650.25
315.312	636.25
315.542	665.25
315.771	647.25
316.001	638.25
316.23	667.25
316.46	641.25
316.689	652.25
316.919	655.25
317.148	638.25
317.377	626.25
317.607	623.25
317.836	648.25
318.065	641.25
318.295	630.25
318.524	655.25
318.753	637.25
318.983	650.25
319.212	628.25
319.441	625.25
319.67	641.25
319.9	658.25
320.129	651.25
320.358	627.25
320.587	656.25
320.816	646.25
321.046	661.25
321.275	635.25
321.504	657.25
321.733	651.25
321.962	660.25
322.191	653.25
322.42	662.25
322.649	663.25
322.878	655.25
323.108	664.25
323.337	668.25
323.566	669.25
323.795	661.25
324.024	679.25
324.253	671.25
324.482	655.25
324.71	666.25
324.939	696.25
325.168	696.25
325.397	697.25
325.626	690.25
325.855	705.25
326.084	719.25
326.313	704.25
326.542	713.25
326.77	738.25
326.999	704.25
327.228	678.25
327.457	697.25
327.686	712.25
327.914	715.25
328.143	724.25
328.372	714.25
328.6	738.25
328.829	706.25
329.058	720.25
329.287	709.25
329.515	710.25
329.744	732.25
329.972	727.25
330.201	720.25
330.43	712.25
330.658	751.25
330.887	740.25
331.115	753.25
331.344	780.25
331.572	761.25
331.801	785.25
332.03	806.25
332.258	802.25
332.486	835.25
332.715	842.25
332.943	891.25
333.172	930.25
333.4	970.25
333.629	998.25
333.857	971.25
334.085	957.25
334.314	954.25
334.542	953.25
334.771	926.25
334.999	911.25
335.227	896.25
335.455	869.25
335.684	882.25
335.912	863.25
336.14	852.25
336.369	861.25
336.597	886.25
336.825	887.25
337.053	869.25
337.281	836.25
337.51	838.25
337.738	824.25
337.966	814.25
338.194	809.25
338.422	786.25
338.65	789.25
338.878	763.25
339.106	806.25
339.334	791.25
339.562	753.25
339.79	765.25
340.018	777.25
340.246	742.25
340.474	771.25
340.702	757.25
340.93	755.25
341.158	739.25
341.386	738.25
341.614	751.25
341.842	791.25
342.07	737.25
342.298	727.25
342.526	728.25
342.754	724.25
342.981	723.25
343.209	777.25
343.437	840.25
343.665	900.25
343.893	955.25
344.12	960.25
344.348	907.25
344.576	844.25
344.804	820.25
345.031	769.25
345.259	766.25
345.487	744.25
345.714	742.25
345.942	738.25
346.17	727.25
346.397	718.25
346.625	731.25
346.853	736.25
347.08	747.25
347.308	726.25
347.535	719.25
347.763	753.25
347.99	732.25
348.218	707.25
348.445	743.25
348.673	713.25
348.9	710.25
349.128	734.25
349.355	744.25
349.583	746.25
349.81	696.25
350.037	715.25
350.265	699.25
350.492	710.25
350.72	697.25
350.947	692.25
351.174	699.25
351.402	721.25
351.629	672.25
351.856	691.25
352.083	705.25
352.311	701.25
352.538	696.25
352.765	686.25
352.992	692.25
353.22	706.25
353.447	713.25
353.674	696.25
353.901	703.25
354.128	682.25
354.355	685.25
354.583	685.25
354.81	709.25
355.037	693.25
355.264	723.25
355.491	726.25
355.718	705.25
355.945	731.25
356.172	721.25
356.399	694.25
356.626	715.25
356.853	717.25
357.08	703.25
357.307	715.25
357.534	697.25
357.761	707.25
357.988	702.25
358.215	721.25
358.441	701.25
358.668	673.25
358.895	696.25
359.122	708.25
359.349	699.25
359.576	727.25
359.802	710.25
360.029	711.25
360.256	725.25
360.483	694.25
360.709	694.25
360.936	728.25
361.163	720.25
361.39	697.25
361.616	696.25
361.843	693.25
362.07	709.25
362.296	723.25
362.523	715.25
362.749	692.25
362.976	701.25
363.203	721.25
363.429	691.25
363.656	698.25
363.882	675.25
364.109	685.25
364.335	701.25
364.562	709.25
364.788	675.25
365.015	699.25
365.241	701.25
365.468	674.25
365.694	689.25
365.92	701.25
366.147	685.25
366.373	708.25
366.599	707.25
366.826	701.25
367.052	689.25
367.278	682.25
367.505	706.25
367.731	702.25
367.957	724.25
368.184	702.25
368.41	710.25
368.636	704.25
368.862	723.25
369.089	721.25
369.315	735.25
369.541	724.25
369.767	687.25
369.993	741.25
370.219	723.25
370.445	733.25
370.672	739.25
370.898	754.25
371.124	769.25
371.35	784.25
371.576	767.25
371.802	764.25
372.028	735.25
372.254	767.25
372.48	774.25
372.706	773.25
372.932	792.25
373.158	801.25
373.384	767.25
373.61	765.25
373.835	779.25
374.061	765.25
374.287	755.25
374.513	798.25
374.739	807.25
374.965	851.25
375.191	877.25
375.416	870.25
375.642	819.25
375.868	815.25
376.094	793.25
376.319	801.25
376.545	781.25
376.771	769.25
376.997	773.25
377.222	774.25
377.448	792.25
377.674	779.25
377.899	757.25
378.125	737.25
378.35	761.25
378.576	754.25
378.802	756.25
379.027	761.25
379.253	760.25
379.478	776.25
379.704	762.25
379.929	748.25
380.155	765.25
380.38	789.25
380.606	772.25
380.831	747.25
381.057	753.25
381.282	779.25
381.507	793.25
381.733	754.25
381.958	777.25
382.184	784.25
382.409	813.25
382.634	819.25
382.86	806.25
383.085	797.25
383.31	835.25
383.535	857.25
383.761	849.25
383.986	884.25
384.211	901.25
384.436	933.25
384.662	922.25
384.887	935.25
385.112	919.25
385.337	927.25
385.562	926.25
385.787	926.25
386.013	954.25
386.238	941.25
386.463	946.25
386.688	957.25
386.913	919.25
387.138	904.25
387.363	914.25
387.588	906.25
387.813	901.25
388.038	919.25
388.263	924.25
388.488	907.25
388.713	905.25
388.938	903.25
389.163	880.25
389.387	922.25
389.612	918.25
389.837	913.25
390.062	884.25
390.287	907.25
390.512	874.25
390.736	918.25
390.961	932.25
391.186	925.25
391.411	956.25
391.636	1009.25
391.86	1050.25
392.085	1065.25
392.31	1063.25
392.534	994.25
392.759	999.25
392.984	994.25
393.208	967.25
393.433	945.25
393.658	984.25
393.882	969.25
394.107	979.25
394.331	981.25
394.556	1010.25
394.78	998.25
395.005	1001.25
395.229	990.25
395.454	1038.25
395.678	1073.25
395.903	1054.25
396.127	1035.25
396.352	1013.25
396.576	965.25
396.801	978.25
397.025	1008.25
397.249	1009.25
397.474	1026.25
397.698	1055.25
397.922	1052.25
398.147	1028.25
398.371	1073.25
398.595	1113.25
398.82	1160.25
399.044	1238.25
399.268	1360.25
399.492	1610.25
399.717	1885.25
399.941	1793.25
400.165	1554.25
400.389	1407.25
400.613	1274.25
400.837	1233.25
401.062	1189.25
401.286	1159.25
401.51	1153.25
401.734	1138.25
401.958	1173.25
402.182	1190.25
402.406	1186.25
402.63	1250.25
402.854	1290.25
403.078	1249.25
403.302	1301.25
403.526	1371.25
403.75	1352.25
403.974	1393.25
404.198	1403.25
404.422	1365.25
404.645	1365.25
404.869	1348.25
405.093	1363.25
405.317	1321.25
405.541	1283.25
405.765	1314.25
405.988	1282.25
406.212	1273.25
406.436	1267.25
406.66	1333.25
406.883	1341.25
407.107	1443.25
407.331	1543.25
407.555	1541.25
407.778	1542.25
408.002	1516.25
408.226	1442.25
408.449	1398.25
408.673	1352.25
408.896	1331.25
409.12	1329.25
409.344	1327.25
409.567	1328.25
409.791	1347.25
410.014	1336.25
410.238	1327.25
410.461	1306.25
410.685	1274.25
410.908	1272.25
411.132	1253.25
411.355	1193.25
411.578	1199.25
411.802	1186.25
412.025	1191.25
412.249	1205.25
412.472	1211.25
412.695	1199.25
412.919	1149.25
413.142	1162.25
413.365	1173.25
413.589	1174.25
413.812	1131.25
414.035	1147.25
414.258	1134.25
414.482	1146.25
414.705	1176.25
414.928	1208.25
415.151	1209.25
415.374	1171.25
415.597	1143.25
415.821	1151.25
416.044	1166.25
416.267	1104.25
416.49	1132.25
416.713	1113.25
416.936	1174.25
417.159	1162.25
417.382	1154.25
417.605	1121.25
417.828	1173.25
418.051	1177.25
418.274	1152.25
418.497	1119.25
418.72	1187.25
418.943	1177.25
419.166	1271.25
419.389	1337.25
419.611	1271.25
419.834	1226.25
420.057	1188.25
420.28	1164.25
420.503	1159.25
420.726	1141.25
420.948	1136.25
421.171	1120.25
421.394	1150.25
421.617	1113.25
421.839	1165.25
422.062	1153.25
422.285	1160.25
422.507	1206.25
422.73	1182.25
422.953	1197.25
423.175	1184.25
423.398	1251.25
423.621	1223.25
423.843	1267.25
424.066	1251.25
424.288	1228.25
424.511	1218.25
424.733	1226.25
424.956	1174.25
425.178	1158.25
425.401	1193.25
425.623	1156.25
425.846	1138.25
426.068	1113.25
426.291	1098.25
426.513	1091.25
426.735	1087.25
426.958	1072.25
427.18	1025.25
427.402	1045.25
427.625	1038.25
427.847	992.25
428.069	1010.25
428.292	1034.25
428.514	983.25
428.736	1000.25
428.958	1023.25
429.181	995.25
429.403	992.25
429.625	978.25
429.847	989.25
430.069	973.25
430.292	982.25
430.514	982.25
430.736	982.25
430.958	957.25
431.18	989.25
431.402	985.25
431.624	990.25
431.846	998.25
432.068	1008.25
432.29	1049.25
432.512	1004.25
432.734	976.25
432.956	990.25
433.178	1017.25
433.4	970.25
433.622	1022.25
433.844	1046.25
434.066	1023.25
434.287	998.25
434.509	1065.25
434.731	1146.25
434.953	1175.25
435.175	1190.25
435.397	1128.25
435.618	1094.25
435.84	1028.25
436.062	1035.25
436.284	1026.25
436.505	1012.25
436.727	1015.25
436.949	1026.25
437.17	1006.25
437.392	1009.25
437.614	982.25
437.835	957.25
438.057	957.25
438.278	933.25
438.5	938.25
438.721	967.25
438.943	1013.25
439.165	971.25
439.386	1013.25
439.608	979.25
439.829	1006.25
440.05	989.25
440.272	1034.25
440.493	1005.25
440.715	1016.25
440.936	1063.25
441.158	1089.25
441.379	1079.25
441.6	1145.25
441.822	1169.25
442.043	1173.25
442.264	1126.25
442.486	1089.25
442.707	1142.25
442.928	1117.25
443.149	1159.25
443.371	1114.25
443.592	1125.25
443.813	1148.25
444.034	1159.25
444.255	1173.25
444.476	1232.25
444.698	1344.25
444.919	1442.25
445.14	1421.25
445.361	1298.25
445.582	1145.25
445.803	1106.25
446.024	1098.25
446.245	1056.25
446.466	1059.25
446.687	1025.25
446.908	1032.25
447.129	991.25
447.35	966.25
447.571	971.25
447.792	955.25
448.013	953.25
448.234	935.25
448.455	929.25
448.675	899.25
448.896	941.25
449.117	935.25
449.338	911.25
449.559	894.25
449.779	891.25
450	922.25
450.221	895.25
450.442	941.25
450.662	936.25
450.883	919.25
451.104	970.25
451.324	939.25
451.545	950.25
451.766	920.25
451.986	933.25
452.207	921.25
452.428	925.25
452.648	897.25
452.869	903.25
453.089	907.25
453.31	915.25
453.53	918.25
453.751	888.25
453.971	887.25
454.192	877.25
454.412	894.25
454.633	880.25
454.853	879.25
455.073	893.25
455.294	857.25
455.514	853.25
455.734	864.25
455.955	843.25
456.175	874.25
456.395	851.25
456.616	849.25
456.836	843.25
457.056	866.25
457.276	856.25
457.497	859.25
457.717	838.25
457.937	862.25
458.157	884.25
458.377	887.25
458.598	898.25
458.818	906.25
459.038	967.25
459.258	1021.25
459.478	1033.25
459.698	1046.25
459.918	1096.25
460.138	1101.25
460.358	1199.25
460.578	1205.25
460.798	1215.25
461.018	1253.25
461.238	1173.25
461.458	1225.25
461.678	1176.25
461.898	1209.25
462.118	1209.25
462.338	1305.25
462.558	1311.25
462.777	1376.25
462.997	1506.25
463.217	1694.25
463.437	1626.25
463.657	1493.25
463.876	1409.25
464.096	1413.25
464.316	1447.25
464.536	1453.25
464.755	1369.25
464.975	1330.25
465.195	1254.25
465.414	1190.25
465.634	1083.25
465.854	1063.25
466.073	1018.25
466.293	1023.25
466.512	1011.25
466.732	972.25
466.951	951.25
467.171	951.25
467.391	987.25
467.61	966.25
467.829	987.25
468.049	948.25
468.268	943.25
468.488	911.25
468.707	919.25
468.927	919.25
469.146	905.25
469.365	938.25
469.585	929.25
469.804	934.25
470.023	998.25
470.243	1013.25
470.462	1013.25
470.681	1000.25
470.901	1022.25
471.12	993.25
471.339	999.25
471.558	961.25
471.777	997.25
471.997	956.25
472.216	910.25
472.435	911.25
472.654	912.25
472.873	887.25
473.092	885.25
473.311	894.25
473.53	887.25
473.749	927.25
473.968	881.25
474.187	864.25
474.406	873.25
474.625	890.25
474.844	894.25
475.063	887.25
475.282	908.25
475.501	918.25
475.72	933.25
475.939	902.25
476.158	938.25
476.377	915.25
476.596	937.25
476.814	939.25
477.033	948.25
477.252	954.25
477.471	992.25
477.69	1005.25
477.908	1037.25
478.127	1035.25
478.346	1085.25
478.564	1097.25
478.783	1062.25
479.002	1144.25
479.22	1123.25
479.439	1136.25
479.658	1109.25
479.876	1120.25
480.095	1143.25
480.313	1160.25
480.532	1186.25
480.751	1201.25
480.969	1141.25
481.188	1129.25
481.406	1110.25
481.624	1066.25
481.843	1031.25
482.061	1009.25
482.28	1023.25
482.498	1014.25
482.717	1033.25
482.935	987.25
483.153	1007.25
483.372	1018.25
483.59	1014.25
483.808	1017.25
484.027	999.25
484.245	1019.25
484.463	1031.25
484.681	1045.25
484.9	1035.25
485.118	1073.25
485.336	1061.25
485.554	1085.25
485.772	1043.25
485.99	1087.25
486.209	1086.25
486.427	1084.25
486.645	1061.25
486.863	1077.25
487.081	1085.25
487.299	1055.25
487.517	1061.25
487.735	1091.25
487.953	1041.25
488.171	1073.25
488.389	1041.25
488.607	1032.25
488.825	1047.25
489.043	1059.25
489.261	1046.25
489.479	1040.25
489.696	1070.25
489.914	1045.25
490.132	1052.25
490.35	1091.25
490.568	1058.25
490.786	1054.25
491.003	1056.25
491.221	1102.25
491.439	1047.25
491.657	1067.25
491.874	1094.25
492.092	1048.25
492.31	1065.25
492.527	1102.25
492.745	1095.25
492.963	1074.25
493.18	1092.25
493.398	1119.25
493.615	1114.25
493.833	1116.25
494.05	1113.25
494.268	1144.25
494.485	1081.25
494.703	1166.25
494.92	1161.25
495.138	1097.25
495.355	1116.25
495.573	1120.25
495.79	1143.25
496.008	1146.25
496.225	1138.25
496.442	1147.25
496.66	1178.25
496.877	1183.25
497.094	1233.25
497.312	1231.25
497.529	1241.25
497.746	1301.25
497.963	1362.25
498.181	1382.25
498.398	1457.25
498.615	1521.25
498.832	1652.25
499.049	1787.25
499.267	1955.25
499.484	2095.25
499.701	2330.25
499.918	2599.25
500.135	3059.25
500.352	3535.25
500.569	3735.25
500.786	3647.25
501.003	3349.25
501.22	2968.25
501.437	2630.25
501.654	2258.25
501.871	2058.25
502.088	1839.25
502.305	1714.25
502.522	1638.25
502.739	1592.25
502.956	1520.25
503.172	1435.25
503.389	1373.25
503.606	1300.25
503.823	1288.25
504.04	1286.25
504.256	1292.25
504.473	1371.25
504.69	1386.25
504.907	1377.25
505.123	1268.25
505.34	1189.25
505.557	1164.25
505.773	1125.25
505.99	1092.25
506.207	1080.25
506.423	1041.25
506.64	1038.25
506.856	1059.25
507.073	1017.25
507.289	1008.25
507.506	1013.25
507.722	970.25
507.939	973.25
508.155	964.25
508.372	957.25
508.588	970.25
508.805	954.25
509.021	938.25
509.238	931.25
509.454	926.25
509.67	929.25
509.887	918.25
510.103	941.25
510.319	935.25
510.536	911.25
510.752	871.25
510.968	918.25
511.184	921.25
511.401	924.25
511.617	890.25
511.833	886.25
512.049	915.25
512.265	922.25
512.481	886.25
512.698	919.25
512.914	923.25
513.13	893.25
513.346	908.25
513.562	945.25
513.778	922.25
513.994	902.25
514.21	916.25
514.426	926.25
514.642	939.25
514.858	955.25
515.074	957.25
515.29	942.25
515.506	926.25
515.721	961.25
515.937	981.25
516.153	988.25
516.369	1007.25
516.585	1047.25
516.801	1066.25
517.016	1167.25
517.232	1192.25
517.448	1296.25
517.664	1319.25
517.879	1314.25
518.095	1330.25
518.311	1281.25
518.527	1224.25
518.742	1190.25
518.958	1108.25
519.173	1073.25
519.389	1062.25
519.605	1018.25
519.82	1000.25
520.036	964.25
520.251	926.25
520.467	959.25
520.682	932.25
520.898	904.25
521.113	904.25
521.329	904.25
521.544	882.25
521.76	906.25
521.975	892.25
522.19	872.25
522.406	864.25
522.621	859.25
522.836	842.25
523.052	832.25
523.267	871.25
523.482	862.25
523.698	840.25
523.913	824.25
524.128	840.25
524.343	838.25
524.559	848.25
524.774	842.25
524.989	863.25
525.204	842.25
525.419	815.25
525.634	821.25
525.849	834.25
526.064	809.25
526.28	831.25
526.495	816.25
526.71	868.25
526.925	831.25
527.14	838.25
527.355	821.25
527.57	822.25
527.785	832.25
527.999	851.25
528.214	787.25
528.429	842.25
528.644	790.25
528.859	831.25
529.074	796.25
529.289	818.25
529.503	847.25
529.718	833.25
529.933	799.25
530.148	822.25
530.363	818.25
530.577	806.25
530.792	806.25
531.007	821.25
531.221	827.25
531.436	841.25
531.651	820.25
531.865	827.25
532.08	815.25
532.295	833.25
532.509	820.25
532.724	810.25
532.938	802.25
533.153	856.25
533.367	794.25
533.582	798.25
533.796	805.25
534.011	807.25
534.225	813.25
534.44	801.25
534.654	783.25
534.868	823.25
535.083	805.25
535.297	785.25
535.511	808.25
535.726	823.25
535.94	791.25
536.154	790.25
536.369	780.25
536.583	758.25
536.797	781.25
537.011	751.25
537.225	773.25
537.44	767.25
537.654	746.25
537.868	733.25
538.082	753.25
538.296	772.25
538.51	749.25
538.724	761.25
538.938	723.25
539.153	754.25
539.367	759.25
539.581	755.25
539.795	730.25
540.009	732.25
540.222	718.25
540.436	703.25
540.65	733.25
540.864	751.25
541.078	711.25
541.292	737.25
541.506	723.25
541.72	723.25
541.934	709.25
542.147	713.25
542.361	737.25
542.575	706.25
542.789	716.25
543.002	711.25
543.216	711.25
543.43	733.25
543.644	723.25
543.857	727.25
544.071	723.25
544.285	715.25
544.498	745.25
544.712	716.25
544.925	740.25
545.139	752.25
545.352	759.25
545.566	771.25
545.779	754.25
545.993	730.25
546.206	759.25
546.42	706.25
546.633	754.25
546.847	751.25
547.06	735.25
547.274	723.25
547.487	761.25
547.7	757.25
547.914	754.25
548.127	728.25
548.34	753.25
548.554	758.25
548.767	751.25
548.98	762.25
549.193	746.25
549.407	761.25
549.62	799.25
549.833	793.25
550.046	768.25
550.259	757.25
550.473	744.25
550.686	734.25
550.899	722.25
551.112	720.25
551.325	754.25
551.538	755.25
551.751	750.25
551.964	773.25
552.177	752.25
552.39	760.25
552.603	786.25
552.816	810.25
553.029	837.25
553.242	833.25
553.455	851.25
553.667	859.25
553.88	806.25
554.093	814.25
554.306	789.25
554.519	773.25
554.732	744.25
554.944	720.25
555.157	750.25
555.37	726.25
555.583	692.25
555.795	691.25
556.008	673.25
556.221	665.25
556.433	678.25
556.646	690.25
556.859	637.25
557.071	661.25
557.284	639.25
557.496	639.25
557.709	626.25
557.921	646.25
558.134	626.25
558.346	643.25
558.559	601.25
558.771	623.25
558.984	631.25
559.196	612.25
559.409	633.25
559.621	611.25
559.833	642.25
560.046	605.25
560.258	600.25
560.47	610.25
560.683	612.25
560.895	601.25
561.107	626.25
561.32	617.25
561.532	616.25
561.744	602.25
561.956	615.25
562.168	614.25
562.381	618.25
562.593	601.25
562.805	628.25
563.017	598.25
563.229	621.25
563.441	628.25
563.653	633.25
563.865	630.25
564.077	645.25
564.289	622.25
564.501	659.25
564.713	643.25
564.925	682.25
565.137	678.25
565.349	676.25
565.561	715.25
565.773	719.25
565.985	760.25
566.197	811.25
566.408	861.25
566.62	934.25
566.832	1048.25
567.044	1083.25
567.255	1058.25
567.467	1056.25
567.679	1192.25
567.891	1271.25
568.102	1309.25
568.314	1239.25
568.526	1111.25
568.737	975.25
568.949	899.25
569.161	798.25
569.372	760.25
569.584	719.25
569.795	681.25
570.007	665.25
570.218	646.25
570.43	653.25
570.641	652.25
570.853	644.25
571.064	654.25
571.276	644.25
571.487	606.25
571.698	579.25
571.91	564.25
572.121	551.25
572.333	545.25
572.544	561.25
572.755	525.25
572.966	538.25
573.178	515.25
573.389	523.25
573.6	518.25
573.811	490.25
574.023	494.25
574.234	511.25
574.445	520.25
574.656	528.25
574.867	501.25
575.078	511.25
575.289	539.25
575.501	518.25
575.712	500.25
575.923	492.25
576.134	489.25
576.345	472.25
576.556	515.25
576.767	472.25
576.978	471.25
577.188	458.25
577.399	482.25
577.61	472.25
577.821	472.25
578.032	451.25
578.243	457.25
578.454	452.25
578.665	474.25
578.875	432.25
579.086	463.25
579.297	440.25
579.508	453.25
579.718	478.25
579.929	446.25
580.14	446.25
580.35	430.25
580.561	446.25
580.772	460.25
580.982	432.25
581.193	446.25
581.403	465.25
581.614	425.25
581.825	432.25
582.035	426.25
582.246	454.25
582.456	439.25
582.667	451.25
582.877	430.25
583.087	453.25
583.298	431.25
583.508	404.25
583.719	434.25
583.929	429.25
584.139	422.25
584.35	412.25
584.56	406.25
584.77	427.25
584.981	426.25
585.191	417.25
585.401	419.25
585.611	410.25
585.821	420.25
586.032	419.25
586.242	405.25
586.452	422.25
586.662	388.25
586.872	381.25
587.082	403.25
587.292	407.25
587.502	394.25
587.713	419.25
587.923	402.25
588.133	391.25
588.343	403.25
588.553	406.25
588.762	416.25
588.972	412.25
589.182	405.25
589.392	397.25
589.602	400.25
589.812	415.25
590.022	394.25
590.232	398.25
590.441	415.25
590.651	427.25
590.861	416.25
591.071	396.25
591.281	426.25
591.49	420.25
591.7	454.25
591.91	425.25
592.119	441.25
592.329	455.25
592.539	470.25
592.748	482.25
592.958	505.25
593.167	531.25
593.377	520.25
593.587	553.25
593.796	528.25
594.006	548.25
594.215	561.25
594.424	564.25
594.634	531.25
594.843	494.25
595.053	471.25
595.262	450.25
595.472	441.25
595.681	446.25
595.89	429.25
596.1	409.25
596.309	426.25
596.518	397.25
596.727	393.25
596.937	373.25
597.146	376.25
597.355	371.25
597.564	359.25
597.774	377.25
597.983	367.25
598.192	357.25
598.401	363.25
598.61	341.25
598.819	357.25
599.028	367.25
599.237	353.25
599.446	359.25
599.655	371.25
599.864	331.25
600.073	343.25
600.282	318.25
600.491	330.25
600.7	341.25
600.909	344.25
601.118	319.25
601.327	339.25
601.536	339.25
601.745	346.25
601.953	338.25
602.162	331.25
602.371	326.25
602.58	342.25
602.789	332.25
602.997	328.25
603.206	320.25
603.415	335.25
603.623	322.25
603.832	317.25
604.041	320.25
604.249	317.25
604.458	324.25
604.666	314.25
604.875	325.25
605.084	303.25
605.292	325.25
605.501	328.25
605.709	329.25
605.918	330.25
606.126	303.25
606.334	316.25
606.543	322.25
606.751	309.25
606.96	294.25
607.168	311.25
607.376	321.25
607.585	309.25
607.793	325.25
608.001	308.25
608.21	311.25
608.418	327.25
608.626	296.25
608.834	291.25
609.043	311.25
609.251	293.25
609.459	310.25
609.667	307.25
609.875	314.25
610.083	298.25
610.291	306.25
610.499	319.25
610.707	314.25
610.916	300.25
611.124	320.25
611.332	310.25
611.54	279.25
611.748	283.25
611.955	290.25
612.163	298.25
612.371	286.25
612.579	289.25
612.787	308.25
612.995	299.25
613.203	285.25
613.411	283.25
613.618	295.25
613.826	283.25
614.034	272.25
614.242	273.25
614.449	289.25
614.657	310.25
614.865	290.25
615.072	286.25
615.28	293.25
615.488	282.25
615.695	306.25
615.903	284.25
616.111	305.25
616.318	305.25
616.526	304.25
616.733	289.25
616.941	303.25
617.148	309.25
617.356	299.25
617.563	306.25
617.771	298.25
617.978	304.25
618.185	293.25
618.393	278.25
618.6	297.25
618.807	284.25
619.015	287.25
619.222	307.25
619.429	278.25
619.637	291.25
619.844	293.25
620.051	282.25
620.258	287.25
620.466	280.25
620.673	262.25
620.88	258.25
621.087	279.25
621.294	277.25
621.501	287.25
621.708	279.25
621.915	266.25
622.122	271.25
622.329	280.25
622.536	261.25
622.743	258.25
622.95	256.25
623.157	274.25
623.364	241.25
623.571	268.25
623.778	253.25
623.985	243.25
624.192	257.25
624.399	258.25
624.606	268.25
624.812	268.25
625.019	251.25
625.226	257.25
625.433	249.25
625.639	264.25
625.846	253.25
626.053	266.25
626.259	263.25
626.466	247.25
626.673	257.25
626.879	249.25
627.086	255.25
627.293	249.25
627.499	251.25
627.706	269.25
627.912	252.25
628.119	259.25
628.325	249.25
628.532	248.25
628.738	243.25
628.945	249.25
629.151	254.25
629.357	233.25
629.564	251.25
629.77	219.25
629.976	206.25
630.183	242.25
630.389	233.25
630.595	223.25
630.802	223.25
631.008	230.25
631.214	222.25
631.42	225.25
631.627	222.25
631.833	223.25
632.039	225.25
632.245	240.25
632.451	213.25
632.657	226.25
632.863	211.25
633.069	225.25
633.275	206.25
633.481	220.25
633.688	239.25
633.893	213.25
634.099	204.25
634.305	203.25
634.511	215.25
634.717	221.25
634.923	216.25
635.129	228.25
635.335	225.25
635.541	223.25
635.747	203.25
635.952	216.25
636.158	205.25
636.364	205.25
636.57	202.25
636.775	197.25
636.981	205.25
637.187	219.25
637.392	206.25
637.598	211.25
637.804	198.25
638.009	215.25
638.215	209.25
638.421	210.25
638.626	228.25
638.832	208.25
639.037	202.25
639.243	173.25
639.448	203.25
639.654	199.25
639.859	207.25
640.065	203.25
640.27	209.25
640.475	201.25
640.681	194.25
640.886	210.25
641.091	194.25
641.297	194.25
641.502	202.25
641.707	195.25
641.913	190.25
642.118	199.25
642.323	197.25
642.528	189.25
642.733	191.25
642.939	189.25
643.144	192.25
643.349	198.25
643.554	204.25
643.759	189.25
643.964	186.25
644.169	187.25
644.374	191.25
644.579	194.25
644.784	189.25
644.989	189.25
645.194	197.25
645.399	191.25
645.604	174.25
645.809	180.25
646.014	201.25
646.219	197.25
646.423	195.25
646.628	174.25
646.833	204.25
647.038	198.25
647.243	198.25
647.447	209.25
647.652	198.25
647.857	193.25
648.062	207.25
648.266	197.25
648.471	221.25
648.676	218.25
648.88	197.25
649.085	205.25
649.289	191.25
649.494	192.25
649.698	187.25
649.903	183.25
650.107	195.25
650.312	175.25
650.516	180.25
650.721	184.25
650.925	174.25
651.13	181.25
651.334	181.25
651.539	162.25
651.743	170.25
651.947	177.25
652.152	169.25
652.356	161.25
652.56	163.25
652.764	146.25
652.969	145.25
653.173	167.25
653.377	143.25
653.581	146.25
653.785	144.25
653.99	153.25
654.194	139.25
654.398	142.25
654.602	162.25
654.806	146.25
655.01	145.25
655.214	139.25
655.418	145.25
655.622	133.25
655.826	148.25
656.03	136.25
656.234	148.25
656.438	140.25
656.642	135.25
656.846	136.25
657.049	133.25
657.253	118.25
657.457	126.25
657.661	115.25
657.865	110.25
658.068	111.25
658.272	120.25
658.476	111.25
658.68	104.25
658.883	119.25
659.087	114.25
659.291	117.25
659.494	103.25
659.698	106.25
659.901	110.25
660.105	91.25
660.309	84.25
660.512	98.25
660.716	99.25
660.919	97.25
661.123	93.25
661.326	82.25
661.53	87.25
661.733	95.25
661.936	108.25
662.14	81.25
662.343	91.25
662.546	86.25
662.75	89.25
662.953	78.25
663.156	83.25
663.36	62.25
663.563	81.25
663.766	80.25
663.969	79.25
664.173	84.25
664.376	76.25
664.579	88.25
664.782	85.25
664.985	69.25
665.188	70.25
665.391	79.25
665.594	85.25
665.797	76.25
666	91.25
666.203	72.25
666.406	78.25
666.609	85.25
666.812	94.25
667.015	71.25
667.218	82.25
667.421	81.25
667.624	72.25
667.827	85.25
668.03	91.25
668.232	82.25
668.435	79.25
668.638	56.25
668.841	85.25
669.043	82.25
669.246	86.25
669.449	95.25
669.651	87.25
669.854	72.25
670.057	75.25
670.259	90.25
670.462	68.25
670.665	82.25
670.867	87.25
671.07	82.25
671.272	75.25
671.475	77.25
671.677	84.25
671.88	79.25
672.082	73.25
672.284	88.25
672.487	83.25
672.689	88.25
672.892	80.25
