Data from Ni(NO3)2@0.125M.TitratingCurve.Agarose3%dH2O.NegLispCup.LampEnergy10.LIBS07252019_HRD10591_18-10-43-568.txt Node
Date: Thu Jul 25 18:10:43 EDT 2019
User: cochatt
Spectrometer: HR+D1059
Trigger mode: 1
Integration Time (sec): 1.000000E-1
Scans to average: 1
Electric dark correction enabled: true
Nonlinearity correction enabled: false
Boxcar width: 0
XAxis mode: Wavelengths
Number of Pixels in Spectrum: 2048
>>>>>Begin Spectral Data<<<<<
223.165	-10.12
223.4	-10.12
223.635	-10.12
223.869	-8.12
224.104	-22.12
224.338	-22.12
224.573	-27.12
224.808	-18.12
225.042	-1.12
225.277	-2.12
225.511	-3.12
225.746	-1.12
225.98	18.88
226.215	12.88
226.449	17.88
226.683	14.88
226.918	27.88
227.152	22.88
227.387	15.88
227.621	23.88
227.856	50.88
228.09	43.88
228.324	55.88
228.559	44.88
228.793	69.88
229.027	109.88
229.262	110.88
229.496	117.88
229.73	133.88
229.964	130.88
230.199	114.88
230.433	136.88
230.667	140.88
230.901	147.88
231.136	146.88
231.37	152.88
231.604	150.88
231.838	158.88
232.072	160.88
232.306	160.88
232.541	164.88
232.775	156.88
233.009	156.88
233.243	140.88
233.477	152.88
233.711	154.88
233.945	147.88
234.179	154.88
234.413	161.88
234.647	165.88
234.881	130.88
235.115	167.88
235.349	157.88
235.583	159.88
235.817	158.88
236.051	162.88
236.285	155.88
236.519	168.88
236.753	155.88
236.987	162.88
237.221	176.88
237.455	156.88
237.689	161.88
237.922	177.88
238.156	169.88
238.39	186.88
238.624	166.88
238.858	152.88
239.091	176.88
239.325	171.88
239.559	171.88
239.793	173.88
240.027	185.88
240.26	186.88
240.494	169.88
240.728	189.88
240.961	198.88
241.195	204.88
241.429	200.88
241.662	184.88
241.896	188.88
242.13	219.88
242.363	184.88
242.597	198.88
242.83	204.88
243.064	211.88
243.298	196.88
243.531	194.88
243.765	229.88
243.998	220.88
244.232	226.88
244.465	222.88
244.699	209.88
244.932	231.88
245.166	233.88
245.399	225.88
245.633	215.88
245.866	231.88
246.099	221.88
246.333	224.88
246.566	235.88
246.8	247.88
247.033	262.88
247.266	230.88
247.5	237.88
247.733	242.88
247.966	249.88
248.2	254.88
248.433	261.88
248.666	268.88
248.899	241.88
249.133	246.88
249.366	255.88
249.599	264.88
249.832	267.88
250.066	266.88
250.299	252.88
250.532	282.88
250.765	262.88
250.998	268.88
251.231	259.88
251.465	288.88
251.698	270.88
251.931	281.88
252.164	275.88
252.397	284.88
252.63	278.88
252.863	284.88
253.096	279.88
253.329	294.88
253.562	274.88
253.795	287.88
254.028	290.88
254.261	290.88
254.494	297.88
254.727	288.88
254.96	304.88
255.193	311.88
255.426	293.88
255.659	298.88
255.892	288.88
256.124	306.88
256.357	299.88
256.59	317.88
256.823	326.88
257.056	309.88
257.289	317.88
257.521	314.88
257.754	327.88
257.987	284.88
258.22	324.88
258.452	338.88
258.685	314.88
258.918	328.88
259.151	334.88
259.383	326.88
259.616	342.88
259.849	344.88
260.081	312.88
260.314	347.88
260.547	358.88
260.779	335.88
261.012	353.88
261.244	334.88
261.477	356.88
261.71	344.88
261.942	346.88
262.175	334.88
262.407	350.88
262.64	337.88
262.872	338.88
263.105	357.88
263.337	375.88
263.57	352.88
263.802	363.88
264.035	362.88
264.267	356.88
264.499	355.88
264.732	366.88
264.964	378.88
265.197	369.88
265.429	372.88
265.661	372.88
265.894	368.88
266.126	391.88
266.358	378.88
266.591	359.88
266.823	371.88
267.055	375.88
267.287	362.88
267.52	374.88
267.752	394.88
267.984	388.88
268.216	392.88
268.448	379.88
268.681	365.88
268.913	402.88
269.145	405.88
269.377	410.88
269.609	396.88
269.841	411.88
270.073	398.88
270.306	410.88
270.538	388.88
270.77	396.88
271.002	385.88
271.234	402.88
271.466	406.88
271.698	419.88
271.93	413.88
272.162	438.88
272.394	418.88
272.626	412.88
272.858	412.88
273.09	402.88
273.322	441.88
273.553	412.88
273.785	424.88
274.017	422.88
274.249	416.88
274.481	433.88
274.713	422.88
274.945	430.88
275.176	429.88
275.408	423.88
275.64	453.88
275.872	444.88
276.104	451.88
276.335	424.88
276.567	459.88
276.799	453.88
277.031	467.88
277.262	448.88
277.494	484.88
277.726	450.88
277.957	468.88
278.189	447.88
278.421	464.88
278.652	465.88
278.884	468.88
279.115	471.88
279.347	474.88
279.579	482.88
279.81	473.88
280.042	486.88
280.273	485.88
280.505	492.88
280.736	483.88
280.968	510.88
281.199	498.88
281.431	506.88
281.662	507.88
281.894	493.88
282.125	485.88
282.356	511.88
282.588	498.88
282.819	493.88
283.051	500.88
283.282	505.88
283.513	511.88
283.745	500.88
283.976	493.88
284.207	505.88
284.439	515.88
284.67	502.88
284.901	527.88
285.132	521.88
285.364	521.88
285.595	521.88
285.826	499.88
286.057	533.88
286.288	519.88
286.52	525.88
286.751	537.88
286.982	518.88
287.213	544.88
287.444	546.88
287.675	552.88
287.906	550.88
288.138	555.88
288.369	560.88
288.6	572.88
288.831	554.88
289.062	541.88
289.293	562.88
289.524	562.88
289.755	564.88
289.986	565.88
290.217	560.88
290.448	559.88
290.679	582.88
290.91	550.88
291.141	579.88
291.371	543.88
291.602	579.88
291.833	569.88
292.064	568.88
292.295	564.88
292.526	584.88
292.757	559.88
292.987	545.88
293.218	532.88
293.449	569.88
293.68	587.88
293.91	542.88
294.141	553.88
294.372	553.88
294.603	559.88
294.833	565.88
295.064	556.88
295.295	562.88
295.525	564.88
295.756	573.88
295.987	568.88
296.217	577.88
296.448	588.88
296.679	572.88
296.909	589.88
297.14	587.88
297.37	583.88
297.601	627.88
297.831	591.88
298.062	601.88
298.292	630.88
298.523	617.88
298.753	634.88
298.984	613.88
299.214	617.88
299.445	619.88
299.675	627.88
299.905	618.88
300.136	597.88
300.366	609.88
300.597	637.88
300.827	634.88
301.057	645.88
301.288	645.88
301.518	653.88
301.748	644.88
301.979	645.88
302.209	636.88
302.439	643.88
302.669	639.88
302.9	630.88
303.13	637.88
303.36	636.88
303.59	625.88
303.82	652.88
304.051	638.88
304.281	649.88
304.511	650.88
304.741	635.88
304.971	611.88
305.201	621.88
305.431	626.88
305.661	633.88
305.891	611.88
306.121	610.88
306.352	644.88
306.582	618.88
306.812	628.88
307.042	628.88
307.272	623.88
307.502	632.88
307.731	643.88
307.961	604.88
308.191	622.88
308.421	644.88
308.651	624.88
308.881	609.88
309.111	630.88
309.341	617.88
309.571	631.88
309.8	632.88
310.03	627.88
310.26	584.88
310.49	620.88
310.72	631.88
310.949	635.88
311.179	639.88
311.409	636.88
311.639	659.88
311.868	618.88
312.098	638.88
312.328	678.88
312.557	671.88
312.787	652.88
313.017	647.88
313.246	675.88
313.476	692.88
313.706	651.88
313.935	674.88
314.165	676.88
314.394	676.88
314.624	689.88
314.853	673.88
315.083	659.88
315.312	689.88
315.542	670.88
315.771	678.88
316.001	659.88
316.23	648.88
316.46	650.88
316.689	668.88
316.919	692.88
317.148	663.88
317.377	669.88
317.607	692.88
317.836	676.88
318.065	663.88
318.295	679.88
318.524	650.88
318.753	665.88
318.983	670.88
319.212	638.88
319.441	650.88
319.67	662.88
319.9	680.88
320.129	648.88
320.358	656.88
320.587	677.88
320.816	682.88
321.046	685.88
321.275	656.88
321.504	668.88
321.733	667.88
321.962	680.88
322.191	695.88
322.42	686.88
322.649	676.88
322.878	674.88
323.108	680.88
323.337	668.88
323.566	720.88
323.795	684.88
324.024	678.88
324.253	678.88
324.482	704.88
324.71	680.88
324.939	713.88
325.168	705.88
325.397	702.88
325.626	701.88
325.855	677.88
326.084	738.88
326.313	743.88
326.542	746.88
326.77	750.88
326.999	738.88
327.228	718.88
327.457	720.88
327.686	717.88
327.914	745.88
328.143	715.88
328.372	727.88
328.6	748.88
328.829	755.88
329.058	770.88
329.287	746.88
329.515	745.88
329.744	733.88
329.972	754.88
330.201	747.88
330.43	755.88
330.658	756.88
330.887	781.88
331.115	804.88
331.344	790.88
331.572	794.88
331.801	825.88
332.03	853.88
332.258	852.88
332.486	868.88
332.715	913.88
332.943	940.88
333.172	984.88
333.4	1008.88
333.629	1032.88
333.857	1024.88
334.085	1014.88
334.314	1003.88
334.542	973.88
334.771	951.88
334.999	964.88
335.227	926.88
335.455	917.88
335.684	920.88
335.912	925.88
336.14	906.88
336.369	893.88
336.597	899.88
336.825	894.88
337.053	901.88
337.281	901.88
337.51	877.88
337.738	834.88
337.966	821.88
338.194	826.88
338.422	798.88
338.65	804.88
338.878	814.88
339.106	817.88
339.334	811.88
339.562	814.88
339.79	804.88
340.018	788.88
340.246	796.88
340.474	798.88
340.702	800.88
340.93	811.88
341.158	771.88
341.386	788.88
341.614	791.88
341.842	783.88
342.07	773.88
342.298	770.88
342.526	760.88
342.754	757.88
342.981	772.88
343.209	797.88
343.437	855.88
343.665	897.88
343.893	923.88
344.12	967.88
344.348	931.88
344.576	876.88
344.804	843.88
345.031	839.88
345.259	829.88
345.487	797.88
345.714	749.88
345.942	771.88
346.17	735.88
346.397	764.88
346.625	757.88
346.853	775.88
347.08	737.88
347.308	766.88
347.535	753.88
347.763	778.88
347.99	772.88
348.218	752.88
348.445	760.88
348.673	741.88
348.9	744.88
349.128	743.88
349.355	749.88
349.583	744.88
349.81	749.88
350.037	727.88
350.265	744.88
350.492	720.88
350.72	721.88
350.947	713.88
351.174	699.88
351.402	729.88
351.629	708.88
351.856	704.88
352.083	700.88
352.311	720.88
352.538	727.88
352.765	732.88
352.992	715.88
353.22	709.88
353.447	733.88
353.674	730.88
353.901	713.88
354.128	743.88
354.355	708.88
354.583	731.88
354.81	741.88
355.037	728.88
355.264	754.88
355.491	738.88
355.718	713.88
355.945	742.88
356.172	751.88
356.399	749.88
356.626	722.88
356.853	740.88
357.08	711.88
357.307	725.88
357.534	710.88
357.761	740.88
357.988	725.88
358.215	726.88
358.441	725.88
358.668	703.88
358.895	720.88
359.122	715.88
359.349	736.88
359.576	736.88
359.802	740.88
360.029	737.88
360.256	731.88
360.483	719.88
360.709	692.88
360.936	739.88
361.163	697.88
361.39	723.88
361.616	764.88
361.843	728.88
362.07	712.88
362.296	726.88
362.523	713.88
362.749	725.88
362.976	724.88
363.203	710.88
363.429	721.88
363.656	726.88
363.882	718.88
364.109	710.88
364.335	729.88
364.562	718.88
364.788	720.88
365.015	732.88
365.241	706.88
365.468	702.88
365.694	718.88
365.92	709.88
366.147	741.88
366.373	722.88
366.599	742.88
366.826	713.88
367.052	712.88
367.278	701.88
367.505	717.88
367.731	728.88
367.957	716.88
368.184	719.88
368.41	732.88
368.636	720.88
368.862	760.88
369.089	758.88
369.315	730.88
369.541	750.88
369.767	760.88
369.993	743.88
370.219	729.88
370.445	747.88
370.672	794.88
370.898	759.88
371.124	779.88
371.35	809.88
371.576	757.88
371.802	788.88
372.028	788.88
372.254	776.88
372.48	768.88
372.706	807.88
372.932	844.88
373.158	821.88
373.384	830.88
373.61	792.88
373.835	787.88
374.061	777.88
374.287	790.88
374.513	799.88
374.739	830.88
374.965	875.88
375.191	888.88
375.416	902.88
375.642	844.88
375.868	826.88
376.094	818.88
376.319	802.88
376.545	797.88
376.771	792.88
376.997	778.88
377.222	804.88
377.448	795.88
377.674	799.88
377.899	766.88
378.125	784.88
378.35	786.88
378.576	788.88
378.802	789.88
379.027	778.88
379.253	791.88
379.478	786.88
379.704	760.88
379.929	764.88
380.155	779.88
380.38	773.88
380.606	781.88
380.831	786.88
381.057	774.88
381.282	809.88
381.507	798.88
381.733	788.88
381.958	792.88
382.184	785.88
382.409	819.88
382.634	857.88
382.86	842.88
383.085	820.88
383.31	880.88
383.535	862.88
383.761	900.88
383.986	914.88
384.211	927.88
384.436	931.88
384.662	932.88
384.887	956.88
385.112	955.88
385.337	970.88
385.562	983.88
385.787	973.88
386.013	965.88
386.238	984.88
386.463	981.88
386.688	944.88
386.913	956.88
387.138	944.88
387.363	950.88
387.588	959.88
387.813	925.88
388.038	946.88
388.263	916.88
388.488	929.88
388.713	934.88
388.938	964.88
389.163	928.88
389.387	934.88
389.612	946.88
389.837	930.88
390.062	905.88
390.287	916.88
390.512	910.88
390.736	952.88
390.961	970.88
391.186	960.88
391.411	1025.88
391.636	1017.88
391.86	1076.88
392.085	1088.88
392.31	1070.88
392.534	1022.88
392.759	1043.88
392.984	1000.88
393.208	984.88
393.433	1023.88
393.658	982.88
393.882	1013.88
394.107	1004.88
394.331	1026.88
394.556	1041.88
394.78	1010.88
395.005	1031.88
395.229	1029.88
395.454	1072.88
395.678	1076.88
395.903	1091.88
396.127	1043.88
396.352	1001.88
396.576	999.88
396.801	995.88
397.025	1018.88
397.249	1013.88
397.474	1057.88
397.698	1076.88
397.922	1050.88
398.147	1053.88
398.371	1074.88
398.595	1104.88
398.82	1138.88
399.044	1226.88
399.268	1401.88
399.492	1634.88
399.717	1864.88
399.941	1823.88
400.165	1610.88
400.389	1441.88
400.613	1302.88
400.837	1244.88
401.062	1202.88
401.286	1186.88
401.51	1176.88
401.734	1198.88
401.958	1214.88
402.182	1210.88
402.406	1213.88
402.63	1262.88
402.854	1284.88
403.078	1294.88
403.302	1328.88
403.526	1368.88
403.75	1375.88
403.974	1400.88
404.198	1421.88
404.422	1412.88
404.645	1383.88
404.869	1366.88
405.093	1368.88
405.317	1328.88
405.541	1343.88
405.765	1298.88
405.988	1313.88
406.212	1292.88
406.436	1313.88
406.66	1306.88
406.883	1354.88
407.107	1442.88
407.331	1494.88
407.555	1562.88
407.778	1536.88
408.002	1519.88
408.226	1475.88
408.449	1427.88
408.673	1374.88
408.896	1355.88
409.12	1331.88
409.344	1362.88
409.567	1330.88
409.791	1356.88
410.014	1403.88
410.238	1370.88
410.461	1352.88
410.685	1338.88
410.908	1304.88
411.132	1288.88
411.355	1252.88
411.578	1257.88
411.802	1226.88
412.025	1230.88
412.249	1234.88
412.472	1250.88
412.695	1221.88
412.919	1190.88
413.142	1174.88
413.365	1212.88
413.589	1208.88
413.812	1139.88
414.035	1190.88
414.258	1166.88
414.482	1195.88
414.705	1218.88
414.928	1241.88
415.151	1210.88
415.374	1203.88
415.597	1168.88
415.821	1193.88
416.044	1141.88
416.267	1123.88
416.49	1148.88
416.713	1156.88
416.936	1151.88
417.159	1169.88
417.382	1152.88
417.605	1171.88
417.828	1169.88
418.051	1189.88
418.274	1177.88
418.497	1198.88
418.72	1206.88
418.943	1224.88
419.166	1289.88
419.389	1382.88
419.611	1329.88
419.834	1273.88
420.057	1251.88
420.28	1192.88
420.503	1150.88
420.726	1164.88
420.948	1142.88
421.171	1163.88
421.394	1196.88
421.617	1180.88
421.839	1165.88
422.062	1195.88
422.285	1197.88
422.507	1225.88
422.73	1226.88
422.953	1209.88
423.175	1251.88
423.398	1276.88
423.621	1298.88
423.843	1263.88
424.066	1282.88
424.288	1264.88
424.511	1232.88
424.733	1260.88
424.956	1237.88
425.178	1167.88
425.401	1203.88
425.623	1188.88
425.846	1139.88
426.068	1188.88
426.291	1138.88
426.513	1100.88
426.735	1117.88
426.958	1098.88
427.18	1080.88
427.402	1097.88
427.625	1084.88
427.847	1071.88
428.069	1069.88
428.292	1076.88
428.514	1039.88
428.736	1042.88
428.958	1053.88
429.181	1036.88
429.403	1030.88
429.625	1018.88
429.847	1030.88
430.069	1001.88
430.292	1024.88
430.514	1006.88
430.736	995.88
430.958	1041.88
431.18	1018.88
431.402	1038.88
431.624	1001.88
431.846	1048.88
432.068	1040.88
432.29	1061.88
432.512	1047.88
432.734	1056.88
432.956	1034.88
433.178	1039.88
433.4	1055.88
433.622	1063.88
433.844	1078.88
434.066	1079.88
434.287	1054.88
434.509	1090.88
434.731	1149.88
434.953	1184.88
435.175	1192.88
435.397	1186.88
435.618	1142.88
435.84	1069.88
436.062	1038.88
436.284	1065.88
436.505	1044.88
436.727	1053.88
436.949	1031.88
437.17	1038.88
437.392	1046.88
437.614	988.88
437.835	986.88
438.057	998.88
438.278	980.88
438.5	968.88
438.721	993.88
438.943	1026.88
439.165	998.88
439.386	1047.88
439.608	1013.88
439.829	1026.88
440.05	1028.88
440.272	1052.88
440.493	1034.88
440.715	1101.88
440.936	1089.88
441.158	1100.88
441.379	1134.88
441.6	1227.88
441.822	1204.88
442.043	1210.88
442.264	1171.88
442.486	1140.88
442.707	1176.88
442.928	1170.88
443.149	1171.88
443.371	1179.88
443.592	1205.88
443.813	1184.88
444.034	1220.88
444.255	1250.88
444.476	1330.88
444.698	1370.88
444.919	1448.88
445.14	1494.88
445.361	1346.88
445.582	1237.88
445.803	1158.88
446.024	1151.88
446.245	1105.88
446.466	1080.88
446.687	1056.88
446.908	1067.88
447.129	1011.88
447.35	1030.88
447.571	992.88
447.792	977.88
448.013	1003.88
448.234	967.88
448.455	941.88
448.675	999.88
448.896	952.88
449.117	961.88
449.338	941.88
449.559	945.88
449.779	932.88
450	937.88
450.221	952.88
450.442	947.88
450.662	970.88
450.883	985.88
451.104	1003.88
451.324	977.88
451.545	974.88
451.766	983.88
451.986	931.88
452.207	963.88
452.428	929.88
452.648	950.88
452.869	937.88
453.089	920.88
453.31	984.88
453.53	929.88
453.751	923.88
453.971	907.88
454.192	934.88
454.412	922.88
454.633	904.88
454.853	935.88
455.073	904.88
455.294	904.88
455.514	896.88
455.734	916.88
455.955	878.88
456.175	888.88
456.395	894.88
456.616	881.88
456.836	916.88
457.056	888.88
457.276	884.88
457.497	862.88
457.717	904.88
457.937	898.88
458.157	934.88
458.377	910.88
458.598	958.88
458.818	967.88
459.038	992.88
459.258	1010.88
459.478	1064.88
459.698	1056.88
459.918	1111.88
460.138	1167.88
460.358	1237.88
460.578	1236.88
460.798	1246.88
461.018	1280.88
461.238	1254.88
461.458	1230.88
461.678	1245.88
461.898	1251.88
462.118	1242.88
462.338	1342.88
462.558	1377.88
462.777	1405.88
462.997	1556.88
463.217	1708.88
463.437	1745.88
463.657	1570.88
463.876	1474.88
464.096	1428.88
464.316	1444.88
464.536	1472.88
464.755	1415.88
464.975	1355.88
465.195	1291.88
465.414	1212.88
465.634	1149.88
465.854	1095.88
466.073	1081.88
466.293	1025.88
466.512	1021.88
466.732	1022.88
466.951	1013.88
467.171	1029.88
467.391	1032.88
467.61	1006.88
467.829	1002.88
468.049	980.88
468.268	952.88
468.488	944.88
468.707	951.88
468.927	961.88
469.146	947.88
469.365	977.88
469.585	995.88
469.804	1021.88
470.023	1035.88
470.243	1038.88
470.462	1018.88
470.681	1026.88
470.901	1035.88
471.12	1006.88
471.339	1011.88
471.558	987.88
471.777	993.88
471.997	976.88
472.216	965.88
472.435	971.88
472.654	957.88
472.873	920.88
473.092	917.88
473.311	926.88
473.53	938.88
473.749	929.88
473.968	940.88
474.187	918.88
474.406	911.88
474.625	916.88
474.844	942.88
475.063	936.88
475.282	940.88
475.501	930.88
475.72	941.88
475.939	929.88
476.158	960.88
476.377	989.88
476.596	961.88
476.814	993.88
477.033	978.88
477.252	1001.88
477.471	1014.88
477.69	1041.88
477.908	1079.88
478.127	1052.88
478.346	1115.88
478.564	1146.88
478.783	1130.88
479.002	1182.88
479.22	1167.88
479.439	1164.88
479.658	1124.88
479.876	1126.88
480.095	1164.88
480.313	1220.88
480.532	1265.88
480.751	1260.88
480.969	1184.88
481.188	1152.88
481.406	1114.88
481.624	1092.88
481.843	1060.88
482.061	1079.88
482.28	1068.88
482.498	1063.88
482.717	1049.88
482.935	1065.88
483.153	1056.88
483.372	1043.88
483.59	1053.88
483.808	1076.88
484.027	1059.88
484.245	1093.88
484.463	1086.88
484.681	1118.88
484.9	1104.88
485.118	1102.88
485.336	1101.88
485.554	1131.88
485.772	1136.88
485.99	1131.88
486.209	1130.88
486.427	1126.88
486.645	1150.88
486.863	1140.88
487.081	1092.88
487.299	1104.88
487.517	1142.88
487.735	1130.88
487.953	1094.88
488.171	1125.88
488.389	1089.88
488.607	1082.88
488.825	1102.88
489.043	1078.88
489.261	1081.88
489.479	1115.88
489.696	1129.88
489.914	1138.88
490.132	1118.88
490.35	1066.88
490.568	1132.88
490.786	1126.88
491.003	1125.88
491.221	1159.88
491.439	1122.88
491.657	1154.88
491.874	1151.88
492.092	1142.88
492.31	1138.88
492.527	1134.88
492.745	1138.88
492.963	1147.88
493.18	1146.88
493.398	1179.88
493.615	1170.88
493.833	1180.88
494.05	1178.88
494.268	1176.88
494.485	1156.88
494.703	1172.88
494.92	1153.88
495.138	1174.88
495.355	1183.88
495.573	1170.88
495.79	1193.88
496.008	1202.88
496.225	1196.88
496.442	1242.88
496.66	1254.88
496.877	1220.88
497.094	1233.88
497.312	1266.88
497.529	1330.88
497.746	1329.88
497.963	1397.88
498.181	1414.88
498.398	1476.88
498.615	1580.88
498.832	1693.88
499.049	1828.88
499.267	1998.88
499.484	2196.88
499.701	2426.88
499.918	2674.88
500.135	3074.88
500.352	3644.88
500.569	3817.88
500.786	3782.88
501.003	3474.88
501.22	3083.88
501.437	2682.88
501.654	2312.88
501.871	2130.88
502.088	1932.88
502.305	1818.88
502.522	1684.88
502.739	1640.88
502.956	1570.88
503.172	1450.88
503.389	1407.88
503.606	1353.88
503.823	1314.88
504.04	1364.88
504.256	1349.88
504.473	1396.88
504.69	1466.88
504.907	1425.88
505.123	1308.88
505.34	1252.88
505.557	1166.88
505.773	1147.88
505.99	1117.88
506.207	1111.88
506.423	1052.88
506.64	1086.88
506.856	1060.88
507.073	1036.88
507.289	1054.88
507.506	1059.88
507.722	1030.88
507.939	1022.88
508.155	999.88
508.372	1030.88
508.588	997.88
508.805	986.88
509.021	977.88
509.238	989.88
509.454	973.88
509.67	975.88
509.887	954.88
510.103	962.88
510.319	980.88
510.536	935.88
510.752	968.88
510.968	944.88
511.184	937.88
511.401	940.88
511.617	951.88
511.833	952.88
512.049	935.88
512.265	904.88
512.481	943.88
512.698	910.88
512.914	932.88
513.13	962.88
513.346	946.88
513.562	948.88
513.778	924.88
513.994	969.88
514.21	935.88
514.426	934.88
514.642	971.88
514.858	989.88
515.074	987.88
515.29	973.88
515.506	975.88
515.721	1009.88
515.937	1030.88
516.153	1036.88
516.369	1078.88
516.585	1122.88
516.801	1138.88
517.016	1184.88
517.232	1255.88
517.448	1288.88
517.664	1330.88
517.879	1371.88
518.095	1363.88
518.311	1359.88
518.527	1259.88
518.742	1197.88
518.958	1180.88
519.173	1108.88
519.389	1062.88
519.605	1027.88
519.82	979.88
520.036	1000.88
520.251	1002.88
520.467	961.88
520.682	953.88
520.898	958.88
521.113	946.88
521.329	916.88
521.544	916.88
521.76	905.88
521.975	928.88
522.19	906.88
522.406	923.88
522.621	904.88
522.836	900.88
523.052	905.88
523.267	888.88
523.482	866.88
523.698	894.88
523.913	880.88
524.128	881.88
524.343	862.88
524.559	884.88
524.774	882.88
524.989	881.88
525.204	869.88
525.419	845.88
525.634	872.88
525.849	871.88
526.064	862.88
526.28	882.88
526.495	827.88
526.71	890.88
526.925	897.88
527.14	853.88
527.355	866.88
527.57	838.88
527.785	845.88
527.999	838.88
528.214	842.88
528.429	844.88
528.644	842.88
528.859	869.88
529.074	855.88
529.289	853.88
529.503	865.88
529.718	851.88
529.933	865.88
530.148	845.88
530.363	834.88
530.577	834.88
530.792	870.88
531.007	860.88
531.221	857.88
531.436	862.88
531.651	884.88
531.865	872.88
532.08	864.88
532.295	865.88
532.509	874.88
532.724	873.88
532.938	860.88
533.153	853.88
533.367	844.88
533.582	876.88
533.796	860.88
534.011	872.88
534.225	845.88
534.44	817.88
534.654	829.88
534.868	854.88
535.083	842.88
535.297	845.88
535.511	838.88
535.726	840.88
535.94	838.88
536.154	821.88
536.369	801.88
536.583	797.88
536.797	786.88
537.011	794.88
537.225	792.88
537.44	785.88
537.654	740.88
537.868	788.88
538.082	795.88
538.296	789.88
538.51	792.88
538.724	781.88
538.938	782.88
539.153	789.88
539.367	776.88
539.581	773.88
539.795	766.88
540.009	754.88
540.222	762.88
540.436	766.88
540.65	762.88
540.864	748.88
541.078	740.88
541.292	734.88
541.506	769.88
541.72	756.88
541.934	794.88
542.147	777.88
542.361	738.88
542.575	758.88
542.789	735.88
543.002	743.88
543.216	757.88
543.43	762.88
543.644	716.88
543.857	740.88
544.071	749.88
544.285	777.88
544.498	762.88
544.712	778.88
544.925	787.88
545.139	756.88
545.352	764.88
545.566	792.88
545.779	782.88
545.993	782.88
546.206	807.88
546.42	776.88
546.633	801.88
546.847	784.88
547.06	770.88
547.274	772.88
547.487	802.88
547.7	800.88
547.914	795.88
548.127	796.88
548.34	801.88
548.554	803.88
548.767	804.88
548.98	795.88
549.193	804.88
549.407	817.88
549.62	835.88
549.833	830.88
550.046	804.88
550.259	780.88
550.473	781.88
550.686	793.88
550.899	758.88
551.112	766.88
551.325	757.88
551.538	736.88
551.751	759.88
551.964	795.88
552.177	752.88
552.39	791.88
552.603	805.88
552.816	822.88
553.029	853.88
553.242	870.88
553.455	882.88
553.667	873.88
553.88	866.88
554.093	845.88
554.306	816.88
554.519	822.88
554.732	782.88
554.944	762.88
555.157	752.88
555.37	744.88
555.583	723.88
555.795	723.88
556.008	733.88
556.221	714.88
556.433	697.88
556.646	701.88
556.859	674.88
557.071	685.88
557.284	674.88
557.496	670.88
557.709	650.88
557.921	660.88
558.134	675.88
558.346	669.88
558.559	664.88
558.771	668.88
558.984	644.88
559.196	619.88
559.409	661.88
559.621	651.88
559.833	654.88
560.046	635.88
560.258	638.88
560.47	633.88
560.683	644.88
560.895	625.88
561.107	612.88
561.32	644.88
561.532	638.88
561.744	651.88
561.956	647.88
562.168	657.88
562.381	640.88
562.593	662.88
562.805	638.88
563.017	637.88
563.229	621.88
563.441	634.88
563.653	626.88
563.865	635.88
564.077	658.88
564.289	656.88
564.501	672.88
564.713	695.88
564.925	688.88
565.137	723.88
565.349	708.88
565.561	712.88
565.773	802.88
565.985	800.88
566.197	839.88
566.408	907.88
566.62	1015.88
566.832	1077.88
567.044	1097.88
567.255	1096.88
567.467	1121.88
567.679	1166.88
567.891	1279.88
568.102	1350.88
568.314	1274.88
568.526	1096.88
568.737	982.88
568.949	912.88
569.161	845.88
569.372	748.88
569.584	718.88
569.795	733.88
570.007	684.88
570.218	668.88
570.43	669.88
570.641	647.88
570.853	660.88
571.064	678.88
571.276	688.88
571.487	650.88
571.698	613.88
571.91	584.88
572.121	560.88
572.333	580.88
572.544	571.88
572.755	552.88
572.966	546.88
573.178	549.88
573.389	537.88
573.6	548.88
573.811	531.88
574.023	514.88
574.234	536.88
574.445	500.88
574.656	523.88
574.867	523.88
575.078	531.88
575.289	525.88
575.501	515.88
575.712	501.88
575.923	486.88
576.134	494.88
576.345	501.88
576.556	522.88
576.767	512.88
576.978	482.88
577.188	475.88
577.399	502.88
577.61	476.88
577.821	471.88
578.032	478.88
578.243	479.88
578.454	461.88
578.665	459.88
578.875	468.88
579.086	459.88
579.297	486.88
579.508	473.88
579.718	465.88
579.929	454.88
580.14	472.88
580.35	463.88
580.561	446.88
580.772	441.88
580.982	445.88
581.193	448.88
581.403	450.88
581.614	460.88
581.825	456.88
582.035	453.88
582.246	444.88
582.456	460.88
582.667	453.88
582.877	451.88
583.087	443.88
583.298	443.88
583.508	438.88
583.719	448.88
583.929	448.88
584.139	421.88
584.35	434.88
584.56	437.88
584.77	426.88
584.981	436.88
585.191	443.88
585.401	437.88
585.611	437.88
585.821	425.88
586.032	433.88
586.242	439.88
586.452	444.88
586.662	432.88
586.872	411.88
587.082	398.88
587.292	443.88
587.502	406.88
587.713	426.88
587.923	432.88
588.133	418.88
588.343	442.88
588.553	402.88
588.762	436.88
588.972	415.88
589.182	427.88
589.392	410.88
589.602	422.88
589.812	432.88
590.022	442.88
590.232	431.88
590.441	454.88
590.651	434.88
590.861	420.88
591.071	438.88
591.281	450.88
591.49	430.88
591.7	462.88
591.91	457.88
592.119	448.88
592.329	477.88
592.539	502.88
592.748	508.88
592.958	527.88
593.167	522.88
593.377	544.88
593.587	548.88
593.796	545.88
594.006	566.88
594.215	570.88
594.424	566.88
594.634	547.88
594.843	535.88
595.053	480.88
595.262	472.88
595.472	469.88
595.681	453.88
595.89	443.88
596.1	434.88
596.309	410.88
596.518	404.88
596.727	410.88
596.937	410.88
597.146	390.88
597.355	359.88
597.564	384.88
597.774	384.88
597.983	378.88
598.192	369.88
598.401	374.88
598.61	372.88
598.819	369.88
599.028	372.88
599.237	375.88
599.446	357.88
599.655	366.88
599.864	361.88
600.073	344.88
600.282	379.88
600.491	358.88
600.7	355.88
600.909	362.88
601.118	357.88
601.327	359.88
601.536	358.88
601.745	355.88
601.953	338.88
602.162	348.88
602.371	344.88
602.58	336.88
602.789	331.88
602.997	341.88
603.206	346.88
603.415	347.88
603.623	334.88
603.832	339.88
604.041	324.88
604.249	325.88
604.458	339.88
604.666	331.88
604.875	335.88
605.084	326.88
605.292	331.88
605.501	342.88
605.709	346.88
605.918	322.88
606.126	334.88
606.334	329.88
606.543	335.88
606.751	328.88
606.96	308.88
607.168	323.88
607.376	325.88
607.585	301.88
607.793	311.88
608.001	330.88
608.21	308.88
608.418	325.88
608.626	316.88
608.834	329.88
609.043	316.88
609.251	323.88
609.459	308.88
609.667	305.88
609.875	316.88
610.083	306.88
610.291	308.88
610.499	321.88
610.707	312.88
610.916	320.88
611.124	305.88
611.332	317.88
611.54	308.88
611.748	314.88
611.955	315.88
612.163	305.88
612.371	311.88
612.579	316.88
612.787	313.88
612.995	313.88
613.203	307.88
613.411	309.88
613.618	317.88
613.826	293.88
614.034	307.88
614.242	290.88
614.449	302.88
614.657	314.88
614.865	315.88
615.072	323.88
615.28	321.88
615.488	312.88
615.695	305.88
615.903	310.88
616.111	320.88
616.318	337.88
616.526	331.88
616.733	328.88
616.941	316.88
617.148	294.88
617.356	297.88
617.563	313.88
617.771	310.88
617.978	314.88
618.185	323.88
618.393	329.88
618.6	317.88
618.807	307.88
619.015	299.88
619.222	307.88
619.429	292.88
619.637	289.88
619.844	303.88
620.051	281.88
620.258	291.88
620.466	292.88
620.673	299.88
620.88	275.88
621.087	292.88
621.294	277.88
621.501	299.88
621.708	286.88
621.915	281.88
622.122	288.88
622.329	288.88
622.536	271.88
622.743	273.88
622.95	243.88
623.157	270.88
623.364	282.88
623.571	268.88
623.778	273.88
623.985	261.88
624.192	257.88
624.399	270.88
624.606	274.88
624.812	259.88
625.019	261.88
625.226	256.88
625.433	277.88
625.639	281.88
625.846	265.88
626.053	269.88
626.259	254.88
626.466	269.88
626.673	256.88
626.879	254.88
627.086	250.88
627.293	252.88
627.499	270.88
627.706	264.88
627.912	264.88
628.119	242.88
628.325	250.88
628.532	244.88
628.738	244.88
628.945	266.88
629.151	243.88
629.357	245.88
629.564	226.88
629.77	242.88
629.976	246.88
630.183	244.88
630.389	229.88
630.595	243.88
630.802	237.88
631.008	245.88
631.214	227.88
631.42	229.88
631.627	230.88
631.833	218.88
632.039	220.88
632.245	234.88
632.451	219.88
632.657	231.88
632.863	222.88
633.069	229.88
633.275	234.88
633.481	224.88
633.688	233.88
633.893	228.88
634.099	222.88
634.305	216.88
634.511	225.88
634.717	241.88
634.923	230.88
635.129	232.88
635.335	226.88
635.541	212.88
635.747	232.88
635.952	222.88
636.158	226.88
636.364	226.88
636.57	215.88
636.775	226.88
636.981	220.88
637.187	222.88
637.392	219.88
637.598	232.88
637.804	205.88
638.009	221.88
638.215	238.88
638.421	225.88
638.626	230.88
638.832	214.88
639.037	214.88
639.243	218.88
639.448	203.88
639.654	214.88
639.859	219.88
640.065	206.88
640.27	197.88
640.475	217.88
640.681	217.88
640.886	205.88
641.091	196.88
641.297	217.88
641.502	192.88
641.707	213.88
641.913	205.88
642.118	194.88
642.323	206.88
642.528	208.88
642.733	202.88
642.939	206.88
643.144	213.88
643.349	189.88
643.554	181.88
643.759	200.88
643.964	199.88
644.169	194.88
644.374	194.88
644.579	192.88
644.784	195.88
644.989	209.88
645.194	206.88
645.399	209.88
645.604	201.88
645.809	199.88
646.014	206.88
646.219	194.88
646.423	198.88
646.628	204.88
646.833	187.88
647.038	201.88
647.243	203.88
647.447	226.88
647.652	214.88
647.857	221.88
648.062	198.88
648.266	222.88
648.471	225.88
648.676	227.88
648.88	209.88
649.085	218.88
649.289	224.88
649.494	197.88
649.698	193.88
649.903	193.88
650.107	200.88
650.312	194.88
650.516	193.88
650.721	189.88
650.925	177.88
651.13	193.88
651.334	194.88
651.539	170.88
651.743	186.88
651.947	181.88
652.152	161.88
652.356	168.88
652.56	173.88
652.764	184.88
652.969	166.88
653.173	160.88
653.377	162.88
653.581	156.88
653.785	153.88
653.99	158.88
654.194	151.88
654.398	152.88
654.602	138.88
654.806	144.88
655.01	147.88
655.214	141.88
655.418	157.88
655.622	129.88
655.826	142.88
656.03	157.88
656.234	145.88
656.438	155.88
656.642	137.88
656.846	148.88
657.049	157.88
657.253	132.88
657.457	139.88
657.661	142.88
657.865	116.88
658.068	117.88
658.272	118.88
658.476	118.88
658.68	116.88
658.883	115.88
659.087	105.88
659.291	106.88
659.494	94.88
659.698	86.88
659.901	109.88
660.105	116.88
660.309	110.88
660.512	96.88
660.716	97.88
660.919	86.88
661.123	86.88
661.326	94.88
661.53	111.88
661.733	88.88
661.936	91.88
662.14	88.88
662.343	92.88
662.546	85.88
662.75	75.88
662.953	91.88
663.156	82.88
663.36	77.88
663.563	86.88
663.766	82.88
663.969	82.88
664.173	89.88
664.376	77.88
664.579	77.88
664.782	78.88
664.985	82.88
665.188	87.88
665.391	86.88
665.594	77.88
665.797	85.88
666	79.88
666.203	93.88
666.406	61.88
666.609	86.88
666.812	83.88
667.015	88.88
667.218	68.88
667.421	80.88
667.624	92.88
667.827	92.88
668.03	96.88
668.232	59.88
668.435	81.88
668.638	71.88
668.841	72.88
669.043	86.88
669.246	75.88
669.449	77.88
669.651	86.88
669.854	98.88
670.057	84.88
670.259	76.88
670.462	76.88
670.665	87.88
670.867	89.88
671.07	87.88
671.272	89.88
671.475	85.88
671.677	72.88
671.88	52.88
672.082	78.88
672.284	77.88
672.487	79.88
672.689	84.88
672.892	93.88
