Data from Ni(NO3)2@0.5M.TitratingCurve.Agarose3%dH2O.NegLispCup.LampEnergy10.LIBS07252019_HRD10591_17-57-20-563.txt Node
Date: Thu Jul 25 17:57:20 EDT 2019
User: cochatt
Spectrometer: HR+D1059
Trigger mode: 1
Integration Time (sec): 1.000000E-1
Scans to average: 1
Electric dark correction enabled: true
Nonlinearity correction enabled: false
Boxcar width: 0
XAxis mode: Wavelengths
Number of Pixels in Spectrum: 2048
>>>>>Begin Spectral Data<<<<<
223.165	-10.94
223.4	-10.94
223.635	-10.94
223.869	-27.94
224.104	-10.94
224.338	-19.94
224.573	-10.94
224.808	-14.94
225.042	-7.94
225.277	-11.94
225.511	-4.94
225.746	10.06
225.98	3.06
226.215	11.06
226.449	19.06
226.683	18.06
226.918	22.06
227.152	37.06
227.387	29.06
227.621	28.06
227.856	45.06
228.09	49.06
228.324	45.06
228.559	35.06
228.793	78.06
229.027	151.06
229.262	170.06
229.496	148.06
229.73	163.06
229.964	215.06
230.199	229.06
230.433	250.06
230.667	232.06
230.901	203.06
231.136	191.06
231.37	207.06
231.604	218.06
231.838	236.06
232.072	242.06
232.306	233.06
232.541	214.06
232.775	199.06
233.009	211.06
233.243	207.06
233.477	185.06
233.711	199.06
233.945	217.06
234.179	215.06
234.413	217.06
234.647	225.06
234.881	214.06
235.115	203.06
235.349	214.06
235.583	215.06
235.817	201.06
236.051	206.06
236.285	220.06
236.519	214.06
236.753	220.06
236.987	211.06
237.221	233.06
237.455	217.06
237.689	218.06
237.922	247.06
238.156	237.06
238.39	245.06
238.624	240.06
238.858	237.06
239.091	235.06
239.325	247.06
239.559	265.06
239.793	279.06
240.027	282.06
240.26	261.06
240.494	245.06
240.728	259.06
240.961	246.06
241.195	270.06
241.429	281.06
241.662	282.06
241.896	288.06
242.13	314.06
242.363	289.06
242.597	282.06
242.83	275.06
243.064	267.06
243.298	265.06
243.531	296.06
243.765	300.06
243.998	292.06
244.232	311.06
244.465	302.06
244.699	309.06
244.932	299.06
245.166	327.06
245.399	304.06
245.633	311.06
245.866	295.06
246.099	319.06
246.333	317.06
246.566	336.06
246.8	325.06
247.033	323.06
247.266	332.06
247.5	343.06
247.733	341.06
247.966	338.06
248.2	355.06
248.433	360.06
248.666	333.06
248.899	356.06
249.133	377.06
249.366	381.06
249.599	351.06
249.832	379.06
250.066	388.06
250.299	393.06
250.532	379.06
250.765	391.06
250.998	424.06
251.231	411.06
251.465	444.06
251.698	419.06
251.931	415.06
252.164	408.06
252.397	417.06
252.63	424.06
252.863	420.06
253.096	425.06
253.329	412.06
253.562	420.06
253.795	414.06
254.028	463.06
254.261	446.06
254.494	442.06
254.727	477.06
254.96	451.06
255.193	464.06
255.426	471.06
255.659	450.06
255.892	461.06
256.124	462.06
256.357	450.06
256.59	466.06
256.823	482.06
257.056	488.06
257.289	508.06
257.521	490.06
257.754	495.06
257.987	510.06
258.22	483.06
258.452	501.06
258.685	532.06
258.918	520.06
259.151	518.06
259.383	529.06
259.616	519.06
259.849	536.06
260.081	537.06
260.314	540.06
260.547	530.06
260.779	538.06
261.012	552.06
261.244	556.06
261.477	570.06
261.71	579.06
261.942	553.06
262.175	558.06
262.407	551.06
262.64	555.06
262.872	563.06
263.105	563.06
263.337	590.06
263.57	574.06
263.802	562.06
264.035	575.06
264.267	590.06
264.499	585.06
264.732	571.06
264.964	589.06
265.197	586.06
265.429	592.06
265.661	579.06
265.894	604.06
266.126	598.06
266.358	598.06
266.591	588.06
266.823	624.06
267.055	614.06
267.287	599.06
267.52	596.06
267.752	602.06
267.984	611.06
268.216	621.06
268.448	636.06
268.681	636.06
268.913	666.06
269.145	624.06
269.377	627.06
269.609	632.06
269.841	612.06
270.073	615.06
270.306	651.06
270.538	636.06
270.77	639.06
271.002	667.06
271.234	636.06
271.466	665.06
271.698	663.06
271.93	645.06
272.162	651.06
272.394	651.06
272.626	668.06
272.858	679.06
273.09	671.06
273.322	694.06
273.553	689.06
273.785	672.06
274.017	663.06
274.249	695.06
274.481	701.06
274.713	693.06
274.945	692.06
275.176	709.06
275.408	701.06
275.64	697.06
275.872	718.06
276.104	720.06
276.335	705.06
276.567	723.06
276.799	717.06
277.031	746.06
277.262	752.06
277.494	747.06
277.726	710.06
277.957	725.06
278.189	715.06
278.421	753.06
278.652	759.06
278.884	757.06
279.115	744.06
279.347	751.06
279.579	767.06
279.81	759.06
280.042	751.06
280.273	748.06
280.505	768.06
280.736	755.06
280.968	776.06
281.199	740.06
281.431	767.06
281.662	756.06
281.894	757.06
282.125	761.06
282.356	789.06
282.588	767.06
282.819	771.06
283.051	794.06
283.282	787.06
283.513	783.06
283.745	786.06
283.976	809.06
284.207	790.06
284.439	781.06
284.67	796.06
284.901	813.06
285.132	784.06
285.364	797.06
285.595	796.06
285.826	804.06
286.057	803.06
286.288	803.06
286.52	822.06
286.751	807.06
286.982	817.06
287.213	802.06
287.444	816.06
287.675	815.06
287.906	837.06
288.138	845.06
288.369	846.06
288.6	841.06
288.831	841.06
289.062	839.06
289.293	827.06
289.524	825.06
289.755	855.06
289.986	859.06
290.217	841.06
290.448	831.06
290.679	845.06
290.91	854.06
291.141	848.06
291.371	877.06
291.602	864.06
291.833	854.06
292.064	828.06
292.295	876.06
292.526	835.06
292.757	845.06
292.987	858.06
293.218	835.06
293.449	832.06
293.68	855.06
293.91	848.06
294.141	864.06
294.372	883.06
294.603	871.06
294.833	863.06
295.064	875.06
295.295	853.06
295.525	868.06
295.756	854.06
295.987	862.06
296.217	881.06
296.448	865.06
296.679	883.06
296.909	859.06
297.14	870.06
297.37	888.06
297.601	895.06
297.831	865.06
298.062	873.06
298.292	895.06
298.523	899.06
298.753	886.06
298.984	902.06
299.214	897.06
299.445	894.06
299.675	893.06
299.905	927.06
300.136	964.06
300.366	943.06
300.597	966.06
300.827	949.06
301.057	957.06
301.288	974.06
301.518	949.06
301.748	950.06
301.979	953.06
302.209	961.06
302.439	971.06
302.669	954.06
302.9	975.06
303.13	959.06
303.36	957.06
303.59	951.06
303.82	1004.06
304.051	1000.06
304.281	1009.06
304.511	976.06
304.741	964.06
304.971	982.06
305.201	998.06
305.431	1022.06
305.661	1001.06
305.891	999.06
306.121	997.06
306.352	994.06
306.582	979.06
306.812	979.06
307.042	989.06
307.272	995.06
307.502	986.06
307.731	1001.06
307.961	976.06
308.191	1005.06
308.421	965.06
308.651	1004.06
308.881	993.06
309.111	973.06
309.341	1028.06
309.571	1023.06
309.8	1013.06
310.03	1057.06
310.26	1081.06
310.49	1063.06
310.72	1065.06
310.949	1036.06
311.179	1047.06
311.409	1016.06
311.639	1011.06
311.868	1035.06
312.098	1049.06
312.328	1072.06
312.557	1078.06
312.787	1079.06
313.017	1037.06
313.246	1101.06
313.476	1079.06
313.706	1106.06
313.935	1111.06
314.165	1072.06
314.394	1108.06
314.624	1070.06
314.853	1099.06
315.083	1088.06
315.312	1095.06
315.542	1091.06
315.771	1088.06
316.001	1119.06
316.23	1099.06
316.46	1128.06
316.689	1132.06
316.919	1137.06
317.148	1096.06
317.377	1153.06
317.607	1111.06
317.836	1136.06
318.065	1132.06
318.295	1149.06
318.524	1166.06
318.753	1133.06
318.983	1157.06
319.212	1145.06
319.441	1171.06
319.67	1166.06
319.9	1187.06
320.129	1208.06
320.358	1199.06
320.587	1169.06
320.816	1179.06
321.046	1188.06
321.275	1189.06
321.504	1221.06
321.733	1225.06
321.962	1198.06
322.191	1239.06
322.42	1216.06
322.649	1232.06
322.878	1228.06
323.108	1246.06
323.337	1267.06
323.566	1244.06
323.795	1242.06
324.024	1245.06
324.253	1253.06
324.482	1215.06
324.71	1229.06
324.939	1247.06
325.168	1286.06
325.397	1231.06
325.626	1261.06
325.855	1268.06
326.084	1305.06
326.313	1269.06
326.542	1275.06
326.77	1305.06
326.999	1278.06
327.228	1278.06
327.457	1302.06
327.686	1318.06
327.914	1335.06
328.143	1324.06
328.372	1320.06
328.6	1308.06
328.829	1311.06
329.058	1301.06
329.287	1314.06
329.515	1331.06
329.744	1311.06
329.972	1361.06
330.201	1346.06
330.43	1339.06
330.658	1351.06
330.887	1327.06
331.115	1345.06
331.344	1358.06
331.572	1345.06
331.801	1375.06
332.03	1390.06
332.258	1408.06
332.486	1395.06
332.715	1397.06
332.943	1357.06
333.172	1360.06
333.4	1412.06
333.629	1380.06
333.857	1399.06
334.085	1415.06
334.314	1430.06
334.542	1415.06
334.771	1435.06
334.999	1400.06
335.227	1425.06
335.455	1444.06
335.684	1437.06
335.912	1461.06
336.14	1434.06
336.369	1439.06
336.597	1479.06
336.825	1498.06
337.053	1501.06
337.281	1488.06
337.51	1456.06
337.738	1465.06
337.966	1439.06
338.194	1433.06
338.422	1465.06
338.65	1456.06
338.878	1431.06
339.106	1431.06
339.334	1461.06
339.562	1480.06
339.79	1440.06
340.018	1406.06
340.246	1388.06
340.474	1456.06
340.702	1393.06
340.93	1415.06
341.158	1475.06
341.386	1462.06
341.614	1503.06
341.842	1492.06
342.07	1404.06
342.298	1457.06
342.526	1473.06
342.754	1449.06
342.981	1408.06
343.209	1417.06
343.437	1454.06
343.665	1481.06
343.893	1489.06
344.12	1464.06
344.348	1443.06
344.576	1459.06
344.804	1496.06
345.031	1461.06
345.259	1428.06
345.487	1443.06
345.714	1478.06
345.942	1472.06
346.17	1485.06
346.397	1477.06
346.625	1402.06
346.853	1382.06
347.08	1419.06
347.308	1419.06
347.535	1377.06
347.763	1367.06
347.99	1358.06
348.218	1399.06
348.445	1395.06
348.673	1376.06
348.9	1408.06
349.128	1419.06
349.355	1448.06
349.583	1417.06
349.81	1393.06
350.037	1361.06
350.265	1392.06
350.492	1390.06
350.72	1397.06
350.947	1395.06
351.174	1434.06
351.402	1432.06
351.629	1423.06
351.856	1425.06
352.083	1418.06
352.311	1424.06
352.538	1427.06
352.765	1428.06
352.992	1361.06
353.22	1355.06
353.447	1365.06
353.674	1364.06
353.901	1366.06
354.128	1360.06
354.355	1339.06
354.583	1309.06
354.81	1363.06
355.037	1332.06
355.264	1335.06
355.491	1320.06
355.718	1351.06
355.945	1343.06
356.172	1344.06
356.399	1355.06
356.626	1385.06
356.853	1366.06
357.08	1366.06
357.307	1359.06
357.534	1346.06
357.761	1359.06
357.988	1341.06
358.215	1377.06
358.441	1337.06
358.668	1309.06
358.895	1337.06
359.122	1380.06
359.349	1365.06
359.576	1337.06
359.802	1364.06
360.029	1348.06
360.256	1368.06
360.483	1344.06
360.709	1366.06
360.936	1366.06
361.163	1402.06
361.39	1357.06
361.616	1370.06
361.843	1404.06
362.07	1467.06
362.296	1410.06
362.523	1368.06
362.749	1379.06
362.976	1334.06
363.203	1344.06
363.429	1361.06
363.656	1308.06
363.882	1326.06
364.109	1374.06
364.335	1369.06
364.562	1345.06
364.788	1355.06
365.015	1365.06
365.241	1355.06
365.468	1344.06
365.694	1338.06
365.92	1365.06
366.147	1343.06
366.373	1359.06
366.599	1386.06
366.826	1339.06
367.052	1352.06
367.278	1396.06
367.505	1374.06
367.731	1401.06
367.957	1368.06
368.184	1375.06
368.41	1373.06
368.636	1369.06
368.862	1361.06
369.089	1341.06
369.315	1351.06
369.541	1355.06
369.767	1374.06
369.993	1373.06
370.219	1357.06
370.445	1412.06
370.672	1395.06
370.898	1382.06
371.124	1383.06
371.35	1384.06
371.576	1378.06
371.802	1385.06
372.028	1388.06
372.254	1392.06
372.48	1372.06
372.706	1432.06
372.932	1375.06
373.158	1394.06
373.384	1412.06
373.61	1381.06
373.835	1411.06
374.061	1403.06
374.287	1398.06
374.513	1367.06
374.739	1417.06
374.965	1376.06
375.191	1370.06
375.416	1391.06
375.642	1396.06
375.868	1393.06
376.094	1409.06
376.319	1374.06
376.545	1373.06
376.771	1359.06
376.997	1397.06
377.222	1379.06
377.448	1354.06
377.674	1367.06
377.899	1349.06
378.125	1369.06
378.35	1373.06
378.576	1368.06
378.802	1377.06
379.027	1345.06
379.253	1367.06
379.478	1376.06
379.704	1351.06
379.929	1387.06
380.155	1357.06
380.38	1324.06
380.606	1386.06
380.831	1345.06
381.057	1337.06
381.282	1312.06
381.507	1359.06
381.733	1364.06
381.958	1380.06
382.184	1356.06
382.409	1349.06
382.634	1368.06
382.86	1383.06
383.085	1400.06
383.31	1379.06
383.535	1375.06
383.761	1392.06
383.986	1387.06
384.211	1380.06
384.436	1424.06
384.662	1386.06
384.887	1433.06
385.112	1401.06
385.337	1401.06
385.562	1440.06
385.787	1454.06
386.013	1457.06
386.238	1454.06
386.463	1433.06
386.688	1455.06
386.913	1431.06
387.138	1447.06
387.363	1435.06
387.588	1427.06
387.813	1433.06
388.038	1448.06
388.263	1431.06
388.488	1435.06
388.713	1447.06
388.938	1479.06
389.163	1464.06
389.387	1484.06
389.612	1448.06
389.837	1454.06
390.062	1436.06
390.287	1436.06
390.512	1442.06
390.736	1471.06
390.961	1459.06
391.186	1482.06
391.411	1456.06
391.636	1469.06
391.86	1471.06
392.085	1454.06
392.31	1461.06
392.534	1471.06
392.759	1460.06
392.984	1454.06
393.208	1505.06
393.433	1471.06
393.658	1505.06
393.882	1449.06
394.107	1452.06
394.331	1454.06
394.556	1424.06
394.78	1486.06
395.005	1483.06
395.229	1455.06
395.454	1473.06
395.678	1472.06
395.903	1482.06
396.127	1496.06
396.352	1454.06
396.576	1489.06
396.801	1471.06
397.025	1500.06
397.249	1495.06
397.474	1549.06
397.698	1521.06
397.922	1503.06
398.147	1498.06
398.371	1538.06
398.595	1544.06
398.82	1558.06
399.044	1566.06
399.268	1578.06
399.492	1585.06
399.717	1617.06
399.941	1642.06
400.165	1662.06
400.389	1628.06
400.613	1625.06
400.837	1587.06
401.062	1574.06
401.286	1571.06
401.51	1584.06
401.734	1546.06
401.958	1585.06
402.182	1541.06
402.406	1587.06
402.63	1556.06
402.854	1528.06
403.078	1559.06
403.302	1603.06
403.526	1569.06
403.75	1570.06
403.974	1604.06
404.198	1573.06
404.422	1587.06
404.645	1553.06
404.869	1582.06
405.093	1594.06
405.317	1627.06
405.541	1617.06
405.765	1599.06
405.988	1581.06
406.212	1635.06
406.436	1625.06
406.66	1657.06
406.883	1651.06
407.107	1649.06
407.331	1635.06
407.555	1669.06
407.778	1669.06
408.002	1677.06
408.226	1677.06
408.449	1686.06
408.673	1632.06
408.896	1660.06
409.12	1631.06
409.344	1660.06
409.567	1615.06
409.791	1648.06
410.014	1671.06
410.238	1657.06
410.461	1641.06
410.685	1678.06
410.908	1626.06
411.132	1665.06
411.355	1597.06
411.578	1620.06
411.802	1597.06
412.025	1610.06
412.249	1611.06
412.472	1629.06
412.695	1565.06
412.919	1556.06
413.142	1594.06
413.365	1621.06
413.589	1595.06
413.812	1596.06
414.035	1585.06
414.258	1598.06
414.482	1574.06
414.705	1557.06
414.928	1573.06
415.151	1575.06
415.374	1589.06
415.597	1552.06
415.821	1531.06
416.044	1565.06
416.267	1547.06
416.49	1532.06
416.713	1539.06
416.936	1539.06
417.159	1515.06
417.382	1498.06
417.605	1515.06
417.828	1518.06
418.051	1542.06
418.274	1528.06
418.497	1481.06
418.72	1512.06
418.943	1517.06
419.166	1557.06
419.389	1654.06
419.611	1612.06
419.834	1578.06
420.057	1545.06
420.28	1500.06
420.503	1495.06
420.726	1501.06
420.948	1527.06
421.171	1493.06
421.394	1529.06
421.617	1461.06
421.839	1526.06
422.062	1485.06
422.285	1485.06
422.507	1495.06
422.73	1504.06
422.953	1489.06
423.175	1518.06
423.398	1492.06
423.621	1471.06
423.843	1503.06
424.066	1512.06
424.288	1520.06
424.511	1513.06
424.733	1527.06
424.956	1489.06
425.178	1525.06
425.401	1531.06
425.623	1523.06
425.846	1492.06
426.068	1523.06
426.291	1518.06
426.513	1508.06
426.735	1483.06
426.958	1495.06
427.18	1454.06
427.402	1489.06
427.625	1481.06
427.847	1483.06
428.069	1493.06
428.292	1520.06
428.514	1516.06
428.736	1501.06
428.958	1497.06
429.181	1470.06
429.403	1502.06
429.625	1475.06
429.847	1489.06
430.069	1491.06
430.292	1502.06
430.514	1484.06
430.736	1508.06
430.958	1490.06
431.18	1519.06
431.402	1519.06
431.624	1506.06
431.846	1476.06
432.068	1453.06
432.29	1488.06
432.512	1469.06
432.734	1536.06
432.956	1489.06
433.178	1579.06
433.4	1538.06
433.622	1569.06
433.844	1525.06
434.066	1578.06
434.287	1481.06
434.509	1483.06
434.731	1556.06
434.953	1544.06
435.175	1541.06
435.397	1604.06
435.618	1540.06
435.84	1497.06
436.062	1507.06
436.284	1541.06
436.505	1464.06
436.727	1497.06
436.949	1520.06
437.17	1494.06
437.392	1504.06
437.614	1504.06
437.835	1443.06
438.057	1461.06
438.278	1419.06
438.5	1447.06
438.721	1456.06
438.943	1488.06
439.165	1500.06
439.386	1463.06
439.608	1509.06
439.829	1470.06
440.05	1484.06
440.272	1463.06
440.493	1483.06
440.715	1498.06
440.936	1525.06
441.158	1491.06
441.379	1513.06
441.6	1535.06
441.822	1528.06
442.043	1529.06
442.264	1540.06
442.486	1539.06
442.707	1513.06
442.928	1499.06
443.149	1529.06
443.371	1599.06
443.592	1603.06
443.813	1596.06
444.034	1552.06
444.255	1536.06
444.476	1572.06
444.698	1554.06
444.919	1593.06
445.14	1703.06
445.361	1621.06
445.582	1547.06
445.803	1501.06
446.024	1525.06
446.245	1549.06
446.466	1513.06
446.687	1475.06
446.908	1443.06
447.129	1467.06
447.35	1447.06
447.571	1465.06
447.792	1423.06
448.013	1425.06
448.234	1407.06
448.455	1452.06
448.675	1421.06
448.896	1435.06
449.117	1369.06
449.338	1388.06
449.559	1344.06
449.779	1372.06
450	1413.06
450.221	1382.06
450.442	1407.06
450.662	1399.06
450.883	1379.06
451.104	1383.06
451.324	1365.06
451.545	1399.06
451.766	1398.06
451.986	1343.06
452.207	1351.06
452.428	1364.06
452.648	1360.06
452.869	1319.06
453.089	1352.06
453.31	1355.06
453.53	1339.06
453.751	1336.06
453.971	1344.06
454.192	1375.06
454.412	1377.06
454.633	1338.06
454.853	1350.06
455.073	1325.06
455.294	1343.06
455.514	1348.06
455.734	1353.06
455.955	1415.06
456.175	1388.06
456.395	1343.06
456.616	1312.06
456.836	1346.06
457.056	1376.06
457.276	1352.06
457.497	1384.06
457.717	1338.06
457.937	1355.06
458.157	1352.06
458.377	1331.06
458.598	1358.06
458.818	1406.06
459.038	1390.06
459.258	1395.06
459.478	1488.06
459.698	1510.06
459.918	1547.06
460.138	1513.06
460.358	1533.06
460.578	1457.06
460.798	1557.06
461.018	1528.06
461.238	1474.06
461.458	1516.06
461.678	1472.06
461.898	1486.06
462.118	1472.06
462.338	1544.06
462.558	1552.06
462.777	1575.06
462.997	1611.06
463.217	1605.06
463.437	1692.06
463.657	1644.06
463.876	1579.06
464.096	1580.06
464.316	1590.06
464.536	1576.06
464.755	1527.06
464.975	1561.06
465.195	1526.06
465.414	1493.06
465.634	1483.06
465.854	1437.06
466.073	1470.06
466.293	1411.06
466.512	1451.06
466.732	1482.06
466.951	1462.06
467.171	1445.06
467.391	1461.06
467.61	1470.06
467.829	1417.06
468.049	1431.06
468.268	1440.06
468.488	1446.06
468.707	1461.06
468.927	1447.06
469.146	1446.06
469.365	1496.06
469.585	1407.06
469.804	1437.06
470.023	1431.06
470.243	1433.06
470.462	1446.06
470.681	1458.06
470.901	1461.06
471.12	1439.06
471.339	1453.06
471.558	1473.06
471.777	1461.06
471.997	1499.06
472.216	1478.06
472.435	1453.06
472.654	1450.06
472.873	1461.06
473.092	1477.06
473.311	1467.06
473.53	1499.06
473.749	1490.06
473.968	1496.06
474.187	1491.06
474.406	1489.06
474.625	1525.06
474.844	1507.06
475.063	1526.06
475.282	1560.06
475.501	1561.06
475.72	1528.06
475.939	1535.06
476.158	1554.06
476.377	1575.06
476.596	1528.06
476.814	1547.06
477.033	1575.06
477.252	1595.06
477.471	1617.06
477.69	1628.06
477.908	1640.06
478.127	1633.06
478.346	1686.06
478.564	1686.06
478.783	1693.06
479.002	1696.06
479.22	1758.06
479.439	1788.06
479.658	1721.06
479.876	1718.06
480.095	1716.06
480.313	1729.06
480.532	1766.06
480.751	1707.06
480.969	1708.06
481.188	1715.06
481.406	1709.06
481.624	1732.06
481.843	1707.06
482.061	1742.06
482.28	1756.06
482.498	1751.06
482.717	1728.06
482.935	1783.06
483.153	1792.06
483.372	1853.06
483.59	1861.06
483.808	1793.06
484.027	1790.06
484.245	1808.06
484.463	1812.06
484.681	1857.06
484.9	1815.06
485.118	1835.06
485.336	1819.06
485.554	1845.06
485.772	1830.06
485.99	1781.06
486.209	1824.06
486.427	1831.06
486.645	1797.06
486.863	1817.06
487.081	1803.06
487.299	1845.06
487.517	1832.06
487.735	1831.06
487.953	1913.06
488.171	1902.06
488.389	1871.06
488.607	1874.06
488.825	1856.06
489.043	1845.06
489.261	1860.06
489.479	1807.06
489.696	1877.06
489.914	1830.06
490.132	1823.06
490.35	1859.06
490.568	1871.06
490.786	1861.06
491.003	1896.06
491.221	1880.06
491.439	1847.06
491.657	1893.06
491.874	1864.06
492.092	1892.06
492.31	1904.06
492.527	1887.06
492.745	1889.06
492.963	1877.06
493.18	1869.06
493.398	1900.06
493.615	1859.06
493.833	1912.06
494.05	1911.06
494.268	1924.06
494.485	1918.06
494.703	1858.06
494.92	1947.06
495.138	1898.06
495.355	1905.06
495.573	1928.06
495.79	1901.06
496.008	1910.06
496.225	1877.06
496.442	1897.06
496.66	1971.06
496.877	1980.06
497.094	1956.06
497.312	1944.06
497.529	1972.06
497.746	2021.06
497.963	2001.06
498.181	1998.06
498.398	2068.06
498.615	2096.06
498.832	2111.06
499.049	2116.06
499.267	2150.06
499.484	2178.06
499.701	2219.06
499.918	2246.06
500.135	2288.06
500.352	2294.06
500.569	2288.06
500.786	2338.06
501.003	2333.06
501.22	2256.06
501.437	2270.06
501.654	2193.06
501.871	2219.06
502.088	2132.06
502.305	2135.06
502.522	2094.06
502.739	2083.06
502.956	2022.06
503.172	2011.06
503.389	1978.06
503.606	1920.06
503.823	1956.06
504.04	1894.06
504.256	1891.06
504.473	1820.06
504.69	1840.06
504.907	1808.06
505.123	1771.06
505.34	1781.06
505.557	1742.06
505.773	1763.06
505.99	1754.06
506.207	1745.06
506.423	1701.06
506.64	1659.06
506.856	1708.06
507.073	1705.06
507.289	1691.06
507.506	1677.06
507.722	1669.06
507.939	1661.06
508.155	1642.06
508.372	1699.06
508.588	1648.06
508.805	1629.06
509.021	1574.06
509.238	1610.06
509.454	1597.06
509.67	1610.06
509.887	1596.06
510.103	1569.06
510.319	1554.06
510.536	1575.06
510.752	1531.06
510.968	1550.06
511.184	1532.06
511.401	1561.06
511.617	1517.06
511.833	1548.06
512.049	1527.06
512.265	1561.06
512.481	1510.06
512.698	1527.06
512.914	1515.06
513.13	1507.06
513.346	1531.06
513.562	1515.06
513.778	1503.06
513.994	1526.06
514.21	1533.06
514.426	1551.06
514.642	1483.06
514.858	1526.06
515.074	1504.06
515.29	1543.06
515.506	1517.06
515.721	1503.06
515.937	1541.06
516.153	1523.06
516.369	1546.06
516.585	1574.06
516.801	1517.06
517.016	1554.06
517.232	1524.06
517.448	1553.06
517.664	1552.06
517.879	1536.06
518.095	1567.06
518.311	1554.06
518.527	1529.06
518.742	1537.06
518.958	1508.06
519.173	1479.06
519.389	1515.06
519.605	1534.06
519.82	1489.06
520.036	1491.06
520.251	1491.06
520.467	1470.06
520.682	1454.06
520.898	1453.06
521.113	1442.06
521.329	1446.06
521.544	1443.06
521.76	1452.06
521.975	1397.06
522.19	1441.06
522.406	1378.06
522.621	1423.06
522.836	1446.06
523.052	1399.06
523.267	1430.06
523.482	1418.06
523.698	1383.06
523.913	1406.06
524.128	1379.06
524.343	1395.06
524.559	1388.06
524.774	1372.06
524.989	1354.06
525.204	1379.06
525.419	1395.06
525.634	1359.06
525.849	1355.06
526.064	1367.06
526.28	1364.06
526.495	1341.06
526.71	1372.06
526.925	1321.06
527.14	1353.06
527.355	1312.06
527.57	1324.06
527.785	1332.06
527.999	1340.06
528.214	1334.06
528.429	1291.06
528.644	1361.06
528.859	1343.06
529.074	1319.06
529.289	1361.06
529.503	1335.06
529.718	1347.06
529.933	1326.06
530.148	1327.06
530.363	1296.06
530.577	1306.06
530.792	1303.06
531.007	1293.06
531.221	1281.06
531.436	1312.06
531.651	1311.06
531.865	1302.06
532.08	1276.06
532.295	1283.06
532.509	1291.06
532.724	1263.06
532.938	1279.06
533.153	1275.06
533.367	1300.06
533.582	1295.06
533.796	1321.06
534.011	1305.06
534.225	1259.06
534.44	1226.06
534.654	1251.06
534.868	1273.06
535.083	1245.06
535.297	1261.06
535.511	1253.06
535.726	1248.06
535.94	1243.06
536.154	1239.06
536.369	1219.06
536.583	1208.06
536.797	1185.06
537.011	1195.06
537.225	1221.06
537.44	1211.06
537.654	1234.06
537.868	1224.06
538.082	1184.06
538.296	1217.06
538.51	1210.06
538.724	1212.06
538.938	1219.06
539.153	1191.06
539.367	1209.06
539.581	1194.06
539.795	1173.06
540.009	1175.06
540.222	1147.06
540.436	1163.06
540.65	1180.06
540.864	1190.06
541.078	1189.06
541.292	1183.06
541.506	1213.06
541.72	1204.06
541.934	1217.06
542.147	1222.06
542.361	1188.06
542.575	1189.06
542.789	1164.06
543.002	1193.06
543.216	1162.06
543.43	1151.06
543.644	1146.06
543.857	1166.06
544.071	1181.06
544.285	1184.06
544.498	1159.06
544.712	1175.06
544.925	1189.06
545.139	1188.06
545.352	1168.06
545.566	1148.06
545.779	1152.06
545.993	1154.06
546.206	1199.06
546.42	1165.06
546.633	1153.06
546.847	1165.06
547.06	1159.06
547.274	1155.06
547.487	1144.06
547.7	1158.06
547.914	1148.06
548.127	1124.06
548.34	1135.06
548.554	1116.06
548.767	1105.06
548.98	1140.06
549.193	1129.06
549.407	1157.06
549.62	1128.06
549.833	1148.06
550.046	1115.06
550.259	1133.06
550.473	1105.06
550.686	1087.06
550.899	1118.06
551.112	1101.06
551.325	1103.06
551.538	1124.06
551.751	1110.06
551.964	1080.06
552.177	1073.06
552.39	1086.06
552.603	1091.06
552.816	1092.06
553.029	1097.06
553.242	1071.06
553.455	1107.06
553.667	1092.06
553.88	1090.06
554.093	1094.06
554.306	1092.06
554.519	1073.06
554.732	1071.06
554.944	1067.06
555.157	1039.06
555.37	1066.06
555.583	1036.06
555.795	1037.06
556.008	1000.06
556.221	1014.06
556.433	1016.06
556.646	1005.06
556.859	1013.06
557.071	1003.06
557.284	995.06
557.496	995.06
557.709	984.06
557.921	972.06
558.134	996.06
558.346	960.06
558.559	972.06
558.771	978.06
558.984	951.06
559.196	970.06
559.409	956.06
559.621	950.06
559.833	967.06
560.046	948.06
560.258	939.06
560.47	947.06
560.683	943.06
560.895	967.06
561.107	943.06
561.32	961.06
561.532	955.06
561.744	942.06
561.956	920.06
562.168	962.06
562.381	953.06
562.593	953.06
562.805	966.06
563.017	948.06
563.229	961.06
563.441	933.06
563.653	947.06
563.865	947.06
564.077	963.06
564.289	974.06
564.501	953.06
564.713	935.06
564.925	943.06
565.137	966.06
565.349	945.06
565.561	940.06
565.773	944.06
565.985	950.06
566.197	957.06
566.408	955.06
566.62	989.06
566.832	987.06
567.044	986.06
567.255	957.06
567.467	972.06
567.679	982.06
567.891	977.06
568.102	950.06
568.314	964.06
568.526	939.06
568.737	915.06
568.949	904.06
569.161	923.06
569.372	874.06
569.584	888.06
569.795	887.06
570.007	883.06
570.218	863.06
570.43	806.06
570.641	836.06
570.853	835.06
571.064	846.06
571.276	831.06
571.487	821.06
571.698	844.06
571.91	796.06
572.121	777.06
572.333	804.06
572.544	793.06
572.755	780.06
572.966	811.06
573.178	757.06
573.389	779.06
573.6	768.06
573.811	771.06
574.023	753.06
574.234	769.06
574.445	738.06
574.656	727.06
574.867	722.06
575.078	704.06
575.289	716.06
575.501	750.06
575.712	714.06
575.923	707.06
576.134	727.06
576.345	717.06
576.556	719.06
576.767	708.06
576.978	685.06
577.188	679.06
577.399	707.06
577.61	707.06
577.821	676.06
578.032	660.06
578.243	711.06
578.454	674.06
578.665	661.06
578.875	671.06
579.086	682.06
579.297	658.06
579.508	672.06
579.718	672.06
579.929	664.06
580.14	660.06
580.35	669.06
580.561	637.06
580.772	657.06
580.982	657.06
581.193	639.06
581.403	627.06
581.614	653.06
581.825	643.06
582.035	623.06
582.246	622.06
582.456	663.06
582.667	633.06
582.877	632.06
583.087	614.06
583.298	631.06
583.508	645.06
583.719	640.06
583.929	628.06
584.139	605.06
584.35	610.06
584.56	617.06
584.77	606.06
584.981	627.06
585.191	616.06
585.401	599.06
585.611	603.06
585.821	620.06
586.032	621.06
586.242	610.06
586.452	605.06
586.662	595.06
586.872	578.06
587.082	597.06
587.292	590.06
587.502	582.06
587.713	591.06
587.923	594.06
588.133	620.06
588.343	607.06
588.553	588.06
588.762	600.06
588.972	587.06
589.182	669.06
589.392	640.06
589.602	623.06
589.812	639.06
590.022	597.06
590.232	579.06
590.441	582.06
590.651	591.06
590.861	571.06
591.071	560.06
591.281	590.06
591.49	577.06
591.7	585.06
591.91	593.06
592.119	582.06
592.329	564.06
592.539	577.06
592.748	571.06
592.958	565.06
593.167	558.06
593.377	579.06
593.587	585.06
593.796	563.06
594.006	580.06
594.215	551.06
594.424	578.06
594.634	559.06
594.843	530.06
595.053	565.06
595.262	560.06
595.472	558.06
595.681	535.06
595.89	549.06
596.1	567.06
596.309	537.06
596.518	541.06
596.727	540.06
596.937	538.06
597.146	534.06
597.355	533.06
597.564	523.06
597.774	523.06
597.983	524.06
598.192	513.06
598.401	509.06
598.61	480.06
598.819	488.06
599.028	469.06
599.237	492.06
599.446	496.06
599.655	490.06
599.864	505.06
600.073	477.06
600.282	492.06
600.491	475.06
600.7	492.06
600.909	497.06
601.118	487.06
601.327	497.06
601.536	484.06
601.745	488.06
601.953	473.06
602.162	488.06
602.371	465.06
602.58	475.06
602.789	467.06
602.997	486.06
603.206	455.06
603.415	465.06
603.623	449.06
603.832	459.06
604.041	458.06
604.249	444.06
604.458	461.06
604.666	435.06
604.875	452.06
605.084	439.06
605.292	455.06
605.501	455.06
605.709	448.06
605.918	468.06
606.126	447.06
606.334	457.06
606.543	456.06
606.751	478.06
606.96	469.06
607.168	451.06
607.376	453.06
607.585	426.06
607.793	451.06
608.001	439.06
608.21	439.06
608.418	440.06
608.626	427.06
608.834	451.06
609.043	433.06
609.251	430.06
609.459	443.06
609.667	426.06
609.875	429.06
610.083	432.06
610.291	420.06
610.499	443.06
610.707	413.06
610.916	402.06
611.124	431.06
611.332	432.06
611.54	421.06
611.748	415.06
611.955	417.06
612.163	421.06
612.371	424.06
612.579	417.06
612.787	435.06
612.995	437.06
613.203	405.06
613.411	394.06
613.618	400.06
613.826	425.06
614.034	415.06
614.242	426.06
614.449	401.06
614.657	425.06
614.865	417.06
615.072	409.06
615.28	425.06
615.488	419.06
615.695	412.06
615.903	399.06
616.111	426.06
616.318	406.06
616.526	413.06
616.733	403.06
616.941	411.06
617.148	406.06
617.356	421.06
617.563	391.06
617.771	397.06
617.978	385.06
618.185	403.06
618.393	394.06
618.6	391.06
618.807	374.06
619.015	391.06
619.222	399.06
619.429	421.06
619.637	381.06
619.844	396.06
620.051	367.06
620.258	381.06
620.466	387.06
620.673	379.06
620.88	380.06
621.087	366.06
621.294	393.06
621.501	379.06
621.708	375.06
621.915	399.06
622.122	383.06
622.329	365.06
622.536	355.06
622.743	371.06
622.95	387.06
623.157	371.06
623.364	362.06
623.571	371.06
623.778	379.06
623.985	375.06
624.192	360.06
624.399	363.06
624.606	360.06
624.812	367.06
625.019	364.06
625.226	349.06
625.433	360.06
625.639	348.06
625.846	353.06
626.053	366.06
626.259	350.06
626.466	369.06
626.673	346.06
626.879	336.06
627.086	337.06
627.293	360.06
627.499	352.06
627.706	343.06
627.912	336.06
628.119	341.06
628.325	347.06
628.532	337.06
628.738	350.06
628.945	328.06
629.151	327.06
629.357	331.06
629.564	332.06
629.77	336.06
629.976	342.06
630.183	343.06
630.389	335.06
630.595	335.06
630.802	321.06
631.008	332.06
631.214	323.06
631.42	317.06
631.627	321.06
631.833	323.06
632.039	326.06
632.245	311.06
632.451	315.06
632.657	327.06
632.863	315.06
633.069	310.06
633.275	309.06
633.481	328.06
633.688	311.06
633.893	316.06
634.099	326.06
634.305	337.06
634.511	304.06
634.717	304.06
634.923	336.06
635.129	326.06
635.335	308.06
635.541	314.06
635.747	299.06
635.952	302.06
636.158	309.06
636.364	302.06
636.57	294.06
636.775	308.06
636.981	309.06
637.187	319.06
637.392	311.06
637.598	304.06
637.804	285.06
638.009	302.06
638.215	296.06
638.421	314.06
638.626	320.06
638.832	287.06
639.037	294.06
639.243	319.06
639.448	291.06
639.654	306.06
639.859	289.06
640.065	310.06
640.27	295.06
640.475	286.06
640.681	295.06
640.886	287.06
641.091	304.06
641.297	304.06
641.502	285.06
641.707	271.06
641.913	300.06
642.118	281.06
642.323	281.06
642.528	300.06
642.733	298.06
642.939	299.06
643.144	301.06
643.349	302.06
643.554	273.06
643.759	295.06
643.964	259.06
644.169	278.06
644.374	280.06
644.579	290.06
644.784	297.06
644.989	295.06
645.194	297.06
645.399	303.06
645.604	278.06
645.809	295.06
646.014	303.06
646.219	286.06
646.423	311.06
646.628	290.06
646.833	307.06
647.038	279.06
647.243	299.06
647.447	307.06
647.652	281.06
647.857	296.06
648.062	299.06
648.266	298.06
648.471	284.06
648.676	297.06
648.88	295.06
649.085	290.06
649.289	316.06
649.494	279.06
649.698	294.06
649.903	297.06
650.107	300.06
650.312	304.06
650.516	293.06
650.721	299.06
650.925	294.06
651.13	298.06
651.334	280.06
651.539	305.06
651.743	293.06
651.947	293.06
652.152	281.06
652.356	271.06
652.56	266.06
652.764	282.06
652.969	283.06
653.173	285.06
653.377	294.06
653.581	292.06
653.785	292.06
653.99	266.06
654.194	283.06
654.398	275.06
654.602	276.06
654.806	291.06
655.01	277.06
655.214	267.06
655.418	274.06
655.622	300.06
655.826	307.06
656.03	295.06
656.234	308.06
656.438	307.06
656.642	293.06
656.846	289.06
657.049	295.06
657.253	285.06
657.457	248.06
657.661	232.06
657.865	224.06
658.068	219.06
658.272	217.06
658.476	188.06
658.68	177.06
658.883	177.06
659.087	185.06
659.291	164.06
659.494	145.06
659.698	169.06
659.901	159.06
660.105	132.06
660.309	135.06
660.512	124.06
660.716	116.06
660.919	131.06
661.123	136.06
661.326	120.06
661.53	97.06
661.733	119.06
661.936	116.06
662.14	115.06
662.343	103.06
662.546	102.06
662.75	95.06
662.953	113.06
663.156	98.06
663.36	91.06
663.563	96.06
663.766	84.06
663.969	102.06
664.173	93.06
664.376	89.06
664.579	87.06
664.782	93.06
664.985	87.06
665.188	84.06
665.391	80.06
665.594	79.06
665.797	85.06
666	77.06
666.203	94.06
666.406	78.06
666.609	91.06
666.812	82.06
667.015	78.06
667.218	87.06
667.421	80.06
667.624	75.06
667.827	82.06
668.03	84.06
668.232	86.06
668.435	88.06
668.638	90.06
668.841	84.06
669.043	80.06
669.246	87.06
669.449	91.06
669.651	87.06
669.854	86.06
670.057	81.06
670.259	88.06
670.462	93.06
670.665	89.06
670.867	70.06
671.07	75.06
671.272	84.06
671.475	81.06
671.677	88.06
671.88	101.06
672.082	79.06
672.284	89.06
672.487	93.06
672.689	93.06
672.892	88.06
