Data from Ni(NO3)2@0.125M.TitratingCurve.Agarose3%dH2O.NegLispCup.LampEnergy10.LIBS07252019_HRD10591_18-11-39-568.txt Node
Date: Thu Jul 25 18:11:39 EDT 2019
User: cochatt
Spectrometer: HR+D1059
Trigger mode: 1
Integration Time (sec): 1.000000E-1
Scans to average: 1
Electric dark correction enabled: true
Nonlinearity correction enabled: false
Boxcar width: 0
XAxis mode: Wavelengths
Number of Pixels in Spectrum: 2048
>>>>>Begin Spectral Data<<<<<
223.165	-20.44
223.4	-20.44
223.635	-20.44
223.869	-0.44
224.104	-20.44
224.338	-14.44
224.573	-20.44
224.808	-7.44
225.042	-14.44
225.277	-13.44
225.511	-7.44
225.746	25.56
225.98	15.56
226.215	11.56
226.449	8.56
226.683	7.56
226.918	13.56
227.152	36.56
227.387	28.56
227.621	48.56
227.856	43.56
228.09	40.56
228.324	35.56
228.559	49.56
228.793	68.56
229.027	99.56
229.262	115.56
229.496	122.56
229.73	127.56
229.964	111.56
230.199	133.56
230.433	124.56
230.667	133.56
230.901	133.56
231.136	140.56
231.37	121.56
231.604	143.56
231.838	149.56
232.072	141.56
232.306	154.56
232.541	149.56
232.775	153.56
233.009	139.56
233.243	134.56
233.477	154.56
233.711	135.56
233.945	138.56
234.179	142.56
234.413	139.56
234.647	153.56
234.881	160.56
235.115	163.56
235.349	159.56
235.583	148.56
235.817	155.56
236.051	147.56
236.285	165.56
236.519	151.56
236.753	161.56
236.987	173.56
237.221	147.56
237.455	174.56
237.689	151.56
237.922	180.56
238.156	153.56
238.39	158.56
238.624	153.56
238.858	162.56
239.091	153.56
239.325	156.56
239.559	181.56
239.793	184.56
240.027	182.56
240.26	169.56
240.494	170.56
240.728	162.56
240.961	183.56
241.195	177.56
241.429	184.56
241.662	157.56
241.896	187.56
242.13	185.56
242.363	196.56
242.597	191.56
242.83	210.56
243.064	193.56
243.298	197.56
243.531	194.56
243.765	199.56
243.998	185.56
244.232	208.56
244.465	201.56
244.699	195.56
244.932	212.56
245.166	199.56
245.399	219.56
245.633	220.56
245.866	195.56
246.099	214.56
246.333	204.56
246.566	205.56
246.8	212.56
247.033	218.56
247.266	219.56
247.5	217.56
247.733	228.56
247.966	211.56
248.2	215.56
248.433	220.56
248.666	232.56
248.899	226.56
249.133	231.56
249.366	221.56
249.599	237.56
249.832	247.56
250.066	246.56
250.299	254.56
250.532	236.56
250.765	243.56
250.998	261.56
251.231	263.56
251.465	261.56
251.698	266.56
251.931	259.56
252.164	259.56
252.397	251.56
252.63	268.56
252.863	257.56
253.096	250.56
253.329	269.56
253.562	261.56
253.795	264.56
254.028	267.56
254.261	266.56
254.494	266.56
254.727	278.56
254.96	268.56
255.193	271.56
255.426	270.56
255.659	281.56
255.892	281.56
256.124	269.56
256.357	286.56
256.59	297.56
256.823	287.56
257.056	299.56
257.289	275.56
257.521	285.56
257.754	281.56
257.987	275.56
258.22	291.56
258.452	302.56
258.685	301.56
258.918	293.56
259.151	301.56
259.383	298.56
259.616	310.56
259.849	316.56
260.081	302.56
260.314	318.56
260.547	300.56
260.779	288.56
261.012	310.56
261.244	311.56
261.477	320.56
261.71	315.56
261.942	313.56
262.175	319.56
262.407	305.56
262.64	305.56
262.872	323.56
263.105	341.56
263.337	333.56
263.57	334.56
263.802	327.56
264.035	320.56
264.267	318.56
264.499	315.56
264.732	323.56
264.964	343.56
265.197	310.56
265.429	328.56
265.661	318.56
265.894	354.56
266.126	335.56
266.358	346.56
266.591	333.56
266.823	341.56
267.055	334.56
267.287	349.56
267.52	351.56
267.752	346.56
267.984	359.56
268.216	360.56
268.448	346.56
268.681	359.56
268.913	341.56
269.145	365.56
269.377	360.56
269.609	375.56
269.841	364.56
270.073	364.56
270.306	366.56
270.538	379.56
270.77	364.56
271.002	379.56
271.234	371.56
271.466	362.56
271.698	380.56
271.93	385.56
272.162	386.56
272.394	377.56
272.626	370.56
272.858	389.56
273.09	385.56
273.322	396.56
273.553	387.56
273.785	368.56
274.017	381.56
274.249	385.56
274.481	411.56
274.713	405.56
274.945	396.56
275.176	414.56
275.408	403.56
275.64	410.56
275.872	413.56
276.104	420.56
276.335	414.56
276.567	423.56
276.799	407.56
277.031	399.56
277.262	406.56
277.494	407.56
277.726	435.56
277.957	433.56
278.189	420.56
278.421	425.56
278.652	419.56
278.884	412.56
279.115	440.56
279.347	438.56
279.579	436.56
279.81	433.56
280.042	428.56
280.273	435.56
280.505	419.56
280.736	451.56
280.968	465.56
281.199	454.56
281.431	444.56
281.662	443.56
281.894	449.56
282.125	451.56
282.356	470.56
282.588	453.56
282.819	446.56
283.051	436.56
283.282	448.56
283.513	451.56
283.745	471.56
283.976	455.56
284.207	452.56
284.439	461.56
284.67	493.56
284.901	458.56
285.132	480.56
285.364	458.56
285.595	479.56
285.826	468.56
286.057	464.56
286.288	474.56
286.52	468.56
286.751	479.56
286.982	488.56
287.213	478.56
287.444	484.56
287.675	494.56
287.906	478.56
288.138	495.56
288.369	494.56
288.6	506.56
288.831	492.56
289.062	484.56
289.293	478.56
289.524	501.56
289.755	502.56
289.986	484.56
290.217	519.56
290.448	518.56
290.679	518.56
290.91	515.56
291.141	513.56
291.371	514.56
291.602	507.56
291.833	513.56
292.064	507.56
292.295	517.56
292.526	513.56
292.757	472.56
292.987	513.56
293.218	499.56
293.449	525.56
293.68	501.56
293.91	505.56
294.141	512.56
294.372	509.56
294.603	526.56
294.833	515.56
295.064	501.56
295.295	500.56
295.525	509.56
295.756	521.56
295.987	502.56
296.217	552.56
296.448	531.56
296.679	540.56
296.909	548.56
297.14	526.56
297.37	557.56
297.601	553.56
297.831	542.56
298.062	553.56
298.292	547.56
298.523	551.56
298.753	572.56
298.984	555.56
299.214	559.56
299.445	539.56
299.675	550.56
299.905	581.56
300.136	568.56
300.366	567.56
300.597	569.56
300.827	565.56
301.057	579.56
301.288	561.56
301.518	609.56
301.748	610.56
301.979	577.56
302.209	575.56
302.439	572.56
302.669	583.56
302.9	597.56
303.13	574.56
303.36	574.56
303.59	591.56
303.82	599.56
304.051	576.56
304.281	590.56
304.511	571.56
304.741	587.56
304.971	591.56
305.201	587.56
305.431	575.56
305.661	583.56
305.891	554.56
306.121	571.56
306.352	566.56
306.582	563.56
306.812	541.56
307.042	558.56
307.272	588.56
307.502	555.56
307.731	583.56
307.961	585.56
308.191	562.56
308.421	537.56
308.651	563.56
308.881	542.56
309.111	584.56
309.341	581.56
309.571	579.56
309.8	559.56
310.03	548.56
310.26	558.56
310.49	574.56
310.72	554.56
310.949	590.56
311.179	555.56
311.409	563.56
311.639	609.56
311.868	587.56
312.098	614.56
312.328	604.56
312.557	612.56
312.787	581.56
313.017	604.56
313.246	588.56
313.476	609.56
313.706	589.56
313.935	601.56
314.165	618.56
314.394	614.56
314.624	611.56
314.853	607.56
315.083	605.56
315.312	635.56
315.542	600.56
315.771	609.56
316.001	592.56
316.23	602.56
316.46	598.56
316.689	610.56
316.919	605.56
317.148	600.56
317.377	591.56
317.607	595.56
317.836	590.56
318.065	615.56
318.295	588.56
318.524	571.56
318.753	582.56
318.983	617.56
319.212	599.56
319.441	603.56
319.67	611.56
319.9	606.56
320.129	590.56
320.358	618.56
320.587	600.56
320.816	620.56
321.046	610.56
321.275	593.56
321.504	588.56
321.733	597.56
321.962	617.56
322.191	607.56
322.42	603.56
322.649	621.56
322.878	606.56
323.108	604.56
323.337	642.56
323.566	583.56
323.795	641.56
324.024	641.56
324.253	607.56
324.482	616.56
324.71	627.56
324.939	616.56
325.168	611.56
325.397	611.56
325.626	641.56
325.855	652.56
326.084	652.56
326.313	687.56
326.542	661.56
326.77	678.56
326.999	648.56
327.228	655.56
327.457	676.56
327.686	645.56
327.914	675.56
328.143	667.56
328.372	671.56
328.6	662.56
328.829	660.56
329.058	654.56
329.287	669.56
329.515	677.56
329.744	650.56
329.972	682.56
330.201	657.56
330.43	648.56
330.658	667.56
330.887	679.56
331.115	677.56
331.344	698.56
331.572	697.56
331.801	705.56
332.03	709.56
332.258	735.56
332.486	754.56
332.715	784.56
332.943	811.56
333.172	833.56
333.4	875.56
333.629	885.56
333.857	881.56
334.085	872.56
334.314	865.56
334.542	863.56
334.771	836.56
334.999	847.56
335.227	835.56
335.455	814.56
335.684	814.56
335.912	825.56
336.14	805.56
336.369	822.56
336.597	809.56
336.825	801.56
337.053	799.56
337.281	810.56
337.51	734.56
337.738	743.56
337.966	746.56
338.194	759.56
338.422	751.56
338.65	719.56
338.878	702.56
339.106	727.56
339.334	729.56
339.562	707.56
339.79	697.56
340.018	707.56
340.246	698.56
340.474	686.56
340.702	689.56
340.93	698.56
341.158	708.56
341.386	706.56
341.614	710.56
341.842	680.56
342.07	672.56
342.298	690.56
342.526	689.56
342.754	669.56
342.981	715.56
343.209	710.56
343.437	743.56
343.665	793.56
343.893	831.56
344.12	858.56
344.348	845.56
344.576	812.56
344.804	757.56
345.031	723.56
345.259	714.56
345.487	702.56
345.714	695.56
345.942	695.56
346.17	694.56
346.397	705.56
346.625	695.56
346.853	701.56
347.08	686.56
347.308	709.56
347.535	674.56
347.763	677.56
347.99	711.56
348.218	667.56
348.445	683.56
348.673	690.56
348.9	663.56
349.128	667.56
349.355	673.56
349.583	681.56
349.81	656.56
350.037	680.56
350.265	652.56
350.492	647.56
350.72	670.56
350.947	672.56
351.174	645.56
351.402	665.56
351.629	655.56
351.856	671.56
352.083	637.56
352.311	639.56
352.538	656.56
352.765	661.56
352.992	649.56
353.22	635.56
353.447	647.56
353.674	647.56
353.901	640.56
354.128	653.56
354.355	641.56
354.583	647.56
354.81	652.56
355.037	637.56
355.264	633.56
355.491	667.56
355.718	646.56
355.945	643.56
356.172	645.56
356.399	662.56
356.626	640.56
356.853	675.56
357.08	649.56
357.307	640.56
357.534	645.56
357.761	670.56
357.988	670.56
358.215	673.56
358.441	663.56
358.668	651.56
358.895	655.56
359.122	652.56
359.349	651.56
359.576	666.56
359.802	643.56
360.029	659.56
360.256	648.56
360.483	645.56
360.709	663.56
360.936	648.56
361.163	665.56
361.39	624.56
361.616	634.56
361.843	653.56
362.07	651.56
362.296	659.56
362.523	634.56
362.749	645.56
362.976	655.56
363.203	654.56
363.429	615.56
363.656	657.56
363.882	656.56
364.109	652.56
364.335	665.56
364.562	651.56
364.788	648.56
365.015	654.56
365.241	625.56
365.468	633.56
365.694	643.56
365.92	649.56
366.147	653.56
366.373	616.56
366.599	601.56
366.826	645.56
367.052	643.56
367.278	638.56
367.505	645.56
367.731	661.56
367.957	662.56
368.184	673.56
368.41	664.56
368.636	661.56
368.862	678.56
369.089	649.56
369.315	671.56
369.541	696.56
369.767	673.56
369.993	674.56
370.219	645.56
370.445	689.56
370.672	681.56
370.898	687.56
371.124	684.56
371.35	712.56
371.576	715.56
371.802	732.56
372.028	691.56
372.254	710.56
372.48	724.56
372.706	700.56
372.932	734.56
373.158	709.56
373.384	740.56
373.61	726.56
373.835	699.56
374.061	714.56
374.287	717.56
374.513	730.56
374.739	764.56
374.965	780.56
375.191	789.56
375.416	789.56
375.642	767.56
375.868	746.56
376.094	750.56
376.319	734.56
376.545	705.56
376.771	725.56
376.997	716.56
377.222	713.56
377.448	717.56
377.674	706.56
377.899	686.56
378.125	706.56
378.35	716.56
378.576	712.56
378.802	699.56
379.027	739.56
379.253	715.56
379.478	728.56
379.704	709.56
379.929	705.56
380.155	717.56
380.38	681.56
380.606	715.56
380.831	717.56
381.057	711.56
381.282	701.56
381.507	681.56
381.733	705.56
381.958	700.56
382.184	730.56
382.409	747.56
382.634	772.56
382.86	731.56
383.085	745.56
383.31	775.56
383.535	775.56
383.761	783.56
383.986	776.56
384.211	825.56
384.436	835.56
384.662	851.56
384.887	870.56
385.112	854.56
385.337	856.56
385.562	843.56
385.787	843.56
386.013	846.56
386.238	856.56
386.463	889.56
386.688	892.56
386.913	847.56
387.138	836.56
387.363	834.56
387.588	810.56
387.813	808.56
388.038	848.56
388.263	844.56
388.488	836.56
388.713	850.56
388.938	807.56
389.163	845.56
389.387	831.56
389.612	822.56
389.837	812.56
390.062	825.56
390.287	842.56
390.512	816.56
390.736	854.56
390.961	842.56
391.186	853.56
391.411	873.56
391.636	918.56
391.86	959.56
392.085	970.56
392.31	950.56
392.534	923.56
392.759	904.56
392.984	881.56
393.208	874.56
393.433	907.56
393.658	867.56
393.882	901.56
394.107	901.56
394.331	915.56
394.556	888.56
394.78	905.56
395.005	889.56
395.229	923.56
395.454	959.56
395.678	954.56
395.903	938.56
396.127	921.56
396.352	911.56
396.576	900.56
396.801	876.56
397.025	921.56
397.249	949.56
397.474	943.56
397.698	920.56
397.922	966.56
398.147	939.56
398.371	981.56
398.595	1015.56
398.82	1033.56
399.044	1071.56
399.268	1195.56
399.492	1393.56
399.717	1566.56
399.941	1580.56
400.165	1441.56
400.389	1305.56
400.613	1182.56
400.837	1110.56
401.062	1075.56
401.286	1078.56
401.51	1062.56
401.734	1062.56
401.958	1063.56
402.182	1070.56
402.406	1106.56
402.63	1123.56
402.854	1122.56
403.078	1157.56
403.302	1153.56
403.526	1181.56
403.75	1218.56
403.974	1225.56
404.198	1205.56
404.422	1213.56
404.645	1237.56
404.869	1203.56
405.093	1230.56
405.317	1219.56
405.541	1180.56
405.765	1181.56
405.988	1146.56
406.212	1150.56
406.436	1178.56
406.66	1169.56
406.883	1186.56
407.107	1291.56
407.331	1339.56
407.555	1388.56
407.778	1367.56
408.002	1345.56
408.226	1275.56
408.449	1293.56
408.673	1214.56
408.896	1182.56
409.12	1205.56
409.344	1191.56
409.567	1194.56
409.791	1253.56
410.014	1219.56
410.238	1197.56
410.461	1181.56
410.685	1169.56
410.908	1153.56
411.132	1132.56
411.355	1113.56
411.578	1117.56
411.802	1102.56
412.025	1111.56
412.249	1112.56
412.472	1087.56
412.695	1073.56
412.919	1058.56
413.142	1059.56
413.365	1058.56
413.589	1067.56
413.812	1059.56
414.035	1064.56
414.258	1057.56
414.482	1076.56
414.705	1092.56
414.928	1087.56
415.151	1090.56
415.374	1079.56
415.597	1061.56
415.821	1005.56
416.044	1013.56
416.267	1002.56
416.49	1036.56
416.713	1052.56
416.936	1045.56
417.159	1013.56
417.382	1031.56
417.605	1016.56
417.828	1033.56
418.051	1013.56
418.274	1035.56
418.497	1057.56
418.72	1056.56
418.943	1081.56
419.166	1141.56
419.389	1193.56
419.611	1214.56
419.834	1151.56
420.057	1113.56
420.28	1065.56
420.503	1016.56
420.726	1039.56
420.948	1031.56
421.171	1007.56
421.394	1027.56
421.617	1039.56
421.839	1051.56
422.062	1052.56
422.285	1047.56
422.507	1063.56
422.73	1074.56
422.953	1096.56
423.175	1092.56
423.398	1094.56
423.621	1110.56
423.843	1103.56
424.066	1086.56
424.288	1101.56
424.511	1109.56
424.733	1073.56
424.956	1068.56
425.178	1077.56
425.401	1023.56
425.623	1054.56
425.846	1034.56
426.068	1014.56
426.291	1021.56
426.513	995.56
426.735	992.56
426.958	984.56
427.18	960.56
427.402	965.56
427.625	957.56
427.847	943.56
428.069	929.56
428.292	934.56
428.514	912.56
428.736	929.56
428.958	930.56
429.181	915.56
429.403	925.56
429.625	903.56
429.847	903.56
430.069	903.56
430.292	914.56
430.514	883.56
430.736	919.56
430.958	923.56
431.18	922.56
431.402	901.56
431.624	936.56
431.846	930.56
432.068	970.56
432.29	963.56
432.512	953.56
432.734	934.56
432.956	926.56
433.178	933.56
433.4	963.56
433.622	973.56
433.844	942.56
434.066	957.56
434.287	1002.56
434.509	981.56
434.731	1004.56
434.953	1032.56
435.175	1052.56
435.397	1046.56
435.618	1011.56
435.84	977.56
436.062	974.56
436.284	929.56
436.505	957.56
436.727	921.56
436.949	934.56
437.17	933.56
437.392	915.56
437.614	935.56
437.835	903.56
438.057	910.56
438.278	906.56
438.5	888.56
438.721	903.56
438.943	920.56
439.165	896.56
439.386	893.56
439.608	929.56
439.829	936.56
440.05	930.56
440.272	934.56
440.493	971.56
440.715	955.56
440.936	985.56
441.158	971.56
441.379	980.56
441.6	1059.56
441.822	1077.56
442.043	1053.56
442.264	1047.56
442.486	1001.56
442.707	1026.56
442.928	1033.56
443.149	1046.56
443.371	1011.56
443.592	1052.56
443.813	1070.56
444.034	1087.56
444.255	1069.56
444.476	1107.56
444.698	1205.56
444.919	1239.56
445.14	1325.56
445.361	1173.56
445.582	1089.56
445.803	1029.56
446.024	990.56
446.245	977.56
446.466	993.56
446.687	940.56
446.908	949.56
447.129	907.56
447.35	901.56
447.571	897.56
447.792	870.56
448.013	915.56
448.234	887.56
448.455	866.56
448.675	867.56
448.896	852.56
449.117	841.56
449.338	844.56
449.559	868.56
449.779	838.56
450	859.56
450.221	853.56
450.442	850.56
450.662	848.56
450.883	882.56
451.104	869.56
451.324	897.56
451.545	889.56
451.766	872.56
451.986	866.56
452.207	866.56
452.428	852.56
452.648	841.56
452.869	842.56
453.089	850.56
453.31	879.56
453.53	837.56
453.751	838.56
453.971	842.56
454.192	851.56
454.412	830.56
454.633	809.56
454.853	834.56
455.073	799.56
455.294	818.56
455.514	797.56
455.734	824.56
455.955	805.56
456.175	822.56
456.395	825.56
456.616	803.56
456.836	809.56
457.056	800.56
457.276	801.56
457.497	810.56
457.717	807.56
457.937	806.56
458.157	828.56
458.377	852.56
458.598	851.56
458.818	858.56
459.038	866.56
459.258	915.56
459.478	949.56
459.698	990.56
459.918	1019.56
460.138	1040.56
460.358	1105.56
460.578	1100.56
460.798	1107.56
461.018	1126.56
461.238	1108.56
461.458	1076.56
461.678	1089.56
461.898	1103.56
462.118	1134.56
462.338	1181.56
462.558	1207.56
462.777	1221.56
462.997	1333.56
463.217	1467.56
463.437	1511.56
463.657	1355.56
463.876	1313.56
464.096	1283.56
464.316	1302.56
464.536	1291.56
464.755	1229.56
464.975	1215.56
465.195	1161.56
465.414	1082.56
465.634	1025.56
465.854	989.56
466.073	977.56
466.293	989.56
466.512	912.56
466.732	901.56
466.951	913.56
467.171	884.56
467.391	909.56
467.61	905.56
467.829	901.56
468.049	892.56
468.268	856.56
468.488	858.56
468.707	854.56
468.927	885.56
469.146	872.56
469.365	879.56
469.585	869.56
469.804	912.56
470.023	915.56
470.243	905.56
470.462	945.56
470.681	926.56
470.901	934.56
471.12	926.56
471.339	889.56
471.558	875.56
471.777	865.56
471.997	871.56
472.216	843.56
472.435	859.56
472.654	841.56
472.873	849.56
473.092	849.56
473.311	837.56
473.53	836.56
473.749	865.56
473.968	843.56
474.187	830.56
474.406	829.56
474.625	824.56
474.844	870.56
475.063	843.56
475.282	833.56
475.501	839.56
475.72	871.56
475.939	846.56
476.158	857.56
476.377	871.56
476.596	860.56
476.814	891.56
477.033	878.56
477.252	905.56
477.471	925.56
477.69	948.56
477.908	963.56
478.127	993.56
478.346	999.56
478.564	1034.56
478.783	1042.56
479.002	1039.56
479.22	1064.56
479.439	1052.56
479.658	1046.56
479.876	1044.56
480.095	1043.56
480.313	1065.56
480.532	1166.56
480.751	1142.56
480.969	1104.56
481.188	1061.56
481.406	1040.56
481.624	989.56
481.843	941.56
482.061	966.56
482.28	937.56
482.498	967.56
482.717	936.56
482.935	969.56
483.153	963.56
483.372	951.56
483.59	963.56
483.808	946.56
484.027	967.56
484.245	951.56
484.463	940.56
484.681	1007.56
484.9	1046.56
485.118	1027.56
485.336	988.56
485.554	1009.56
485.772	988.56
485.99	1065.56
486.209	1028.56
486.427	1041.56
486.645	1007.56
486.863	1019.56
487.081	1033.56
487.299	1029.56
487.517	1013.56
487.735	1010.56
487.953	1033.56
488.171	1017.56
488.389	1014.56
488.607	971.56
488.825	998.56
489.043	1003.56
489.261	957.56
489.479	1016.56
489.696	994.56
489.914	997.56
490.132	999.56
490.35	1010.56
490.568	1029.56
490.786	999.56
491.003	992.56
491.221	1019.56
491.439	1037.56
491.657	1031.56
491.874	1002.56
492.092	1037.56
492.31	1033.56
492.527	1060.56
492.745	1027.56
492.963	1039.56
493.18	1052.56
493.398	1049.56
493.615	1025.56
493.833	1084.56
494.05	1048.56
494.268	1070.56
494.485	1068.56
494.703	1077.56
494.92	1074.56
495.138	1061.56
495.355	1074.56
495.573	1071.56
495.79	1085.56
496.008	1086.56
496.225	1087.56
496.442	1100.56
496.66	1105.56
496.877	1104.56
497.094	1123.56
497.312	1113.56
497.529	1172.56
497.746	1177.56
497.963	1257.56
498.181	1312.56
498.398	1390.56
498.615	1419.56
498.832	1505.56
499.049	1628.56
499.267	1766.56
499.484	1933.56
499.701	2142.56
499.918	2311.56
500.135	2692.56
500.352	3028.56
500.569	3187.56
500.786	3126.56
501.003	2937.56
501.22	2643.56
501.437	2345.56
501.654	2053.56
501.871	1827.56
502.088	1706.56
502.305	1629.56
502.522	1504.56
502.739	1475.56
502.956	1401.56
503.172	1329.56
503.389	1270.56
503.606	1235.56
503.823	1223.56
504.04	1204.56
504.256	1210.56
504.473	1230.56
504.69	1249.56
504.907	1252.56
505.123	1162.56
505.34	1103.56
505.557	1061.56
505.773	1042.56
505.99	1029.56
506.207	1012.56
506.423	1021.56
506.64	957.56
506.856	950.56
507.073	947.56
507.289	969.56
507.506	932.56
507.722	947.56
507.939	931.56
508.155	924.56
508.372	913.56
508.588	907.56
508.805	913.56
509.021	878.56
509.238	894.56
509.454	875.56
509.67	910.56
509.887	862.56
510.103	891.56
510.319	875.56
510.536	853.56
510.752	865.56
510.968	869.56
511.184	865.56
511.401	867.56
511.617	870.56
511.833	864.56
512.049	845.56
512.265	845.56
512.481	878.56
512.698	829.56
512.914	876.56
513.13	864.56
513.346	865.56
513.562	887.56
513.778	851.56
513.994	855.56
514.21	866.56
514.426	878.56
514.642	890.56
514.858	861.56
515.074	885.56
515.29	903.56
515.506	917.56
515.721	898.56
515.937	911.56
516.153	961.56
516.369	951.56
516.585	1000.56
516.801	1013.56
517.016	1081.56
517.232	1091.56
517.448	1123.56
517.664	1206.56
517.879	1189.56
518.095	1213.56
518.311	1174.56
518.527	1125.56
518.742	1066.56
518.958	1043.56
519.173	995.56
519.389	984.56
519.605	941.56
519.82	943.56
520.036	943.56
520.251	894.56
520.467	875.56
520.682	886.56
520.898	883.56
521.113	849.56
521.329	831.56
521.544	862.56
521.76	841.56
521.975	811.56
522.19	815.56
522.406	846.56
522.621	827.56
522.836	839.56
523.052	823.56
523.267	810.56
523.482	808.56
523.698	808.56
523.913	812.56
524.128	799.56
524.343	792.56
524.559	786.56
524.774	807.56
524.989	805.56
525.204	812.56
525.419	795.56
525.634	785.56
525.849	793.56
526.064	798.56
526.28	765.56
526.495	777.56
526.71	781.56
526.925	782.56
527.14	778.56
527.355	806.56
527.57	788.56
527.785	756.56
527.999	783.56
528.214	777.56
528.429	766.56
528.644	784.56
528.859	812.56
529.074	785.56
529.289	796.56
529.503	760.56
529.718	802.56
529.933	769.56
530.148	762.56
530.363	789.56
530.577	781.56
530.792	784.56
531.007	771.56
531.221	787.56
531.436	782.56
531.651	779.56
531.865	789.56
532.08	773.56
532.295	761.56
532.509	764.56
532.724	805.56
532.938	791.56
533.153	807.56
533.367	779.56
533.582	782.56
533.796	783.56
534.011	777.56
534.225	766.56
534.44	762.56
534.654	759.56
534.868	737.56
535.083	751.56
535.297	754.56
535.511	747.56
535.726	763.56
535.94	732.56
536.154	727.56
536.369	721.56
536.583	729.56
536.797	732.56
537.011	714.56
537.225	717.56
537.44	713.56
537.654	725.56
537.868	748.56
538.082	713.56
538.296	700.56
538.51	711.56
538.724	709.56
538.938	707.56
539.153	713.56
539.367	709.56
539.581	712.56
539.795	685.56
540.009	694.56
540.222	716.56
540.436	696.56
540.65	689.56
540.864	683.56
541.078	703.56
541.292	703.56
541.506	697.56
541.72	690.56
541.934	695.56
542.147	695.56
542.361	705.56
542.575	696.56
542.789	694.56
543.002	677.56
543.216	691.56
543.43	680.56
543.644	682.56
543.857	684.56
544.071	681.56
544.285	707.56
544.498	702.56
544.712	673.56
544.925	729.56
545.139	719.56
545.352	677.56
545.566	695.56
545.779	715.56
545.993	723.56
546.206	719.56
546.42	692.56
546.633	734.56
546.847	693.56
547.06	716.56
547.274	719.56
547.487	708.56
547.7	689.56
547.914	710.56
548.127	732.56
548.34	706.56
548.554	715.56
548.767	706.56
548.98	728.56
549.193	725.56
549.407	696.56
549.62	722.56
549.833	723.56
550.046	737.56
550.259	716.56
550.473	694.56
550.686	710.56
550.899	728.56
551.112	712.56
551.325	696.56
551.538	693.56
551.751	703.56
551.964	691.56
552.177	726.56
552.39	718.56
552.603	732.56
552.816	746.56
553.029	741.56
553.242	800.56
553.455	794.56
553.667	794.56
553.88	778.56
554.093	747.56
554.306	735.56
554.519	724.56
554.732	667.56
554.944	713.56
555.157	667.56
555.37	677.56
555.583	655.56
555.795	662.56
556.008	654.56
556.221	644.56
556.433	659.56
556.646	614.56
556.859	635.56
557.071	619.56
557.284	609.56
557.496	616.56
557.709	604.56
557.921	619.56
558.134	618.56
558.346	591.56
558.559	614.56
558.771	590.56
558.984	616.56
559.196	601.56
559.409	591.56
559.621	580.56
559.833	592.56
560.046	590.56
560.258	597.56
560.47	585.56
560.683	587.56
560.895	601.56
561.107	585.56
561.32	598.56
561.532	595.56
561.744	598.56
561.956	586.56
562.168	565.56
562.381	563.56
562.593	584.56
562.805	592.56
563.017	577.56
563.229	595.56
563.441	600.56
563.653	604.56
563.865	636.56
564.077	617.56
564.289	627.56
564.501	652.56
564.713	648.56
564.925	632.56
565.137	641.56
565.349	662.56
565.561	670.56
565.773	709.56
565.985	717.56
566.197	734.56
566.408	791.56
566.62	881.56
566.832	969.56
567.044	964.56
567.255	982.56
567.467	983.56
567.679	1006.56
567.891	1108.56
568.102	1142.56
568.314	1106.56
568.526	973.56
568.737	883.56
568.949	817.56
569.161	755.56
569.372	711.56
569.584	667.56
569.795	644.56
570.007	603.56
570.218	600.56
570.43	610.56
570.641	607.56
570.853	588.56
571.064	600.56
571.276	622.56
571.487	614.56
571.698	603.56
571.91	543.56
572.121	553.56
572.333	550.56
572.544	526.56
572.755	543.56
572.966	517.56
573.178	499.56
573.389	510.56
573.6	494.56
573.811	485.56
574.023	511.56
574.234	490.56
574.445	487.56
574.656	497.56
574.867	482.56
575.078	503.56
575.289	475.56
575.501	464.56
575.712	451.56
575.923	455.56
576.134	446.56
576.345	462.56
576.556	453.56
576.767	468.56
576.978	471.56
577.188	449.56
577.399	445.56
577.61	451.56
577.821	425.56
578.032	456.56
578.243	447.56
578.454	446.56
578.665	438.56
578.875	446.56
579.086	441.56
579.297	426.56
579.508	441.56
579.718	444.56
579.929	415.56
580.14	430.56
580.35	438.56
580.561	439.56
580.772	406.56
580.982	430.56
581.193	417.56
581.403	428.56
581.614	423.56
581.825	423.56
582.035	408.56
582.246	403.56
582.456	412.56
582.667	411.56
582.877	403.56
583.087	412.56
583.298	422.56
583.508	392.56
583.719	408.56
583.929	400.56
584.139	405.56
584.35	417.56
584.56	387.56
584.77	410.56
584.981	406.56
585.191	402.56
585.401	389.56
585.611	396.56
585.821	389.56
586.032	413.56
586.242	381.56
586.452	397.56
586.662	401.56
586.872	399.56
587.082	394.56
587.292	420.56
587.502	394.56
587.713	385.56
587.923	405.56
588.133	395.56
588.343	395.56
588.553	399.56
588.762	383.56
588.972	408.56
589.182	425.56
589.392	408.56
589.602	384.56
589.812	390.56
590.022	402.56
590.232	389.56
590.441	405.56
590.651	402.56
590.861	407.56
591.071	402.56
591.281	394.56
591.49	410.56
591.7	395.56
591.91	421.56
592.119	409.56
592.329	428.56
592.539	428.56
592.748	476.56
592.958	460.56
593.167	478.56
593.377	474.56
593.587	501.56
593.796	485.56
594.006	509.56
594.215	497.56
594.424	507.56
594.634	483.56
594.843	479.56
595.053	443.56
595.262	454.56
595.472	440.56
595.681	426.56
595.89	418.56
596.1	397.56
596.309	389.56
596.518	392.56
596.727	372.56
596.937	377.56
597.146	359.56
597.355	372.56
597.564	371.56
597.774	348.56
597.983	346.56
598.192	355.56
598.401	339.56
598.61	356.56
598.819	353.56
599.028	342.56
599.237	352.56
599.446	345.56
599.655	326.56
599.864	337.56
600.073	332.56
600.282	341.56
600.491	333.56
600.7	353.56
600.909	339.56
601.118	350.56
601.327	326.56
601.536	326.56
601.745	346.56
601.953	336.56
602.162	317.56
602.371	328.56
602.58	293.56
602.789	326.56
602.997	323.56
603.206	310.56
603.415	325.56
603.623	317.56
603.832	301.56
604.041	321.56
604.249	325.56
604.458	333.56
604.666	308.56
604.875	282.56
605.084	315.56
605.292	318.56
605.501	303.56
605.709	309.56
605.918	309.56
606.126	306.56
606.334	309.56
606.543	324.56
606.751	291.56
606.96	294.56
607.168	297.56
607.376	297.56
607.585	292.56
607.793	320.56
608.001	300.56
608.21	295.56
608.418	311.56
608.626	306.56
608.834	299.56
609.043	284.56
609.251	291.56
609.459	298.56
609.667	310.56
609.875	301.56
610.083	313.56
610.291	305.56
610.499	291.56
610.707	300.56
610.916	291.56
611.124	287.56
611.332	302.56
611.54	290.56
611.748	301.56
611.955	296.56
612.163	282.56
612.371	289.56
612.579	279.56
612.787	279.56
612.995	297.56
613.203	301.56
613.411	271.56
613.618	288.56
613.826	286.56
614.034	293.56
614.242	280.56
614.449	278.56
614.657	295.56
614.865	288.56
615.072	295.56
615.28	316.56
615.488	280.56
615.695	282.56
615.903	285.56
616.111	299.56
616.318	300.56
616.526	305.56
616.733	302.56
616.941	285.56
617.148	309.56
617.356	299.56
617.563	288.56
617.771	286.56
617.978	283.56
618.185	273.56
618.393	287.56
618.6	286.56
618.807	287.56
619.015	282.56
619.222	276.56
619.429	266.56
619.637	278.56
619.844	278.56
620.051	284.56
620.258	269.56
620.466	266.56
620.673	277.56
620.88	258.56
621.087	257.56
621.294	265.56
621.501	265.56
621.708	275.56
621.915	269.56
622.122	268.56
622.329	271.56
622.536	278.56
622.743	273.56
622.95	260.56
623.157	269.56
623.364	246.56
623.571	273.56
623.778	251.56
623.985	255.56
624.192	261.56
624.399	246.56
624.606	235.56
624.812	245.56
625.019	243.56
625.226	241.56
625.433	260.56
625.639	236.56
625.846	228.56
626.053	247.56
626.259	249.56
626.466	249.56
626.673	247.56
626.879	242.56
627.086	235.56
627.293	246.56
627.499	261.56
627.706	234.56
627.912	244.56
628.119	255.56
628.325	235.56
628.532	225.56
628.738	256.56
628.945	229.56
629.151	237.56
629.357	249.56
629.564	239.56
629.77	235.56
629.976	235.56
630.183	227.56
630.389	222.56
630.595	243.56
630.802	234.56
631.008	235.56
631.214	233.56
631.42	200.56
631.627	205.56
631.833	234.56
632.039	225.56
632.245	224.56
632.451	241.56
632.657	229.56
632.863	197.56
633.069	232.56
633.275	235.56
633.481	205.56
633.688	206.56
633.893	223.56
634.099	201.56
634.305	210.56
634.511	213.56
634.717	229.56
634.923	209.56
635.129	216.56
635.335	221.56
635.541	206.56
635.747	218.56
635.952	205.56
636.158	188.56
636.364	207.56
636.57	195.56
636.775	211.56
636.981	215.56
637.187	208.56
637.392	206.56
637.598	218.56
637.804	210.56
638.009	218.56
638.215	195.56
638.421	191.56
638.626	211.56
638.832	199.56
639.037	203.56
639.243	214.56
639.448	198.56
639.654	205.56
639.859	196.56
640.065	213.56
640.27	187.56
640.475	206.56
640.681	196.56
640.886	208.56
641.091	183.56
641.297	202.56
641.502	216.56
641.707	181.56
641.913	196.56
642.118	186.56
642.323	190.56
642.528	201.56
642.733	193.56
642.939	189.56
643.144	191.56
643.349	205.56
643.554	203.56
643.759	182.56
643.964	165.56
644.169	188.56
644.374	193.56
644.579	179.56
644.784	195.56
644.989	197.56
645.194	190.56
645.399	193.56
645.604	185.56
645.809	188.56
646.014	194.56
646.219	183.56
646.423	180.56
646.628	207.56
646.833	187.56
647.038	201.56
647.243	185.56
647.447	196.56
647.652	208.56
647.857	185.56
648.062	200.56
648.266	195.56
648.471	193.56
648.676	206.56
648.88	186.56
649.085	189.56
649.289	189.56
649.494	193.56
649.698	198.56
649.903	204.56
650.107	187.56
650.312	183.56
650.516	186.56
650.721	185.56
650.925	184.56
651.13	175.56
651.334	180.56
651.539	157.56
651.743	174.56
651.947	174.56
652.152	158.56
652.356	157.56
652.56	149.56
652.764	149.56
652.969	160.56
653.173	153.56
653.377	151.56
653.581	158.56
653.785	152.56
653.99	159.56
654.194	144.56
654.398	131.56
654.602	161.56
654.806	158.56
655.01	137.56
655.214	140.56
655.418	136.56
655.622	146.56
655.826	165.56
656.03	161.56
656.234	161.56
656.438	145.56
656.642	151.56
656.846	141.56
657.049	140.56
657.253	132.56
657.457	128.56
657.661	125.56
657.865	125.56
658.068	119.56
658.272	113.56
658.476	117.56
658.68	98.56
658.883	113.56
659.087	114.56
659.291	119.56
659.494	92.56
659.698	91.56
659.901	94.56
660.105	92.56
660.309	92.56
660.512	96.56
660.716	105.56
660.919	90.56
661.123	94.56
661.326	92.56
661.53	76.56
661.733	86.56
661.936	89.56
662.14	93.56
662.343	92.56
662.546	85.56
662.75	69.56
662.953	87.56
663.156	85.56
663.36	76.56
663.563	77.56
663.766	75.56
663.969	84.56
664.173	84.56
664.376	77.56
664.579	91.56
664.782	89.56
664.985	89.56
665.188	90.56
665.391	82.56
665.594	84.56
665.797	78.56
666	99.56
666.203	84.56
666.406	73.56
666.609	85.56
666.812	90.56
667.015	89.56
667.218	80.56
667.421	90.56
667.624	75.56
667.827	87.56
668.03	94.56
668.232	74.56
668.435	91.56
668.638	81.56
668.841	83.56
669.043	84.56
669.246	84.56
669.449	74.56
669.651	78.56
669.854	84.56
670.057	88.56
670.259	79.56
670.462	81.56
670.665	70.56
670.867	97.56
671.07	90.56
671.272	86.56
671.475	86.56
671.677	84.56
671.88	86.56
672.082	87.56
672.284	92.56
672.487	70.56
672.689	63.56
672.892	78.56
