Data from Ni(NO3)2@0.5M.TitratingCurve.Agarose3%dH2O.NegLispCup.LampEnergy10.LIBS07252019_HRD10591_17-58-21-564.txt Node
Date: Thu Jul 25 17:58:21 EDT 2019
User: cochatt
Spectrometer: HR+D1059
Trigger mode: 1
Integration Time (sec): 1.000000E-1
Scans to average: 1
Electric dark correction enabled: true
Nonlinearity correction enabled: false
Boxcar width: 0
XAxis mode: Wavelengths
Number of Pixels in Spectrum: 2048
>>>>>Begin Spectral Data<<<<<
223.165	-28.06
223.4	-28.06
223.635	-28.06
223.869	-21.06
224.104	-18.06
224.338	-18.06
224.573	-22.06
224.808	-7.06
225.042	-9.06
225.277	-5.06
225.511	-7.06
225.746	12.94
225.98	-0.06
226.215	15.94
226.449	11.94
226.683	24.94
226.918	27.94
227.152	41.94
227.387	32.94
227.621	33.94
227.856	45.94
228.09	34.94
228.324	61.94
228.559	51.94
228.793	78.94
229.027	123.94
229.262	139.94
229.496	138.94
229.73	147.94
229.964	155.94
230.199	188.94
230.433	193.94
230.667	171.94
230.901	172.94
231.136	170.94
231.37	164.94
231.604	185.94
231.838	199.94
232.072	209.94
232.306	191.94
232.541	172.94
232.775	170.94
233.009	169.94
233.243	157.94
233.477	160.94
233.711	177.94
233.945	167.94
234.179	173.94
234.413	169.94
234.647	170.94
234.881	179.94
235.115	168.94
235.349	166.94
235.583	156.94
235.817	143.94
236.051	153.94
236.285	153.94
236.519	138.94
236.753	155.94
236.987	161.94
237.221	151.94
237.455	172.94
237.689	153.94
237.922	153.94
238.156	161.94
238.39	177.94
238.624	148.94
238.858	175.94
239.091	185.94
239.325	176.94
239.559	196.94
239.793	218.94
240.027	209.94
240.26	188.94
240.494	178.94
240.728	172.94
240.961	175.94
241.195	168.94
241.429	179.94
241.662	194.94
241.896	206.94
242.13	225.94
242.363	210.94
242.597	179.94
242.83	201.94
243.064	189.94
243.298	200.94
243.531	195.94
243.765	215.94
243.998	227.94
244.232	227.94
244.465	234.94
244.699	211.94
244.932	211.94
245.166	200.94
245.399	212.94
245.633	207.94
245.866	200.94
246.099	215.94
246.333	199.94
246.566	219.94
246.8	215.94
247.033	216.94
247.266	221.94
247.5	226.94
247.733	216.94
247.966	215.94
248.2	227.94
248.433	233.94
248.666	257.94
248.899	254.94
249.133	236.94
249.366	259.94
249.599	239.94
249.832	235.94
250.066	256.94
250.299	271.94
250.532	265.94
250.765	260.94
250.998	266.94
251.231	285.94
251.465	310.94
251.698	284.94
251.931	275.94
252.164	284.94
252.397	288.94
252.63	269.94
252.863	265.94
253.096	265.94
253.329	270.94
253.562	282.94
253.795	283.94
254.028	297.94
254.261	309.94
254.494	287.94
254.727	277.94
254.96	300.94
255.193	305.94
255.426	288.94
255.659	308.94
255.892	294.94
256.124	307.94
256.357	305.94
256.59	333.94
256.823	304.94
257.056	325.94
257.289	314.94
257.521	313.94
257.754	312.94
257.987	329.94
258.22	346.94
258.452	325.94
258.685	329.94
258.918	329.94
259.151	317.94
259.383	308.94
259.616	349.94
259.849	333.94
260.081	350.94
260.314	327.94
260.547	347.94
260.779	343.94
261.012	342.94
261.244	340.94
261.477	341.94
261.71	345.94
261.942	363.94
262.175	351.94
262.407	364.94
262.64	340.94
262.872	348.94
263.105	370.94
263.337	383.94
263.57	374.94
263.802	380.94
264.035	384.94
264.267	379.94
264.499	375.94
264.732	374.94
264.964	396.94
265.197	379.94
265.429	371.94
265.661	372.94
265.894	388.94
266.126	377.94
266.358	375.94
266.591	384.94
266.823	409.94
267.055	393.94
267.287	387.94
267.52	396.94
267.752	401.94
267.984	400.94
268.216	397.94
268.448	385.94
268.681	394.94
268.913	395.94
269.145	409.94
269.377	408.94
269.609	417.94
269.841	405.94
270.073	419.94
270.306	415.94
270.538	421.94
270.77	425.94
271.002	381.94
271.234	406.94
271.466	427.94
271.698	403.94
271.93	425.94
272.162	417.94
272.394	410.94
272.626	413.94
272.858	411.94
273.09	421.94
273.322	448.94
273.553	427.94
273.785	427.94
274.017	422.94
274.249	427.94
274.481	435.94
274.713	444.94
274.945	464.94
275.176	445.94
275.408	449.94
275.64	471.94
275.872	425.94
276.104	451.94
276.335	452.94
276.567	470.94
276.799	456.94
277.031	475.94
277.262	453.94
277.494	452.94
277.726	458.94
277.957	456.94
278.189	467.94
278.421	463.94
278.652	468.94
278.884	479.94
279.115	468.94
279.347	476.94
279.579	474.94
279.81	467.94
280.042	468.94
280.273	472.94
280.505	470.94
280.736	497.94
280.968	501.94
281.199	490.94
281.431	472.94
281.662	471.94
281.894	491.94
282.125	503.94
282.356	492.94
282.588	515.94
282.819	506.94
283.051	503.94
283.282	516.94
283.513	519.94
283.745	476.94
283.976	530.94
284.207	515.94
284.439	502.94
284.67	503.94
284.901	518.94
285.132	507.94
285.364	505.94
285.595	535.94
285.826	520.94
286.057	523.94
286.288	508.94
286.52	515.94
286.751	547.94
286.982	548.94
287.213	523.94
287.444	525.94
287.675	533.94
287.906	552.94
288.138	542.94
288.369	534.94
288.6	529.94
288.831	547.94
289.062	535.94
289.293	543.94
289.524	545.94
289.755	531.94
289.986	549.94
290.217	538.94
290.448	543.94
290.679	543.94
290.91	546.94
291.141	541.94
291.371	537.94
291.602	545.94
291.833	535.94
292.064	529.94
292.295	554.94
292.526	547.94
292.757	541.94
292.987	525.94
293.218	538.94
293.449	567.94
293.68	564.94
293.91	552.94
294.141	563.94
294.372	557.94
294.603	570.94
294.833	555.94
295.064	551.94
295.295	564.94
295.525	532.94
295.756	587.94
295.987	555.94
296.217	542.94
296.448	577.94
296.679	570.94
296.909	564.94
297.14	583.94
297.37	595.94
297.601	570.94
297.831	567.94
298.062	579.94
298.292	593.94
298.523	599.94
298.753	579.94
298.984	587.94
299.214	589.94
299.445	605.94
299.675	610.94
299.905	605.94
300.136	636.94
300.366	639.94
300.597	633.94
300.827	637.94
301.057	638.94
301.288	605.94
301.518	635.94
301.748	622.94
301.979	625.94
302.209	612.94
302.439	589.94
302.669	624.94
302.9	631.94
303.13	607.94
303.36	631.94
303.59	614.94
303.82	639.94
304.051	653.94
304.281	635.94
304.511	645.94
304.741	653.94
304.971	635.94
305.201	665.94
305.431	669.94
305.661	655.94
305.891	643.94
306.121	639.94
306.352	629.94
306.582	639.94
306.812	623.94
307.042	644.94
307.272	623.94
307.502	636.94
307.731	634.94
307.961	635.94
308.191	635.94
308.421	652.94
308.651	649.94
308.881	667.94
309.111	659.94
309.341	636.94
309.571	661.94
309.8	667.94
310.03	694.94
310.26	690.94
310.49	725.94
310.72	675.94
310.949	674.94
311.179	659.94
311.409	684.94
311.639	668.94
311.868	684.94
312.098	666.94
312.328	696.94
312.557	694.94
312.787	674.94
313.017	674.94
313.246	702.94
313.476	709.94
313.706	694.94
313.935	695.94
314.165	695.94
314.394	682.94
314.624	695.94
314.853	723.94
315.083	704.94
315.312	694.94
315.542	736.94
315.771	718.94
316.001	716.94
316.23	704.94
316.46	705.94
316.689	702.94
316.919	722.94
317.148	731.94
317.377	721.94
317.607	708.94
317.836	730.94
318.065	738.94
318.295	730.94
318.524	755.94
318.753	716.94
318.983	738.94
319.212	704.94
319.441	734.94
319.67	730.94
319.9	729.94
320.129	754.94
320.358	736.94
320.587	748.94
320.816	761.94
321.046	754.94
321.275	746.94
321.504	740.94
321.733	781.94
321.962	777.94
322.191	776.94
322.42	772.94
322.649	773.94
322.878	786.94
323.108	789.94
323.337	800.94
323.566	785.94
323.795	792.94
324.024	776.94
324.253	792.94
324.482	785.94
324.71	790.94
324.939	785.94
325.168	804.94
325.397	779.94
325.626	805.94
325.855	811.94
326.084	805.94
326.313	812.94
326.542	823.94
326.77	805.94
326.999	835.94
327.228	821.94
327.457	810.94
327.686	810.94
327.914	818.94
328.143	847.94
328.372	813.94
328.6	804.94
328.829	806.94
329.058	838.94
329.287	823.94
329.515	854.94
329.744	844.94
329.972	850.94
330.201	835.94
330.43	875.94
330.658	837.94
330.887	822.94
331.115	853.94
331.344	858.94
331.572	851.94
331.801	884.94
332.03	891.94
332.258	881.94
332.486	876.94
332.715	893.94
332.943	899.94
333.172	903.94
333.4	882.94
333.629	900.94
333.857	939.94
334.085	938.94
334.314	944.94
334.542	949.94
334.771	954.94
334.999	951.94
335.227	929.94
335.455	950.94
335.684	956.94
335.912	958.94
336.14	945.94
336.369	955.94
336.597	974.94
336.825	994.94
337.053	980.94
337.281	992.94
337.51	943.94
337.738	937.94
337.966	972.94
338.194	965.94
338.422	969.94
338.65	919.94
338.878	930.94
339.106	938.94
339.334	957.94
339.562	967.94
339.79	904.94
340.018	934.94
340.246	918.94
340.474	920.94
340.702	919.94
340.93	894.94
341.158	915.94
341.386	913.94
341.614	984.94
341.842	943.94
342.07	922.94
342.298	934.94
342.526	929.94
342.754	921.94
342.981	928.94
343.209	925.94
343.437	959.94
343.665	948.94
343.893	956.94
344.12	923.94
344.348	931.94
344.576	979.94
344.804	970.94
345.031	943.94
345.259	959.94
345.487	969.94
345.714	933.94
345.942	971.94
346.17	970.94
346.397	972.94
346.625	925.94
346.853	900.94
347.08	913.94
347.308	922.94
347.535	915.94
347.763	891.94
347.99	878.94
348.218	873.94
348.445	911.94
348.673	887.94
348.9	868.94
349.128	910.94
349.355	915.94
349.583	904.94
349.81	916.94
350.037	893.94
350.265	896.94
350.492	893.94
350.72	876.94
350.947	927.94
351.174	900.94
351.402	914.94
351.629	958.94
351.856	917.94
352.083	875.94
352.311	921.94
352.538	963.94
352.765	951.94
352.992	889.94
353.22	881.94
353.447	849.94
353.674	851.94
353.901	864.94
354.128	879.94
354.355	870.94
354.583	867.94
354.81	851.94
355.037	863.94
355.264	866.94
355.491	864.94
355.718	846.94
355.945	876.94
356.172	876.94
356.399	873.94
356.626	915.94
356.853	893.94
357.08	901.94
357.307	882.94
357.534	879.94
357.761	871.94
357.988	889.94
358.215	865.94
358.441	876.94
358.668	866.94
358.895	854.94
359.122	845.94
359.349	873.94
359.576	859.94
359.802	892.94
360.029	872.94
360.256	841.94
360.483	876.94
360.709	883.94
360.936	880.94
361.163	893.94
361.39	900.94
361.616	911.94
361.843	891.94
362.07	947.94
362.296	945.94
362.523	898.94
362.749	898.94
362.976	889.94
363.203	886.94
363.429	833.94
363.656	887.94
363.882	850.94
364.109	855.94
364.335	888.94
364.562	891.94
364.788	882.94
365.015	899.94
365.241	869.94
365.468	864.94
365.694	889.94
365.92	893.94
366.147	872.94
366.373	904.94
366.599	867.94
366.826	871.94
367.052	860.94
367.278	893.94
367.505	899.94
367.731	886.94
367.957	872.94
368.184	901.94
368.41	911.94
368.636	905.94
368.862	889.94
369.089	899.94
369.315	915.94
369.541	888.94
369.767	930.94
369.993	917.94
370.219	886.94
370.445	899.94
370.672	922.94
370.898	908.94
371.124	914.94
371.35	911.94
371.576	919.94
371.802	931.94
372.028	933.94
372.254	916.94
372.48	933.94
372.706	918.94
372.932	929.94
373.158	944.94
373.384	925.94
373.61	925.94
373.835	909.94
374.061	898.94
374.287	920.94
374.513	927.94
374.739	936.94
374.965	948.94
375.191	952.94
375.416	930.94
375.642	897.94
375.868	935.94
376.094	937.94
376.319	908.94
376.545	926.94
376.771	939.94
376.997	916.94
377.222	912.94
377.448	900.94
377.674	922.94
377.899	915.94
378.125	919.94
378.35	913.94
378.576	928.94
378.802	898.94
379.027	937.94
379.253	907.94
379.478	901.94
379.704	904.94
379.929	900.94
380.155	905.94
380.38	909.94
380.606	914.94
380.831	901.94
381.057	943.94
381.282	931.94
381.507	910.94
381.733	901.94
381.958	910.94
382.184	940.94
382.409	937.94
382.634	930.94
382.86	919.94
383.085	951.94
383.31	938.94
383.535	924.94
383.761	951.94
383.986	961.94
384.211	992.94
384.436	980.94
384.662	980.94
384.887	984.94
385.112	988.94
385.337	992.94
385.562	1004.94
385.787	967.94
386.013	1017.94
386.238	991.94
386.463	972.94
386.688	1027.94
386.913	980.94
387.138	987.94
387.363	1000.94
387.588	989.94
387.813	1012.94
388.038	1013.94
388.263	1007.94
388.488	1011.94
388.713	1024.94
388.938	1027.94
389.163	1022.94
389.387	1035.94
389.612	1003.94
389.837	1011.94
390.062	1010.94
390.287	1011.94
390.512	985.94
390.736	1039.94
390.961	1015.94
391.186	1013.94
391.411	1024.94
391.636	1040.94
391.86	1040.94
392.085	1053.94
392.31	1013.94
392.534	1045.94
392.759	1062.94
392.984	1050.94
393.208	1043.94
393.433	1056.94
393.658	1039.94
393.882	1027.94
394.107	1046.94
394.331	1036.94
394.556	1032.94
394.78	1021.94
395.005	1047.94
395.229	1048.94
395.454	1036.94
395.678	1049.94
395.903	1071.94
396.127	1093.94
396.352	1054.94
396.576	1038.94
396.801	1078.94
397.025	1087.94
397.249	1099.94
397.474	1104.94
397.698	1090.94
397.922	1094.94
398.147	1104.94
398.371	1149.94
398.595	1104.94
398.82	1124.94
399.044	1186.94
399.268	1212.94
399.492	1217.94
399.717	1244.94
399.941	1257.94
400.165	1245.94
400.389	1214.94
400.613	1181.94
400.837	1187.94
401.062	1192.94
401.286	1186.94
401.51	1146.94
401.734	1152.94
401.958	1136.94
402.182	1163.94
402.406	1149.94
402.63	1118.94
402.854	1142.94
403.078	1131.94
403.302	1120.94
403.526	1157.94
403.75	1169.94
403.974	1165.94
404.198	1138.94
404.422	1199.94
404.645	1166.94
404.869	1183.94
405.093	1188.94
405.317	1200.94
405.541	1174.94
405.765	1209.94
405.988	1207.94
406.212	1197.94
406.436	1207.94
406.66	1226.94
406.883	1211.94
407.107	1266.94
407.331	1259.94
407.555	1279.94
407.778	1289.94
408.002	1285.94
408.226	1248.94
408.449	1286.94
408.673	1239.94
408.896	1228.94
409.12	1237.94
409.344	1233.94
409.567	1201.94
409.791	1251.94
410.014	1203.94
410.238	1213.94
410.461	1186.94
410.685	1225.94
410.908	1187.94
411.132	1205.94
411.355	1203.94
411.578	1213.94
411.802	1160.94
412.025	1166.94
412.249	1198.94
412.472	1181.94
412.695	1177.94
412.919	1180.94
413.142	1174.94
413.365	1172.94
413.589	1203.94
413.812	1182.94
414.035	1170.94
414.258	1180.94
414.482	1141.94
414.705	1201.94
414.928	1171.94
415.151	1146.94
415.374	1174.94
415.597	1151.94
415.821	1154.94
416.044	1111.94
416.267	1126.94
416.49	1113.94
416.713	1141.94
416.936	1153.94
417.159	1120.94
417.382	1127.94
417.605	1123.94
417.828	1111.94
418.051	1163.94
418.274	1109.94
418.497	1093.94
418.72	1152.94
418.943	1127.94
419.166	1168.94
419.389	1224.94
419.611	1221.94
419.834	1172.94
420.057	1139.94
420.28	1125.94
420.503	1079.94
420.726	1096.94
420.948	1106.94
421.171	1117.94
421.394	1095.94
421.617	1130.94
421.839	1129.94
422.062	1135.94
422.285	1119.94
422.507	1148.94
422.73	1097.94
422.953	1108.94
423.175	1129.94
423.398	1116.94
423.621	1121.94
423.843	1117.94
424.066	1108.94
424.288	1116.94
424.511	1100.94
424.733	1087.94
424.956	1106.94
425.178	1111.94
425.401	1113.94
425.623	1131.94
425.846	1117.94
426.068	1107.94
426.291	1089.94
426.513	1101.94
426.735	1114.94
426.958	1116.94
427.18	1103.94
427.402	1078.94
427.625	1093.94
427.847	1111.94
428.069	1072.94
428.292	1079.94
428.514	1085.94
428.736	1072.94
428.958	1075.94
429.181	1080.94
429.403	1069.94
429.625	1091.94
429.847	1115.94
430.069	1089.94
430.292	1107.94
430.514	1078.94
430.736	1101.94
430.958	1102.94
431.18	1077.94
431.402	1071.94
431.624	1067.94
431.846	1067.94
432.068	1062.94
432.29	1104.94
432.512	1087.94
432.734	1128.94
432.956	1077.94
433.178	1128.94
433.4	1159.94
433.622	1148.94
433.844	1149.94
434.066	1133.94
434.287	1133.94
434.509	1132.94
434.731	1132.94
434.953	1125.94
435.175	1179.94
435.397	1173.94
435.618	1139.94
435.84	1127.94
436.062	1127.94
436.284	1093.94
436.505	1099.94
436.727	1096.94
436.949	1106.94
437.17	1118.94
437.392	1111.94
437.614	1113.94
437.835	1062.94
438.057	1071.94
438.278	1073.94
438.5	1088.94
438.721	1063.94
438.943	1052.94
439.165	1087.94
439.386	1092.94
439.608	1066.94
439.829	1100.94
440.05	1100.94
440.272	1115.94
440.493	1104.94
440.715	1109.94
440.936	1133.94
441.158	1112.94
441.379	1076.94
441.6	1157.94
441.822	1153.94
442.043	1162.94
442.264	1122.94
442.486	1117.94
442.707	1136.94
442.928	1103.94
443.149	1115.94
443.371	1157.94
443.592	1211.94
443.813	1203.94
444.034	1150.94
444.255	1143.94
444.476	1196.94
444.698	1175.94
444.919	1223.94
445.14	1296.94
445.361	1245.94
445.582	1205.94
445.803	1166.94
446.024	1119.94
446.245	1109.94
446.466	1109.94
446.687	1106.94
446.908	1105.94
447.129	1064.94
447.35	1086.94
447.571	1071.94
447.792	1027.94
448.013	1067.94
448.234	1061.94
448.455	1025.94
448.675	1064.94
448.896	1039.94
449.117	1030.94
449.338	1047.94
449.559	1027.94
449.779	1002.94
450	1009.94
450.221	1021.94
450.442	1004.94
450.662	1035.94
450.883	1043.94
451.104	1037.94
451.324	1019.94
451.545	997.94
451.766	1007.94
451.986	1031.94
452.207	1016.94
452.428	1009.94
452.648	976.94
452.869	985.94
453.089	1004.94
453.31	1031.94
453.53	1010.94
453.751	973.94
453.971	1009.94
454.192	1021.94
454.412	1009.94
454.633	997.94
454.853	990.94
455.073	987.94
455.294	1005.94
455.514	1004.94
455.734	1022.94
455.955	1052.94
456.175	1017.94
456.395	978.94
456.616	976.94
456.836	1023.94
457.056	995.94
457.276	957.94
457.497	1005.94
457.717	1034.94
457.937	1040.94
458.157	1020.94
458.377	1037.94
458.598	1007.94
458.818	1042.94
459.038	1055.94
459.258	1043.94
459.478	1115.94
459.698	1194.94
459.918	1167.94
460.138	1159.94
460.358	1148.94
460.578	1157.94
460.798	1189.94
461.018	1185.94
461.238	1150.94
461.458	1150.94
461.678	1166.94
461.898	1173.94
462.118	1165.94
462.338	1209.94
462.558	1203.94
462.777	1245.94
462.997	1287.94
463.217	1290.94
463.437	1317.94
463.657	1252.94
463.876	1236.94
464.096	1235.94
464.316	1236.94
464.536	1239.94
464.755	1205.94
464.975	1174.94
465.195	1129.94
465.414	1159.94
465.634	1120.94
465.854	1092.94
466.073	1071.94
466.293	1111.94
466.512	1075.94
466.732	1083.94
466.951	1095.94
467.171	1101.94
467.391	1079.94
467.61	1048.94
467.829	1065.94
468.049	1082.94
468.268	1071.94
468.488	1045.94
468.707	1075.94
468.927	1073.94
469.146	1052.94
469.365	1119.94
469.585	1039.94
469.804	1051.94
470.023	1053.94
470.243	1054.94
470.462	1061.94
470.681	1079.94
470.901	1077.94
471.12	1087.94
471.339	1080.94
471.558	1057.94
471.777	1078.94
471.997	1063.94
472.216	1051.94
472.435	1044.94
472.654	1042.94
472.873	1068.94
473.092	1068.94
473.311	1070.94
473.53	1068.94
473.749	1062.94
473.968	1056.94
474.187	1067.94
474.406	1075.94
474.625	1065.94
474.844	1067.94
475.063	1125.94
475.282	1113.94
475.501	1096.94
475.72	1134.94
475.939	1133.94
476.158	1127.94
476.377	1113.94
476.596	1130.94
476.814	1117.94
477.033	1161.94
477.252	1158.94
477.471	1138.94
477.69	1173.94
477.908	1164.94
478.127	1187.94
478.346	1169.94
478.564	1204.94
478.783	1193.94
479.002	1259.94
479.22	1325.94
479.439	1255.94
479.658	1233.94
479.876	1243.94
480.095	1256.94
480.313	1252.94
480.532	1233.94
480.751	1274.94
480.969	1248.94
481.188	1257.94
481.406	1255.94
481.624	1221.94
481.843	1219.94
482.061	1236.94
482.28	1239.94
482.498	1236.94
482.717	1258.94
482.935	1255.94
483.153	1257.94
483.372	1308.94
483.59	1344.94
483.808	1297.94
484.027	1312.94
484.245	1279.94
484.463	1281.94
484.681	1276.94
484.9	1285.94
485.118	1272.94
485.336	1250.94
485.554	1283.94
485.772	1314.94
485.99	1279.94
486.209	1264.94
486.427	1300.94
486.645	1283.94
486.863	1279.94
487.081	1303.94
487.299	1299.94
487.517	1317.94
487.735	1327.94
487.953	1361.94
488.171	1340.94
488.389	1312.94
488.607	1319.94
488.825	1308.94
489.043	1266.94
489.261	1285.94
489.479	1282.94
489.696	1269.94
489.914	1296.94
490.132	1330.94
490.35	1340.94
490.568	1317.94
490.786	1327.94
491.003	1303.94
491.221	1319.94
491.439	1333.94
491.657	1337.94
491.874	1351.94
492.092	1336.94
492.31	1349.94
492.527	1376.94
492.745	1353.94
492.963	1335.94
493.18	1359.94
493.398	1317.94
493.615	1369.94
493.833	1332.94
494.05	1359.94
494.268	1378.94
494.485	1385.94
494.703	1363.94
494.92	1407.94
495.138	1376.94
495.355	1386.94
495.573	1386.94
495.79	1389.94
496.008	1374.94
496.225	1419.94
496.442	1437.94
496.66	1424.94
496.877	1440.94
497.094	1467.94
497.312	1431.94
497.529	1449.94
497.746	1481.94
497.963	1538.94
498.181	1514.94
498.398	1538.94
498.615	1586.94
498.832	1614.94
499.049	1638.94
499.267	1702.94
499.484	1749.94
499.701	1809.94
499.918	1828.94
500.135	1927.94
500.352	1952.94
500.569	1957.94
500.786	1963.94
501.003	1973.94
501.22	1918.94
501.437	1844.94
501.654	1793.94
501.871	1762.94
502.088	1675.94
502.305	1674.94
502.522	1631.94
502.739	1597.94
502.956	1532.94
503.172	1498.94
503.389	1463.94
503.606	1479.94
503.823	1441.94
504.04	1443.94
504.256	1442.94
504.473	1403.94
504.69	1371.94
504.907	1363.94
505.123	1370.94
505.34	1361.94
505.557	1297.94
505.773	1312.94
505.99	1288.94
506.207	1242.94
506.423	1236.94
506.64	1281.94
506.856	1268.94
507.073	1213.94
507.289	1243.94
507.506	1273.94
507.722	1225.94
507.939	1190.94
508.155	1194.94
508.372	1188.94
508.588	1193.94
508.805	1188.94
509.021	1183.94
509.238	1167.94
509.454	1157.94
509.67	1137.94
509.887	1157.94
510.103	1132.94
510.319	1109.94
510.536	1123.94
510.752	1116.94
510.968	1119.94
511.184	1113.94
511.401	1120.94
511.617	1137.94
511.833	1110.94
512.049	1099.94
512.265	1131.94
512.481	1126.94
512.698	1116.94
512.914	1092.94
513.13	1105.94
513.346	1120.94
513.562	1093.94
513.778	1094.94
513.994	1101.94
514.21	1112.94
514.426	1117.94
514.642	1104.94
514.858	1100.94
515.074	1097.94
515.29	1117.94
515.506	1120.94
515.721	1093.94
515.937	1124.94
516.153	1129.94
516.369	1142.94
516.585	1149.94
516.801	1167.94
517.016	1155.94
517.232	1185.94
517.448	1184.94
517.664	1192.94
517.879	1203.94
518.095	1180.94
518.311	1126.94
518.527	1146.94
518.742	1169.94
518.958	1117.94
519.173	1130.94
519.389	1151.94
519.605	1115.94
519.82	1131.94
520.036	1091.94
520.251	1044.94
520.467	1112.94
520.682	1071.94
520.898	1081.94
521.113	1091.94
521.329	1085.94
521.544	1053.94
521.76	1073.94
521.975	1045.94
522.19	991.94
522.406	1033.94
522.621	1005.94
522.836	1023.94
523.052	1018.94
523.267	1021.94
523.482	1026.94
523.698	1025.94
523.913	1048.94
524.128	1027.94
524.343	1029.94
524.559	1019.94
524.774	992.94
524.989	1012.94
525.204	1026.94
525.419	996.94
525.634	996.94
525.849	993.94
526.064	1008.94
526.28	983.94
526.495	985.94
526.71	977.94
526.925	953.94
527.14	973.94
527.355	964.94
527.57	972.94
527.785	982.94
527.999	1004.94
528.214	976.94
528.429	986.94
528.644	969.94
528.859	983.94
529.074	966.94
529.289	1000.94
529.503	975.94
529.718	959.94
529.933	943.94
530.148	958.94
530.363	976.94
530.577	949.94
530.792	947.94
531.007	946.94
531.221	951.94
531.436	918.94
531.651	937.94
531.865	932.94
532.08	951.94
532.295	919.94
532.509	912.94
532.724	947.94
532.938	934.94
533.153	961.94
533.367	921.94
533.582	939.94
533.796	924.94
534.011	935.94
534.225	893.94
534.44	905.94
534.654	913.94
534.868	947.94
535.083	893.94
535.297	903.94
535.511	947.94
535.726	904.94
535.94	932.94
536.154	900.94
536.369	897.94
536.583	892.94
536.797	919.94
537.011	892.94
537.225	903.94
537.44	910.94
537.654	910.94
537.868	879.94
538.082	893.94
538.296	893.94
538.51	875.94
538.724	863.94
538.938	855.94
539.153	867.94
539.367	871.94
539.581	846.94
539.795	842.94
540.009	854.94
540.222	861.94
540.436	879.94
540.65	874.94
540.864	849.94
541.078	880.94
541.292	887.94
541.506	871.94
541.72	907.94
541.934	883.94
542.147	891.94
542.361	872.94
542.575	894.94
542.789	863.94
543.002	839.94
543.216	854.94
543.43	835.94
543.644	875.94
543.857	868.94
544.071	875.94
544.285	869.94
544.498	845.94
544.712	835.94
544.925	892.94
545.139	872.94
545.352	825.94
545.566	843.94
545.779	850.94
545.993	852.94
546.206	866.94
546.42	861.94
546.633	883.94
546.847	881.94
547.06	845.94
547.274	860.94
547.487	883.94
547.7	874.94
547.914	866.94
548.127	857.94
548.34	872.94
548.554	871.94
548.767	842.94
548.98	857.94
549.193	855.94
549.407	848.94
549.62	834.94
549.833	831.94
550.046	843.94
550.259	838.94
550.473	815.94
550.686	820.94
550.899	861.94
551.112	821.94
551.325	820.94
551.538	840.94
551.751	837.94
551.964	826.94
552.177	810.94
552.39	833.94
552.603	837.94
552.816	826.94
553.029	826.94
553.242	845.94
553.455	849.94
553.667	847.94
553.88	810.94
554.093	817.94
554.306	791.94
554.519	807.94
554.732	794.94
554.944	808.94
555.157	817.94
555.37	782.94
555.583	787.94
555.795	793.94
556.008	765.94
556.221	770.94
556.433	748.94
556.646	734.94
556.859	756.94
557.071	729.94
557.284	752.94
557.496	733.94
557.709	724.94
557.921	745.94
558.134	753.94
558.346	733.94
558.559	717.94
558.771	722.94
558.984	732.94
559.196	740.94
559.409	726.94
559.621	711.94
559.833	719.94
560.046	721.94
560.258	700.94
560.47	728.94
560.683	716.94
560.895	701.94
561.107	701.94
561.32	712.94
561.532	697.94
561.744	737.94
561.956	716.94
562.168	687.94
562.381	705.94
562.593	716.94
562.805	712.94
563.017	705.94
563.229	696.94
563.441	705.94
563.653	715.94
563.865	722.94
564.077	724.94
564.289	721.94
564.501	705.94
564.713	725.94
564.925	736.94
565.137	744.94
565.349	736.94
565.561	747.94
565.773	757.94
565.985	740.94
566.197	765.94
566.408	773.94
566.62	795.94
566.832	836.94
567.044	807.94
567.255	815.94
567.467	813.94
567.679	833.94
567.891	824.94
568.102	796.94
568.314	779.94
568.526	771.94
568.737	762.94
568.949	746.94
569.161	716.94
569.372	676.94
569.584	702.94
569.795	687.94
570.007	678.94
570.218	667.94
570.43	674.94
570.641	669.94
570.853	664.94
571.064	641.94
571.276	683.94
571.487	644.94
571.698	648.94
571.91	646.94
572.121	640.94
572.333	620.94
572.544	598.94
572.755	609.94
572.966	605.94
573.178	609.94
573.389	597.94
573.6	592.94
573.811	560.94
574.023	563.94
574.234	558.94
574.445	585.94
574.656	554.94
574.867	546.94
575.078	572.94
575.289	569.94
575.501	552.94
575.712	563.94
575.923	551.94
576.134	552.94
576.345	544.94
576.556	548.94
576.767	530.94
576.978	541.94
577.188	540.94
577.399	534.94
577.61	534.94
577.821	547.94
578.032	524.94
578.243	533.94
578.454	533.94
578.665	520.94
578.875	523.94
579.086	509.94
579.297	492.94
579.508	503.94
579.718	514.94
579.929	511.94
580.14	493.94
580.35	486.94
580.561	515.94
580.772	495.94
580.982	501.94
581.193	486.94
581.403	507.94
581.614	483.94
581.825	509.94
582.035	479.94
582.246	495.94
582.456	488.94
582.667	477.94
582.877	477.94
583.087	461.94
583.298	460.94
583.508	464.94
583.719	476.94
583.929	481.94
584.139	485.94
584.35	469.94
584.56	452.94
584.77	462.94
584.981	474.94
585.191	465.94
585.401	486.94
585.611	465.94
585.821	467.94
586.032	463.94
586.242	463.94
586.452	469.94
586.662	473.94
586.872	480.94
587.082	471.94
587.292	454.94
587.502	475.94
587.713	460.94
587.923	472.94
588.133	441.94
588.343	445.94
588.553	458.94
588.762	475.94
588.972	470.94
589.182	520.94
589.392	489.94
589.602	462.94
589.812	502.94
590.022	479.94
590.232	456.94
590.441	437.94
590.651	471.94
590.861	420.94
591.071	453.94
591.281	467.94
591.49	453.94
591.7	460.94
591.91	441.94
592.119	447.94
592.329	431.94
592.539	461.94
592.748	452.94
592.958	458.94
593.167	465.94
593.377	448.94
593.587	449.94
593.796	445.94
594.006	448.94
594.215	452.94
594.424	469.94
594.634	463.94
594.843	451.94
595.053	455.94
595.262	453.94
595.472	441.94
595.681	426.94
595.89	427.94
596.1	443.94
596.309	428.94
596.518	396.94
596.727	431.94
596.937	422.94
597.146	423.94
597.355	413.94
597.564	399.94
597.774	378.94
597.983	405.94
598.192	393.94
598.401	401.94
598.61	391.94
598.819	383.94
599.028	402.94
599.237	400.94
599.446	382.94
599.655	372.94
599.864	375.94
600.073	374.94
600.282	399.94
600.491	387.94
600.7	391.94
600.909	380.94
601.118	375.94
601.327	378.94
601.536	364.94
601.745	377.94
601.953	379.94
602.162	374.94
602.371	349.94
602.58	383.94
602.789	367.94
602.997	388.94
603.206	373.94
603.415	369.94
603.623	363.94
603.832	364.94
604.041	368.94
604.249	373.94
604.458	361.94
604.666	359.94
604.875	351.94
605.084	352.94
605.292	362.94
605.501	349.94
605.709	358.94
605.918	349.94
606.126	330.94
606.334	328.94
606.543	344.94
606.751	348.94
606.96	351.94
607.168	344.94
607.376	349.94
607.585	358.94
607.793	356.94
608.001	349.94
608.21	331.94
608.418	347.94
608.626	342.94
608.834	360.94
609.043	350.94
609.251	335.94
609.459	336.94
609.667	355.94
609.875	340.94
610.083	342.94
610.291	345.94
610.499	331.94
610.707	327.94
610.916	347.94
611.124	328.94
611.332	345.94
611.54	344.94
611.748	316.94
611.955	350.94
612.163	332.94
612.371	330.94
612.579	339.94
612.787	337.94
612.995	342.94
613.203	324.94
613.411	337.94
613.618	341.94
613.826	328.94
614.034	323.94
614.242	343.94
614.449	323.94
614.657	335.94
614.865	336.94
615.072	327.94
615.28	329.94
615.488	318.94
615.695	336.94
615.903	321.94
616.111	328.94
616.318	321.94
616.526	338.94
616.733	323.94
616.941	327.94
617.148	328.94
617.356	326.94
617.563	312.94
617.771	316.94
617.978	322.94
618.185	332.94
618.393	307.94
618.6	324.94
618.807	330.94
619.015	332.94
619.222	312.94
619.429	307.94
619.637	317.94
619.844	295.94
620.051	293.94
620.258	311.94
620.466	297.94
620.673	307.94
620.88	308.94
621.087	283.94
621.294	309.94
621.501	303.94
621.708	301.94
621.915	305.94
622.122	296.94
622.329	311.94
622.536	321.94
622.743	296.94
622.95	288.94
623.157	294.94
623.364	315.94
623.571	298.94
623.778	279.94
623.985	287.94
624.192	277.94
624.399	284.94
624.606	288.94
624.812	282.94
625.019	292.94
625.226	295.94
625.433	314.94
625.639	279.94
625.846	268.94
626.053	280.94
626.259	273.94
626.466	292.94
626.673	283.94
626.879	274.94
627.086	287.94
627.293	285.94
627.499	290.94
627.706	267.94
627.912	282.94
628.119	294.94
628.325	276.94
628.532	274.94
628.738	270.94
628.945	253.94
629.151	267.94
629.357	267.94
629.564	282.94
629.77	276.94
629.976	275.94
630.183	249.94
630.389	255.94
630.595	273.94
630.802	261.94
631.008	248.94
631.214	274.94
631.42	282.94
631.627	265.94
631.833	263.94
632.039	270.94
632.245	266.94
632.451	283.94
632.657	265.94
632.863	269.94
633.069	239.94
633.275	253.94
633.481	267.94
633.688	249.94
633.893	263.94
634.099	263.94
634.305	249.94
634.511	237.94
634.717	250.94
634.923	247.94
635.129	259.94
635.335	245.94
635.541	248.94
635.747	242.94
635.952	247.94
636.158	251.94
636.364	253.94
636.57	245.94
636.775	242.94
636.981	261.94
637.187	243.94
637.392	253.94
637.598	228.94
637.804	232.94
638.009	234.94
638.215	225.94
638.421	233.94
638.626	236.94
638.832	238.94
639.037	240.94
639.243	244.94
639.448	238.94
639.654	251.94
639.859	225.94
640.065	219.94
640.27	240.94
640.475	233.94
640.681	231.94
640.886	231.94
641.091	232.94
641.297	244.94
641.502	228.94
641.707	237.94
641.913	245.94
642.118	232.94
642.323	224.94
642.528	233.94
642.733	241.94
642.939	241.94
643.144	223.94
643.349	238.94
643.554	229.94
643.759	232.94
643.964	234.94
644.169	242.94
644.374	228.94
644.579	233.94
644.784	236.94
644.989	216.94
645.194	256.94
645.399	217.94
645.604	228.94
645.809	253.94
646.014	237.94
646.219	239.94
646.423	235.94
646.628	227.94
646.833	232.94
647.038	231.94
647.243	223.94
647.447	230.94
647.652	231.94
647.857	234.94
648.062	236.94
648.266	241.94
648.471	236.94
648.676	249.94
648.88	243.94
649.085	239.94
649.289	224.94
649.494	239.94
649.698	243.94
649.903	249.94
650.107	242.94
650.312	239.94
650.516	227.94
650.721	234.94
650.925	214.94
651.13	232.94
651.334	218.94
651.539	226.94
651.743	220.94
651.947	230.94
652.152	218.94
652.356	225.94
652.56	227.94
652.764	232.94
652.969	218.94
653.173	196.94
653.377	219.94
653.581	213.94
653.785	231.94
653.99	204.94
654.194	204.94
654.398	217.94
654.602	213.94
654.806	197.94
655.01	197.94
655.214	192.94
655.418	192.94
655.622	208.94
655.826	199.94
656.03	200.94
656.234	209.94
656.438	201.94
656.642	186.94
656.846	201.94
657.049	207.94
657.253	186.94
657.457	183.94
657.661	164.94
657.865	153.94
658.068	151.94
658.272	155.94
658.476	149.94
658.68	150.94
658.883	130.94
659.087	135.94
659.291	129.94
659.494	139.94
659.698	128.94
659.901	131.94
660.105	132.94
660.309	112.94
660.512	115.94
660.716	123.94
660.919	112.94
661.123	129.94
661.326	100.94
661.53	102.94
661.733	90.94
661.936	97.94
662.14	111.94
662.343	91.94
662.546	75.94
662.75	81.94
662.953	81.94
663.156	102.94
663.36	91.94
663.563	87.94
663.766	87.94
663.969	82.94
664.173	79.94
664.376	73.94
664.579	83.94
664.782	77.94
664.985	103.94
665.188	77.94
665.391	74.94
665.594	77.94
665.797	75.94
666	71.94
666.203	79.94
666.406	83.94
666.609	73.94
666.812	82.94
667.015	60.94
667.218	90.94
667.421	80.94
667.624	89.94
667.827	95.94
668.03	66.94
668.232	69.94
668.435	82.94
668.638	85.94
668.841	74.94
669.043	78.94
669.246	75.94
669.449	100.94
669.651	75.94
669.854	77.94
670.057	63.94
670.259	79.94
670.462	91.94
670.665	66.94
670.867	81.94
671.07	75.94
671.272	67.94
671.475	77.94
671.677	82.94
671.88	74.94
672.082	66.94
672.284	89.94
672.487	81.94
672.689	75.94
672.892	69.94
