Data from Ni(NO3)2Standard.Agarose3%.GreenCap.LampEnergy5.5.E.O_HRD10591_14-41-36-192.txt Node
Date: Mon Jul 22 14:41:36 EDT 2019
User: cochatt
Spectrometer: HR+D1059
Trigger mode: 1
Integration Time (sec): 1.000000E-1
Scans to average: 1
Electric dark correction enabled: true
Nonlinearity correction enabled: false
Boxcar width: 0
XAxis mode: Wavelengths
Number of Pixels in Spectrum: 2048
>>>>>Begin Spectral Data<<<<<
223.165	-19.94
223.4	-19.94
223.635	-19.94
223.869	-24.94
224.104	-20.94
224.338	-15.94
224.573	-22.94
224.808	-11.94
225.042	-9.94
225.277	-5.94
225.511	-1.94
225.746	8.06
225.98	7.06
226.215	9.06
226.449	22.06
226.683	25.06
226.918	30.06
227.152	33.06
227.387	26.06
227.621	44.06
227.856	57.06
228.09	52.06
228.324	44.06
228.559	60.06
228.793	56.06
229.027	58.06
229.262	61.06
229.496	74.06
229.73	52.06
229.964	75.06
230.199	72.06
230.433	67.06
230.667	68.06
230.901	85.06
231.136	74.06
231.37	75.06
231.604	70.06
231.838	81.06
232.072	83.06
232.306	75.06
232.541	88.06
232.775	89.06
233.009	76.06
233.243	83.06
233.477	77.06
233.711	83.06
233.945	81.06
234.179	81.06
234.413	80.06
234.647	79.06
234.881	91.06
235.115	78.06
235.349	80.06
235.583	86.06
235.817	69.06
236.051	91.06
236.285	66.06
236.519	79.06
236.753	71.06
236.987	88.06
237.221	67.06
237.455	70.06
237.689	85.06
237.922	71.06
238.156	66.06
238.39	65.06
238.624	70.06
238.858	85.06
239.091	74.06
239.325	70.06
239.559	64.06
239.793	85.06
240.027	75.06
240.26	67.06
240.494	82.06
240.728	77.06
240.961	75.06
241.195	84.06
241.429	74.06
241.662	75.06
241.896	64.06
242.13	58.06
242.363	72.06
242.597	75.06
242.83	77.06
243.064	67.06
243.298	99.06
243.531	80.06
243.765	73.06
243.998	67.06
244.232	82.06
244.465	63.06
244.699	86.06
244.932	79.06
245.166	73.06
245.399	75.06
245.633	75.06
245.866	50.06
246.099	73.06
246.333	82.06
246.566	80.06
246.8	87.06
247.033	83.06
247.266	71.06
247.5	78.06
247.733	80.06
247.966	76.06
248.2	74.06
248.433	71.06
248.666	72.06
248.899	82.06
249.133	76.06
249.366	90.06
249.599	76.06
249.832	86.06
250.066	62.06
250.299	70.06
250.532	82.06
250.765	85.06
250.998	84.06
251.231	74.06
251.465	82.06
251.698	91.06
251.931	74.06
252.164	86.06
252.397	75.06
252.63	78.06
252.863	87.06
253.096	78.06
253.329	83.06
253.562	79.06
253.795	92.06
254.028	86.06
254.261	81.06
254.494	64.06
254.727	87.06
254.96	84.06
255.193	73.06
255.426	70.06
255.659	82.06
255.892	80.06
256.124	79.06
256.357	71.06
256.59	68.06
256.823	87.06
257.056	82.06
257.289	69.06
257.521	90.06
257.754	73.06
257.987	66.06
258.22	89.06
258.452	80.06
258.685	78.06
258.918	74.06
259.151	81.06
259.383	76.06
259.616	75.06
259.849	71.06
260.081	77.06
260.314	90.06
260.547	59.06
260.779	83.06
261.012	82.06
261.244	81.06
261.477	75.06
261.71	79.06
261.942	69.06
262.175	68.06
262.407	76.06
262.64	82.06
262.872	77.06
263.105	79.06
263.337	84.06
263.57	81.06
263.802	81.06
264.035	91.06
264.267	77.06
264.499	79.06
264.732	82.06
264.964	66.06
265.197	96.06
265.429	87.06
265.661	82.06
265.894	78.06
266.126	83.06
266.358	75.06
266.591	77.06
266.823	70.06
267.055	75.06
267.287	69.06
267.52	81.06
267.752	86.06
267.984	83.06
268.216	61.06
268.448	78.06
268.681	74.06
268.913	80.06
269.145	78.06
269.377	85.06
269.609	79.06
269.841	81.06
270.073	91.06
270.306	83.06
270.538	80.06
270.77	76.06
271.002	91.06
271.234	83.06
271.466	89.06
271.698	83.06
271.93	95.06
272.162	76.06
272.394	88.06
272.626	80.06
272.858	84.06
273.09	95.06
273.322	87.06
273.553	89.06
273.785	82.06
274.017	67.06
274.249	91.06
274.481	81.06
274.713	72.06
274.945	93.06
275.176	87.06
275.408	89.06
275.64	78.06
275.872	83.06
276.104	90.06
276.335	84.06
276.567	80.06
276.799	90.06
277.031	83.06
277.262	82.06
277.494	92.06
277.726	93.06
277.957	94.06
278.189	83.06
278.421	74.06
278.652	92.06
278.884	75.06
279.115	85.06
279.347	89.06
279.579	72.06
279.81	86.06
280.042	94.06
280.273	67.06
280.505	79.06
280.736	84.06
280.968	85.06
281.199	80.06
281.431	89.06
281.662	85.06
281.894	88.06
282.125	74.06
282.356	89.06
282.588	80.06
282.819	76.06
283.051	79.06
283.282	99.06
283.513	95.06
283.745	93.06
283.976	80.06
284.207	86.06
284.439	74.06
284.67	83.06
284.901	86.06
285.132	72.06
285.364	95.06
285.595	83.06
285.826	92.06
286.057	91.06
286.288	84.06
286.52	76.06
286.751	96.06
286.982	97.06
287.213	85.06
287.444	70.06
287.675	90.06
287.906	77.06
288.138	90.06
288.369	79.06
288.6	75.06
288.831	75.06
289.062	88.06
289.293	77.06
289.524	97.06
289.755	80.06
289.986	92.06
290.217	73.06
290.448	70.06
290.679	70.06
290.91	71.06
291.141	95.06
291.371	90.06
291.602	85.06
291.833	66.06
292.064	84.06
292.295	78.06
292.526	68.06
292.757	88.06
292.987	93.06
293.218	84.06
293.449	74.06
293.68	82.06
293.91	82.06
294.141	93.06
294.372	87.06
294.603	81.06
294.833	79.06
295.064	85.06
295.295	87.06
295.525	76.06
295.756	96.06
295.987	86.06
296.217	86.06
296.448	80.06
296.679	103.06
296.909	86.06
297.14	95.06
297.37	89.06
297.601	91.06
297.831	92.06
298.062	91.06
298.292	77.06
298.523	75.06
298.753	97.06
298.984	89.06
299.214	67.06
299.445	80.06
299.675	81.06
299.905	84.06
300.136	83.06
300.366	81.06
300.597	94.06
300.827	90.06
301.057	84.06
301.288	86.06
301.518	92.06
301.748	89.06
301.979	84.06
302.209	85.06
302.439	82.06
302.669	93.06
302.9	80.06
303.13	81.06
303.36	89.06
303.59	103.06
303.82	92.06
304.051	91.06
304.281	80.06
304.511	92.06
304.741	81.06
304.971	89.06
305.201	81.06
305.431	81.06
305.661	101.06
305.891	79.06
306.121	86.06
306.352	90.06
306.582	80.06
306.812	88.06
307.042	86.06
307.272	67.06
307.502	87.06
307.731	83.06
307.961	82.06
308.191	92.06
308.421	85.06
308.651	95.06
308.881	95.06
309.111	74.06
309.341	80.06
309.571	87.06
309.8	85.06
310.03	84.06
310.26	88.06
310.49	100.06
310.72	90.06
310.949	76.06
311.179	81.06
311.409	77.06
311.639	77.06
311.868	80.06
312.098	83.06
312.328	89.06
312.557	86.06
312.787	88.06
313.017	95.06
313.246	76.06
313.476	80.06
313.706	73.06
313.935	95.06
314.165	94.06
314.394	99.06
314.624	74.06
314.853	88.06
315.083	95.06
315.312	83.06
315.542	87.06
315.771	83.06
316.001	81.06
316.23	80.06
316.46	86.06
316.689	84.06
316.919	82.06
317.148	73.06
317.377	84.06
317.607	85.06
317.836	98.06
318.065	80.06
318.295	85.06
318.524	78.06
318.753	76.06
318.983	82.06
319.212	88.06
319.441	75.06
319.67	85.06
319.9	84.06
320.129	74.06
320.358	80.06
320.587	83.06
320.816	92.06
321.046	88.06
321.275	82.06
321.504	80.06
321.733	94.06
321.962	82.06
322.191	94.06
322.42	77.06
322.649	83.06
322.878	88.06
323.108	95.06
323.337	80.06
323.566	80.06
323.795	83.06
324.024	72.06
324.253	87.06
324.482	84.06
324.71	95.06
324.939	85.06
325.168	77.06
325.397	91.06
325.626	78.06
325.855	82.06
326.084	71.06
326.313	86.06
326.542	82.06
326.77	98.06
326.999	81.06
327.228	98.06
327.457	97.06
327.686	77.06
327.914	96.06
328.143	88.06
328.372	86.06
328.6	78.06
328.829	94.06
329.058	91.06
329.287	92.06
329.515	76.06
329.744	87.06
329.972	75.06
330.201	101.06
330.43	84.06
330.658	92.06
330.887	86.06
331.115	86.06
331.344	82.06
331.572	90.06
331.801	80.06
332.03	80.06
332.258	82.06
332.486	95.06
332.715	97.06
332.943	89.06
333.172	82.06
333.4	73.06
333.629	78.06
333.857	95.06
334.085	99.06
334.314	91.06
334.542	79.06
334.771	91.06
334.999	84.06
335.227	80.06
335.455	84.06
335.684	79.06
335.912	98.06
336.14	86.06
336.369	76.06
336.597	91.06
336.825	87.06
337.053	94.06
337.281	86.06
337.51	82.06
337.738	83.06
337.966	80.06
338.194	93.06
338.422	90.06
338.65	78.06
338.878	83.06
339.106	90.06
339.334	97.06
339.562	79.06
339.79	72.06
340.018	73.06
340.246	88.06
340.474	75.06
340.702	80.06
340.93	79.06
341.158	90.06
341.386	105.06
341.614	96.06
341.842	92.06
342.07	75.06
342.298	84.06
342.526	94.06
342.754	105.06
342.981	82.06
343.209	69.06
343.437	79.06
343.665	98.06
343.893	98.06
344.12	99.06
344.348	96.06
344.576	77.06
344.804	103.06
345.031	91.06
345.259	64.06
345.487	97.06
345.714	83.06
345.942	82.06
346.17	66.06
346.397	78.06
346.625	80.06
346.853	78.06
347.08	91.06
347.308	88.06
347.535	93.06
347.763	104.06
347.99	75.06
348.218	88.06
348.445	85.06
348.673	100.06
348.9	95.06
349.128	108.06
349.355	89.06
349.583	101.06
349.81	90.06
350.037	74.06
350.265	71.06
350.492	80.06
350.72	72.06
350.947	84.06
351.174	84.06
351.402	95.06
351.629	82.06
351.856	81.06
352.083	89.06
352.311	82.06
352.538	78.06
352.765	90.06
352.992	75.06
353.22	87.06
353.447	80.06
353.674	94.06
353.901	84.06
354.128	98.06
354.355	78.06
354.583	80.06
354.81	86.06
355.037	88.06
355.264	84.06
355.491	83.06
355.718	79.06
355.945	83.06
356.172	85.06
356.399	90.06
356.626	84.06
356.853	100.06
357.08	79.06
357.307	87.06
357.534	83.06
357.761	82.06
357.988	89.06
358.215	81.06
358.441	81.06
358.668	73.06
358.895	76.06
359.122	76.06
359.349	83.06
359.576	98.06
359.802	91.06
360.029	100.06
360.256	82.06
360.483	84.06
360.709	82.06
360.936	87.06
361.163	88.06
361.39	83.06
361.616	69.06
361.843	78.06
362.07	80.06
362.296	83.06
362.523	74.06
362.749	87.06
362.976	82.06
363.203	90.06
363.429	93.06
363.656	75.06
363.882	87.06
364.109	87.06
364.335	87.06
364.562	80.06
364.788	94.06
365.015	84.06
365.241	83.06
365.468	82.06
365.694	83.06
365.92	88.06
366.147	89.06
366.373	89.06
366.599	80.06
366.826	83.06
367.052	94.06
367.278	84.06
367.505	92.06
367.731	87.06
367.957	81.06
368.184	78.06
368.41	90.06
368.636	84.06
368.862	67.06
369.089	91.06
369.315	85.06
369.541	84.06
369.767	90.06
369.993	99.06
370.219	74.06
370.445	86.06
370.672	90.06
370.898	76.06
371.124	82.06
371.35	89.06
371.576	84.06
371.802	76.06
372.028	91.06
372.254	69.06
372.48	86.06
372.706	83.06
372.932	87.06
373.158	74.06
373.384	77.06
373.61	79.06
373.835	82.06
374.061	92.06
374.287	82.06
374.513	79.06
374.739	75.06
374.965	76.06
375.191	78.06
375.416	96.06
375.642	94.06
375.868	89.06
376.094	80.06
376.319	78.06
376.545	101.06
376.771	76.06
376.997	88.06
377.222	87.06
377.448	73.06
377.674	90.06
377.899	83.06
378.125	86.06
378.35	91.06
378.576	76.06
378.802	83.06
379.027	89.06
379.253	65.06
379.478	83.06
379.704	84.06
379.929	87.06
380.155	84.06
380.38	64.06
380.606	82.06
380.831	64.06
381.057	91.06
381.282	82.06
381.507	89.06
381.733	86.06
381.958	93.06
382.184	78.06
382.409	78.06
382.634	73.06
382.86	86.06
383.085	83.06
383.31	93.06
383.535	76.06
383.761	73.06
383.986	98.06
384.211	82.06
384.436	85.06
384.662	86.06
384.887	83.06
385.112	83.06
385.337	85.06
385.562	78.06
385.787	84.06
386.013	94.06
386.238	84.06
386.463	84.06
386.688	77.06
386.913	100.06
387.138	75.06
387.363	93.06
387.588	81.06
387.813	82.06
388.038	85.06
388.263	81.06
388.488	66.06
388.713	88.06
388.938	69.06
389.163	86.06
389.387	88.06
389.612	86.06
389.837	70.06
390.062	78.06
390.287	80.06
390.512	76.06
390.736	98.06
390.961	81.06
391.186	82.06
391.411	90.06
391.636	83.06
391.86	94.06
392.085	78.06
392.31	92.06
392.534	91.06
392.759	85.06
392.984	92.06
393.208	88.06
393.433	91.06
393.658	97.06
393.882	84.06
394.107	85.06
394.331	86.06
394.556	72.06
394.78	74.06
395.005	91.06
395.229	80.06
395.454	78.06
395.678	94.06
395.903	96.06
396.127	97.06
396.352	84.06
396.576	92.06
396.801	101.06
397.025	93.06
397.249	82.06
397.474	83.06
397.698	91.06
397.922	82.06
398.147	84.06
398.371	70.06
398.595	82.06
398.82	70.06
399.044	97.06
399.268	88.06
399.492	88.06
399.717	88.06
399.941	89.06
400.165	93.06
400.389	92.06
400.613	89.06
400.837	75.06
401.062	107.06
401.286	72.06
401.51	83.06
401.734	74.06
401.958	75.06
402.182	92.06
402.406	80.06
402.63	71.06
402.854	86.06
403.078	88.06
403.302	81.06
403.526	88.06
403.75	92.06
403.974	75.06
404.198	90.06
404.422	75.06
404.645	71.06
404.869	83.06
405.093	81.06
405.317	76.06
405.541	85.06
405.765	97.06
405.988	101.06
406.212	67.06
406.436	75.06
406.66	81.06
406.883	93.06
407.107	85.06
407.331	91.06
407.555	80.06
407.778	84.06
408.002	93.06
408.226	79.06
408.449	88.06
408.673	83.06
408.896	90.06
409.12	86.06
409.344	82.06
409.567	96.06
409.791	92.06
410.014	67.06
410.238	81.06
410.461	75.06
410.685	89.06
410.908	90.06
411.132	82.06
411.355	96.06
411.578	89.06
411.802	93.06
412.025	80.06
412.249	79.06
412.472	83.06
412.695	82.06
412.919	96.06
413.142	89.06
413.365	81.06
413.589	99.06
413.812	92.06
414.035	85.06
414.258	77.06
414.482	74.06
414.705	95.06
414.928	96.06
415.151	87.06
415.374	90.06
415.597	75.06
415.821	79.06
416.044	63.06
416.267	83.06
416.49	90.06
416.713	90.06
416.936	99.06
417.159	95.06
417.382	94.06
417.605	91.06
417.828	88.06
418.051	90.06
418.274	79.06
418.497	85.06
418.72	71.06
418.943	95.06
419.166	82.06
419.389	96.06
419.611	95.06
419.834	93.06
420.057	87.06
420.28	78.06
420.503	84.06
420.726	84.06
420.948	78.06
421.171	87.06
421.394	93.06
421.617	89.06
421.839	79.06
422.062	72.06
422.285	83.06
422.507	95.06
422.73	87.06
422.953	82.06
423.175	84.06
423.398	95.06
423.621	86.06
423.843	87.06
424.066	78.06
424.288	78.06
424.511	94.06
424.733	76.06
424.956	81.06
425.178	89.06
425.401	93.06
425.623	99.06
425.846	97.06
426.068	81.06
426.291	88.06
426.513	75.06
426.735	88.06
426.958	90.06
427.18	91.06
427.402	82.06
427.625	82.06
427.847	83.06
428.069	99.06
428.292	91.06
428.514	88.06
428.736	90.06
428.958	85.06
429.181	82.06
429.403	75.06
429.625	80.06
429.847	79.06
430.069	93.06
430.292	89.06
430.514	84.06
430.736	85.06
430.958	102.06
431.18	83.06
431.402	96.06
431.624	84.06
431.846	77.06
432.068	89.06
432.29	68.06
432.512	93.06
432.734	79.06
432.956	80.06
433.178	81.06
433.4	90.06
433.622	81.06
433.844	82.06
434.066	86.06
434.287	82.06
434.509	84.06
434.731	68.06
434.953	93.06
435.175	74.06
435.397	85.06
435.618	80.06
435.84	76.06
436.062	99.06
436.284	90.06
436.505	97.06
436.727	97.06
436.949	88.06
437.17	80.06
437.392	86.06
437.614	80.06
437.835	51.06
438.057	85.06
438.278	95.06
438.5	93.06
438.721	98.06
438.943	105.06
439.165	91.06
439.386	88.06
439.608	65.06
439.829	78.06
440.05	86.06
440.272	85.06
440.493	77.06
440.715	89.06
440.936	86.06
441.158	102.06
441.379	94.06
441.6	81.06
441.822	81.06
442.043	77.06
442.264	96.06
442.486	78.06
442.707	85.06
442.928	104.06
443.149	91.06
443.371	90.06
443.592	86.06
443.813	85.06
444.034	90.06
444.255	74.06
444.476	92.06
444.698	97.06
444.919	83.06
445.14	162.06
445.361	122.06
445.582	86.06
445.803	78.06
446.024	81.06
446.245	94.06
446.466	80.06
446.687	75.06
446.908	87.06
447.129	89.06
447.35	92.06
447.571	76.06
447.792	86.06
448.013	80.06
448.234	93.06
448.455	98.06
448.675	76.06
448.896	80.06
449.117	93.06
449.338	99.06
449.559	88.06
449.779	89.06
450	90.06
450.221	94.06
450.442	86.06
450.662	87.06
450.883	89.06
451.104	93.06
451.324	82.06
451.545	79.06
451.766	73.06
451.986	71.06
452.207	80.06
452.428	86.06
452.648	90.06
452.869	91.06
453.089	85.06
453.31	81.06
453.53	90.06
453.751	81.06
453.971	79.06
454.192	93.06
454.412	78.06
454.633	82.06
454.853	72.06
455.073	76.06
455.294	91.06
455.514	91.06
455.734	80.06
455.955	74.06
456.175	87.06
456.395	89.06
456.616	93.06
456.836	89.06
457.056	80.06
457.276	94.06
457.497	82.06
457.717	85.06
457.937	66.06
458.157	100.06
458.377	80.06
458.598	91.06
458.818	87.06
459.038	82.06
459.258	96.06
459.478	97.06
459.698	83.06
459.918	86.06
460.138	70.06
460.358	80.06
460.578	96.06
460.798	83.06
461.018	91.06
461.238	88.06
461.458	97.06
461.678	91.06
461.898	90.06
462.118	104.06
462.338	99.06
462.558	88.06
462.777	94.06
462.997	102.06
463.217	95.06
463.437	92.06
463.657	89.06
463.876	76.06
464.096	104.06
464.316	83.06
464.536	95.06
464.755	97.06
464.975	94.06
465.195	86.06
465.414	80.06
465.634	71.06
465.854	82.06
466.073	95.06
466.293	86.06
466.512	80.06
466.732	85.06
466.951	74.06
467.171	75.06
467.391	93.06
467.61	82.06
467.829	85.06
468.049	95.06
468.268	82.06
468.488	95.06
468.707	82.06
468.927	82.06
469.146	75.06
469.365	82.06
469.585	86.06
469.804	81.06
470.023	106.06
470.243	81.06
470.462	84.06
470.681	88.06
470.901	90.06
471.12	89.06
471.339	80.06
471.558	86.06
471.777	82.06
471.997	95.06
472.216	105.06
472.435	79.06
472.654	104.06
472.873	91.06
473.092	85.06
473.311	80.06
473.53	84.06
473.749	87.06
473.968	82.06
474.187	94.06
474.406	92.06
474.625	80.06
474.844	80.06
475.063	91.06
475.282	93.06
475.501	91.06
475.72	88.06
475.939	76.06
476.158	89.06
476.377	83.06
476.596	87.06
476.814	84.06
477.033	94.06
477.252	88.06
477.471	95.06
477.69	102.06
477.908	103.06
478.127	106.06
478.346	88.06
478.564	81.06
478.783	87.06
479.002	92.06
479.22	86.06
479.439	84.06
479.658	90.06
479.876	84.06
480.095	84.06
480.313	92.06
480.532	96.06
480.751	93.06
480.969	70.06
481.188	86.06
481.406	77.06
481.624	94.06
481.843	92.06
482.061	97.06
482.28	83.06
482.498	90.06
482.717	79.06
482.935	97.06
483.153	96.06
483.372	103.06
483.59	88.06
483.808	93.06
484.027	85.06
484.245	89.06
484.463	78.06
484.681	98.06
484.9	76.06
485.118	82.06
485.336	88.06
485.554	87.06
485.772	83.06
485.99	100.06
486.209	82.06
486.427	104.06
486.645	90.06
486.863	96.06
487.081	87.06
487.299	92.06
487.517	90.06
487.735	87.06
487.953	102.06
488.171	95.06
488.389	89.06
488.607	81.06
488.825	81.06
489.043	102.06
489.261	87.06
489.479	87.06
489.696	85.06
489.914	98.06
490.132	92.06
490.35	86.06
490.568	83.06
490.786	80.06
491.003	90.06
491.221	94.06
491.439	93.06
491.657	102.06
491.874	94.06
492.092	100.06
492.31	96.06
492.527	98.06
492.745	86.06
492.963	89.06
493.18	99.06
493.398	101.06
493.615	102.06
493.833	100.06
494.05	95.06
494.268	103.06
494.485	89.06
494.703	97.06
494.92	95.06
495.138	94.06
495.355	113.06
495.573	88.06
495.79	86.06
496.008	92.06
496.225	95.06
496.442	100.06
496.66	89.06
496.877	82.06
497.094	95.06
497.312	107.06
497.529	98.06
497.746	106.06
497.963	95.06
498.181	101.06
498.398	90.06
498.615	99.06
498.832	95.06
499.049	100.06
499.267	91.06
499.484	96.06
499.701	120.06
499.918	116.06
500.135	120.06
500.352	114.06
500.569	107.06
500.786	108.06
501.003	113.06
501.22	108.06
501.437	103.06
501.654	116.06
501.871	101.06
502.088	98.06
502.305	102.06
502.522	72.06
502.739	97.06
502.956	107.06
503.172	106.06
503.389	90.06
503.606	97.06
503.823	91.06
504.04	92.06
504.256	96.06
504.473	81.06
504.69	82.06
504.907	103.06
505.123	87.06
505.34	81.06
505.557	81.06
505.773	90.06
505.99	89.06
506.207	84.06
506.423	89.06
506.64	79.06
506.856	96.06
507.073	87.06
507.289	101.06
507.506	95.06
507.722	103.06
507.939	81.06
508.155	87.06
508.372	94.06
508.588	97.06
508.805	93.06
509.021	102.06
509.238	91.06
509.454	83.06
509.67	82.06
509.887	88.06
510.103	110.06
510.319	91.06
510.536	92.06
510.752	100.06
510.968	87.06
511.184	81.06
511.401	94.06
511.617	98.06
511.833	74.06
512.049	98.06
512.265	102.06
512.481	99.06
512.698	97.06
512.914	88.06
513.13	82.06
513.346	92.06
513.562	88.06
513.778	88.06
513.994	84.06
514.21	86.06
514.426	99.06
514.642	84.06
514.858	96.06
515.074	89.06
515.29	91.06
515.506	83.06
515.721	88.06
515.937	84.06
516.153	97.06
516.369	95.06
516.585	110.06
516.801	103.06
517.016	103.06
517.232	77.06
517.448	99.06
517.664	95.06
517.879	98.06
518.095	95.06
518.311	82.06
518.527	91.06
518.742	84.06
518.958	88.06
519.173	93.06
519.389	84.06
519.605	88.06
519.82	92.06
520.036	98.06
520.251	84.06
520.467	82.06
520.682	96.06
520.898	96.06
521.113	95.06
521.329	100.06
521.544	75.06
521.76	91.06
521.975	83.06
522.19	94.06
522.406	90.06
522.621	87.06
522.836	84.06
523.052	82.06
523.267	88.06
523.482	86.06
523.698	100.06
523.913	89.06
524.128	96.06
524.343	93.06
524.559	100.06
524.774	85.06
524.989	86.06
525.204	88.06
525.419	96.06
525.634	79.06
525.849	97.06
526.064	91.06
526.28	99.06
526.495	87.06
526.71	93.06
526.925	94.06
527.14	84.06
527.355	80.06
527.57	95.06
527.785	95.06
527.999	100.06
528.214	88.06
528.429	89.06
528.644	100.06
528.859	85.06
529.074	92.06
529.289	90.06
529.503	96.06
529.718	82.06
529.933	92.06
530.148	85.06
530.363	95.06
530.577	93.06
530.792	83.06
531.007	85.06
531.221	101.06
531.436	87.06
531.651	96.06
531.865	84.06
532.08	99.06
532.295	85.06
532.509	75.06
532.724	84.06
532.938	82.06
533.153	99.06
533.367	92.06
533.582	89.06
533.796	94.06
534.011	83.06
534.225	76.06
534.44	71.06
534.654	80.06
534.868	84.06
535.083	81.06
535.297	93.06
535.511	94.06
535.726	90.06
535.94	94.06
536.154	107.06
536.369	101.06
536.583	77.06
536.797	84.06
537.011	86.06
537.225	101.06
537.44	74.06
537.654	95.06
537.868	92.06
538.082	89.06
538.296	105.06
538.51	91.06
538.724	76.06
538.938	83.06
539.153	89.06
539.367	89.06
539.581	94.06
539.795	86.06
540.009	93.06
540.222	90.06
540.436	95.06
540.65	106.06
540.864	95.06
541.078	92.06
541.292	93.06
541.506	101.06
541.72	90.06
541.934	100.06
542.147	88.06
542.361	76.06
542.575	82.06
542.789	90.06
543.002	83.06
543.216	94.06
543.43	86.06
543.644	81.06
543.857	92.06
544.071	82.06
544.285	88.06
544.498	88.06
544.712	90.06
544.925	94.06
545.139	95.06
545.352	78.06
545.566	90.06
545.779	87.06
545.993	74.06
546.206	92.06
546.42	100.06
546.633	94.06
546.847	84.06
547.06	74.06
547.274	94.06
547.487	88.06
547.7	85.06
547.914	85.06
548.127	77.06
548.34	96.06
548.554	84.06
548.767	86.06
548.98	81.06
549.193	88.06
549.407	88.06
549.62	87.06
549.833	98.06
550.046	84.06
550.259	87.06
550.473	95.06
550.686	86.06
550.899	73.06
551.112	76.06
551.325	78.06
551.538	84.06
551.751	82.06
551.964	91.06
552.177	83.06
552.39	88.06
552.603	91.06
552.816	84.06
553.029	93.06
553.242	88.06
553.455	85.06
553.667	81.06
553.88	89.06
554.093	85.06
554.306	98.06
554.519	80.06
554.732	82.06
554.944	94.06
555.157	85.06
555.37	88.06
555.583	92.06
555.795	87.06
556.008	86.06
556.221	88.06
556.433	82.06
556.646	88.06
556.859	80.06
557.071	85.06
557.284	96.06
557.496	89.06
557.709	102.06
557.921	90.06
558.134	87.06
558.346	90.06
558.559	89.06
558.771	90.06
558.984	92.06
559.196	81.06
559.409	89.06
559.621	80.06
559.833	82.06
560.046	94.06
560.258	94.06
560.47	82.06
560.683	88.06
560.895	85.06
561.107	102.06
561.32	92.06
561.532	86.06
561.744	96.06
561.956	81.06
562.168	85.06
562.381	87.06
562.593	91.06
562.805	88.06
563.017	98.06
563.229	91.06
563.441	82.06
563.653	89.06
563.865	90.06
564.077	89.06
564.289	85.06
564.501	82.06
564.713	99.06
564.925	91.06
565.137	77.06
565.349	83.06
565.561	79.06
565.773	82.06
565.985	81.06
566.197	90.06
566.408	95.06
566.62	81.06
566.832	98.06
567.044	98.06
567.255	84.06
567.467	75.06
567.679	95.06
567.891	83.06
568.102	74.06
568.314	105.06
568.526	93.06
568.737	83.06
568.949	96.06
569.161	79.06
569.372	94.06
569.584	93.06
569.795	81.06
570.007	100.06
570.218	93.06
570.43	102.06
570.641	82.06
570.853	97.06
571.064	86.06
571.276	80.06
571.487	97.06
571.698	81.06
571.91	85.06
572.121	84.06
572.333	79.06
572.544	66.06
572.755	79.06
572.966	94.06
573.178	72.06
573.389	85.06
573.6	100.06
573.811	96.06
574.023	93.06
574.234	95.06
574.445	84.06
574.656	81.06
574.867	82.06
575.078	80.06
575.289	82.06
575.501	87.06
575.712	97.06
575.923	73.06
576.134	91.06
576.345	84.06
576.556	91.06
576.767	72.06
576.978	87.06
577.188	72.06
577.399	87.06
577.61	95.06
577.821	87.06
578.032	96.06
578.243	78.06
578.454	81.06
578.665	87.06
578.875	84.06
579.086	86.06
579.297	81.06
579.508	81.06
579.718	76.06
579.929	83.06
580.14	83.06
580.35	75.06
580.561	79.06
580.772	88.06
580.982	81.06
581.193	79.06
581.403	84.06
581.614	92.06
581.825	89.06
582.035	92.06
582.246	77.06
582.456	94.06
582.667	93.06
582.877	91.06
583.087	90.06
583.298	73.06
583.508	87.06
583.719	88.06
583.929	79.06
584.139	87.06
584.35	84.06
584.56	84.06
584.77	79.06
584.981	81.06
585.191	80.06
585.401	82.06
585.611	107.06
585.821	96.06
586.032	89.06
586.242	96.06
586.452	90.06
586.662	83.06
586.872	84.06
587.082	88.06
587.292	76.06
587.502	99.06
587.713	77.06
587.923	85.06
588.133	90.06
588.343	89.06
588.553	94.06
588.762	86.06
588.972	82.06
589.182	73.06
589.392	81.06
589.602	79.06
589.812	89.06
590.022	96.06
590.232	84.06
590.441	74.06
590.651	89.06
590.861	78.06
591.071	86.06
591.281	81.06
591.49	73.06
591.7	81.06
591.91	90.06
592.119	81.06
592.329	94.06
592.539	81.06
592.748	85.06
592.958	83.06
593.167	84.06
593.377	85.06
593.587	97.06
593.796	90.06
594.006	76.06
594.215	88.06
594.424	81.06
594.634	74.06
594.843	84.06
595.053	99.06
595.262	87.06
595.472	89.06
595.681	89.06
595.89	90.06
596.1	72.06
596.309	91.06
596.518	86.06
596.727	75.06
596.937	82.06
597.146	88.06
597.355	87.06
597.564	77.06
597.774	97.06
597.983	87.06
598.192	88.06
598.401	72.06
598.61	71.06
598.819	94.06
599.028	82.06
599.237	91.06
599.446	94.06
599.655	91.06
599.864	68.06
600.073	82.06
600.282	90.06
600.491	79.06
600.7	84.06
600.909	81.06
601.118	88.06
601.327	79.06
601.536	93.06
601.745	102.06
601.953	89.06
602.162	76.06
602.371	69.06
602.58	85.06
602.789	89.06
602.997	88.06
603.206	74.06
603.415	81.06
603.623	73.06
603.832	89.06
604.041	86.06
604.249	79.06
604.458	80.06
604.666	73.06
604.875	84.06
605.084	87.06
605.292	81.06
605.501	77.06
605.709	79.06
605.918	83.06
606.126	78.06
606.334	87.06
606.543	78.06
606.751	73.06
606.96	88.06
607.168	88.06
607.376	89.06
607.585	77.06
607.793	84.06
608.001	74.06
608.21	96.06
608.418	78.06
608.626	81.06
608.834	83.06
609.043	78.06
609.251	74.06
609.459	90.06
609.667	87.06
609.875	58.06
610.083	71.06
610.291	87.06
610.499	94.06
610.707	88.06
610.916	89.06
611.124	71.06
611.332	79.06
611.54	82.06
611.748	80.06
611.955	88.06
612.163	78.06
612.371	91.06
612.579	76.06
612.787	85.06
612.995	84.06
613.203	99.06
613.411	96.06
613.618	75.06
613.826	76.06
614.034	83.06
614.242	81.06
614.449	82.06
614.657	87.06
614.865	73.06
615.072	69.06
615.28	86.06
615.488	88.06
615.695	86.06
615.903	87.06
616.111	86.06
616.318	88.06
616.526	100.06
616.733	79.06
616.941	97.06
617.148	83.06
617.356	98.06
617.563	85.06
617.771	86.06
617.978	82.06
618.185	106.06
618.393	84.06
618.6	80.06
618.807	74.06
619.015	68.06
619.222	99.06
619.429	86.06
619.637	100.06
619.844	73.06
620.051	83.06
620.258	73.06
620.466	82.06
620.673	87.06
620.88	84.06
621.087	91.06
621.294	68.06
621.501	74.06
621.708	89.06
621.915	99.06
622.122	96.06
622.329	96.06
622.536	63.06
622.743	84.06
622.95	90.06
623.157	83.06
623.364	82.06
623.571	73.06
623.778	86.06
623.985	88.06
624.192	90.06
624.399	91.06
624.606	93.06
624.812	86.06
625.019	75.06
625.226	95.06
625.433	76.06
625.639	75.06
625.846	83.06
626.053	75.06
626.259	75.06
626.466	90.06
626.673	80.06
626.879	75.06
627.086	82.06
627.293	84.06
627.499	85.06
627.706	85.06
627.912	88.06
628.119	93.06
628.325	79.06
628.532	90.06
628.738	79.06
628.945	95.06
629.151	86.06
629.357	92.06
629.564	81.06
629.77	63.06
629.976	84.06
630.183	71.06
630.389	67.06
630.595	63.06
630.802	76.06
631.008	90.06
631.214	80.06
631.42	80.06
631.627	87.06
631.833	77.06
632.039	70.06
632.245	75.06
632.451	74.06
632.657	94.06
632.863	86.06
633.069	91.06
633.275	84.06
633.481	82.06
633.688	86.06
633.893	88.06
634.099	73.06
634.305	80.06
634.511	73.06
634.717	88.06
634.923	72.06
635.129	73.06
635.335	86.06
635.541	81.06
635.747	82.06
635.952	77.06
636.158	62.06
636.364	89.06
636.57	72.06
636.775	92.06
636.981	90.06
637.187	90.06
637.392	70.06
637.598	79.06
637.804	94.06
638.009	92.06
638.215	76.06
638.421	74.06
638.626	84.06
638.832	80.06
639.037	90.06
639.243	82.06
639.448	98.06
639.654	77.06
639.859	83.06
640.065	100.06
640.27	87.06
640.475	80.06
640.681	76.06
640.886	83.06
641.091	83.06
641.297	72.06
641.502	78.06
641.707	92.06
641.913	85.06
642.118	73.06
642.323	74.06
642.528	79.06
642.733	75.06
642.939	87.06
643.144	88.06
643.349	87.06
643.554	61.06
643.759	84.06
643.964	85.06
644.169	83.06
644.374	88.06
644.579	90.06
644.784	82.06
644.989	79.06
645.194	90.06
645.399	84.06
645.604	87.06
645.809	91.06
646.014	75.06
646.219	81.06
646.423	84.06
646.628	86.06
646.833	82.06
647.038	75.06
647.243	88.06
647.447	93.06
647.652	70.06
647.857	80.06
648.062	71.06
648.266	85.06
648.471	82.06
648.676	87.06
648.88	79.06
649.085	73.06
649.289	90.06
649.494	93.06
649.698	86.06
649.903	79.06
650.107	67.06
650.312	80.06
650.516	79.06
650.721	76.06
650.925	77.06
651.13	80.06
651.334	91.06
651.539	89.06
651.743	71.06
651.947	92.06
652.152	85.06
652.356	78.06
652.56	87.06
652.764	87.06
652.969	81.06
653.173	77.06
653.377	91.06
653.581	81.06
653.785	81.06
653.99	81.06
654.194	74.06
654.398	80.06
654.602	94.06
654.806	71.06
655.01	78.06
655.214	88.06
655.418	95.06
655.622	85.06
655.826	97.06
656.03	90.06
656.234	78.06
656.438	78.06
656.642	79.06
656.846	76.06
657.049	79.06
657.253	82.06
657.457	73.06
657.661	83.06
657.865	82.06
658.068	96.06
658.272	96.06
658.476	72.06
658.68	83.06
658.883	86.06
659.087	66.06
659.291	83.06
659.494	86.06
659.698	75.06
659.901	78.06
660.105	85.06
660.309	75.06
660.512	85.06
660.716	69.06
660.919	89.06
661.123	95.06
661.326	82.06
661.53	86.06
661.733	84.06
661.936	86.06
662.14	74.06
662.343	86.06
662.546	80.06
662.75	79.06
662.953	91.06
663.156	76.06
663.36	80.06
663.563	88.06
663.766	75.06
663.969	88.06
664.173	90.06
664.376	81.06
664.579	79.06
664.782	79.06
664.985	86.06
665.188	76.06
665.391	88.06
665.594	87.06
665.797	73.06
666	74.06
666.203	78.06
666.406	81.06
666.609	77.06
666.812	91.06
667.015	82.06
667.218	83.06
667.421	74.06
667.624	85.06
667.827	71.06
668.03	67.06
668.232	68.06
668.435	79.06
668.638	91.06
668.841	90.06
669.043	90.06
669.246	87.06
669.449	85.06
669.651	82.06
669.854	76.06
670.057	73.06
670.259	60.06
670.462	73.06
670.665	82.06
670.867	89.06
671.07	92.06
671.272	84.06
671.475	84.06
671.677	73.06
671.88	84.06
672.082	75.06
672.284	90.06
672.487	98.06
672.689	73.06
672.892	76.06
