Data from Ni(NO3)2Standard.Agarose3%.GreenCap.LampEnergy5.5.E.O_HRD10591_14-39-43-187.txt Node
Date: Mon Jul 22 14:39:43 EDT 2019
User: cochatt
Spectrometer: HR+D1059
Trigger mode: 1
Integration Time (sec): 1.000000E-1
Scans to average: 1
Electric dark correction enabled: true
Nonlinearity correction enabled: false
Boxcar width: 0
XAxis mode: Wavelengths
Number of Pixels in Spectrum: 2048
>>>>>Begin Spectral Data<<<<<
223.165	-17.12
223.4	-17.12
223.635	-17.12
223.869	-24.12
224.104	-17.12
224.338	-9.12
224.573	-5.12
224.808	-11.12
225.042	-13.12
225.277	2.88
225.511	-1.12
225.746	-0.12
225.98	-2.12
226.215	9.88
226.449	9.88
226.683	22.88
226.918	17.88
227.152	36.88
227.387	25.88
227.621	30.88
227.856	31.88
228.09	44.88
228.324	57.88
228.559	50.88
228.793	62.88
229.027	72.88
229.262	67.88
229.496	54.88
229.73	84.88
229.964	66.88
230.199	73.88
230.433	73.88
230.667	84.88
230.901	76.88
231.136	72.88
231.37	82.88
231.604	76.88
231.838	83.88
232.072	86.88
232.306	86.88
232.541	91.88
232.775	83.88
233.009	71.88
233.243	77.88
233.477	85.88
233.711	89.88
233.945	92.88
234.179	80.88
234.413	86.88
234.647	90.88
234.881	70.88
235.115	74.88
235.349	84.88
235.583	93.88
235.817	73.88
236.051	83.88
236.285	82.88
236.519	71.88
236.753	62.88
236.987	71.88
237.221	77.88
237.455	86.88
237.689	87.88
237.922	81.88
238.156	81.88
238.39	74.88
238.624	83.88
238.858	85.88
239.091	81.88
239.325	76.88
239.559	90.88
239.793	80.88
240.027	88.88
240.26	71.88
240.494	70.88
240.728	84.88
240.961	62.88
241.195	69.88
241.429	78.88
241.662	84.88
241.896	75.88
242.13	84.88
242.363	94.88
242.597	71.88
242.83	79.88
243.064	84.88
243.298	80.88
243.531	65.88
243.765	74.88
243.998	84.88
244.232	100.88
244.465	84.88
244.699	74.88
244.932	74.88
245.166	79.88
245.399	86.88
245.633	76.88
245.866	82.88
246.099	74.88
246.333	80.88
246.566	77.88
246.8	69.88
247.033	91.88
247.266	91.88
247.5	80.88
247.733	74.88
247.966	71.88
248.2	86.88
248.433	69.88
248.666	78.88
248.899	77.88
249.133	90.88
249.366	75.88
249.599	78.88
249.832	82.88
250.066	102.88
250.299	88.88
250.532	75.88
250.765	84.88
250.998	77.88
251.231	74.88
251.465	69.88
251.698	81.88
251.931	81.88
252.164	68.88
252.397	81.88
252.63	88.88
252.863	96.88
253.096	87.88
253.329	79.88
253.562	85.88
253.795	92.88
254.028	80.88
254.261	77.88
254.494	85.88
254.727	84.88
254.96	88.88
255.193	86.88
255.426	78.88
255.659	76.88
255.892	76.88
256.124	77.88
256.357	90.88
256.59	96.88
256.823	90.88
257.056	78.88
257.289	73.88
257.521	79.88
257.754	95.88
257.987	84.88
258.22	90.88
258.452	94.88
258.685	79.88
258.918	85.88
259.151	92.88
259.383	91.88
259.616	83.88
259.849	75.88
260.081	88.88
260.314	87.88
260.547	83.88
260.779	93.88
261.012	83.88
261.244	76.88
261.477	78.88
261.71	77.88
261.942	87.88
262.175	83.88
262.407	86.88
262.64	86.88
262.872	98.88
263.105	89.88
263.337	90.88
263.57	92.88
263.802	84.88
264.035	78.88
264.267	68.88
264.499	88.88
264.732	104.88
264.964	91.88
265.197	98.88
265.429	95.88
265.661	80.88
265.894	82.88
266.126	90.88
266.358	88.88
266.591	90.88
266.823	82.88
267.055	75.88
267.287	76.88
267.52	78.88
267.752	82.88
267.984	82.88
268.216	91.88
268.448	95.88
268.681	77.88
268.913	85.88
269.145	79.88
269.377	75.88
269.609	79.88
269.841	76.88
270.073	85.88
270.306	80.88
270.538	100.88
270.77	80.88
271.002	81.88
271.234	93.88
271.466	79.88
271.698	94.88
271.93	76.88
272.162	100.88
272.394	80.88
272.626	78.88
272.858	88.88
273.09	81.88
273.322	91.88
273.553	86.88
273.785	90.88
274.017	92.88
274.249	74.88
274.481	86.88
274.713	107.88
274.945	101.88
275.176	89.88
275.408	81.88
275.64	83.88
275.872	71.88
276.104	84.88
276.335	81.88
276.567	89.88
276.799	88.88
277.031	88.88
277.262	79.88
277.494	73.88
277.726	79.88
277.957	89.88
278.189	91.88
278.421	70.88
278.652	90.88
278.884	85.88
279.115	86.88
279.347	92.88
279.579	95.88
279.81	80.88
280.042	79.88
280.273	93.88
280.505	96.88
280.736	91.88
280.968	99.88
281.199	99.88
281.431	90.88
281.662	81.88
281.894	74.88
282.125	98.88
282.356	93.88
282.588	81.88
282.819	93.88
283.051	84.88
283.282	85.88
283.513	94.88
283.745	99.88
283.976	94.88
284.207	86.88
284.439	74.88
284.67	72.88
284.901	93.88
285.132	83.88
285.364	83.88
285.595	82.88
285.826	90.88
286.057	87.88
286.288	83.88
286.52	90.88
286.751	88.88
286.982	84.88
287.213	93.88
287.444	83.88
287.675	99.88
287.906	94.88
288.138	78.88
288.369	94.88
288.6	80.88
288.831	92.88
289.062	73.88
289.293	91.88
289.524	88.88
289.755	73.88
289.986	80.88
290.217	87.88
290.448	82.88
290.679	95.88
290.91	96.88
291.141	84.88
291.371	101.88
291.602	93.88
291.833	83.88
292.064	89.88
292.295	78.88
292.526	100.88
292.757	85.88
292.987	78.88
293.218	83.88
293.449	81.88
293.68	99.88
293.91	78.88
294.141	93.88
294.372	72.88
294.603	88.88
294.833	79.88
295.064	91.88
295.295	106.88
295.525	81.88
295.756	84.88
295.987	91.88
296.217	95.88
296.448	91.88
296.679	91.88
296.909	78.88
297.14	91.88
297.37	80.88
297.601	83.88
297.831	89.88
298.062	90.88
298.292	82.88
298.523	95.88
298.753	94.88
298.984	90.88
299.214	88.88
299.445	87.88
299.675	101.88
299.905	98.88
300.136	93.88
300.366	86.88
300.597	109.88
300.827	82.88
301.057	85.88
301.288	86.88
301.518	102.88
301.748	94.88
301.979	85.88
302.209	88.88
302.439	95.88
302.669	87.88
302.9	88.88
303.13	86.88
303.36	93.88
303.59	80.88
303.82	88.88
304.051	93.88
304.281	100.88
304.511	88.88
304.741	89.88
304.971	77.88
305.201	90.88
305.431	100.88
305.661	96.88
305.891	95.88
306.121	93.88
306.352	106.88
306.582	83.88
306.812	76.88
307.042	86.88
307.272	99.88
307.502	84.88
307.731	88.88
307.961	84.88
308.191	94.88
308.421	98.88
308.651	87.88
308.881	98.88
309.111	71.88
309.341	85.88
309.571	102.88
309.8	94.88
310.03	93.88
310.26	92.88
310.49	101.88
310.72	90.88
310.949	88.88
311.179	91.88
311.409	96.88
311.639	86.88
311.868	104.88
312.098	84.88
312.328	86.88
312.557	91.88
312.787	87.88
313.017	101.88
313.246	99.88
313.476	102.88
313.706	98.88
313.935	77.88
314.165	95.88
314.394	87.88
314.624	89.88
314.853	66.88
315.083	71.88
315.312	79.88
315.542	99.88
315.771	87.88
316.001	84.88
316.23	93.88
316.46	90.88
316.689	99.88
316.919	82.88
317.148	83.88
317.377	82.88
317.607	74.88
317.836	94.88
318.065	84.88
318.295	90.88
318.524	93.88
318.753	79.88
318.983	83.88
319.212	86.88
319.441	70.88
319.67	82.88
319.9	82.88
320.129	85.88
320.358	84.88
320.587	98.88
320.816	80.88
321.046	81.88
321.275	93.88
321.504	96.88
321.733	75.88
321.962	86.88
322.191	92.88
322.42	103.88
322.649	93.88
322.878	87.88
323.108	100.88
323.337	82.88
323.566	87.88
323.795	86.88
324.024	79.88
324.253	92.88
324.482	86.88
324.71	86.88
324.939	83.88
325.168	75.88
325.397	85.88
325.626	80.88
325.855	80.88
326.084	93.88
326.313	102.88
326.542	87.88
326.77	90.88
326.999	86.88
327.228	92.88
327.457	92.88
327.686	84.88
327.914	103.88
328.143	91.88
328.372	103.88
328.6	77.88
328.829	94.88
329.058	91.88
329.287	92.88
329.515	97.88
329.744	85.88
329.972	76.88
330.201	84.88
330.43	96.88
330.658	80.88
330.887	98.88
331.115	90.88
331.344	79.88
331.572	91.88
331.801	102.88
332.03	85.88
332.258	87.88
332.486	85.88
332.715	86.88
332.943	87.88
333.172	101.88
333.4	72.88
333.629	91.88
333.857	86.88
334.085	92.88
334.314	90.88
334.542	100.88
334.771	101.88
334.999	89.88
335.227	84.88
335.455	83.88
335.684	109.88
335.912	87.88
336.14	92.88
336.369	96.88
336.597	97.88
336.825	89.88
337.053	99.88
337.281	90.88
337.51	105.88
337.738	89.88
337.966	88.88
338.194	87.88
338.422	87.88
338.65	114.88
338.878	98.88
339.106	89.88
339.334	82.88
339.562	84.88
339.79	85.88
340.018	94.88
340.246	87.88
340.474	93.88
340.702	86.88
340.93	84.88
341.158	76.88
341.386	91.88
341.614	84.88
341.842	91.88
342.07	84.88
342.298	72.88
342.526	86.88
342.754	81.88
342.981	87.88
343.209	84.88
343.437	103.88
343.665	90.88
343.893	106.88
344.12	98.88
344.348	93.88
344.576	79.88
344.804	102.88
345.031	97.88
345.259	75.88
345.487	83.88
345.714	73.88
345.942	105.88
346.17	97.88
346.397	93.88
346.625	78.88
346.853	91.88
347.08	76.88
347.308	80.88
347.535	106.88
347.763	86.88
347.99	92.88
348.218	93.88
348.445	88.88
348.673	83.88
348.9	78.88
349.128	100.88
349.355	81.88
349.583	100.88
349.81	91.88
350.037	84.88
350.265	88.88
350.492	93.88
350.72	90.88
350.947	95.88
351.174	81.88
351.402	87.88
351.629	100.88
351.856	92.88
352.083	89.88
352.311	96.88
352.538	108.88
352.765	95.88
352.992	92.88
353.22	82.88
353.447	79.88
353.674	81.88
353.901	90.88
354.128	74.88
354.355	84.88
354.583	84.88
354.81	81.88
355.037	88.88
355.264	85.88
355.491	82.88
355.718	80.88
355.945	87.88
356.172	86.88
356.399	95.88
356.626	83.88
356.853	82.88
357.08	76.88
357.307	91.88
357.534	76.88
357.761	93.88
357.988	84.88
358.215	86.88
358.441	89.88
358.668	92.88
358.895	78.88
359.122	80.88
359.349	83.88
359.576	83.88
359.802	91.88
360.029	99.88
360.256	82.88
360.483	90.88
360.709	79.88
360.936	104.88
361.163	99.88
361.39	77.88
361.616	91.88
361.843	95.88
362.07	74.88
362.296	103.88
362.523	90.88
362.749	91.88
362.976	96.88
363.203	87.88
363.429	87.88
363.656	85.88
363.882	95.88
364.109	92.88
364.335	96.88
364.562	76.88
364.788	98.88
365.015	82.88
365.241	93.88
365.468	89.88
365.694	83.88
365.92	82.88
366.147	92.88
366.373	100.88
366.599	78.88
366.826	94.88
367.052	89.88
367.278	92.88
367.505	80.88
367.731	98.88
367.957	89.88
368.184	87.88
368.41	85.88
368.636	83.88
368.862	87.88
369.089	77.88
369.315	79.88
369.541	89.88
369.767	90.88
369.993	85.88
370.219	88.88
370.445	88.88
370.672	86.88
370.898	85.88
371.124	90.88
371.35	86.88
371.576	100.88
371.802	95.88
372.028	87.88
372.254	86.88
372.48	67.88
372.706	87.88
372.932	80.88
373.158	93.88
373.384	78.88
373.61	92.88
373.835	71.88
374.061	82.88
374.287	94.88
374.513	93.88
374.739	97.88
374.965	92.88
375.191	95.88
375.416	95.88
375.642	84.88
375.868	78.88
376.094	95.88
376.319	101.88
376.545	100.88
376.771	91.88
376.997	93.88
377.222	88.88
377.448	88.88
377.674	89.88
377.899	86.88
378.125	83.88
378.35	76.88
378.576	72.88
378.802	92.88
379.027	94.88
379.253	91.88
379.478	76.88
379.704	78.88
379.929	95.88
380.155	90.88
380.38	90.88
380.606	80.88
380.831	91.88
381.057	90.88
381.282	94.88
381.507	96.88
381.733	83.88
381.958	86.88
382.184	102.88
382.409	101.88
382.634	94.88
382.86	102.88
383.085	100.88
383.31	78.88
383.535	79.88
383.761	91.88
383.986	84.88
384.211	90.88
384.436	88.88
384.662	82.88
384.887	87.88
385.112	86.88
385.337	92.88
385.562	85.88
385.787	98.88
386.013	84.88
386.238	91.88
386.463	105.88
386.688	89.88
386.913	85.88
387.138	90.88
387.363	95.88
387.588	82.88
387.813	75.88
388.038	90.88
388.263	86.88
388.488	74.88
388.713	84.88
388.938	84.88
389.163	85.88
389.387	83.88
389.612	84.88
389.837	97.88
390.062	86.88
390.287	93.88
390.512	82.88
390.736	94.88
390.961	80.88
391.186	82.88
391.411	96.88
391.636	83.88
391.86	89.88
392.085	83.88
392.31	91.88
392.534	91.88
392.759	83.88
392.984	91.88
393.208	86.88
393.433	90.88
393.658	85.88
393.882	80.88
394.107	78.88
394.331	96.88
394.556	105.88
394.78	91.88
395.005	70.88
395.229	94.88
395.454	93.88
395.678	91.88
395.903	98.88
396.127	89.88
396.352	73.88
396.576	94.88
396.801	79.88
397.025	83.88
397.249	90.88
397.474	86.88
397.698	86.88
397.922	93.88
398.147	82.88
398.371	89.88
398.595	78.88
398.82	85.88
399.044	86.88
399.268	92.88
399.492	81.88
399.717	91.88
399.941	99.88
400.165	91.88
400.389	93.88
400.613	92.88
400.837	96.88
401.062	83.88
401.286	91.88
401.51	101.88
401.734	86.88
401.958	104.88
402.182	81.88
402.406	92.88
402.63	87.88
402.854	90.88
403.078	96.88
403.302	80.88
403.526	87.88
403.75	90.88
403.974	92.88
404.198	91.88
404.422	80.88
404.645	96.88
404.869	90.88
405.093	83.88
405.317	70.88
405.541	88.88
405.765	89.88
405.988	86.88
406.212	91.88
406.436	89.88
406.66	87.88
406.883	90.88
407.107	83.88
407.331	83.88
407.555	85.88
407.778	83.88
408.002	96.88
408.226	88.88
408.449	103.88
408.673	118.88
408.896	88.88
409.12	96.88
409.344	85.88
409.567	97.88
409.791	78.88
410.014	89.88
410.238	87.88
410.461	91.88
410.685	78.88
410.908	99.88
411.132	92.88
411.355	77.88
411.578	81.88
411.802	95.88
412.025	94.88
412.249	85.88
412.472	103.88
412.695	95.88
412.919	99.88
413.142	84.88
413.365	83.88
413.589	93.88
413.812	78.88
414.035	87.88
414.258	94.88
414.482	88.88
414.705	98.88
414.928	87.88
415.151	83.88
415.374	75.88
415.597	83.88
415.821	103.88
416.044	88.88
416.267	89.88
416.49	107.88
416.713	85.88
416.936	95.88
417.159	86.88
417.382	68.88
417.605	88.88
417.828	96.88
418.051	102.88
418.274	99.88
418.497	84.88
418.72	91.88
418.943	84.88
419.166	84.88
419.389	90.88
419.611	91.88
419.834	91.88
420.057	91.88
420.28	103.88
420.503	90.88
420.726	80.88
420.948	81.88
421.171	88.88
421.394	82.88
421.617	98.88
421.839	74.88
422.062	85.88
422.285	74.88
422.507	88.88
422.73	90.88
422.953	78.88
423.175	89.88
423.398	98.88
423.621	84.88
423.843	85.88
424.066	83.88
424.288	94.88
424.511	96.88
424.733	69.88
424.956	74.88
425.178	88.88
425.401	90.88
425.623	93.88
425.846	88.88
426.068	73.88
426.291	88.88
426.513	91.88
426.735	89.88
426.958	95.88
427.18	86.88
427.402	84.88
427.625	87.88
427.847	96.88
428.069	100.88
428.292	96.88
428.514	73.88
428.736	88.88
428.958	86.88
429.181	92.88
429.403	75.88
429.625	95.88
429.847	94.88
430.069	78.88
430.292	88.88
430.514	91.88
430.736	101.88
430.958	93.88
431.18	86.88
431.402	84.88
431.624	93.88
431.846	84.88
432.068	93.88
432.29	77.88
432.512	111.88
432.734	96.88
432.956	89.88
433.178	74.88
433.4	87.88
433.622	88.88
433.844	87.88
434.066	95.88
434.287	84.88
434.509	84.88
434.731	89.88
434.953	86.88
435.175	97.88
435.397	96.88
435.618	96.88
435.84	93.88
436.062	92.88
436.284	86.88
436.505	94.88
436.727	89.88
436.949	80.88
437.17	94.88
437.392	77.88
437.614	89.88
437.835	86.88
438.057	94.88
438.278	91.88
438.5	90.88
438.721	86.88
438.943	99.88
439.165	102.88
439.386	80.88
439.608	91.88
439.829	90.88
440.05	84.88
440.272	85.88
440.493	86.88
440.715	90.88
440.936	81.88
441.158	90.88
441.379	84.88
441.6	99.88
441.822	107.88
442.043	93.88
442.264	92.88
442.486	85.88
442.707	98.88
442.928	78.88
443.149	84.88
443.371	84.88
443.592	81.88
443.813	95.88
444.034	84.88
444.255	91.88
444.476	94.88
444.698	91.88
444.919	92.88
445.14	194.88
445.361	138.88
445.582	90.88
445.803	93.88
446.024	106.88
446.245	94.88
446.466	96.88
446.687	83.88
446.908	100.88
447.129	85.88
447.35	95.88
447.571	91.88
447.792	87.88
448.013	85.88
448.234	78.88
448.455	85.88
448.675	95.88
448.896	93.88
449.117	83.88
449.338	96.88
449.559	87.88
449.779	84.88
450	92.88
450.221	80.88
450.442	96.88
450.662	98.88
450.883	87.88
451.104	85.88
451.324	96.88
451.545	88.88
451.766	92.88
451.986	90.88
452.207	76.88
452.428	82.88
452.648	86.88
452.869	75.88
453.089	99.88
453.31	77.88
453.53	97.88
453.751	84.88
453.971	75.88
454.192	93.88
454.412	85.88
454.633	95.88
454.853	72.88
455.073	80.88
455.294	87.88
455.514	87.88
455.734	84.88
455.955	89.88
456.175	86.88
456.395	87.88
456.616	91.88
456.836	87.88
457.056	103.88
457.276	75.88
457.497	95.88
457.717	90.88
457.937	91.88
458.157	93.88
458.377	84.88
458.598	103.88
458.818	84.88
459.038	85.88
459.258	90.88
459.478	90.88
459.698	90.88
459.918	83.88
460.138	92.88
460.358	91.88
460.578	94.88
460.798	101.88
461.018	80.88
461.238	95.88
461.458	98.88
461.678	100.88
461.898	96.88
462.118	87.88
462.338	90.88
462.558	92.88
462.777	91.88
462.997	86.88
463.217	89.88
463.437	102.88
463.657	94.88
463.876	107.88
464.096	90.88
464.316	98.88
464.536	95.88
464.755	89.88
464.975	81.88
465.195	92.88
465.414	103.88
465.634	87.88
465.854	85.88
466.073	92.88
466.293	88.88
466.512	90.88
466.732	94.88
466.951	90.88
467.171	85.88
467.391	69.88
467.61	99.88
467.829	91.88
468.049	87.88
468.268	79.88
468.488	80.88
468.707	88.88
468.927	95.88
469.146	96.88
469.365	105.88
469.585	95.88
469.804	104.88
470.023	92.88
470.243	103.88
470.462	108.88
470.681	102.88
470.901	81.88
471.12	94.88
471.339	84.88
471.558	92.88
471.777	89.88
471.997	88.88
472.216	102.88
472.435	93.88
472.654	81.88
472.873	93.88
473.092	84.88
473.311	106.88
473.53	86.88
473.749	95.88
473.968	87.88
474.187	100.88
474.406	94.88
474.625	86.88
474.844	79.88
475.063	89.88
475.282	94.88
475.501	101.88
475.72	98.88
475.939	87.88
476.158	84.88
476.377	100.88
476.596	85.88
476.814	85.88
477.033	93.88
477.252	88.88
477.471	88.88
477.69	95.88
477.908	95.88
478.127	95.88
478.346	105.88
478.564	87.88
478.783	100.88
479.002	99.88
479.22	95.88
479.439	88.88
479.658	69.88
479.876	95.88
480.095	86.88
480.313	90.88
480.532	100.88
480.751	86.88
480.969	90.88
481.188	91.88
481.406	89.88
481.624	87.88
481.843	96.88
482.061	92.88
482.28	113.88
482.498	91.88
482.717	95.88
482.935	104.88
483.153	101.88
483.372	96.88
483.59	92.88
483.808	96.88
484.027	82.88
484.245	105.88
484.463	99.88
484.681	115.88
484.9	110.88
485.118	95.88
485.336	100.88
485.554	97.88
485.772	99.88
485.99	93.88
486.209	104.88
486.427	108.88
486.645	91.88
486.863	98.88
487.081	101.88
487.299	88.88
487.517	108.88
487.735	110.88
487.953	105.88
488.171	108.88
488.389	99.88
488.607	102.88
488.825	96.88
489.043	99.88
489.261	103.88
489.479	96.88
489.696	94.88
489.914	98.88
490.132	95.88
490.35	99.88
490.568	93.88
490.786	98.88
491.003	105.88
491.221	100.88
491.439	96.88
491.657	92.88
491.874	98.88
492.092	102.88
492.31	101.88
492.527	109.88
492.745	102.88
492.963	111.88
493.18	91.88
493.398	94.88
493.615	100.88
493.833	88.88
494.05	98.88
494.268	103.88
494.485	111.88
494.703	111.88
494.92	119.88
495.138	105.88
495.355	98.88
495.573	106.88
495.79	102.88
496.008	97.88
496.225	106.88
496.442	109.88
496.66	117.88
496.877	98.88
497.094	103.88
497.312	94.88
497.529	112.88
497.746	92.88
497.963	100.88
498.181	115.88
498.398	101.88
498.615	104.88
498.832	100.88
499.049	110.88
499.267	126.88
499.484	94.88
499.701	103.88
499.918	115.88
500.135	127.88
500.352	114.88
500.569	119.88
500.786	129.88
501.003	120.88
501.22	114.88
501.437	111.88
501.654	106.88
501.871	107.88
502.088	111.88
502.305	124.88
502.522	90.88
502.739	108.88
502.956	107.88
503.172	103.88
503.389	106.88
503.606	109.88
503.823	103.88
504.04	111.88
504.256	98.88
504.473	102.88
504.69	91.88
504.907	106.88
505.123	109.88
505.34	113.88
505.557	93.88
505.773	118.88
505.99	98.88
506.207	105.88
506.423	93.88
506.64	106.88
506.856	91.88
507.073	95.88
507.289	91.88
507.506	105.88
507.722	93.88
507.939	110.88
508.155	105.88
508.372	88.88
508.588	94.88
508.805	85.88
509.021	93.88
509.238	83.88
509.454	98.88
509.67	82.88
509.887	100.88
510.103	91.88
510.319	90.88
510.536	95.88
510.752	94.88
510.968	95.88
511.184	98.88
511.401	108.88
511.617	108.88
511.833	93.88
512.049	108.88
512.265	102.88
512.481	100.88
512.698	106.88
512.914	86.88
513.13	87.88
513.346	98.88
513.562	99.88
513.778	86.88
513.994	105.88
514.21	90.88
514.426	104.88
514.642	93.88
514.858	91.88
515.074	100.88
515.29	92.88
515.506	90.88
515.721	101.88
515.937	91.88
516.153	106.88
516.369	104.88
516.585	105.88
516.801	93.88
517.016	98.88
517.232	96.88
517.448	106.88
517.664	90.88
517.879	93.88
518.095	87.88
518.311	110.88
518.527	97.88
518.742	102.88
518.958	95.88
519.173	83.88
519.389	106.88
519.605	85.88
519.82	106.88
520.036	88.88
520.251	85.88
520.467	90.88
520.682	80.88
520.898	97.88
521.113	92.88
521.329	107.88
521.544	102.88
521.76	91.88
521.975	87.88
522.19	94.88
522.406	107.88
522.621	94.88
522.836	104.88
523.052	96.88
523.267	87.88
523.482	98.88
523.698	87.88
523.913	95.88
524.128	107.88
524.343	105.88
524.559	92.88
524.774	93.88
524.989	89.88
525.204	95.88
525.419	83.88
525.634	94.88
525.849	88.88
526.064	110.88
526.28	107.88
526.495	94.88
526.71	94.88
526.925	97.88
527.14	96.88
527.355	91.88
527.57	87.88
527.785	103.88
527.999	110.88
528.214	88.88
528.429	76.88
528.644	98.88
528.859	92.88
529.074	107.88
529.289	89.88
529.503	91.88
529.718	93.88
529.933	104.88
530.148	100.88
530.363	95.88
530.577	88.88
530.792	79.88
531.007	102.88
531.221	91.88
531.436	96.88
531.651	98.88
531.865	90.88
532.08	107.88
532.295	100.88
532.509	88.88
532.724	82.88
532.938	105.88
533.153	92.88
533.367	93.88
533.582	104.88
533.796	104.88
534.011	101.88
534.225	87.88
534.44	96.88
534.654	83.88
534.868	93.88
535.083	102.88
535.297	101.88
535.511	101.88
535.726	100.88
535.94	98.88
536.154	95.88
536.369	98.88
536.583	95.88
536.797	89.88
537.011	92.88
537.225	105.88
537.44	94.88
537.654	84.88
537.868	92.88
538.082	78.88
538.296	96.88
538.51	112.88
538.724	74.88
538.938	90.88
539.153	99.88
539.367	102.88
539.581	88.88
539.795	91.88
540.009	88.88
540.222	106.88
540.436	89.88
540.65	101.88
540.864	100.88
541.078	95.88
541.292	89.88
541.506	104.88
541.72	100.88
541.934	111.88
542.147	103.88
542.361	104.88
542.575	96.88
542.789	101.88
543.002	95.88
543.216	105.88
543.43	91.88
543.644	104.88
543.857	84.88
544.071	83.88
544.285	89.88
544.498	99.88
544.712	108.88
544.925	103.88
545.139	98.88
545.352	94.88
545.566	93.88
545.779	86.88
545.993	99.88
546.206	77.88
546.42	104.88
546.633	98.88
546.847	88.88
547.06	99.88
547.274	88.88
547.487	96.88
547.7	111.88
547.914	99.88
548.127	96.88
548.34	100.88
548.554	96.88
548.767	101.88
548.98	98.88
549.193	88.88
549.407	100.88
549.62	103.88
549.833	83.88
550.046	95.88
550.259	95.88
550.473	96.88
550.686	94.88
550.899	97.88
551.112	102.88
551.325	97.88
551.538	83.88
551.751	78.88
551.964	100.88
552.177	99.88
552.39	102.88
552.603	94.88
552.816	93.88
553.029	73.88
553.242	95.88
553.455	91.88
553.667	83.88
553.88	85.88
554.093	99.88
554.306	101.88
554.519	85.88
554.732	82.88
554.944	87.88
555.157	90.88
555.37	92.88
555.583	94.88
555.795	117.88
556.008	98.88
556.221	100.88
556.433	88.88
556.646	88.88
556.859	85.88
557.071	90.88
557.284	99.88
557.496	87.88
557.709	92.88
557.921	83.88
558.134	86.88
558.346	103.88
558.559	84.88
558.771	80.88
558.984	88.88
559.196	78.88
559.409	91.88
559.621	103.88
559.833	90.88
560.046	82.88
560.258	80.88
560.47	101.88
560.683	103.88
560.895	99.88
561.107	96.88
561.32	84.88
561.532	97.88
561.744	83.88
561.956	95.88
562.168	76.88
562.381	95.88
562.593	92.88
562.805	95.88
563.017	95.88
563.229	91.88
563.441	115.88
563.653	98.88
563.865	99.88
564.077	75.88
564.289	92.88
564.501	92.88
564.713	84.88
564.925	79.88
565.137	93.88
565.349	96.88
565.561	96.88
565.773	91.88
565.985	78.88
566.197	94.88
566.408	72.88
566.62	99.88
566.832	92.88
567.044	90.88
567.255	109.88
567.467	102.88
567.679	96.88
567.891	89.88
568.102	109.88
568.314	91.88
568.526	110.88
568.737	105.88
568.949	90.88
569.161	80.88
569.372	91.88
569.584	108.88
569.795	87.88
570.007	78.88
570.218	91.88
570.43	102.88
570.641	101.88
570.853	103.88
571.064	90.88
571.276	81.88
571.487	85.88
571.698	91.88
571.91	109.88
572.121	104.88
572.333	86.88
572.544	82.88
572.755	87.88
572.966	94.88
573.178	104.88
573.389	88.88
573.6	92.88
573.811	93.88
574.023	79.88
574.234	79.88
574.445	95.88
574.656	87.88
574.867	84.88
575.078	90.88
575.289	88.88
575.501	82.88
575.712	107.88
575.923	82.88
576.134	71.88
576.345	82.88
576.556	99.88
576.767	85.88
576.978	96.88
577.188	88.88
577.399	83.88
577.61	93.88
577.821	90.88
578.032	76.88
578.243	90.88
578.454	99.88
578.665	86.88
578.875	85.88
579.086	95.88
579.297	96.88
579.508	77.88
579.718	106.88
579.929	104.88
580.14	75.88
580.35	92.88
580.561	87.88
580.772	100.88
580.982	80.88
581.193	93.88
581.403	78.88
581.614	107.88
581.825	96.88
582.035	74.88
582.246	94.88
582.456	87.88
582.667	87.88
582.877	107.88
583.087	80.88
583.298	94.88
583.508	93.88
583.719	78.88
583.929	103.88
584.139	103.88
584.35	84.88
584.56	92.88
584.77	79.88
584.981	68.88
585.191	66.88
585.401	104.88
585.611	102.88
585.821	89.88
586.032	92.88
586.242	84.88
586.452	99.88
586.662	82.88
586.872	86.88
587.082	80.88
587.292	80.88
587.502	81.88
587.713	73.88
587.923	103.88
588.133	94.88
588.343	89.88
588.553	82.88
588.762	91.88
588.972	83.88
589.182	93.88
589.392	90.88
589.602	82.88
589.812	83.88
590.022	95.88
590.232	106.88
590.441	86.88
590.651	96.88
590.861	92.88
591.071	92.88
591.281	86.88
591.49	77.88
591.7	79.88
591.91	90.88
592.119	90.88
592.329	85.88
592.539	90.88
592.748	91.88
592.958	93.88
593.167	95.88
593.377	87.88
593.587	80.88
593.796	89.88
594.006	93.88
594.215	87.88
594.424	88.88
594.634	89.88
594.843	91.88
595.053	98.88
595.262	95.88
595.472	91.88
595.681	81.88
595.89	102.88
596.1	84.88
596.309	85.88
596.518	89.88
596.727	79.88
596.937	91.88
597.146	94.88
597.355	84.88
597.564	81.88
597.774	96.88
597.983	89.88
598.192	69.88
598.401	74.88
598.61	85.88
598.819	80.88
599.028	88.88
599.237	92.88
599.446	86.88
599.655	87.88
599.864	82.88
600.073	81.88
600.282	92.88
600.491	90.88
600.7	81.88
600.909	89.88
601.118	82.88
601.327	91.88
601.536	84.88
601.745	94.88
601.953	84.88
602.162	94.88
602.371	96.88
602.58	87.88
602.789	84.88
602.997	85.88
603.206	78.88
603.415	82.88
603.623	85.88
603.832	79.88
604.041	84.88
604.249	92.88
604.458	90.88
604.666	80.88
604.875	79.88
605.084	87.88
605.292	86.88
605.501	80.88
605.709	91.88
605.918	74.88
606.126	83.88
606.334	84.88
606.543	99.88
606.751	92.88
606.96	91.88
607.168	72.88
607.376	90.88
607.585	90.88
607.793	90.88
608.001	94.88
608.21	88.88
608.418	87.88
608.626	91.88
608.834	80.88
609.043	83.88
609.251	82.88
609.459	90.88
609.667	95.88
609.875	98.88
610.083	86.88
610.291	69.88
610.499	91.88
610.707	89.88
610.916	97.88
611.124	83.88
611.332	84.88
611.54	87.88
611.748	101.88
611.955	94.88
612.163	104.88
612.371	92.88
612.579	91.88
612.787	70.88
612.995	90.88
613.203	110.88
613.411	84.88
613.618	84.88
613.826	85.88
614.034	78.88
614.242	90.88
614.449	92.88
614.657	88.88
614.865	78.88
615.072	86.88
615.28	90.88
615.488	102.88
615.695	98.88
615.903	89.88
616.111	84.88
616.318	88.88
616.526	88.88
616.733	65.88
616.941	78.88
617.148	96.88
617.356	90.88
617.563	85.88
617.771	77.88
617.978	91.88
618.185	87.88
618.393	90.88
618.6	83.88
618.807	92.88
619.015	82.88
619.222	96.88
619.429	88.88
619.637	85.88
619.844	79.88
620.051	92.88
620.258	85.88
620.466	83.88
620.673	87.88
620.88	86.88
621.087	76.88
621.294	96.88
621.501	73.88
621.708	88.88
621.915	84.88
622.122	75.88
622.329	83.88
622.536	77.88
622.743	84.88
622.95	106.88
623.157	91.88
623.364	92.88
623.571	90.88
623.778	93.88
623.985	79.88
624.192	103.88
624.399	82.88
624.606	84.88
624.812	80.88
625.019	93.88
625.226	86.88
625.433	85.88
625.639	82.88
625.846	91.88
626.053	82.88
626.259	99.88
626.466	87.88
626.673	81.88
626.879	74.88
627.086	80.88
627.293	95.88
627.499	79.88
627.706	85.88
627.912	103.88
628.119	92.88
628.325	87.88
628.532	83.88
628.738	85.88
628.945	90.88
629.151	81.88
629.357	90.88
629.564	91.88
629.77	79.88
629.976	92.88
630.183	77.88
630.389	76.88
630.595	84.88
630.802	93.88
631.008	94.88
631.214	71.88
631.42	95.88
631.627	87.88
631.833	87.88
632.039	82.88
632.245	94.88
632.451	75.88
632.657	94.88
632.863	83.88
633.069	86.88
633.275	87.88
633.481	92.88
633.688	80.88
633.893	79.88
634.099	72.88
634.305	94.88
634.511	91.88
634.717	88.88
634.923	67.88
635.129	83.88
635.335	87.88
635.541	92.88
635.747	85.88
635.952	70.88
636.158	75.88
636.364	88.88
636.57	86.88
636.775	87.88
636.981	78.88
637.187	74.88
637.392	89.88
637.598	91.88
637.804	78.88
638.009	87.88
638.215	87.88
638.421	90.88
638.626	94.88
638.832	75.88
639.037	93.88
639.243	103.88
639.448	100.88
639.654	84.88
639.859	98.88
640.065	73.88
640.27	83.88
640.475	91.88
640.681	95.88
640.886	85.88
641.091	73.88
641.297	95.88
641.502	78.88
641.707	88.88
641.913	80.88
642.118	88.88
642.323	103.88
642.528	82.88
642.733	96.88
642.939	89.88
643.144	94.88
643.349	77.88
643.554	103.88
643.759	83.88
643.964	94.88
644.169	86.88
644.374	91.88
644.579	91.88
644.784	87.88
644.989	94.88
645.194	94.88
645.399	96.88
645.604	94.88
645.809	87.88
646.014	93.88
646.219	77.88
646.423	81.88
646.628	89.88
646.833	84.88
647.038	90.88
647.243	87.88
647.447	78.88
647.652	91.88
647.857	84.88
648.062	89.88
648.266	78.88
648.471	81.88
648.676	89.88
648.88	82.88
649.085	91.88
649.289	82.88
649.494	97.88
649.698	86.88
649.903	86.88
650.107	83.88
650.312	86.88
650.516	74.88
650.721	91.88
650.925	83.88
651.13	79.88
651.334	79.88
651.539	93.88
651.743	78.88
651.947	79.88
652.152	83.88
652.356	87.88
652.56	88.88
652.764	76.88
652.969	76.88
653.173	92.88
653.377	97.88
653.581	80.88
653.785	90.88
653.99	84.88
654.194	75.88
654.398	82.88
654.602	86.88
654.806	90.88
655.01	90.88
655.214	80.88
655.418	85.88
655.622	94.88
655.826	91.88
656.03	99.88
656.234	87.88
656.438	83.88
656.642	95.88
656.846	94.88
657.049	74.88
657.253	80.88
657.457	101.88
657.661	84.88
657.865	96.88
658.068	79.88
658.272	88.88
658.476	86.88
658.68	69.88
658.883	77.88
659.087	91.88
659.291	92.88
659.494	80.88
659.698	78.88
659.901	78.88
660.105	68.88
660.309	75.88
660.512	63.88
660.716	79.88
660.919	89.88
661.123	95.88
661.326	90.88
661.53	84.88
661.733	75.88
661.936	72.88
662.14	94.88
662.343	87.88
662.546	86.88
662.75	95.88
662.953	96.88
663.156	82.88
663.36	71.88
663.563	75.88
663.766	80.88
663.969	80.88
664.173	74.88
664.376	78.88
664.579	83.88
664.782	79.88
664.985	76.88
665.188	94.88
665.391	77.88
665.594	75.88
665.797	79.88
666	83.88
666.203	77.88
666.406	89.88
666.609	84.88
666.812	83.88
667.015	88.88
667.218	107.88
667.421	88.88
667.624	92.88
667.827	96.88
668.03	95.88
668.232	82.88
668.435	81.88
668.638	76.88
668.841	81.88
669.043	81.88
669.246	86.88
669.449	84.88
669.651	87.88
669.854	72.88
670.057	78.88
670.259	80.88
670.462	89.88
670.665	95.88
670.867	82.88
671.07	74.88
671.272	74.88
671.475	94.88
671.677	100.88
671.88	98.88
672.082	88.88
672.284	73.88
672.487	92.88
672.689	93.88
672.892	89.88
