Data from Ni(NO3)2@0.25M.TitratingCurve.Agarose3%dH2O.NegLispCup.LampEnergy10.LIBS07252019_HRD10591_18-04-25-566.txt Node
Date: Thu Jul 25 18:04:25 EDT 2019
User: cochatt
Spectrometer: HR+D1059
Trigger mode: 1
Integration Time (sec): 1.000000E-1
Scans to average: 1
Electric dark correction enabled: true
Nonlinearity correction enabled: false
Boxcar width: 0
XAxis mode: Wavelengths
Number of Pixels in Spectrum: 2048
>>>>>Begin Spectral Data<<<<<
223.165	-16.31
223.4	-16.31
223.635	-16.31
223.869	-18.31
224.104	-21.31
224.338	-26.31
224.573	-4.31
224.808	-18.31
225.042	-2.31
225.277	-2.31
225.511	0.69
225.746	14.69
225.98	10.69
226.215	8.69
226.449	16.69
226.683	14.69
226.918	18.69
227.152	24.69
227.387	38.69
227.621	27.69
227.856	55.69
228.09	37.69
228.324	41.69
228.559	40.69
228.793	63.69
229.027	99.69
229.262	101.69
229.496	106.69
229.73	109.69
229.964	102.69
230.199	120.69
230.433	122.69
230.667	142.69
230.901	128.69
231.136	115.69
231.37	124.69
231.604	131.69
231.838	128.69
232.072	142.69
232.306	124.69
232.541	120.69
232.775	127.69
233.009	132.69
233.243	132.69
233.477	138.69
233.711	123.69
233.945	132.69
234.179	135.69
234.413	152.69
234.647	124.69
234.881	118.69
235.115	132.69
235.349	132.69
235.583	135.69
235.817	131.69
236.051	125.69
236.285	120.69
236.519	137.69
236.753	129.69
236.987	144.69
237.221	142.69
237.455	136.69
237.689	134.69
237.922	147.69
238.156	132.69
238.39	141.69
238.624	140.69
238.858	123.69
239.091	136.69
239.325	149.69
239.559	151.69
239.793	154.69
240.027	157.69
240.26	137.69
240.494	142.69
240.728	135.69
240.961	140.69
241.195	150.69
241.429	160.69
241.662	157.69
241.896	171.69
242.13	162.69
242.363	146.69
242.597	151.69
242.83	163.69
243.064	172.69
243.298	166.69
243.531	162.69
243.765	176.69
243.998	180.69
244.232	173.69
244.465	168.69
244.699	174.69
244.932	195.69
245.166	167.69
245.399	182.69
245.633	190.69
245.866	196.69
246.099	200.69
246.333	193.69
246.566	168.69
246.8	179.69
247.033	182.69
247.266	199.69
247.5	190.69
247.733	172.69
247.966	192.69
248.2	197.69
248.433	194.69
248.666	200.69
248.899	189.69
249.133	184.69
249.366	193.69
249.599	208.69
249.832	220.69
250.066	239.69
250.299	224.69
250.532	212.69
250.765	217.69
250.998	226.69
251.231	221.69
251.465	226.69
251.698	237.69
251.931	217.69
252.164	218.69
252.397	230.69
252.63	229.69
252.863	234.69
253.096	242.69
253.329	241.69
253.562	233.69
253.795	242.69
254.028	243.69
254.261	253.69
254.494	238.69
254.727	256.69
254.96	244.69
255.193	239.69
255.426	253.69
255.659	232.69
255.892	258.69
256.124	248.69
256.357	254.69
256.59	261.69
256.823	257.69
257.056	269.69
257.289	273.69
257.521	279.69
257.754	273.69
257.987	269.69
258.22	249.69
258.452	276.69
258.685	265.69
258.918	292.69
259.151	280.69
259.383	276.69
259.616	279.69
259.849	272.69
260.081	279.69
260.314	282.69
260.547	309.69
260.779	286.69
261.012	287.69
261.244	292.69
261.477	294.69
261.71	286.69
261.942	300.69
262.175	300.69
262.407	301.69
262.64	291.69
262.872	300.69
263.105	295.69
263.337	302.69
263.57	302.69
263.802	311.69
264.035	319.69
264.267	309.69
264.499	309.69
264.732	310.69
264.964	302.69
265.197	303.69
265.429	314.69
265.661	324.69
265.894	337.69
266.126	330.69
266.358	317.69
266.591	312.69
266.823	316.69
267.055	312.69
267.287	292.69
267.52	302.69
267.752	304.69
267.984	317.69
268.216	326.69
268.448	340.69
268.681	334.69
268.913	340.69
269.145	340.69
269.377	328.69
269.609	331.69
269.841	323.69
270.073	353.69
270.306	334.69
270.538	329.69
270.77	345.69
271.002	344.69
271.234	344.69
271.466	349.69
271.698	336.69
271.93	339.69
272.162	328.69
272.394	334.69
272.626	334.69
272.858	359.69
273.09	371.69
273.322	349.69
273.553	357.69
273.785	351.69
274.017	351.69
274.249	345.69
274.481	361.69
274.713	364.69
274.945	370.69
275.176	367.69
275.408	373.69
275.64	368.69
275.872	364.69
276.104	343.69
276.335	368.69
276.567	380.69
276.799	360.69
277.031	374.69
277.262	374.69
277.494	362.69
277.726	378.69
277.957	384.69
278.189	375.69
278.421	372.69
278.652	395.69
278.884	382.69
279.115	380.69
279.347	384.69
279.579	387.69
279.81	375.69
280.042	405.69
280.273	377.69
280.505	376.69
280.736	391.69
280.968	412.69
281.199	398.69
281.431	406.69
281.662	400.69
281.894	405.69
282.125	400.69
282.356	395.69
282.588	404.69
282.819	396.69
283.051	412.69
283.282	401.69
283.513	412.69
283.745	418.69
283.976	406.69
284.207	422.69
284.439	415.69
284.67	437.69
284.901	410.69
285.132	432.69
285.364	432.69
285.595	408.69
285.826	405.69
286.057	417.69
286.288	440.69
286.52	422.69
286.751	438.69
286.982	426.69
287.213	425.69
287.444	450.69
287.675	444.69
287.906	440.69
288.138	422.69
288.369	421.69
288.6	409.69
288.831	446.69
289.062	440.69
289.293	452.69
289.524	448.69
289.755	442.69
289.986	446.69
290.217	425.69
290.448	448.69
290.679	464.69
290.91	456.69
291.141	442.69
291.371	430.69
291.602	436.69
291.833	434.69
292.064	448.69
292.295	463.69
292.526	440.69
292.757	438.69
292.987	435.69
293.218	424.69
293.449	458.69
293.68	445.69
293.91	454.69
294.141	450.69
294.372	442.69
294.603	431.69
294.833	443.69
295.064	462.69
295.295	443.69
295.525	456.69
295.756	448.69
295.987	451.69
296.217	451.69
296.448	461.69
296.679	451.69
296.909	452.69
297.14	462.69
297.37	494.69
297.601	480.69
297.831	455.69
298.062	479.69
298.292	498.69
298.523	482.69
298.753	498.69
298.984	505.69
299.214	494.69
299.445	481.69
299.675	478.69
299.905	478.69
300.136	485.69
300.366	498.69
300.597	507.69
300.827	526.69
301.057	512.69
301.288	497.69
301.518	512.69
301.748	498.69
301.979	513.69
302.209	505.69
302.439	526.69
302.669	497.69
302.9	502.69
303.13	505.69
303.36	485.69
303.59	520.69
303.82	520.69
304.051	538.69
304.281	512.69
304.511	522.69
304.741	521.69
304.971	511.69
305.201	522.69
305.431	539.69
305.661	508.69
305.891	489.69
306.121	522.69
306.352	492.69
306.582	517.69
306.812	500.69
307.042	488.69
307.272	497.69
307.502	482.69
307.731	527.69
307.961	518.69
308.191	502.69
308.421	503.69
308.651	494.69
308.881	496.69
309.111	521.69
309.341	504.69
309.571	533.69
309.8	516.69
310.03	532.69
310.26	530.69
310.49	529.69
310.72	505.69
310.949	520.69
311.179	514.69
311.409	520.69
311.639	545.69
311.868	526.69
312.098	536.69
312.328	548.69
312.557	543.69
312.787	548.69
313.017	549.69
313.246	554.69
313.476	543.69
313.706	551.69
313.935	526.69
314.165	568.69
314.394	545.69
314.624	553.69
314.853	538.69
315.083	564.69
315.312	554.69
315.542	547.69
315.771	548.69
316.001	559.69
316.23	537.69
316.46	566.69
316.689	566.69
316.919	549.69
317.148	568.69
317.377	560.69
317.607	561.69
317.836	538.69
318.065	549.69
318.295	586.69
318.524	569.69
318.753	569.69
318.983	545.69
319.212	554.69
319.441	565.69
319.67	565.69
319.9	587.69
320.129	583.69
320.358	582.69
320.587	546.69
320.816	580.69
321.046	590.69
321.275	604.69
321.504	600.69
321.733	584.69
321.962	578.69
322.191	588.69
322.42	618.69
322.649	589.69
322.878	591.69
323.108	609.69
323.337	625.69
323.566	595.69
323.795	613.69
324.024	634.69
324.253	626.69
324.482	620.69
324.71	621.69
324.939	644.69
325.168	622.69
325.397	642.69
325.626	618.69
325.855	644.69
326.084	645.69
326.313	644.69
326.542	651.69
326.77	662.69
326.999	653.69
327.228	653.69
327.457	670.69
327.686	658.69
327.914	662.69
328.143	646.69
328.372	671.69
328.6	684.69
328.829	662.69
329.058	654.69
329.287	662.69
329.515	677.69
329.744	682.69
329.972	682.69
330.201	658.69
330.43	690.69
330.658	693.69
330.887	712.69
331.115	704.69
331.344	680.69
331.572	702.69
331.801	726.69
332.03	735.69
332.258	738.69
332.486	791.69
332.715	753.69
332.943	792.69
333.172	813.69
333.4	822.69
333.629	840.69
333.857	858.69
334.085	853.69
334.314	867.69
334.542	840.69
334.771	853.69
334.999	850.69
335.227	872.69
335.455	851.69
335.684	846.69
335.912	845.69
336.14	843.69
336.369	872.69
336.597	865.69
336.825	873.69
337.053	863.69
337.281	849.69
337.51	823.69
337.738	776.69
337.966	777.69
338.194	798.69
338.422	794.69
338.65	771.69
338.878	768.69
339.106	760.69
339.334	749.69
339.562	763.69
339.79	754.69
340.018	724.69
340.246	732.69
340.474	769.69
340.702	727.69
340.93	753.69
341.158	770.69
341.386	763.69
341.614	772.69
341.842	752.69
342.07	697.69
342.298	734.69
342.526	732.69
342.754	733.69
342.981	752.69
343.209	759.69
343.437	798.69
343.665	820.69
343.893	825.69
344.12	828.69
344.348	824.69
344.576	842.69
344.804	841.69
345.031	779.69
345.259	780.69
345.487	749.69
345.714	753.69
345.942	736.69
346.17	760.69
346.397	753.69
346.625	745.69
346.853	696.69
347.08	724.69
347.308	720.69
347.535	729.69
347.763	733.69
347.99	719.69
348.218	719.69
348.445	709.69
348.673	720.69
348.9	710.69
349.128	699.69
349.355	730.69
349.583	720.69
349.81	720.69
350.037	701.69
350.265	697.69
350.492	688.69
350.72	678.69
350.947	686.69
351.174	722.69
351.402	725.69
351.629	727.69
351.856	708.69
352.083	702.69
352.311	727.69
352.538	708.69
352.765	733.69
352.992	696.69
353.22	688.69
353.447	678.69
353.674	672.69
353.901	679.69
354.128	662.69
354.355	682.69
354.583	699.69
354.81	692.69
355.037	677.69
355.264	662.69
355.491	663.69
355.718	686.69
355.945	688.69
356.172	675.69
356.399	697.69
356.626	695.69
356.853	709.69
357.08	713.69
357.307	706.69
357.534	668.69
357.761	680.69
357.988	675.69
358.215	695.69
358.441	675.69
358.668	692.69
358.895	709.69
359.122	694.69
359.349	676.69
359.576	675.69
359.802	675.69
360.029	701.69
360.256	688.69
360.483	707.69
360.709	693.69
360.936	704.69
361.163	696.69
361.39	670.69
361.616	695.69
361.843	688.69
362.07	744.69
362.296	705.69
362.523	694.69
362.749	693.69
362.976	695.69
363.203	679.69
363.429	672.69
363.656	692.69
363.882	692.69
364.109	674.69
364.335	692.69
364.562	686.69
364.788	677.69
365.015	678.69
365.241	681.69
365.468	709.69
365.694	685.69
365.92	658.69
366.147	668.69
366.373	700.69
366.599	669.69
366.826	668.69
367.052	701.69
367.278	691.69
367.505	686.69
367.731	673.69
367.957	700.69
368.184	656.69
368.41	672.69
368.636	692.69
368.862	681.69
369.089	704.69
369.315	706.69
369.541	701.69
369.767	713.69
369.993	705.69
370.219	714.69
370.445	713.69
370.672	713.69
370.898	709.69
371.124	700.69
371.35	752.69
371.576	719.69
371.802	724.69
372.028	712.69
372.254	737.69
372.48	743.69
372.706	758.69
372.932	751.69
373.158	758.69
373.384	742.69
373.61	731.69
373.835	766.69
374.061	722.69
374.287	737.69
374.513	776.69
374.739	782.69
374.965	758.69
375.191	796.69
375.416	804.69
375.642	745.69
375.868	774.69
376.094	750.69
376.319	715.69
376.545	741.69
376.771	728.69
376.997	732.69
377.222	741.69
377.448	704.69
377.674	710.69
377.899	704.69
378.125	727.69
378.35	729.69
378.576	719.69
378.802	698.69
379.027	713.69
379.253	722.69
379.478	698.69
379.704	707.69
379.929	694.69
380.155	738.69
380.38	710.69
380.606	729.69
380.831	702.69
381.057	738.69
381.282	704.69
381.507	725.69
381.733	710.69
381.958	710.69
382.184	698.69
382.409	717.69
382.634	713.69
382.86	751.69
383.085	732.69
383.31	759.69
383.535	742.69
383.761	764.69
383.986	774.69
384.211	808.69
384.436	790.69
384.662	796.69
384.887	789.69
385.112	796.69
385.337	821.69
385.562	827.69
385.787	820.69
386.013	863.69
386.238	857.69
386.463	816.69
386.688	840.69
386.913	837.69
387.138	821.69
387.363	870.69
387.588	823.69
387.813	840.69
388.038	814.69
388.263	833.69
388.488	838.69
388.713	825.69
388.938	836.69
389.163	828.69
389.387	852.69
389.612	860.69
389.837	848.69
390.062	829.69
390.287	831.69
390.512	818.69
390.736	834.69
390.961	871.69
391.186	853.69
391.411	886.69
391.636	901.69
391.86	883.69
392.085	925.69
392.31	908.69
392.534	932.69
392.759	940.69
392.984	920.69
393.208	877.69
393.433	908.69
393.658	894.69
393.882	907.69
394.107	892.69
394.331	888.69
394.556	887.69
394.78	910.69
395.005	906.69
395.229	915.69
395.454	910.69
395.678	914.69
395.903	922.69
396.127	941.69
396.352	916.69
396.576	898.69
396.801	906.69
397.025	922.69
397.249	958.69
397.474	953.69
397.698	977.69
397.922	960.69
398.147	953.69
398.371	981.69
398.595	1017.69
398.82	1040.69
399.044	1079.69
399.268	1160.69
399.492	1239.69
399.717	1346.69
399.941	1362.69
400.165	1285.69
400.389	1222.69
400.613	1180.69
400.837	1113.69
401.062	1104.69
401.286	1086.69
401.51	1060.69
401.734	1038.69
401.958	1088.69
402.182	1041.69
402.406	1054.69
402.63	1062.69
402.854	1114.69
403.078	1052.69
403.302	1083.69
403.526	1085.69
403.75	1134.69
403.974	1126.69
404.198	1095.69
404.422	1141.69
404.645	1161.69
404.869	1076.69
405.093	1134.69
405.317	1111.69
405.541	1124.69
405.765	1135.69
405.988	1114.69
406.212	1154.69
406.436	1180.69
406.66	1161.69
406.883	1171.69
407.107	1203.69
407.331	1261.69
407.555	1342.69
407.778	1281.69
408.002	1279.69
408.226	1261.69
408.449	1250.69
408.673	1206.69
408.896	1184.69
409.12	1218.69
409.344	1180.69
409.567	1166.69
409.791	1176.69
410.014	1169.69
410.238	1162.69
410.461	1160.69
410.685	1175.69
410.908	1120.69
411.132	1133.69
411.355	1097.69
411.578	1106.69
411.802	1113.69
412.025	1128.69
412.249	1160.69
412.472	1106.69
412.695	1100.69
412.919	1099.69
413.142	1091.69
413.365	1107.69
413.589	1094.69
413.812	1082.69
414.035	1055.69
414.258	1070.69
414.482	1072.69
414.705	1101.69
414.928	1090.69
415.151	1108.69
415.374	1085.69
415.597	1058.69
415.821	1080.69
416.044	1068.69
416.267	1054.69
416.49	1045.69
416.713	1038.69
416.936	1082.69
417.159	1039.69
417.382	1040.69
417.605	1034.69
417.828	1035.69
418.051	1068.69
418.274	1052.69
418.497	1040.69
418.72	1068.69
418.943	1078.69
419.166	1128.69
419.389	1182.69
419.611	1200.69
419.834	1138.69
420.057	1103.69
420.28	1078.69
420.503	1049.69
420.726	1030.69
420.948	1036.69
421.171	1056.69
421.394	1063.69
421.617	1042.69
421.839	1061.69
422.062	1070.69
422.285	1042.69
422.507	1065.69
422.73	1063.69
422.953	1056.69
423.175	1046.69
423.398	1065.69
423.621	1079.69
423.843	1077.69
424.066	1077.69
424.288	1075.69
424.511	1072.69
424.733	1085.69
424.956	1038.69
425.178	1068.69
425.401	1086.69
425.623	1054.69
425.846	1047.69
426.068	1040.69
426.291	1025.69
426.513	1030.69
426.735	1049.69
426.958	1040.69
427.18	996.69
427.402	1018.69
427.625	1031.69
427.847	996.69
428.069	999.69
428.292	966.69
428.514	990.69
428.736	1014.69
428.958	988.69
429.181	975.69
429.403	978.69
429.625	1007.69
429.847	1006.69
430.069	988.69
430.292	1014.69
430.514	966.69
430.736	971.69
430.958	981.69
431.18	1015.69
431.402	1007.69
431.624	977.69
431.846	986.69
432.068	999.69
432.29	970.69
432.512	1004.69
432.734	1021.69
432.956	1007.69
433.178	998.69
433.4	1024.69
433.622	1031.69
433.844	1030.69
434.066	1021.69
434.287	1020.69
434.509	1042.69
434.731	1055.69
434.953	1083.69
435.175	1089.69
435.397	1064.69
435.618	1034.69
435.84	1041.69
436.062	1017.69
436.284	1009.69
436.505	1024.69
436.727	995.69
436.949	992.69
437.17	1018.69
437.392	995.69
437.614	984.69
437.835	975.69
438.057	973.69
438.278	975.69
438.5	964.69
438.721	959.69
438.943	969.69
439.165	983.69
439.386	975.69
439.608	972.69
439.829	990.69
440.05	1006.69
440.272	1024.69
440.493	1039.69
440.715	1026.69
440.936	1027.69
441.158	1052.69
441.379	1069.69
441.6	1125.69
441.822	1094.69
442.043	1078.69
442.264	1080.69
442.486	1066.69
442.707	1125.69
442.928	1073.69
443.149	1068.69
443.371	1058.69
443.592	1066.69
443.813	1133.69
444.034	1089.69
444.255	1144.69
444.476	1161.69
444.698	1174.69
444.919	1210.69
445.14	1294.69
445.361	1189.69
445.582	1140.69
445.803	1092.69
446.024	1057.69
446.245	1056.69
446.466	1054.69
446.687	989.69
446.908	1039.69
447.129	1016.69
447.35	960.69
447.571	988.69
447.792	986.69
448.013	970.69
448.234	962.69
448.455	948.69
448.675	937.69
448.896	954.69
449.117	913.69
449.338	961.69
449.559	919.69
449.779	894.69
450	917.69
450.221	934.69
450.442	952.69
450.662	935.69
450.883	934.69
451.104	955.69
451.324	940.69
451.545	915.69
451.766	949.69
451.986	912.69
452.207	903.69
452.428	929.69
452.648	916.69
452.869	898.69
453.089	910.69
453.31	893.69
453.53	899.69
453.751	889.69
453.971	869.69
454.192	898.69
454.412	872.69
454.633	883.69
454.853	884.69
455.073	877.69
455.294	880.69
455.514	873.69
455.734	858.69
455.955	855.69
456.175	873.69
456.395	864.69
456.616	874.69
456.836	879.69
457.056	844.69
457.276	848.69
457.497	885.69
457.717	883.69
457.937	868.69
458.157	904.69
458.377	938.69
458.598	921.69
458.818	929.69
459.038	949.69
459.258	976.69
459.478	1008.69
459.698	1018.69
459.918	1049.69
460.138	1095.69
460.358	1092.69
460.578	1119.69
460.798	1113.69
461.018	1140.69
461.238	1120.69
461.458	1148.69
461.678	1117.69
461.898	1151.69
462.118	1183.69
462.338	1199.69
462.558	1264.69
462.777	1267.69
462.997	1353.69
463.217	1379.69
463.437	1375.69
463.657	1350.69
463.876	1342.69
464.096	1332.69
464.316	1300.69
464.536	1287.69
464.755	1238.69
464.975	1233.69
465.195	1141.69
465.414	1112.69
465.634	1057.69
465.854	1054.69
466.073	1038.69
466.293	1012.69
466.512	1006.69
466.732	978.69
466.951	997.69
467.171	997.69
467.391	995.69
467.61	980.69
467.829	971.69
468.049	956.69
468.268	964.69
468.488	943.69
468.707	941.69
468.927	933.69
469.146	942.69
469.365	953.69
469.585	967.69
469.804	958.69
470.023	1006.69
470.243	971.69
470.462	966.69
470.681	992.69
470.901	977.69
471.12	978.69
471.339	977.69
471.558	974.69
471.777	981.69
471.997	952.69
472.216	942.69
472.435	916.69
472.654	937.69
472.873	909.69
473.092	933.69
473.311	926.69
473.53	934.69
473.749	928.69
473.968	914.69
474.187	916.69
474.406	926.69
474.625	878.69
474.844	959.69
475.063	921.69
475.282	932.69
475.501	950.69
475.72	956.69
475.939	942.69
476.158	952.69
476.377	974.69
476.596	972.69
476.814	962.69
477.033	982.69
477.252	983.69
477.471	1025.69
477.69	1010.69
477.908	1025.69
478.127	1073.69
478.346	1070.69
478.564	1091.69
478.783	1097.69
479.002	1111.69
479.22	1150.69
479.439	1120.69
479.658	1108.69
479.876	1100.69
480.095	1112.69
480.313	1156.69
480.532	1147.69
480.751	1132.69
480.969	1112.69
481.188	1108.69
481.406	1082.69
481.624	1063.69
481.843	1090.69
482.061	1078.69
482.28	1054.69
482.498	1070.69
482.717	1056.69
482.935	1033.69
483.153	1056.69
483.372	1080.69
483.59	1104.69
483.808	1085.69
484.027	1060.69
484.245	1048.69
484.463	1102.69
484.681	1080.69
484.9	1091.69
485.118	1106.69
485.336	1090.69
485.554	1108.69
485.772	1109.69
485.99	1107.69
486.209	1113.69
486.427	1090.69
486.645	1103.69
486.863	1110.69
487.081	1123.69
487.299	1104.69
487.517	1105.69
487.735	1133.69
487.953	1116.69
488.171	1099.69
488.389	1099.69
488.607	1084.69
488.825	1072.69
489.043	1086.69
489.261	1096.69
489.479	1056.69
489.696	1085.69
489.914	1084.69
490.132	1110.69
490.35	1106.69
490.568	1161.69
490.786	1112.69
491.003	1136.69
491.221	1140.69
491.439	1131.69
491.657	1132.69
491.874	1142.69
492.092	1165.69
492.31	1141.69
492.527	1143.69
492.745	1194.69
492.963	1176.69
493.18	1176.69
493.398	1156.69
493.615	1184.69
493.833	1158.69
494.05	1171.69
494.268	1187.69
494.485	1203.69
494.703	1196.69
494.92	1204.69
495.138	1218.69
495.355	1189.69
495.573	1234.69
495.79	1253.69
496.008	1247.69
496.225	1220.69
496.442	1258.69
496.66	1272.69
496.877	1311.69
497.094	1285.69
497.312	1333.69
497.529	1342.69
497.746	1400.69
497.963	1412.69
498.181	1479.69
498.398	1520.69
498.615	1571.69
498.832	1680.69
499.049	1750.69
499.267	1852.69
499.484	1987.69
499.701	2122.69
499.918	2302.69
500.135	2425.69
500.352	2590.69
500.569	2658.69
500.786	2642.69
501.003	2581.69
501.22	2432.69
501.437	2210.69
501.654	2070.69
501.871	1972.69
502.088	1876.69
502.305	1768.69
502.522	1674.69
502.739	1606.69
502.956	1492.69
503.172	1502.69
503.389	1442.69
503.606	1419.69
503.823	1373.69
504.04	1356.69
504.256	1360.69
504.473	1335.69
504.69	1368.69
504.907	1331.69
505.123	1237.69
505.34	1244.69
505.557	1214.69
505.773	1157.69
505.99	1192.69
506.207	1156.69
506.423	1167.69
506.64	1122.69
506.856	1079.69
507.073	1064.69
507.289	1058.69
507.506	1075.69
507.722	1046.69
507.939	1064.69
508.155	1047.69
508.372	1064.69
508.588	1008.69
508.805	999.69
509.021	1004.69
509.238	969.69
509.454	976.69
509.67	969.69
509.887	993.69
510.103	954.69
510.319	962.69
510.536	925.69
510.752	954.69
510.968	979.69
511.184	929.69
511.401	962.69
511.617	961.69
511.833	973.69
512.049	938.69
512.265	938.69
512.481	948.69
512.698	944.69
512.914	955.69
513.13	922.69
513.346	948.69
513.562	950.69
513.778	952.69
513.994	965.69
514.21	946.69
514.426	952.69
514.642	966.69
514.858	971.69
515.074	1013.69
515.29	1005.69
515.506	997.69
515.721	1019.69
515.937	1017.69
516.153	1034.69
516.369	1052.69
516.585	1072.69
516.801	1106.69
517.016	1111.69
517.232	1151.69
517.448	1142.69
517.664	1189.69
517.879	1160.69
518.095	1205.69
518.311	1180.69
518.527	1151.69
518.742	1138.69
518.958	1104.69
519.173	1070.69
519.389	1039.69
519.605	1049.69
519.82	1021.69
520.036	1001.69
520.251	1000.69
520.467	981.69
520.682	950.69
520.898	915.69
521.113	955.69
521.329	947.69
521.544	926.69
521.76	915.69
521.975	928.69
522.19	898.69
522.406	903.69
522.621	920.69
522.836	882.69
523.052	905.69
523.267	896.69
523.482	891.69
523.698	889.69
523.913	893.69
524.128	898.69
524.343	884.69
524.559	909.69
524.774	869.69
524.989	860.69
525.204	869.69
525.419	905.69
525.634	848.69
525.849	862.69
526.064	852.69
526.28	873.69
526.495	848.69
526.71	864.69
526.925	863.69
527.14	808.69
527.355	843.69
527.57	881.69
527.785	853.69
527.999	802.69
528.214	843.69
528.429	830.69
528.644	863.69
528.859	854.69
529.074	881.69
529.289	868.69
529.503	871.69
529.718	872.69
529.933	849.69
530.148	840.69
530.363	840.69
530.577	859.69
530.792	824.69
531.007	846.69
531.221	839.69
531.436	814.69
531.651	829.69
531.865	853.69
532.08	840.69
532.295	834.69
532.509	836.69
532.724	814.69
532.938	855.69
533.153	833.69
533.367	844.69
533.582	857.69
533.796	818.69
534.011	817.69
534.225	791.69
534.44	820.69
534.654	838.69
534.868	830.69
535.083	817.69
535.297	814.69
535.511	822.69
535.726	816.69
535.94	824.69
536.154	798.69
536.369	793.69
536.583	792.69
536.797	799.69
537.011	774.69
537.225	763.69
537.44	779.69
537.654	790.69
537.868	786.69
538.082	773.69
538.296	791.69
538.51	786.69
538.724	784.69
538.938	775.69
539.153	766.69
539.367	778.69
539.581	784.69
539.795	760.69
540.009	748.69
540.222	749.69
540.436	751.69
540.65	737.69
540.864	773.69
541.078	778.69
541.292	784.69
541.506	774.69
541.72	768.69
541.934	788.69
542.147	798.69
542.361	776.69
542.575	784.69
542.789	764.69
543.002	761.69
543.216	748.69
543.43	740.69
543.644	748.69
543.857	743.69
544.071	742.69
544.285	770.69
544.498	770.69
544.712	754.69
544.925	784.69
545.139	785.69
545.352	800.69
545.566	770.69
545.779	786.69
545.993	793.69
546.206	784.69
546.42	784.69
546.633	772.69
546.847	765.69
547.06	778.69
547.274	785.69
547.487	800.69
547.7	800.69
547.914	783.69
548.127	796.69
548.34	753.69
548.554	782.69
548.767	773.69
548.98	776.69
549.193	803.69
549.407	789.69
549.62	793.69
549.833	798.69
550.046	779.69
550.259	762.69
550.473	800.69
550.686	777.69
550.899	769.69
551.112	785.69
551.325	766.69
551.538	757.69
551.751	748.69
551.964	759.69
552.177	772.69
552.39	779.69
552.603	784.69
552.816	809.69
553.029	839.69
553.242	836.69
553.455	846.69
553.667	822.69
553.88	801.69
554.093	777.69
554.306	778.69
554.519	777.69
554.732	766.69
554.944	753.69
555.157	752.69
555.37	736.69
555.583	725.69
555.795	730.69
556.008	724.69
556.221	704.69
556.433	708.69
556.646	712.69
556.859	677.69
557.071	698.69
557.284	686.69
557.496	670.69
557.709	674.69
557.921	668.69
558.134	657.69
558.346	662.69
558.559	651.69
558.771	656.69
558.984	655.69
559.196	645.69
559.409	634.69
559.621	655.69
559.833	640.69
560.046	640.69
560.258	632.69
560.47	645.69
560.683	620.69
560.895	642.69
561.107	644.69
561.32	650.69
561.532	642.69
561.744	640.69
561.956	650.69
562.168	654.69
562.381	649.69
562.593	667.69
562.805	665.69
563.017	650.69
563.229	640.69
563.441	636.69
563.653	647.69
563.865	651.69
564.077	676.69
564.289	679.69
564.501	682.69
564.713	692.69
564.925	702.69
565.137	712.69
565.349	713.69
565.561	774.69
565.773	785.69
565.985	778.69
566.197	783.69
566.408	810.69
566.62	886.69
566.832	879.69
567.044	920.69
567.255	924.69
567.467	937.69
567.679	979.69
567.891	961.69
568.102	958.69
568.314	941.69
568.526	866.69
568.737	851.69
568.949	815.69
569.161	750.69
569.372	717.69
569.584	726.69
569.795	686.69
570.007	697.69
570.218	655.69
570.43	672.69
570.641	644.69
570.853	651.69
571.064	637.69
571.276	634.69
571.487	640.69
571.698	610.69
571.91	606.69
572.121	573.69
572.333	593.69
572.544	569.69
572.755	578.69
572.966	560.69
573.178	553.69
573.389	546.69
573.6	519.69
573.811	547.69
574.023	524.69
574.234	530.69
574.445	497.69
574.656	515.69
574.867	528.69
575.078	519.69
575.289	514.69
575.501	521.69
575.712	510.69
575.923	503.69
576.134	494.69
576.345	496.69
576.556	501.69
576.767	494.69
576.978	481.69
577.188	493.69
577.399	478.69
577.61	492.69
577.821	468.69
578.032	469.69
578.243	495.69
578.454	469.69
578.665	487.69
578.875	472.69
579.086	470.69
579.297	489.69
579.508	478.69
579.718	464.69
579.929	478.69
580.14	462.69
580.35	433.69
580.561	459.69
580.772	432.69
580.982	470.69
581.193	439.69
581.403	432.69
581.614	452.69
581.825	442.69
582.035	468.69
582.246	445.69
582.456	435.69
582.667	437.69
582.877	432.69
583.087	422.69
583.298	433.69
583.508	436.69
583.719	421.69
583.929	440.69
584.139	410.69
584.35	436.69
584.56	434.69
584.77	426.69
584.981	421.69
585.191	416.69
585.401	440.69
585.611	421.69
585.821	422.69
586.032	421.69
586.242	432.69
586.452	430.69
586.662	432.69
586.872	421.69
587.082	425.69
587.292	401.69
587.502	416.69
587.713	409.69
587.923	409.69
588.133	448.69
588.343	423.69
588.553	435.69
588.762	417.69
588.972	436.69
589.182	445.69
589.392	431.69
589.602	434.69
589.812	434.69
590.022	423.69
590.232	429.69
590.441	412.69
590.651	416.69
590.861	425.69
591.071	446.69
591.281	416.69
591.49	446.69
591.7	445.69
591.91	464.69
592.119	453.69
592.329	469.69
592.539	445.69
592.748	489.69
592.958	468.69
593.167	457.69
593.377	481.69
593.587	482.69
593.796	457.69
594.006	472.69
594.215	471.69
594.424	476.69
594.634	462.69
594.843	469.69
595.053	440.69
595.262	462.69
595.472	440.69
595.681	417.69
595.89	408.69
596.1	404.69
596.309	403.69
596.518	398.69
596.727	407.69
596.937	388.69
597.146	394.69
597.355	386.69
597.564	378.69
597.774	378.69
597.983	369.69
598.192	376.69
598.401	371.69
598.61	368.69
598.819	373.69
599.028	376.69
599.237	359.69
599.446	369.69
599.655	352.69
599.864	341.69
600.073	348.69
600.282	356.69
600.491	345.69
600.7	348.69
600.909	345.69
601.118	341.69
601.327	343.69
601.536	340.69
601.745	340.69
601.953	358.69
602.162	355.69
602.371	325.69
602.58	331.69
602.789	359.69
602.997	342.69
603.206	332.69
603.415	361.69
603.623	346.69
603.832	343.69
604.041	318.69
604.249	324.69
604.458	323.69
604.666	316.69
604.875	326.69
605.084	334.69
605.292	316.69
605.501	331.69
605.709	310.69
605.918	340.69
606.126	328.69
606.334	325.69
606.543	327.69
606.751	335.69
606.96	325.69
607.168	308.69
607.376	311.69
607.585	316.69
607.793	308.69
608.001	326.69
608.21	308.69
608.418	307.69
608.626	308.69
608.834	311.69
609.043	309.69
609.251	306.69
609.459	319.69
609.667	317.69
609.875	307.69
610.083	309.69
610.291	308.69
610.499	329.69
610.707	299.69
610.916	305.69
611.124	307.69
611.332	304.69
611.54	313.69
611.748	319.69
611.955	308.69
612.163	304.69
612.371	309.69
612.579	330.69
612.787	303.69
612.995	298.69
613.203	318.69
613.411	290.69
613.618	309.69
613.826	321.69
614.034	316.69
614.242	295.69
614.449	286.69
614.657	293.69
614.865	278.69
615.072	307.69
615.28	315.69
615.488	305.69
615.695	291.69
615.903	297.69
616.111	289.69
616.318	306.69
616.526	300.69
616.733	282.69
616.941	269.69
617.148	281.69
617.356	280.69
617.563	289.69
617.771	302.69
617.978	289.69
618.185	304.69
618.393	283.69
618.6	295.69
618.807	279.69
619.015	312.69
619.222	303.69
619.429	308.69
619.637	288.69
619.844	288.69
620.051	275.69
620.258	264.69
620.466	251.69
620.673	258.69
620.88	278.69
621.087	267.69
621.294	272.69
621.501	292.69
621.708	278.69
621.915	274.69
622.122	257.69
622.329	263.69
622.536	286.69
622.743	295.69
622.95	274.69
623.157	250.69
623.364	262.69
623.571	265.69
623.778	260.69
623.985	257.69
624.192	266.69
624.399	248.69
624.606	281.69
624.812	282.69
625.019	263.69
625.226	265.69
625.433	262.69
625.639	262.69
625.846	247.69
626.053	265.69
626.259	233.69
626.466	261.69
626.673	248.69
626.879	252.69
627.086	250.69
627.293	257.69
627.499	253.69
627.706	256.69
627.912	259.69
628.119	250.69
628.325	252.69
628.532	266.69
628.738	240.69
628.945	253.69
629.151	258.69
629.357	249.69
629.564	234.69
629.77	241.69
629.976	254.69
630.183	224.69
630.389	260.69
630.595	244.69
630.802	234.69
631.008	226.69
631.214	247.69
631.42	227.69
631.627	223.69
631.833	228.69
632.039	225.69
632.245	220.69
632.451	245.69
632.657	228.69
632.863	231.69
633.069	207.69
633.275	215.69
633.481	216.69
633.688	238.69
633.893	229.69
634.099	227.69
634.305	226.69
634.511	226.69
634.717	215.69
634.923	210.69
635.129	211.69
635.335	217.69
635.541	216.69
635.747	210.69
635.952	209.69
636.158	215.69
636.364	216.69
636.57	194.69
636.775	209.69
636.981	223.69
637.187	217.69
637.392	212.69
637.598	208.69
637.804	220.69
638.009	199.69
638.215	220.69
638.421	211.69
638.626	201.69
638.832	202.69
639.037	211.69
639.243	215.69
639.448	224.69
639.654	225.69
639.859	209.69
640.065	208.69
640.27	213.69
640.475	206.69
640.681	196.69
640.886	197.69
641.091	197.69
641.297	202.69
641.502	205.69
641.707	201.69
641.913	217.69
642.118	202.69
642.323	196.69
642.528	194.69
642.733	207.69
642.939	202.69
643.144	211.69
643.349	209.69
643.554	211.69
643.759	197.69
643.964	195.69
644.169	216.69
644.374	195.69
644.579	196.69
644.784	194.69
644.989	190.69
645.194	197.69
645.399	186.69
645.604	194.69
645.809	197.69
646.014	196.69
646.219	197.69
646.423	193.69
646.628	206.69
646.833	213.69
647.038	202.69
647.243	200.69
647.447	198.69
647.652	188.69
647.857	190.69
648.062	198.69
648.266	202.69
648.471	190.69
648.676	198.69
648.88	208.69
649.085	196.69
649.289	202.69
649.494	193.69
649.698	181.69
649.903	204.69
650.107	195.69
650.312	215.69
650.516	195.69
650.721	184.69
650.925	168.69
651.13	169.69
651.334	180.69
651.539	180.69
651.743	174.69
651.947	169.69
652.152	174.69
652.356	172.69
652.56	170.69
652.764	179.69
652.969	153.69
653.173	169.69
653.377	154.69
653.581	159.69
653.785	176.69
653.99	149.69
654.194	152.69
654.398	149.69
654.602	141.69
654.806	153.69
655.01	149.69
655.214	141.69
655.418	141.69
655.622	155.69
655.826	154.69
656.03	150.69
656.234	145.69
656.438	139.69
656.642	147.69
656.846	146.69
657.049	132.69
657.253	129.69
657.457	136.69
657.661	126.69
657.865	132.69
658.068	109.69
658.272	119.69
658.476	109.69
658.68	116.69
658.883	127.69
659.087	110.69
659.291	112.69
659.494	103.69
659.698	99.69
659.901	125.69
660.105	92.69
660.309	105.69
660.512	93.69
660.716	88.69
660.919	86.69
661.123	108.69
661.326	98.69
661.53	82.69
661.733	92.69
661.936	82.69
662.14	79.69
662.343	87.69
662.546	82.69
662.75	89.69
662.953	79.69
663.156	91.69
663.36	85.69
663.563	89.69
663.766	81.69
663.969	70.69
664.173	74.69
664.376	69.69
664.579	92.69
664.782	74.69
664.985	72.69
665.188	93.69
665.391	77.69
665.594	70.69
665.797	76.69
666	74.69
666.203	67.69
666.406	69.69
666.609	79.69
666.812	80.69
667.015	79.69
667.218	83.69
667.421	82.69
667.624	73.69
667.827	63.69
668.03	77.69
668.232	76.69
668.435	74.69
668.638	75.69
668.841	72.69
669.043	81.69
669.246	76.69
669.449	79.69
669.651	98.69
669.854	74.69
670.057	73.69
670.259	64.69
670.462	77.69
670.665	81.69
670.867	72.69
671.07	81.69
671.272	68.69
671.475	87.69
671.677	84.69
671.88	71.69
672.082	78.69
672.284	64.69
672.487	77.69
672.689	81.69
672.892	75.69
