Data from Ni(NO3)2@0.125M.TitratingCurve.Agarose3%dH2O.NegLispCup.LampEnergy10.LIBS07252019_HRD10591_18-10-00-567.txt Node
Date: Thu Jul 25 18:10:00 EDT 2019
User: cochatt
Spectrometer: HR+D1059
Trigger mode: 1
Integration Time (sec): 1.000000E-1
Scans to average: 1
Electric dark correction enabled: true
Nonlinearity correction enabled: false
Boxcar width: 0
XAxis mode: Wavelengths
Number of Pixels in Spectrum: 2048
>>>>>Begin Spectral Data<<<<<
223.165	-23.44
223.4	-23.44
223.635	-23.44
223.869	-10.44
224.104	-27.44
224.338	-11.44
224.573	-21.44
224.808	-18.44
225.042	2.56
225.277	-10.44
225.511	-18.44
225.746	8.56
225.98	16.56
226.215	3.56
226.449	25.56
226.683	24.56
226.918	28.56
227.152	31.56
227.387	26.56
227.621	33.56
227.856	38.56
228.09	54.56
228.324	64.56
228.559	58.56
228.793	67.56
229.027	98.56
229.262	127.56
229.496	122.56
229.73	136.56
229.964	136.56
230.199	135.56
230.433	119.56
230.667	129.56
230.901	137.56
231.136	141.56
231.37	140.56
231.604	158.56
231.838	148.56
232.072	159.56
232.306	154.56
232.541	152.56
232.775	140.56
233.009	153.56
233.243	158.56
233.477	160.56
233.711	150.56
233.945	159.56
234.179	159.56
234.413	153.56
234.647	152.56
234.881	161.56
235.115	160.56
235.349	158.56
235.583	172.56
235.817	157.56
236.051	185.56
236.285	153.56
236.519	163.56
236.753	174.56
236.987	157.56
237.221	159.56
237.455	177.56
237.689	170.56
237.922	162.56
238.156	181.56
238.39	172.56
238.624	177.56
238.858	169.56
239.091	162.56
239.325	181.56
239.559	176.56
239.793	168.56
240.027	180.56
240.26	181.56
240.494	181.56
240.728	183.56
240.961	193.56
241.195	183.56
241.429	201.56
241.662	205.56
241.896	208.56
242.13	215.56
242.363	186.56
242.597	197.56
242.83	200.56
243.064	196.56
243.298	211.56
243.531	194.56
243.765	224.56
243.998	218.56
244.232	219.56
244.465	229.56
244.699	212.56
244.932	228.56
245.166	233.56
245.399	235.56
245.633	228.56
245.866	231.56
246.099	254.56
246.333	230.56
246.566	247.56
246.8	230.56
247.033	244.56
247.266	225.56
247.5	240.56
247.733	239.56
247.966	249.56
248.2	240.56
248.433	248.56
248.666	245.56
248.899	239.56
249.133	235.56
249.366	253.56
249.599	262.56
249.832	267.56
250.066	258.56
250.299	261.56
250.532	272.56
250.765	268.56
250.998	277.56
251.231	277.56
251.465	261.56
251.698	276.56
251.931	292.56
252.164	283.56
252.397	275.56
252.63	300.56
252.863	294.56
253.096	307.56
253.329	294.56
253.562	297.56
253.795	277.56
254.028	297.56
254.261	298.56
254.494	313.56
254.727	281.56
254.96	281.56
255.193	296.56
255.426	300.56
255.659	286.56
255.892	305.56
256.124	303.56
256.357	302.56
256.59	313.56
256.823	325.56
257.056	312.56
257.289	303.56
257.521	312.56
257.754	326.56
257.987	331.56
258.22	326.56
258.452	328.56
258.685	316.56
258.918	321.56
259.151	325.56
259.383	335.56
259.616	332.56
259.849	349.56
260.081	330.56
260.314	333.56
260.547	333.56
260.779	334.56
261.012	347.56
261.244	330.56
261.477	336.56
261.71	343.56
261.942	348.56
262.175	341.56
262.407	337.56
262.64	327.56
262.872	376.56
263.105	355.56
263.337	346.56
263.57	347.56
263.802	373.56
264.035	363.56
264.267	366.56
264.499	350.56
264.732	353.56
264.964	361.56
265.197	379.56
265.429	390.56
265.661	389.56
265.894	361.56
266.126	376.56
266.358	363.56
266.591	388.56
266.823	376.56
267.055	380.56
267.287	394.56
267.52	360.56
267.752	384.56
267.984	379.56
268.216	401.56
268.448	413.56
268.681	389.56
268.913	385.56
269.145	399.56
269.377	382.56
269.609	380.56
269.841	395.56
270.073	422.56
270.306	390.56
270.538	400.56
270.77	390.56
271.002	422.56
271.234	412.56
271.466	402.56
271.698	423.56
271.93	405.56
272.162	417.56
272.394	434.56
272.626	406.56
272.858	425.56
273.09	411.56
273.322	429.56
273.553	422.56
273.785	426.56
274.017	413.56
274.249	421.56
274.481	413.56
274.713	412.56
274.945	442.56
275.176	440.56
275.408	426.56
275.64	444.56
275.872	432.56
276.104	425.56
276.335	440.56
276.567	443.56
276.799	434.56
277.031	445.56
277.262	445.56
277.494	445.56
277.726	444.56
277.957	446.56
278.189	458.56
278.421	458.56
278.652	459.56
278.884	490.56
279.115	472.56
279.347	473.56
279.579	478.56
279.81	464.56
280.042	471.56
280.273	469.56
280.505	481.56
280.736	489.56
280.968	471.56
281.199	463.56
281.431	479.56
281.662	484.56
281.894	491.56
282.125	482.56
282.356	492.56
282.588	484.56
282.819	481.56
283.051	510.56
283.282	507.56
283.513	492.56
283.745	489.56
283.976	500.56
284.207	489.56
284.439	490.56
284.67	485.56
284.901	520.56
285.132	505.56
285.364	526.56
285.595	521.56
285.826	532.56
286.057	518.56
286.288	513.56
286.52	528.56
286.751	527.56
286.982	521.56
287.213	520.56
287.444	516.56
287.675	530.56
287.906	539.56
288.138	535.56
288.369	530.56
288.6	536.56
288.831	532.56
289.062	546.56
289.293	552.56
289.524	508.56
289.755	554.56
289.986	546.56
290.217	572.56
290.448	558.56
290.679	539.56
290.91	555.56
291.141	552.56
291.371	575.56
291.602	573.56
291.833	560.56
292.064	545.56
292.295	540.56
292.526	570.56
292.757	556.56
292.987	559.56
293.218	552.56
293.449	577.56
293.68	581.56
293.91	556.56
294.141	580.56
294.372	580.56
294.603	550.56
294.833	568.56
295.064	573.56
295.295	574.56
295.525	565.56
295.756	560.56
295.987	572.56
296.217	571.56
296.448	562.56
296.679	552.56
296.909	575.56
297.14	596.56
297.37	598.56
297.601	599.56
297.831	575.56
298.062	603.56
298.292	608.56
298.523	623.56
298.753	628.56
298.984	612.56
299.214	599.56
299.445	578.56
299.675	606.56
299.905	604.56
300.136	597.56
300.366	615.56
300.597	621.56
300.827	613.56
301.057	637.56
301.288	621.56
301.518	615.56
301.748	641.56
301.979	644.56
302.209	642.56
302.439	618.56
302.669	633.56
302.9	613.56
303.13	614.56
303.36	615.56
303.59	618.56
303.82	624.56
304.051	616.56
304.281	625.56
304.511	615.56
304.741	638.56
304.971	636.56
305.201	615.56
305.431	610.56
305.661	634.56
305.891	652.56
306.121	636.56
306.352	620.56
306.582	607.56
306.812	613.56
307.042	613.56
307.272	621.56
307.502	607.56
307.731	617.56
307.961	609.56
308.191	589.56
308.421	593.56
308.651	638.56
308.881	586.56
309.111	614.56
309.341	597.56
309.571	616.56
309.8	613.56
310.03	590.56
310.26	598.56
310.49	599.56
310.72	599.56
310.949	619.56
311.179	611.56
311.409	604.56
311.639	630.56
311.868	635.56
312.098	621.56
312.328	628.56
312.557	636.56
312.787	646.56
313.017	617.56
313.246	656.56
313.476	649.56
313.706	664.56
313.935	658.56
314.165	667.56
314.394	645.56
314.624	647.56
314.853	645.56
315.083	681.56
315.312	664.56
315.542	641.56
315.771	646.56
316.001	670.56
316.23	618.56
316.46	662.56
316.689	662.56
316.919	667.56
317.148	650.56
317.377	646.56
317.607	632.56
317.836	620.56
318.065	632.56
318.295	664.56
318.524	637.56
318.753	615.56
318.983	635.56
319.212	630.56
319.441	621.56
319.67	640.56
319.9	631.56
320.129	625.56
320.358	650.56
320.587	638.56
320.816	634.56
321.046	641.56
321.275	654.56
321.504	661.56
321.733	650.56
321.962	648.56
322.191	637.56
322.42	660.56
322.649	643.56
322.878	662.56
323.108	648.56
323.337	670.56
323.566	676.56
323.795	673.56
324.024	684.56
324.253	670.56
324.482	660.56
324.71	670.56
324.939	674.56
325.168	654.56
325.397	670.56
325.626	694.56
325.855	674.56
326.084	701.56
326.313	711.56
326.542	689.56
326.77	696.56
326.999	681.56
327.228	709.56
327.457	695.56
327.686	695.56
327.914	720.56
328.143	717.56
328.372	718.56
328.6	714.56
328.829	701.56
329.058	718.56
329.287	701.56
329.515	709.56
329.744	723.56
329.972	719.56
330.201	709.56
330.43	706.56
330.658	733.56
330.887	756.56
331.115	742.56
331.344	737.56
331.572	758.56
331.801	795.56
332.03	789.56
332.258	794.56
332.486	823.56
332.715	868.56
332.943	863.56
333.172	918.56
333.4	930.56
333.629	969.56
333.857	982.56
334.085	976.56
334.314	931.56
334.542	920.56
334.771	897.56
334.999	893.56
335.227	902.56
335.455	902.56
335.684	895.56
335.912	857.56
336.14	886.56
336.369	880.56
336.597	887.56
336.825	874.56
337.053	861.56
337.281	834.56
337.51	838.56
337.738	816.56
337.966	802.56
338.194	790.56
338.422	797.56
338.65	808.56
338.878	776.56
339.106	784.56
339.334	790.56
339.562	753.56
339.79	775.56
340.018	753.56
340.246	746.56
340.474	749.56
340.702	743.56
340.93	763.56
341.158	744.56
341.386	757.56
341.614	754.56
341.842	768.56
342.07	757.56
342.298	746.56
342.526	735.56
342.754	738.56
342.981	764.56
343.209	795.56
343.437	814.56
343.665	842.56
343.893	893.56
344.12	956.56
344.348	902.56
344.576	852.56
344.804	826.56
345.031	819.56
345.259	777.56
345.487	765.56
345.714	761.56
345.942	741.56
346.17	731.56
346.397	730.56
346.625	739.56
346.853	736.56
347.08	773.56
347.308	741.56
347.535	736.56
347.763	748.56
347.99	741.56
348.218	749.56
348.445	742.56
348.673	700.56
348.9	722.56
349.128	738.56
349.355	745.56
349.583	740.56
349.81	727.56
350.037	735.56
350.265	721.56
350.492	729.56
350.72	709.56
350.947	709.56
351.174	671.56
351.402	709.56
351.629	702.56
351.856	730.56
352.083	705.56
352.311	722.56
352.538	696.56
352.765	705.56
352.992	725.56
353.22	708.56
353.447	672.56
353.674	696.56
353.901	664.56
354.128	684.56
354.355	702.56
354.583	719.56
354.81	734.56
355.037	710.56
355.264	715.56
355.491	677.56
355.718	700.56
355.945	732.56
356.172	702.56
356.399	694.56
356.626	713.56
356.853	701.56
357.08	706.56
357.307	700.56
357.534	677.56
357.761	694.56
357.988	710.56
358.215	703.56
358.441	696.56
358.668	693.56
358.895	681.56
359.122	682.56
359.349	716.56
359.576	680.56
359.802	710.56
360.029	721.56
360.256	708.56
360.483	703.56
360.709	686.56
360.936	699.56
361.163	696.56
361.39	712.56
361.616	694.56
361.843	699.56
362.07	699.56
362.296	689.56
362.523	701.56
362.749	700.56
362.976	682.56
363.203	686.56
363.429	696.56
363.656	684.56
363.882	698.56
364.109	701.56
364.335	675.56
364.562	682.56
364.788	679.56
365.015	685.56
365.241	701.56
365.468	700.56
365.694	686.56
365.92	696.56
366.147	695.56
366.373	686.56
366.599	710.56
366.826	690.56
367.052	702.56
367.278	686.56
367.505	707.56
367.731	701.56
367.957	693.56
368.184	701.56
368.41	713.56
368.636	677.56
368.862	682.56
369.089	707.56
369.315	716.56
369.541	716.56
369.767	710.56
369.993	699.56
370.219	724.56
370.445	762.56
370.672	772.56
370.898	741.56
371.124	774.56
371.35	763.56
371.576	757.56
371.802	756.56
372.028	749.56
372.254	760.56
372.48	777.56
372.706	781.56
372.932	802.56
373.158	785.56
373.384	789.56
373.61	760.56
373.835	754.56
374.061	756.56
374.287	759.56
374.513	770.56
374.739	793.56
374.965	853.56
375.191	848.56
375.416	844.56
375.642	857.56
375.868	844.56
376.094	804.56
376.319	806.56
376.545	779.56
376.771	776.56
376.997	780.56
377.222	773.56
377.448	772.56
377.674	756.56
377.899	758.56
378.125	745.56
378.35	741.56
378.576	759.56
378.802	769.56
379.027	742.56
379.253	757.56
379.478	743.56
379.704	758.56
379.929	745.56
380.155	738.56
380.38	720.56
380.606	742.56
380.831	744.56
381.057	777.56
381.282	769.56
381.507	783.56
381.733	780.56
381.958	774.56
382.184	762.56
382.409	785.56
382.634	803.56
382.86	827.56
383.085	818.56
383.31	815.56
383.535	836.56
383.761	853.56
383.986	872.56
384.211	856.56
384.436	877.56
384.662	876.56
384.887	908.56
385.112	912.56
385.337	922.56
385.562	921.56
385.787	909.56
386.013	913.56
386.238	933.56
386.463	925.56
386.688	936.56
386.913	896.56
387.138	894.56
387.363	893.56
387.588	864.56
387.813	920.56
388.038	922.56
388.263	899.56
388.488	907.56
388.713	921.56
388.938	887.56
389.163	889.56
389.387	905.56
389.612	890.56
389.837	877.56
390.062	872.56
390.287	906.56
390.512	884.56
390.736	906.56
390.961	909.56
391.186	933.56
391.411	956.56
391.636	984.56
391.86	1015.56
392.085	1060.56
392.31	1032.56
392.534	1000.56
392.759	978.56
392.984	979.56
393.208	958.56
393.433	940.56
393.658	967.56
393.882	971.56
394.107	986.56
394.331	958.56
394.556	964.56
394.78	946.56
395.005	999.56
395.229	995.56
395.454	993.56
395.678	1053.56
395.903	1017.56
396.127	1013.56
396.352	957.56
396.576	961.56
396.801	949.56
397.025	960.56
397.249	977.56
397.474	1011.56
397.698	1022.56
397.922	994.56
398.147	988.56
398.371	1057.56
398.595	1056.56
398.82	1119.56
399.044	1173.56
399.268	1316.56
399.492	1526.56
399.717	1766.56
399.941	1798.56
400.165	1552.56
400.389	1409.56
400.613	1244.56
400.837	1199.56
401.062	1164.56
401.286	1168.56
401.51	1122.56
401.734	1133.56
401.958	1123.56
402.182	1181.56
402.406	1162.56
402.63	1192.56
402.854	1193.56
403.078	1215.56
403.302	1263.56
403.526	1296.56
403.75	1307.56
403.974	1354.56
404.198	1333.56
404.422	1340.56
404.645	1357.56
404.869	1332.56
405.093	1311.56
405.317	1307.56
405.541	1274.56
405.765	1250.56
405.988	1230.56
406.212	1233.56
406.436	1238.56
406.66	1247.56
406.883	1316.56
407.107	1350.56
407.331	1445.56
407.555	1489.56
407.778	1484.56
408.002	1438.56
408.226	1409.56
408.449	1382.56
408.673	1316.56
408.896	1284.56
409.12	1278.56
409.344	1307.56
409.567	1302.56
409.791	1350.56
410.014	1326.56
410.238	1330.56
410.461	1294.56
410.685	1265.56
410.908	1249.56
411.132	1247.56
411.355	1199.56
411.578	1183.56
411.802	1115.56
412.025	1179.56
412.249	1199.56
412.472	1210.56
412.695	1186.56
412.919	1155.56
413.142	1133.56
413.365	1126.56
413.589	1172.56
413.812	1152.56
414.035	1165.56
414.258	1154.56
414.482	1136.56
414.705	1158.56
414.928	1164.56
415.151	1171.56
415.374	1129.56
415.597	1144.56
415.821	1103.56
416.044	1109.56
416.267	1118.56
416.49	1113.56
416.713	1116.56
416.936	1146.56
417.159	1104.56
417.382	1131.56
417.605	1109.56
417.828	1142.56
418.051	1125.56
418.274	1133.56
418.497	1110.56
418.72	1180.56
418.943	1173.56
419.166	1225.56
419.389	1316.56
419.611	1277.56
419.834	1222.56
420.057	1184.56
420.28	1144.56
420.503	1102.56
420.726	1107.56
420.948	1128.56
421.171	1125.56
421.394	1155.56
421.617	1122.56
421.839	1140.56
422.062	1174.56
422.285	1170.56
422.507	1189.56
422.73	1158.56
422.953	1188.56
423.175	1213.56
423.398	1197.56
423.621	1231.56
423.843	1263.56
424.066	1233.56
424.288	1210.56
424.511	1247.56
424.733	1201.56
424.956	1202.56
425.178	1169.56
425.401	1164.56
425.623	1143.56
425.846	1119.56
426.068	1096.56
426.291	1110.56
426.513	1106.56
426.735	1064.56
426.958	1062.56
427.18	1047.56
427.402	1068.56
427.625	1022.56
427.847	1050.56
428.069	1041.56
428.292	1033.56
428.514	1008.56
428.736	1024.56
428.958	1027.56
429.181	983.56
429.403	990.56
429.625	983.56
429.847	975.56
430.069	952.56
430.292	1019.56
430.514	986.56
430.736	996.56
430.958	994.56
431.18	980.56
431.402	1024.56
431.624	1000.56
431.846	1002.56
432.068	1026.56
432.29	1060.56
432.512	1033.56
432.734	1000.56
432.956	1002.56
433.178	1075.56
433.4	1052.56
433.622	1015.56
433.844	1044.56
434.066	1029.56
434.287	1043.56
434.509	1082.56
434.731	1118.56
434.953	1172.56
435.175	1154.56
435.397	1137.56
435.618	1112.56
435.84	1093.56
436.062	1052.56
436.284	1048.56
436.505	1019.56
436.727	1030.56
436.949	1039.56
437.17	1017.56
437.392	1013.56
437.614	991.56
437.835	988.56
438.057	998.56
438.278	960.56
438.5	980.56
438.721	988.56
438.943	997.56
439.165	986.56
439.386	1007.56
439.608	1036.56
439.829	1032.56
440.05	1025.56
440.272	1028.56
440.493	994.56
440.715	1062.56
440.936	1068.56
441.158	1074.56
441.379	1083.56
441.6	1142.56
441.822	1152.56
442.043	1169.56
442.264	1141.56
442.486	1110.56
442.707	1156.56
442.928	1094.56
443.149	1154.56
443.371	1154.56
443.592	1173.56
443.813	1181.56
444.034	1186.56
444.255	1201.56
444.476	1245.56
444.698	1340.56
444.919	1416.56
445.14	1453.56
445.361	1273.56
445.582	1199.56
445.803	1123.56
446.024	1080.56
446.245	1093.56
446.466	1074.56
446.687	1041.56
446.908	1018.56
447.129	1028.56
447.35	972.56
447.571	1010.56
447.792	968.56
448.013	992.56
448.234	943.56
448.455	936.56
448.675	941.56
448.896	942.56
449.117	909.56
449.338	938.56
449.559	925.56
449.779	958.56
450	915.56
450.221	948.56
450.442	959.56
450.662	970.56
450.883	967.56
451.104	985.56
451.324	996.56
451.545	968.56
451.766	964.56
451.986	959.56
452.207	944.56
452.428	965.56
452.648	946.56
452.869	944.56
453.089	951.56
453.31	951.56
453.53	925.56
453.751	960.56
453.971	901.56
454.192	898.56
454.412	872.56
454.633	906.56
454.853	901.56
455.073	860.56
455.294	902.56
455.514	890.56
455.734	908.56
455.955	870.56
456.175	869.56
456.395	873.56
456.616	868.56
456.836	866.56
457.056	896.56
457.276	856.56
457.497	908.56
457.717	890.56
457.937	895.56
458.157	884.56
458.377	905.56
458.598	940.56
458.818	934.56
459.038	964.56
459.258	991.56
459.478	1039.56
459.698	1081.56
459.918	1110.56
460.138	1105.56
460.358	1193.56
460.578	1244.56
460.798	1224.56
461.018	1258.56
461.238	1174.56
461.458	1208.56
461.678	1213.56
461.898	1208.56
462.118	1210.56
462.338	1271.56
462.558	1350.56
462.777	1373.56
462.997	1519.56
463.217	1654.56
463.437	1722.56
463.657	1537.56
463.876	1450.56
464.096	1447.56
464.316	1406.56
464.536	1445.56
464.755	1360.56
464.975	1309.56
465.195	1284.56
465.414	1212.56
465.634	1108.56
465.854	1074.56
466.073	1062.56
466.293	1042.56
466.512	1030.56
466.732	1011.56
466.951	998.56
467.171	976.56
467.391	1022.56
467.61	1001.56
467.829	1002.56
468.049	980.56
468.268	920.56
468.488	954.56
468.707	953.56
468.927	950.56
469.146	939.56
469.365	975.56
469.585	961.56
469.804	977.56
470.023	1003.56
470.243	1031.56
470.462	1032.56
470.681	1038.56
470.901	1021.56
471.12	1008.56
471.339	999.56
471.558	985.56
471.777	983.56
471.997	959.56
472.216	951.56
472.435	968.56
472.654	955.56
472.873	894.56
473.092	938.56
473.311	908.56
473.53	912.56
473.749	890.56
473.968	918.56
474.187	896.56
474.406	914.56
474.625	922.56
474.844	927.56
475.063	958.56
475.282	944.56
475.501	913.56
475.72	954.56
475.939	946.56
476.158	951.56
476.377	927.56
476.596	973.56
476.814	962.56
477.033	959.56
477.252	990.56
477.471	1046.56
477.69	1029.56
477.908	1081.56
478.127	1118.56
478.346	1115.56
478.564	1110.56
478.783	1143.56
479.002	1165.56
479.22	1185.56
479.439	1166.56
479.658	1162.56
479.876	1149.56
480.095	1140.56
480.313	1190.56
480.532	1283.56
480.751	1256.56
480.969	1194.56
481.188	1126.56
481.406	1117.56
481.624	1088.56
481.843	1081.56
482.061	1046.56
482.28	1055.56
482.498	1060.56
482.717	1020.56
482.935	1066.56
483.153	1063.56
483.372	1056.56
483.59	1053.56
483.808	1052.56
484.027	1051.56
484.245	1089.56
484.463	1069.56
484.681	1101.56
484.9	1102.56
485.118	1109.56
485.336	1094.56
485.554	1164.56
485.772	1133.56
485.99	1131.56
486.209	1130.56
486.427	1118.56
486.645	1133.56
486.863	1140.56
487.081	1140.56
487.299	1120.56
487.517	1113.56
487.735	1113.56
487.953	1106.56
488.171	1120.56
488.389	1134.56
488.607	1116.56
488.825	1097.56
489.043	1113.56
489.261	1104.56
489.479	1099.56
489.696	1108.56
489.914	1114.56
490.132	1092.56
490.35	1121.56
490.568	1105.56
490.786	1099.56
491.003	1112.56
491.221	1135.56
491.439	1109.56
491.657	1098.56
491.874	1142.56
492.092	1142.56
492.31	1112.56
492.527	1146.56
492.745	1129.56
492.963	1124.56
493.18	1126.56
493.398	1155.56
493.615	1171.56
493.833	1181.56
494.05	1155.56
494.268	1173.56
494.485	1198.56
494.703	1170.56
494.92	1189.56
495.138	1170.56
495.355	1184.56
495.573	1193.56
495.79	1188.56
496.008	1200.56
496.225	1205.56
496.442	1193.56
496.66	1222.56
496.877	1204.56
497.094	1248.56
497.312	1290.56
497.529	1306.56
497.746	1310.56
497.963	1370.56
498.181	1414.56
498.398	1456.56
498.615	1563.56
498.832	1642.56
499.049	1771.56
499.267	1906.56
499.484	2138.56
499.701	2346.56
499.918	2587.56
500.135	3051.56
500.352	3563.56
500.569	3718.56
500.786	3722.56
501.003	3365.56
501.22	3024.56
501.437	2636.56
501.654	2294.56
501.871	2121.56
502.088	1920.56
502.305	1809.56
502.522	1697.56
502.739	1649.56
502.956	1552.56
503.172	1439.56
503.389	1387.56
503.606	1332.56
503.823	1347.56
504.04	1316.56
504.256	1343.56
504.473	1376.56
504.69	1450.56
504.907	1414.56
505.123	1283.56
505.34	1247.56
505.557	1189.56
505.773	1124.56
505.99	1127.56
506.207	1085.56
506.423	1080.56
506.64	1085.56
506.856	1064.56
507.073	1054.56
507.289	1054.56
507.506	1051.56
507.722	1046.56
507.939	1000.56
508.155	983.56
508.372	997.56
508.588	990.56
508.805	991.56
509.021	986.56
509.238	972.56
509.454	978.56
509.67	976.56
509.887	982.56
510.103	973.56
510.319	971.56
510.536	965.56
510.752	942.56
510.968	978.56
511.184	941.56
511.401	976.56
511.617	931.56
511.833	941.56
512.049	956.56
512.265	968.56
512.481	966.56
512.698	936.56
512.914	958.56
513.13	931.56
513.346	943.56
513.562	934.56
513.778	974.56
513.994	959.56
514.21	951.56
514.426	948.56
514.642	966.56
514.858	972.56
515.074	956.56
515.29	1004.56
515.506	989.56
515.721	992.56
515.937	1012.56
516.153	1048.56
516.369	1062.56
516.585	1081.56
516.801	1114.56
517.016	1177.56
517.232	1228.56
517.448	1300.56
517.664	1327.56
517.879	1361.56
518.095	1315.56
518.311	1337.56
518.527	1262.56
518.742	1184.56
518.958	1164.56
519.173	1105.56
519.389	1094.56
519.605	1070.56
519.82	1006.56
520.036	996.56
520.251	984.56
520.467	955.56
520.682	969.56
520.898	945.56
521.113	950.56
521.329	944.56
521.544	942.56
521.76	912.56
521.975	934.56
522.19	889.56
522.406	904.56
522.621	927.56
522.836	901.56
523.052	906.56
523.267	886.56
523.482	907.56
523.698	908.56
523.913	874.56
524.128	877.56
524.343	863.56
524.559	873.56
524.774	877.56
524.989	873.56
525.204	892.56
525.419	886.56
525.634	845.56
525.849	853.56
526.064	894.56
526.28	879.56
526.495	855.56
526.71	838.56
526.925	856.56
527.14	867.56
527.355	860.56
527.57	855.56
527.785	888.56
527.999	864.56
528.214	867.56
528.429	870.56
528.644	894.56
528.859	854.56
529.074	851.56
529.289	870.56
529.503	870.56
529.718	855.56
529.933	848.56
530.148	846.56
530.363	858.56
530.577	848.56
530.792	836.56
531.007	851.56
531.221	862.56
531.436	856.56
531.651	887.56
531.865	871.56
532.08	872.56
532.295	852.56
532.509	859.56
532.724	867.56
532.938	879.56
533.153	875.56
533.367	877.56
533.582	834.56
533.796	847.56
534.011	825.56
534.225	848.56
534.44	833.56
534.654	844.56
534.868	853.56
535.083	834.56
535.297	838.56
535.511	850.56
535.726	851.56
535.94	822.56
536.154	812.56
536.369	783.56
536.583	824.56
536.797	808.56
537.011	811.56
537.225	793.56
537.44	816.56
537.654	822.56
537.868	815.56
538.082	805.56
538.296	778.56
538.51	796.56
538.724	778.56
538.938	782.56
539.153	784.56
539.367	798.56
539.581	761.56
539.795	778.56
540.009	789.56
540.222	780.56
540.436	790.56
540.65	764.56
540.864	780.56
541.078	784.56
541.292	777.56
541.506	758.56
541.72	764.56
541.934	744.56
542.147	774.56
542.361	781.56
542.575	746.56
542.789	746.56
543.002	773.56
543.216	753.56
543.43	772.56
543.644	753.56
543.857	743.56
544.071	759.56
544.285	774.56
544.498	751.56
544.712	772.56
544.925	795.56
545.139	781.56
545.352	814.56
545.566	802.56
545.779	783.56
545.993	787.56
546.206	800.56
546.42	787.56
546.633	774.56
546.847	788.56
547.06	786.56
547.274	784.56
547.487	792.56
547.7	777.56
547.914	774.56
548.127	797.56
548.34	792.56
548.554	801.56
548.767	794.56
548.98	798.56
549.193	786.56
549.407	813.56
549.62	839.56
549.833	841.56
550.046	789.56
550.259	783.56
550.473	793.56
550.686	786.56
550.899	793.56
551.112	798.56
551.325	771.56
551.538	734.56
551.751	753.56
551.964	798.56
552.177	790.56
552.39	798.56
552.603	807.56
552.816	851.56
553.029	876.56
553.242	882.56
553.455	901.56
553.667	877.56
553.88	884.56
554.093	830.56
554.306	797.56
554.519	791.56
554.732	783.56
554.944	802.56
555.157	770.56
555.37	743.56
555.583	741.56
555.795	733.56
556.008	717.56
556.221	699.56
556.433	692.56
556.646	718.56
556.859	683.56
557.071	692.56
557.284	679.56
557.496	708.56
557.709	692.56
557.921	673.56
558.134	676.56
558.346	673.56
558.559	658.56
558.771	679.56
558.984	641.56
559.196	666.56
559.409	668.56
559.621	665.56
559.833	662.56
560.046	664.56
560.258	637.56
560.47	642.56
560.683	646.56
560.895	630.56
561.107	645.56
561.32	675.56
561.532	666.56
561.744	643.56
561.956	664.56
562.168	661.56
562.381	669.56
562.593	665.56
562.805	656.56
563.017	641.56
563.229	661.56
563.441	642.56
563.653	668.56
563.865	680.56
564.077	687.56
564.289	676.56
564.501	678.56
564.713	697.56
564.925	702.56
565.137	716.56
565.349	719.56
565.561	782.56
565.773	768.56
565.985	777.56
566.197	834.56
566.408	868.56
566.62	996.56
566.832	1082.56
567.044	1097.56
567.255	1071.56
567.467	1077.56
567.679	1164.56
567.891	1268.56
568.102	1332.56
568.314	1280.56
568.526	1124.56
568.737	1018.56
568.949	955.56
569.161	848.56
569.372	788.56
569.584	748.56
569.795	741.56
570.007	698.56
570.218	678.56
570.43	684.56
570.641	669.56
570.853	668.56
571.064	679.56
571.276	688.56
571.487	670.56
571.698	632.56
571.91	619.56
572.121	600.56
572.333	579.56
572.544	556.56
572.755	559.56
572.966	565.56
573.178	580.56
573.389	560.56
573.6	565.56
573.811	569.56
574.023	521.56
574.234	521.56
574.445	535.56
574.656	535.56
574.867	545.56
575.078	559.56
575.289	528.56
575.501	515.56
575.712	535.56
575.923	508.56
576.134	525.56
576.345	518.56
576.556	515.56
576.767	513.56
576.978	500.56
577.188	504.56
577.399	496.56
577.61	498.56
577.821	472.56
578.032	500.56
578.243	493.56
578.454	478.56
578.665	465.56
578.875	484.56
579.086	480.56
579.297	470.56
579.508	486.56
579.718	462.56
579.929	461.56
580.14	462.56
580.35	460.56
580.561	470.56
580.772	447.56
580.982	454.56
581.193	470.56
581.403	465.56
581.614	466.56
581.825	444.56
582.035	478.56
582.246	464.56
582.456	458.56
582.667	441.56
582.877	454.56
583.087	463.56
583.298	430.56
583.508	425.56
583.719	453.56
583.929	465.56
584.139	469.56
584.35	449.56
584.56	443.56
584.77	441.56
584.981	459.56
585.191	447.56
585.401	441.56
585.611	453.56
585.821	444.56
586.032	431.56
586.242	442.56
586.452	436.56
586.662	457.56
586.872	447.56
587.082	437.56
587.292	439.56
587.502	426.56
587.713	447.56
587.923	413.56
588.133	438.56
588.343	442.56
588.553	445.56
588.762	413.56
588.972	406.56
589.182	430.56
589.392	444.56
589.602	431.56
589.812	401.56
590.022	428.56
590.232	426.56
590.441	446.56
590.651	432.56
590.861	452.56
591.071	448.56
591.281	457.56
591.49	450.56
591.7	448.56
591.91	481.56
592.119	459.56
592.329	485.56
592.539	495.56
592.748	494.56
592.958	553.56
593.167	524.56
593.377	553.56
593.587	577.56
593.796	547.56
594.006	557.56
594.215	556.56
594.424	544.56
594.634	568.56
594.843	519.56
595.053	501.56
595.262	489.56
595.472	476.56
595.681	463.56
595.89	467.56
596.1	411.56
596.309	401.56
596.518	412.56
596.727	433.56
596.937	430.56
597.146	399.56
597.355	400.56
597.564	390.56
597.774	384.56
597.983	388.56
598.192	384.56
598.401	391.56
598.61	374.56
598.819	387.56
599.028	376.56
599.237	379.56
599.446	360.56
599.655	382.56
599.864	367.56
600.073	361.56
600.282	369.56
600.491	349.56
600.7	359.56
600.909	377.56
601.118	367.56
601.327	363.56
601.536	367.56
601.745	364.56
601.953	359.56
602.162	369.56
602.371	344.56
602.58	336.56
602.789	371.56
602.997	358.56
603.206	361.56
603.415	349.56
603.623	354.56
603.832	353.56
604.041	354.56
604.249	365.56
604.458	345.56
604.666	347.56
604.875	337.56
605.084	335.56
605.292	321.56
605.501	341.56
605.709	340.56
605.918	364.56
606.126	338.56
606.334	335.56
606.543	339.56
606.751	340.56
606.96	336.56
607.168	316.56
607.376	352.56
607.585	323.56
607.793	335.56
608.001	332.56
608.21	348.56
608.418	339.56
608.626	353.56
608.834	326.56
609.043	328.56
609.251	330.56
609.459	305.56
609.667	328.56
609.875	336.56
610.083	328.56
610.291	304.56
610.499	329.56
610.707	325.56
610.916	329.56
611.124	322.56
611.332	320.56
611.54	328.56
611.748	324.56
611.955	316.56
612.163	308.56
612.371	314.56
612.579	310.56
612.787	333.56
612.995	316.56
613.203	309.56
613.411	303.56
613.618	321.56
613.826	327.56
614.034	317.56
614.242	312.56
614.449	318.56
614.657	318.56
614.865	323.56
615.072	322.56
615.28	316.56
615.488	329.56
615.695	328.56
615.903	318.56
616.111	326.56
616.318	341.56
616.526	323.56
616.733	327.56
616.941	329.56
617.148	339.56
617.356	328.56
617.563	310.56
617.771	327.56
617.978	322.56
618.185	303.56
618.393	323.56
618.6	327.56
618.807	311.56
619.015	296.56
619.222	305.56
619.429	309.56
619.637	326.56
619.844	329.56
620.051	309.56
620.258	300.56
620.466	325.56
620.673	297.56
620.88	278.56
621.087	286.56
621.294	298.56
621.501	287.56
621.708	322.56
621.915	294.56
622.122	296.56
622.329	295.56
622.536	292.56
622.743	301.56
622.95	282.56
623.157	289.56
623.364	295.56
623.571	302.56
623.778	294.56
623.985	295.56
624.192	288.56
624.399	290.56
624.606	273.56
624.812	264.56
625.019	277.56
625.226	278.56
625.433	278.56
625.639	280.56
625.846	267.56
626.053	275.56
626.259	272.56
626.466	272.56
626.673	261.56
626.879	258.56
627.086	265.56
627.293	255.56
627.499	280.56
627.706	279.56
627.912	255.56
628.119	253.56
628.325	274.56
628.532	270.56
628.738	270.56
628.945	251.56
629.151	251.56
629.357	247.56
629.564	262.56
629.77	259.56
629.976	263.56
630.183	250.56
630.389	258.56
630.595	238.56
630.802	244.56
631.008	249.56
631.214	239.56
631.42	241.56
631.627	251.56
631.833	223.56
632.039	244.56
632.245	250.56
632.451	234.56
632.657	245.56
632.863	222.56
633.069	230.56
633.275	222.56
633.481	236.56
633.688	229.56
633.893	242.56
634.099	232.56
634.305	233.56
634.511	216.56
634.717	219.56
634.923	233.56
635.129	228.56
635.335	223.56
635.541	228.56
635.747	228.56
635.952	224.56
636.158	225.56
636.364	237.56
636.57	223.56
636.775	235.56
636.981	222.56
637.187	224.56
637.392	232.56
637.598	223.56
637.804	219.56
638.009	240.56
638.215	218.56
638.421	224.56
638.626	217.56
638.832	206.56
639.037	209.56
639.243	220.56
639.448	207.56
639.654	227.56
639.859	204.56
640.065	203.56
640.27	220.56
640.475	213.56
640.681	210.56
640.886	209.56
641.091	217.56
641.297	215.56
641.502	207.56
641.707	207.56
641.913	202.56
642.118	205.56
642.323	215.56
642.528	213.56
642.733	214.56
642.939	222.56
643.144	222.56
643.349	205.56
643.554	212.56
643.759	202.56
643.964	200.56
644.169	198.56
644.374	200.56
644.579	206.56
644.784	208.56
644.989	204.56
645.194	221.56
645.399	209.56
645.604	218.56
645.809	197.56
646.014	210.56
646.219	204.56
646.423	208.56
646.628	215.56
646.833	198.56
647.038	217.56
647.243	208.56
647.447	220.56
647.652	205.56
647.857	217.56
648.062	214.56
648.266	216.56
648.471	223.56
648.676	209.56
648.88	217.56
649.085	216.56
649.289	198.56
649.494	217.56
649.698	198.56
649.903	187.56
650.107	205.56
650.312	217.56
650.516	203.56
650.721	188.56
650.925	202.56
651.13	185.56
651.334	173.56
651.539	185.56
651.743	180.56
651.947	192.56
652.152	191.56
652.356	188.56
652.56	169.56
652.764	164.56
652.969	178.56
653.173	181.56
653.377	162.56
653.581	162.56
653.785	165.56
653.99	163.56
654.194	171.56
654.398	144.56
654.602	167.56
654.806	159.56
655.01	146.56
655.214	148.56
655.418	139.56
655.622	142.56
655.826	140.56
656.03	182.56
656.234	150.56
656.438	158.56
656.642	161.56
656.846	164.56
657.049	141.56
657.253	153.56
657.457	125.56
657.661	150.56
657.865	130.56
658.068	127.56
658.272	120.56
658.476	117.56
658.68	110.56
658.883	120.56
659.087	105.56
659.291	102.56
659.494	121.56
659.698	101.56
659.901	100.56
660.105	101.56
660.309	101.56
660.512	93.56
660.716	86.56
660.919	100.56
661.123	102.56
661.326	93.56
661.53	105.56
661.733	86.56
661.936	108.56
662.14	105.56
662.343	100.56
662.546	86.56
662.75	88.56
662.953	84.56
663.156	96.56
663.36	80.56
663.563	93.56
663.766	78.56
663.969	95.56
664.173	86.56
664.376	80.56
664.579	86.56
664.782	79.56
664.985	87.56
665.188	85.56
665.391	85.56
665.594	87.56
665.797	91.56
666	97.56
666.203	83.56
666.406	87.56
666.609	66.56
666.812	86.56
667.015	95.56
667.218	94.56
667.421	95.56
667.624	81.56
667.827	86.56
668.03	92.56
668.232	100.56
668.435	97.56
668.638	81.56
668.841	91.56
669.043	100.56
669.246	70.56
669.449	90.56
669.651	82.56
669.854	91.56
670.057	82.56
670.259	86.56
670.462	98.56
670.665	82.56
670.867	89.56
671.07	86.56
671.272	98.56
671.475	81.56
671.677	91.56
671.88	86.56
672.082	92.56
672.284	81.56
672.487	93.56
672.689	92.56
672.892	79.56
