Data from Ni(NO3)2@0.25M.TitratingCurve.Agarose3%dH2O.NegLispCup.LampEnergy10.LIBS07252019_HRD10591_18-02-42-566.txt Node
Date: Thu Jul 25 18:02:42 EDT 2019
User: cochatt
Spectrometer: HR+D1059
Trigger mode: 1
Integration Time (sec): 1.000000E-1
Scans to average: 1
Electric dark correction enabled: true
Nonlinearity correction enabled: false
Boxcar width: 0
XAxis mode: Wavelengths
Number of Pixels in Spectrum: 2048
>>>>>Begin Spectral Data<<<<<
223.165	-14.12
223.4	-14.12
223.635	-14.12
223.869	-19.12
224.104	-16.12
224.338	-10.12
224.573	-24.12
224.808	-13.12
225.042	-20.12
225.277	-18.12
225.511	-8.12
225.746	17.88
225.98	27.88
226.215	12.88
226.449	17.88
226.683	25.88
226.918	24.88
227.152	15.88
227.387	35.88
227.621	41.88
227.856	53.88
228.09	43.88
228.324	46.88
228.559	48.88
228.793	81.88
229.027	92.88
229.262	100.88
229.496	91.88
229.73	103.88
229.964	95.88
230.199	115.88
230.433	94.88
230.667	121.88
230.901	114.88
231.136	122.88
231.37	123.88
231.604	122.88
231.838	123.88
232.072	127.88
232.306	131.88
232.541	132.88
232.775	113.88
233.009	117.88
233.243	114.88
233.477	111.88
233.711	113.88
233.945	121.88
234.179	125.88
234.413	126.88
234.647	106.88
234.881	110.88
235.115	118.88
235.349	115.88
235.583	119.88
235.817	110.88
236.051	124.88
236.285	109.88
236.519	113.88
236.753	118.88
236.987	109.88
237.221	117.88
237.455	110.88
237.689	108.88
237.922	119.88
238.156	121.88
238.39	130.88
238.624	121.88
238.858	121.88
239.091	117.88
239.325	126.88
239.559	122.88
239.793	143.88
240.027	141.88
240.26	127.88
240.494	128.88
240.728	116.88
240.961	127.88
241.195	142.88
241.429	134.88
241.662	136.88
241.896	127.88
242.13	149.88
242.363	139.88
242.597	145.88
242.83	133.88
243.064	127.88
243.298	136.88
243.531	135.88
243.765	122.88
243.998	144.88
244.232	135.88
244.465	147.88
244.699	153.88
244.932	138.88
245.166	148.88
245.399	141.88
245.633	142.88
245.866	166.88
246.099	143.88
246.333	155.88
246.566	158.88
246.8	155.88
247.033	153.88
247.266	162.88
247.5	153.88
247.733	159.88
247.966	161.88
248.2	173.88
248.433	172.88
248.666	181.88
248.899	180.88
249.133	157.88
249.366	162.88
249.599	181.88
249.832	181.88
250.066	171.88
250.299	190.88
250.532	192.88
250.765	202.88
250.998	195.88
251.231	202.88
251.465	196.88
251.698	191.88
251.931	213.88
252.164	206.88
252.397	198.88
252.63	198.88
252.863	218.88
253.096	197.88
253.329	210.88
253.562	202.88
253.795	214.88
254.028	206.88
254.261	219.88
254.494	226.88
254.727	222.88
254.96	234.88
255.193	239.88
255.426	243.88
255.659	236.88
255.892	230.88
256.124	267.88
256.357	233.88
256.59	242.88
256.823	243.88
257.056	252.88
257.289	255.88
257.521	252.88
257.754	255.88
257.987	251.88
258.22	264.88
258.452	248.88
258.685	245.88
258.918	250.88
259.151	245.88
259.383	280.88
259.616	263.88
259.849	254.88
260.081	261.88
260.314	267.88
260.547	267.88
260.779	283.88
261.012	282.88
261.244	278.88
261.477	279.88
261.71	270.88
261.942	270.88
262.175	285.88
262.407	296.88
262.64	289.88
262.872	275.88
263.105	277.88
263.337	285.88
263.57	290.88
263.802	281.88
264.035	297.88
264.267	286.88
264.499	305.88
264.732	281.88
264.964	308.88
265.197	301.88
265.429	317.88
265.661	309.88
265.894	298.88
266.126	289.88
266.358	293.88
266.591	308.88
266.823	313.88
267.055	316.88
267.287	302.88
267.52	310.88
267.752	315.88
267.984	308.88
268.216	306.88
268.448	307.88
268.681	318.88
268.913	321.88
269.145	317.88
269.377	329.88
269.609	330.88
269.841	338.88
270.073	313.88
270.306	315.88
270.538	308.88
270.77	321.88
271.002	332.88
271.234	311.88
271.466	316.88
271.698	332.88
271.93	323.88
272.162	333.88
272.394	323.88
272.626	327.88
272.858	332.88
273.09	351.88
273.322	338.88
273.553	332.88
273.785	324.88
274.017	331.88
274.249	339.88
274.481	340.88
274.713	342.88
274.945	341.88
275.176	340.88
275.408	341.88
275.64	342.88
275.872	341.88
276.104	342.88
276.335	321.88
276.567	341.88
276.799	346.88
277.031	347.88
277.262	349.88
277.494	352.88
277.726	346.88
277.957	350.88
278.189	342.88
278.421	335.88
278.652	339.88
278.884	359.88
279.115	344.88
279.347	349.88
279.579	343.88
279.81	343.88
280.042	364.88
280.273	361.88
280.505	336.88
280.736	354.88
280.968	354.88
281.199	366.88
281.431	347.88
281.662	359.88
281.894	347.88
282.125	372.88
282.356	361.88
282.588	357.88
282.819	359.88
283.051	352.88
283.282	353.88
283.513	378.88
283.745	373.88
283.976	360.88
284.207	379.88
284.439	373.88
284.67	378.88
284.901	382.88
285.132	354.88
285.364	362.88
285.595	378.88
285.826	371.88
286.057	358.88
286.288	374.88
286.52	369.88
286.751	355.88
286.982	357.88
287.213	359.88
287.444	363.88
287.675	370.88
287.906	371.88
288.138	369.88
288.369	346.88
288.6	367.88
288.831	389.88
289.062	383.88
289.293	389.88
289.524	361.88
289.755	373.88
289.986	377.88
290.217	391.88
290.448	388.88
290.679	377.88
290.91	390.88
291.141	389.88
291.371	367.88
291.602	384.88
291.833	385.88
292.064	377.88
292.295	387.88
292.526	370.88
292.757	384.88
292.987	372.88
293.218	370.88
293.449	385.88
293.68	381.88
293.91	386.88
294.141	388.88
294.372	376.88
294.603	391.88
294.833	408.88
295.064	385.88
295.295	379.88
295.525	379.88
295.756	389.88
295.987	382.88
296.217	361.88
296.448	383.88
296.679	392.88
296.909	410.88
297.14	395.88
297.37	425.88
297.601	407.88
297.831	392.88
298.062	373.88
298.292	397.88
298.523	410.88
298.753	424.88
298.984	393.88
299.214	395.88
299.445	406.88
299.675	381.88
299.905	390.88
300.136	409.88
300.366	399.88
300.597	418.88
300.827	427.88
301.057	422.88
301.288	428.88
301.518	412.88
301.748	428.88
301.979	408.88
302.209	436.88
302.439	423.88
302.669	410.88
302.9	413.88
303.13	417.88
303.36	423.88
303.59	430.88
303.82	446.88
304.051	443.88
304.281	425.88
304.511	426.88
304.741	421.88
304.971	434.88
305.201	453.88
305.431	456.88
305.661	465.88
305.891	455.88
306.121	420.88
306.352	438.88
306.582	440.88
306.812	442.88
307.042	439.88
307.272	444.88
307.502	433.88
307.731	464.88
307.961	442.88
308.191	439.88
308.421	450.88
308.651	459.88
308.881	437.88
309.111	453.88
309.341	449.88
309.571	449.88
309.8	452.88
310.03	453.88
310.26	458.88
310.49	466.88
310.72	459.88
310.949	451.88
311.179	450.88
311.409	463.88
311.639	467.88
311.868	470.88
312.098	487.88
312.328	479.88
312.557	466.88
312.787	469.88
313.017	456.88
313.246	475.88
313.476	492.88
313.706	487.88
313.935	491.88
314.165	512.88
314.394	508.88
314.624	516.88
314.853	502.88
315.083	514.88
315.312	500.88
315.542	497.88
315.771	540.88
316.001	510.88
316.23	519.88
316.46	523.88
316.689	537.88
316.919	529.88
317.148	524.88
317.377	525.88
317.607	526.88
317.836	549.88
318.065	535.88
318.295	535.88
318.524	550.88
318.753	533.88
318.983	524.88
319.212	554.88
319.441	538.88
319.67	561.88
319.9	558.88
320.129	569.88
320.358	545.88
320.587	567.88
320.816	587.88
321.046	582.88
321.275	583.88
321.504	602.88
321.733	595.88
321.962	578.88
322.191	595.88
322.42	595.88
322.649	605.88
322.878	613.88
323.108	602.88
323.337	603.88
323.566	592.88
323.795	620.88
324.024	607.88
324.253	615.88
324.482	622.88
324.71	629.88
324.939	643.88
325.168	641.88
325.397	637.88
325.626	618.88
325.855	649.88
326.084	667.88
326.313	643.88
326.542	668.88
326.77	666.88
326.999	677.88
327.228	651.88
327.457	651.88
327.686	671.88
327.914	668.88
328.143	673.88
328.372	695.88
328.6	669.88
328.829	666.88
329.058	686.88
329.287	669.88
329.515	707.88
329.744	710.88
329.972	703.88
330.201	714.88
330.43	726.88
330.658	705.88
330.887	726.88
331.115	726.88
331.344	713.88
331.572	741.88
331.801	732.88
332.03	739.88
332.258	733.88
332.486	771.88
332.715	744.88
332.943	762.88
333.172	767.88
333.4	769.88
333.629	807.88
333.857	818.88
334.085	798.88
334.314	799.88
334.542	808.88
334.771	812.88
334.999	805.88
335.227	829.88
335.455	817.88
335.684	819.88
335.912	828.88
336.14	810.88
336.369	811.88
336.597	811.88
336.825	797.88
337.053	853.88
337.281	834.88
337.51	805.88
337.738	805.88
337.966	779.88
338.194	821.88
338.422	791.88
338.65	787.88
338.878	791.88
339.106	773.88
339.334	793.88
339.562	766.88
339.79	767.88
340.018	782.88
340.246	775.88
340.474	800.88
340.702	755.88
340.93	797.88
341.158	784.88
341.386	781.88
341.614	785.88
341.842	760.88
342.07	771.88
342.298	753.88
342.526	802.88
342.754	766.88
342.981	761.88
343.209	774.88
343.437	795.88
343.665	814.88
343.893	811.88
344.12	814.88
344.348	822.88
344.576	833.88
344.804	803.88
345.031	787.88
345.259	799.88
345.487	789.88
345.714	801.88
345.942	804.88
346.17	786.88
346.397	777.88
346.625	774.88
346.853	780.88
347.08	767.88
347.308	752.88
347.535	757.88
347.763	757.88
347.99	732.88
348.218	750.88
348.445	760.88
348.673	761.88
348.9	760.88
349.128	747.88
349.355	767.88
349.583	759.88
349.81	756.88
350.037	756.88
350.265	735.88
350.492	733.88
350.72	754.88
350.947	743.88
351.174	737.88
351.402	738.88
351.629	743.88
351.856	723.88
352.083	721.88
352.311	730.88
352.538	757.88
352.765	745.88
352.992	713.88
353.22	727.88
353.447	723.88
353.674	714.88
353.901	741.88
354.128	702.88
354.355	747.88
354.583	751.88
354.81	717.88
355.037	737.88
355.264	765.88
355.491	745.88
355.718	758.88
355.945	727.88
356.172	740.88
356.399	773.88
356.626	750.88
356.853	763.88
357.08	742.88
357.307	705.88
357.534	729.88
357.761	721.88
357.988	723.88
358.215	728.88
358.441	724.88
358.668	733.88
358.895	743.88
359.122	736.88
359.349	749.88
359.576	716.88
359.802	703.88
360.029	716.88
360.256	741.88
360.483	723.88
360.709	747.88
360.936	736.88
361.163	738.88
361.39	732.88
361.616	714.88
361.843	757.88
362.07	743.88
362.296	740.88
362.523	724.88
362.749	742.88
362.976	732.88
363.203	726.88
363.429	726.88
363.656	738.88
363.882	757.88
364.109	729.88
364.335	726.88
364.562	744.88
364.788	714.88
365.015	737.88
365.241	743.88
365.468	726.88
365.694	716.88
365.92	704.88
366.147	719.88
366.373	725.88
366.599	729.88
366.826	727.88
367.052	741.88
367.278	720.88
367.505	740.88
367.731	719.88
367.957	730.88
368.184	708.88
368.41	735.88
368.636	709.88
368.862	733.88
369.089	717.88
369.315	746.88
369.541	743.88
369.767	735.88
369.993	720.88
370.219	730.88
370.445	741.88
370.672	742.88
370.898	725.88
371.124	755.88
371.35	746.88
371.576	721.88
371.802	745.88
372.028	721.88
372.254	744.88
372.48	743.88
372.706	736.88
372.932	746.88
373.158	747.88
373.384	753.88
373.61	740.88
373.835	745.88
374.061	743.88
374.287	757.88
374.513	760.88
374.739	727.88
374.965	775.88
375.191	769.88
375.416	740.88
375.642	743.88
375.868	723.88
376.094	715.88
376.319	725.88
376.545	727.88
376.771	741.88
376.997	714.88
377.222	722.88
377.448	724.88
377.674	700.88
377.899	676.88
378.125	697.88
378.35	678.88
378.576	710.88
378.802	713.88
379.027	757.88
379.253	702.88
379.478	706.88
379.704	701.88
379.929	732.88
380.155	707.88
380.38	709.88
380.606	728.88
380.831	707.88
381.057	725.88
381.282	711.88
381.507	707.88
381.733	707.88
381.958	701.88
382.184	713.88
382.409	716.88
382.634	719.88
382.86	734.88
383.085	757.88
383.31	731.88
383.535	725.88
383.761	756.88
383.986	728.88
384.211	749.88
384.436	749.88
384.662	773.88
384.887	742.88
385.112	757.88
385.337	744.88
385.562	779.88
385.787	761.88
386.013	777.88
386.238	773.88
386.463	787.88
386.688	768.88
386.913	764.88
387.138	775.88
387.363	793.88
387.588	800.88
387.813	773.88
388.038	771.88
388.263	773.88
388.488	775.88
388.713	788.88
388.938	792.88
389.163	781.88
389.387	795.88
389.612	775.88
389.837	795.88
390.062	796.88
390.287	785.88
390.512	782.88
390.736	805.88
390.961	801.88
391.186	791.88
391.411	795.88
391.636	807.88
391.86	803.88
392.085	817.88
392.31	822.88
392.534	811.88
392.759	809.88
392.984	801.88
393.208	823.88
393.433	820.88
393.658	810.88
393.882	763.88
394.107	780.88
394.331	800.88
394.556	797.88
394.78	829.88
395.005	842.88
395.229	831.88
395.454	822.88
395.678	850.88
395.903	836.88
396.127	830.88
396.352	834.88
396.576	837.88
396.801	837.88
397.025	844.88
397.249	863.88
397.474	862.88
397.698	849.88
397.922	862.88
398.147	859.88
398.371	893.88
398.595	903.88
398.82	882.88
399.044	926.88
399.268	955.88
399.492	1025.88
399.717	1047.88
399.941	1027.88
400.165	1017.88
400.389	989.88
400.613	954.88
400.837	941.88
401.062	926.88
401.286	959.88
401.51	923.88
401.734	921.88
401.958	906.88
402.182	918.88
402.406	922.88
402.63	951.88
402.854	926.88
403.078	938.88
403.302	947.88
403.526	946.88
403.75	931.88
403.974	965.88
404.198	939.88
404.422	954.88
404.645	957.88
404.869	945.88
405.093	953.88
405.317	951.88
405.541	953.88
405.765	963.88
405.988	971.88
406.212	956.88
406.436	999.88
406.66	1005.88
406.883	967.88
407.107	1035.88
407.331	1017.88
407.555	1065.88
407.778	1034.88
408.002	1069.88
408.226	1043.88
408.449	1037.88
408.673	1031.88
408.896	1011.88
409.12	984.88
409.344	1003.88
409.567	983.88
409.791	988.88
410.014	982.88
410.238	977.88
410.461	1002.88
410.685	977.88
410.908	975.88
411.132	1002.88
411.355	949.88
411.578	954.88
411.802	933.88
412.025	959.88
412.249	972.88
412.472	959.88
412.695	955.88
412.919	935.88
413.142	938.88
413.365	949.88
413.589	978.88
413.812	914.88
414.035	932.88
414.258	933.88
414.482	974.88
414.705	971.88
414.928	921.88
415.151	965.88
415.374	956.88
415.597	953.88
415.821	935.88
416.044	942.88
416.267	929.88
416.49	949.88
416.713	931.88
416.936	926.88
417.159	923.88
417.382	942.88
417.605	900.88
417.828	916.88
418.051	919.88
418.274	959.88
418.497	918.88
418.72	961.88
418.943	940.88
419.166	958.88
419.389	1018.88
419.611	1000.88
419.834	982.88
420.057	955.88
420.28	979.88
420.503	924.88
420.726	922.88
420.948	916.88
421.171	943.88
421.394	945.88
421.617	942.88
421.839	958.88
422.062	943.88
422.285	901.88
422.507	926.88
422.73	926.88
422.953	932.88
423.175	949.88
423.398	955.88
423.621	939.88
423.843	926.88
424.066	955.88
424.288	963.88
424.511	961.88
424.733	967.88
424.956	923.88
425.178	943.88
425.401	918.88
425.623	952.88
425.846	929.88
426.068	947.88
426.291	919.88
426.513	981.88
426.735	961.88
426.958	949.88
427.18	927.88
427.402	933.88
427.625	931.88
427.847	909.88
428.069	924.88
428.292	958.88
428.514	921.88
428.736	940.88
428.958	916.88
429.181	919.88
429.403	901.88
429.625	925.88
429.847	905.88
430.069	903.88
430.292	935.88
430.514	909.88
430.736	891.88
430.958	923.88
431.18	928.88
431.402	926.88
431.624	939.88
431.846	925.88
432.068	895.88
432.29	927.88
432.512	909.88
432.734	951.88
432.956	932.88
433.178	943.88
433.4	950.88
433.622	947.88
433.844	950.88
434.066	957.88
434.287	926.88
434.509	954.88
434.731	963.88
434.953	962.88
435.175	995.88
435.397	981.88
435.618	967.88
435.84	949.88
436.062	940.88
436.284	934.88
436.505	946.88
436.727	971.88
436.949	959.88
437.17	929.88
437.392	933.88
437.614	937.88
437.835	911.88
438.057	941.88
438.278	925.88
438.5	947.88
438.721	915.88
438.943	933.88
439.165	927.88
439.386	926.88
439.608	946.88
439.829	918.88
440.05	939.88
440.272	956.88
440.493	951.88
440.715	937.88
440.936	940.88
441.158	941.88
441.379	979.88
441.6	974.88
441.822	995.88
442.043	1002.88
442.264	967.88
442.486	990.88
442.707	968.88
442.928	980.88
443.149	970.88
443.371	989.88
443.592	1013.88
443.813	1001.88
444.034	982.88
444.255	994.88
444.476	1006.88
444.698	1034.88
444.919	1063.88
445.14	1142.88
445.361	1055.88
445.582	989.88
445.803	983.88
446.024	987.88
446.245	985.88
446.466	993.88
446.687	925.88
446.908	949.88
447.129	926.88
447.35	902.88
447.571	931.88
447.792	898.88
448.013	919.88
448.234	905.88
448.455	911.88
448.675	904.88
448.896	886.88
449.117	903.88
449.338	901.88
449.559	873.88
449.779	867.88
450	888.88
450.221	913.88
450.442	917.88
450.662	865.88
450.883	887.88
451.104	911.88
451.324	878.88
451.545	886.88
451.766	906.88
451.986	878.88
452.207	865.88
452.428	837.88
452.648	886.88
452.869	845.88
453.089	839.88
453.31	865.88
453.53	860.88
453.751	828.88
453.971	826.88
454.192	840.88
454.412	856.88
454.633	851.88
454.853	840.88
455.073	844.88
455.294	847.88
455.514	855.88
455.734	838.88
455.955	879.88
456.175	843.88
456.395	858.88
456.616	825.88
456.836	830.88
457.056	849.88
457.276	846.88
457.497	849.88
457.717	826.88
457.937	838.88
458.157	871.88
458.377	883.88
458.598	869.88
458.818	866.88
459.038	883.88
459.258	901.88
459.478	891.88
459.698	946.88
459.918	971.88
460.138	966.88
460.358	978.88
460.578	974.88
460.798	994.88
461.018	999.88
461.238	992.88
461.458	994.88
461.678	980.88
461.898	997.88
462.118	993.88
462.338	1037.88
462.558	1056.88
462.777	1045.88
462.997	1094.88
463.217	1130.88
463.437	1119.88
463.657	1118.88
463.876	1071.88
464.096	1076.88
464.316	1073.88
464.536	1062.88
464.755	1041.88
464.975	1005.88
465.195	1032.88
465.414	988.88
465.634	950.88
465.854	969.88
466.073	973.88
466.293	916.88
466.512	933.88
466.732	947.88
466.951	958.88
467.171	958.88
467.391	927.88
467.61	916.88
467.829	895.88
468.049	927.88
468.268	909.88
468.488	897.88
468.707	886.88
468.927	910.88
469.146	922.88
469.365	925.88
469.585	907.88
469.804	915.88
470.023	901.88
470.243	928.88
470.462	918.88
470.681	929.88
470.901	915.88
471.12	927.88
471.339	946.88
471.558	908.88
471.777	930.88
471.997	915.88
472.216	928.88
472.435	915.88
472.654	918.88
472.873	892.88
473.092	912.88
473.311	889.88
473.53	938.88
473.749	919.88
473.968	913.88
474.187	919.88
474.406	923.88
474.625	929.88
474.844	943.88
475.063	913.88
475.282	927.88
475.501	949.88
475.72	943.88
475.939	956.88
476.158	937.88
476.377	969.88
476.596	938.88
476.814	955.88
477.033	955.88
477.252	979.88
477.471	975.88
477.69	1004.88
477.908	1022.88
478.127	1025.88
478.346	1041.88
478.564	1031.88
478.783	1095.88
479.002	1082.88
479.22	1081.88
479.439	1067.88
479.658	1073.88
479.876	1064.88
480.095	1072.88
480.313	1094.88
480.532	1079.88
480.751	1079.88
480.969	1060.88
481.188	1033.88
481.406	1070.88
481.624	1046.88
481.843	1065.88
482.061	1055.88
482.28	1036.88
482.498	1069.88
482.717	1028.88
482.935	1088.88
483.153	1108.88
483.372	1074.88
483.59	1078.88
483.808	1111.88
484.027	1101.88
484.245	1081.88
484.463	1067.88
484.681	1097.88
484.9	1106.88
485.118	1076.88
485.336	1073.88
485.554	1090.88
485.772	1069.88
485.99	1069.88
486.209	1057.88
486.427	1063.88
486.645	1119.88
486.863	1081.88
487.081	1092.88
487.299	1091.88
487.517	1102.88
487.735	1139.88
487.953	1139.88
488.171	1120.88
488.389	1151.88
488.607	1101.88
488.825	1095.88
489.043	1086.88
489.261	1109.88
489.479	1105.88
489.696	1132.88
489.914	1094.88
490.132	1117.88
490.35	1168.88
490.568	1129.88
490.786	1159.88
491.003	1154.88
491.221	1146.88
491.439	1165.88
491.657	1155.88
491.874	1151.88
492.092	1205.88
492.31	1197.88
492.527	1186.88
492.745	1189.88
492.963	1166.88
493.18	1193.88
493.398	1184.88
493.615	1176.88
493.833	1201.88
494.05	1169.88
494.268	1215.88
494.485	1189.88
494.703	1201.88
494.92	1207.88
495.138	1190.88
495.355	1231.88
495.573	1209.88
495.79	1202.88
496.008	1243.88
496.225	1236.88
496.442	1201.88
496.66	1230.88
496.877	1250.88
497.094	1270.88
497.312	1289.88
497.529	1324.88
497.746	1300.88
497.963	1347.88
498.181	1363.88
498.398	1375.88
498.615	1401.88
498.832	1449.88
499.049	1483.88
499.267	1492.88
499.484	1613.88
499.701	1639.88
499.918	1772.88
500.135	1815.88
500.352	1919.88
500.569	1908.88
500.786	1907.88
501.003	1853.88
501.22	1823.88
501.437	1722.88
501.654	1683.88
501.871	1557.88
502.088	1518.88
502.305	1493.88
502.522	1446.88
502.739	1430.88
502.956	1403.88
503.172	1367.88
503.389	1325.88
503.606	1291.88
503.823	1283.88
504.04	1287.88
504.256	1285.88
504.473	1254.88
504.69	1242.88
504.907	1206.88
505.123	1231.88
505.34	1199.88
505.557	1151.88
505.773	1159.88
505.99	1142.88
506.207	1115.88
506.423	1089.88
506.64	1104.88
506.856	1080.88
507.073	1063.88
507.289	1070.88
507.506	1061.88
507.722	1060.88
507.939	1054.88
508.155	1044.88
508.372	1020.88
508.588	1037.88
508.805	1046.88
509.021	1026.88
509.238	1012.88
509.454	1013.88
509.67	1013.88
509.887	1018.88
510.103	991.88
510.319	989.88
510.536	981.88
510.752	995.88
510.968	966.88
511.184	956.88
511.401	968.88
511.617	974.88
511.833	985.88
512.049	956.88
512.265	970.88
512.481	972.88
512.698	976.88
512.914	956.88
513.13	974.88
513.346	953.88
513.562	954.88
513.778	941.88
513.994	954.88
514.21	963.88
514.426	967.88
514.642	985.88
514.858	997.88
515.074	958.88
515.29	1003.88
515.506	966.88
515.721	995.88
515.937	989.88
516.153	1012.88
516.369	988.88
516.585	1032.88
516.801	1031.88
517.016	1030.88
517.232	1068.88
517.448	1062.88
517.664	1076.88
517.879	1049.88
518.095	1069.88
518.311	1073.88
518.527	1052.88
518.742	1059.88
518.958	997.88
519.173	1000.88
519.389	999.88
519.605	1003.88
519.82	987.88
520.036	986.88
520.251	964.88
520.467	959.88
520.682	950.88
520.898	941.88
521.113	934.88
521.329	921.88
521.544	925.88
521.76	897.88
521.975	904.88
522.19	917.88
522.406	905.88
522.621	911.88
522.836	927.88
523.052	939.88
523.267	901.88
523.482	907.88
523.698	900.88
523.913	887.88
524.128	898.88
524.343	905.88
524.559	872.88
524.774	892.88
524.989	923.88
525.204	900.88
525.419	872.88
525.634	923.88
525.849	886.88
526.064	873.88
526.28	887.88
526.495	880.88
526.71	876.88
526.925	866.88
527.14	867.88
527.355	841.88
527.57	858.88
527.785	862.88
527.999	854.88
528.214	858.88
528.429	899.88
528.644	878.88
528.859	878.88
529.074	909.88
529.289	876.88
529.503	854.88
529.718	870.88
529.933	843.88
530.148	863.88
530.363	871.88
530.577	866.88
530.792	888.88
531.007	867.88
531.221	837.88
531.436	850.88
531.651	866.88
531.865	853.88
532.08	819.88
532.295	846.88
532.509	838.88
532.724	833.88
532.938	841.88
533.153	844.88
533.367	840.88
533.582	857.88
533.796	843.88
534.011	846.88
534.225	837.88
534.44	856.88
534.654	829.88
534.868	843.88
535.083	845.88
535.297	805.88
535.511	815.88
535.726	822.88
535.94	806.88
536.154	815.88
536.369	811.88
536.583	803.88
536.797	820.88
537.011	781.88
537.225	773.88
537.44	778.88
537.654	780.88
537.868	797.88
538.082	775.88
538.296	747.88
538.51	781.88
538.724	804.88
538.938	780.88
539.153	786.88
539.367	793.88
539.581	777.88
539.795	784.88
540.009	758.88
540.222	763.88
540.436	772.88
540.65	770.88
540.864	780.88
541.078	791.88
541.292	800.88
541.506	817.88
541.72	793.88
541.934	815.88
542.147	838.88
542.361	796.88
542.575	785.88
542.789	767.88
543.002	790.88
543.216	800.88
543.43	750.88
543.644	757.88
543.857	773.88
544.071	771.88
544.285	783.88
544.498	810.88
544.712	780.88
544.925	789.88
545.139	763.88
545.352	781.88
545.566	783.88
545.779	762.88
545.993	797.88
546.206	805.88
546.42	790.88
546.633	793.88
546.847	779.88
547.06	803.88
547.274	778.88
547.487	804.88
547.7	790.88
547.914	797.88
548.127	802.88
548.34	770.88
548.554	772.88
548.767	782.88
548.98	780.88
549.193	768.88
549.407	771.88
549.62	781.88
549.833	801.88
550.046	771.88
550.259	790.88
550.473	747.88
550.686	749.88
550.899	766.88
551.112	737.88
551.325	783.88
551.538	752.88
551.751	775.88
551.964	742.88
552.177	777.88
552.39	757.88
552.603	781.88
552.816	790.88
553.029	755.88
553.242	783.88
553.455	773.88
553.667	781.88
553.88	749.88
554.093	746.88
554.306	748.88
554.519	733.88
554.732	747.88
554.944	763.88
555.157	717.88
555.37	713.88
555.583	702.88
555.795	709.88
556.008	716.88
556.221	717.88
556.433	677.88
556.646	695.88
556.859	681.88
557.071	698.88
557.284	701.88
557.496	682.88
557.709	678.88
557.921	703.88
558.134	693.88
558.346	679.88
558.559	653.88
558.771	665.88
558.984	641.88
559.196	679.88
559.409	663.88
559.621	642.88
559.833	636.88
560.046	659.88
560.258	650.88
560.47	643.88
560.683	631.88
560.895	668.88
561.107	635.88
561.32	656.88
561.532	642.88
561.744	668.88
561.956	656.88
562.168	657.88
562.381	638.88
562.593	645.88
562.805	639.88
563.017	635.88
563.229	654.88
563.441	657.88
563.653	643.88
563.865	653.88
564.077	658.88
564.289	670.88
564.501	664.88
564.713	655.88
564.925	657.88
565.137	676.88
565.349	663.88
565.561	699.88
565.773	699.88
565.985	739.88
566.197	701.88
566.408	720.88
566.62	764.88
566.832	755.88
567.044	749.88
567.255	765.88
567.467	770.88
567.679	764.88
567.891	799.88
568.102	771.88
568.314	766.88
568.526	728.88
568.737	731.88
568.949	697.88
569.161	667.88
569.372	646.88
569.584	643.88
569.795	614.88
570.007	629.88
570.218	611.88
570.43	613.88
570.641	593.88
570.853	614.88
571.064	599.88
571.276	588.88
571.487	581.88
571.698	564.88
571.91	569.88
572.121	551.88
572.333	551.88
572.544	547.88
572.755	530.88
572.966	513.88
573.178	538.88
573.389	521.88
573.6	531.88
573.811	500.88
574.023	533.88
574.234	515.88
574.445	510.88
574.656	490.88
574.867	501.88
575.078	505.88
575.289	519.88
575.501	502.88
575.712	525.88
575.923	516.88
576.134	499.88
576.345	509.88
576.556	498.88
576.767	503.88
576.978	477.88
577.188	500.88
577.399	470.88
577.61	465.88
577.821	477.88
578.032	468.88
578.243	469.88
578.454	468.88
578.665	474.88
578.875	462.88
579.086	471.88
579.297	464.88
579.508	458.88
579.718	448.88
579.929	460.88
580.14	474.88
580.35	433.88
580.561	451.88
580.772	449.88
580.982	447.88
581.193	430.88
581.403	437.88
581.614	452.88
581.825	469.88
582.035	442.88
582.246	437.88
582.456	459.88
582.667	440.88
582.877	431.88
583.087	417.88
583.298	437.88
583.508	433.88
583.719	441.88
583.929	419.88
584.139	427.88
584.35	406.88
584.56	437.88
584.77	405.88
584.981	403.88
585.191	413.88
585.401	423.88
585.611	411.88
585.821	422.88
586.032	422.88
586.242	411.88
586.452	420.88
586.662	404.88
586.872	418.88
587.082	417.88
587.292	397.88
587.502	407.88
587.713	417.88
587.923	411.88
588.133	413.88
588.343	415.88
588.553	420.88
588.762	411.88
588.972	428.88
589.182	450.88
589.392	433.88
589.602	395.88
589.812	421.88
590.022	406.88
590.232	412.88
590.441	421.88
590.651	392.88
590.861	430.88
591.071	413.88
591.281	399.88
591.49	423.88
591.7	418.88
591.91	409.88
592.119	413.88
592.329	401.88
592.539	417.88
592.748	428.88
592.958	436.88
593.167	429.88
593.377	418.88
593.587	445.88
593.796	418.88
594.006	430.88
594.215	416.88
594.424	405.88
594.634	431.88
594.843	413.88
595.053	411.88
595.262	428.88
595.472	407.88
595.681	391.88
595.89	379.88
596.1	371.88
596.309	390.88
596.518	381.88
596.727	376.88
596.937	374.88
597.146	372.88
597.355	378.88
597.564	365.88
597.774	349.88
597.983	358.88
598.192	354.88
598.401	348.88
598.61	350.88
598.819	343.88
599.028	360.88
599.237	349.88
599.446	343.88
599.655	347.88
599.864	345.88
600.073	341.88
600.282	338.88
600.491	345.88
600.7	332.88
600.909	369.88
601.118	345.88
601.327	339.88
601.536	339.88
601.745	319.88
601.953	354.88
602.162	346.88
602.371	352.88
602.58	339.88
602.789	334.88
602.997	340.88
603.206	350.88
603.415	357.88
603.623	334.88
603.832	350.88
604.041	326.88
604.249	311.88
604.458	330.88
604.666	332.88
604.875	317.88
605.084	328.88
605.292	327.88
605.501	339.88
605.709	311.88
605.918	313.88
606.126	328.88
606.334	341.88
606.543	324.88
606.751	324.88
606.96	309.88
607.168	328.88
607.376	319.88
607.585	314.88
607.793	316.88
608.001	307.88
608.21	316.88
608.418	309.88
608.626	313.88
608.834	316.88
609.043	320.88
609.251	303.88
609.459	310.88
609.667	339.88
609.875	308.88
610.083	311.88
610.291	308.88
610.499	302.88
610.707	315.88
610.916	296.88
611.124	302.88
611.332	291.88
611.54	323.88
611.748	293.88
611.955	297.88
612.163	303.88
612.371	309.88
612.579	298.88
612.787	291.88
612.995	294.88
613.203	311.88
613.411	293.88
613.618	286.88
613.826	305.88
614.034	282.88
614.242	299.88
614.449	305.88
614.657	298.88
614.865	292.88
615.072	297.88
615.28	291.88
615.488	313.88
615.695	314.88
615.903	297.88
616.111	286.88
616.318	306.88
616.526	277.88
616.733	298.88
616.941	285.88
617.148	283.88
617.356	297.88
617.563	295.88
617.771	295.88
617.978	278.88
618.185	288.88
618.393	300.88
618.6	295.88
618.807	272.88
619.015	283.88
619.222	285.88
619.429	278.88
619.637	277.88
619.844	269.88
620.051	276.88
620.258	276.88
620.466	267.88
620.673	265.88
620.88	253.88
621.087	271.88
621.294	266.88
621.501	282.88
621.708	272.88
621.915	276.88
622.122	274.88
622.329	277.88
622.536	276.88
622.743	271.88
622.95	279.88
623.157	283.88
623.364	290.88
623.571	254.88
623.778	268.88
623.985	272.88
624.192	264.88
624.399	271.88
624.606	265.88
624.812	273.88
625.019	284.88
625.226	272.88
625.433	257.88
625.639	244.88
625.846	253.88
626.053	236.88
626.259	261.88
626.466	249.88
626.673	245.88
626.879	245.88
627.086	251.88
627.293	275.88
627.499	250.88
627.706	243.88
627.912	257.88
628.119	257.88
628.325	251.88
628.532	256.88
628.738	251.88
628.945	219.88
629.151	259.88
629.357	230.88
629.564	241.88
629.77	237.88
629.976	225.88
630.183	248.88
630.389	233.88
630.595	260.88
630.802	244.88
631.008	231.88
631.214	237.88
631.42	219.88
631.627	232.88
631.833	233.88
632.039	229.88
632.245	230.88
632.451	222.88
632.657	212.88
632.863	224.88
633.069	226.88
633.275	234.88
633.481	230.88
633.688	217.88
633.893	222.88
634.099	224.88
634.305	228.88
634.511	223.88
634.717	219.88
634.923	214.88
635.129	216.88
635.335	213.88
635.541	217.88
635.747	222.88
635.952	231.88
636.158	207.88
636.364	213.88
636.57	205.88
636.775	218.88
636.981	212.88
637.187	207.88
637.392	214.88
637.598	222.88
637.804	206.88
638.009	209.88
638.215	219.88
638.421	219.88
638.626	227.88
638.832	220.88
639.037	229.88
639.243	218.88
639.448	218.88
639.654	219.88
639.859	214.88
640.065	188.88
640.27	204.88
640.475	221.88
640.681	217.88
640.886	216.88
641.091	207.88
641.297	219.88
641.502	210.88
641.707	203.88
641.913	206.88
642.118	206.88
642.323	219.88
642.528	213.88
642.733	201.88
642.939	211.88
643.144	180.88
643.349	204.88
643.554	206.88
643.759	213.88
643.964	188.88
644.169	212.88
644.374	197.88
644.579	200.88
644.784	206.88
644.989	213.88
645.194	212.88
645.399	222.88
645.604	200.88
645.809	205.88
646.014	207.88
646.219	198.88
646.423	199.88
646.628	201.88
646.833	200.88
647.038	213.88
647.243	209.88
647.447	206.88
647.652	209.88
647.857	201.88
648.062	215.88
648.266	207.88
648.471	218.88
648.676	198.88
648.88	202.88
649.085	207.88
649.289	198.88
649.494	209.88
649.698	200.88
649.903	201.88
650.107	196.88
650.312	210.88
650.516	199.88
650.721	197.88
650.925	201.88
651.13	172.88
651.334	182.88
651.539	173.88
651.743	188.88
651.947	183.88
652.152	196.88
652.356	177.88
652.56	179.88
652.764	183.88
652.969	171.88
653.173	176.88
653.377	169.88
653.581	167.88
653.785	181.88
653.99	177.88
654.194	173.88
654.398	167.88
654.602	160.88
654.806	143.88
655.01	166.88
655.214	170.88
655.418	170.88
655.622	158.88
655.826	155.88
656.03	162.88
656.234	158.88
656.438	158.88
656.642	154.88
656.846	144.88
657.049	152.88
657.253	167.88
657.457	157.88
657.661	129.88
657.865	149.88
658.068	142.88
658.272	127.88
658.476	139.88
658.68	136.88
658.883	120.88
659.087	113.88
659.291	129.88
659.494	107.88
659.698	124.88
659.901	117.88
660.105	110.88
660.309	114.88
660.512	104.88
660.716	115.88
660.919	97.88
661.123	101.88
661.326	102.88
661.53	92.88
661.733	86.88
661.936	94.88
662.14	98.88
662.343	97.88
662.546	73.88
662.75	86.88
662.953	94.88
663.156	76.88
663.36	92.88
663.563	97.88
663.766	92.88
663.969	91.88
664.173	75.88
664.376	75.88
664.579	87.88
664.782	97.88
664.985	74.88
665.188	74.88
665.391	79.88
665.594	80.88
665.797	87.88
666	94.88
666.203	74.88
666.406	87.88
666.609	88.88
666.812	87.88
667.015	87.88
667.218	77.88
667.421	70.88
667.624	87.88
667.827	78.88
668.03	83.88
668.232	84.88
668.435	87.88
668.638	83.88
668.841	82.88
669.043	90.88
669.246	83.88
669.449	65.88
669.651	79.88
669.854	81.88
670.057	92.88
670.259	90.88
670.462	88.88
670.665	84.88
670.867	91.88
671.07	68.88
671.272	87.88
671.475	88.88
671.677	83.88
671.88	89.88
672.082	71.88
672.284	75.88
672.487	85.88
672.689	71.88
672.892	78.88
