Data from Ni(NO3)2@0.5M.TitratingCurve.Agarose3%dH2O.NegLispCup.LampEnergy10.LIBS07252019_HRD10591_18-00-04-565.txt Node
Date: Thu Jul 25 18:00:04 EDT 2019
User: cochatt
Spectrometer: HR+D1059
Trigger mode: 1
Integration Time (sec): 1.000000E-1
Scans to average: 1
Electric dark correction enabled: true
Nonlinearity correction enabled: false
Boxcar width: 0
XAxis mode: Wavelengths
Number of Pixels in Spectrum: 2048
>>>>>Begin Spectral Data<<<<<
223.165	-24.19
223.4	-24.19
223.635	-24.19
223.869	-18.19
224.104	-22.19
224.338	-7.19
224.573	-29.19
224.808	-20.19
225.042	-0.19
225.277	-10.19
225.511	0.81
225.746	3.81
225.98	12.81
226.215	-0.19
226.449	30.81
226.683	29.81
226.918	19.81
227.152	33.81
227.387	42.81
227.621	41.81
227.856	46.81
228.09	35.81
228.324	47.81
228.559	63.81
228.793	83.81
229.027	119.81
229.262	145.81
229.496	140.81
229.73	156.81
229.964	166.81
230.199	191.81
230.433	180.81
230.667	170.81
230.901	168.81
231.136	166.81
231.37	166.81
231.604	189.81
231.838	203.81
232.072	215.81
232.306	189.81
232.541	183.81
232.775	170.81
233.009	175.81
233.243	171.81
233.477	171.81
233.711	189.81
233.945	183.81
234.179	172.81
234.413	200.81
234.647	183.81
234.881	182.81
235.115	184.81
235.349	165.81
235.583	180.81
235.817	178.81
236.051	208.81
236.285	181.81
236.519	164.81
236.753	178.81
236.987	184.81
237.221	188.81
237.455	182.81
237.689	188.81
237.922	191.81
238.156	189.81
238.39	196.81
238.624	196.81
238.858	194.81
239.091	206.81
239.325	213.81
239.559	221.81
239.793	236.81
240.027	236.81
240.26	202.81
240.494	207.81
240.728	227.81
240.961	221.81
241.195	218.81
241.429	221.81
241.662	201.81
241.896	236.81
242.13	220.81
242.363	215.81
242.597	222.81
242.83	239.81
243.064	240.81
243.298	247.81
243.531	238.81
243.765	270.81
243.998	249.81
244.232	267.81
244.465	254.81
244.699	228.81
244.932	258.81
245.166	260.81
245.399	258.81
245.633	259.81
245.866	251.81
246.099	270.81
246.333	266.81
246.566	263.81
246.8	268.81
247.033	272.81
247.266	276.81
247.5	288.81
247.733	280.81
247.966	273.81
248.2	294.81
248.433	301.81
248.666	282.81
248.899	278.81
249.133	286.81
249.366	314.81
249.599	294.81
249.832	292.81
250.066	291.81
250.299	285.81
250.532	305.81
250.765	307.81
250.998	300.81
251.231	342.81
251.465	345.81
251.698	300.81
251.931	326.81
252.164	329.81
252.397	310.81
252.63	327.81
252.863	330.81
253.096	327.81
253.329	315.81
253.562	332.81
253.795	334.81
254.028	348.81
254.261	342.81
254.494	331.81
254.727	345.81
254.96	352.81
255.193	357.81
255.426	361.81
255.659	351.81
255.892	352.81
256.124	370.81
256.357	342.81
256.59	363.81
256.823	358.81
257.056	358.81
257.289	379.81
257.521	374.81
257.754	370.81
257.987	385.81
258.22	377.81
258.452	383.81
258.685	371.81
258.918	391.81
259.151	373.81
259.383	362.81
259.616	388.81
259.849	406.81
260.081	396.81
260.314	385.81
260.547	407.81
260.779	392.81
261.012	390.81
261.244	400.81
261.477	414.81
261.71	414.81
261.942	407.81
262.175	414.81
262.407	405.81
262.64	416.81
262.872	413.81
263.105	410.81
263.337	411.81
263.57	410.81
263.802	416.81
264.035	440.81
264.267	412.81
264.499	414.81
264.732	414.81
264.964	435.81
265.197	425.81
265.429	416.81
265.661	423.81
265.894	452.81
266.126	452.81
266.358	451.81
266.591	443.81
266.823	452.81
267.055	442.81
267.287	458.81
267.52	444.81
267.752	464.81
267.984	447.81
268.216	491.81
268.448	454.81
268.681	456.81
268.913	463.81
269.145	453.81
269.377	464.81
269.609	477.81
269.841	462.81
270.073	478.81
270.306	482.81
270.538	472.81
270.77	474.81
271.002	466.81
271.234	467.81
271.466	475.81
271.698	512.81
271.93	498.81
272.162	489.81
272.394	501.81
272.626	514.81
272.858	484.81
273.09	502.81
273.322	499.81
273.553	516.81
273.785	484.81
274.017	498.81
274.249	510.81
274.481	517.81
274.713	529.81
274.945	539.81
275.176	532.81
275.408	554.81
275.64	560.81
275.872	544.81
276.104	523.81
276.335	542.81
276.567	546.81
276.799	546.81
277.031	534.81
277.262	522.81
277.494	553.81
277.726	558.81
277.957	551.81
278.189	546.81
278.421	541.81
278.652	550.81
278.884	566.81
279.115	568.81
279.347	577.81
279.579	573.81
279.81	556.81
280.042	545.81
280.273	546.81
280.505	545.81
280.736	593.81
280.968	563.81
281.199	556.81
281.431	574.81
281.662	580.81
281.894	573.81
282.125	571.81
282.356	584.81
282.588	581.81
282.819	581.81
283.051	590.81
283.282	593.81
283.513	582.81
283.745	613.81
283.976	584.81
284.207	606.81
284.439	619.81
284.67	634.81
284.901	593.81
285.132	613.81
285.364	592.81
285.595	653.81
285.826	639.81
286.057	620.81
286.288	609.81
286.52	635.81
286.751	638.81
286.982	632.81
287.213	629.81
287.444	621.81
287.675	652.81
287.906	662.81
288.138	627.81
288.369	646.81
288.6	664.81
288.831	637.81
289.062	634.81
289.293	613.81
289.524	638.81
289.755	644.81
289.986	650.81
290.217	653.81
290.448	657.81
290.679	655.81
290.91	644.81
291.141	650.81
291.371	640.81
291.602	669.81
291.833	632.81
292.064	658.81
292.295	639.81
292.526	641.81
292.757	644.81
292.987	647.81
293.218	662.81
293.449	634.81
293.68	644.81
293.91	667.81
294.141	678.81
294.372	670.81
294.603	659.81
294.833	670.81
295.064	673.81
295.295	675.81
295.525	642.81
295.756	666.81
295.987	655.81
296.217	676.81
296.448	701.81
296.679	687.81
296.909	647.81
297.14	695.81
297.37	693.81
297.601	680.81
297.831	679.81
298.062	684.81
298.292	678.81
298.523	716.81
298.753	733.81
298.984	676.81
299.214	713.81
299.445	708.81
299.675	714.81
299.905	735.81
300.136	743.81
300.366	726.81
300.597	742.81
300.827	736.81
301.057	726.81
301.288	747.81
301.518	738.81
301.748	743.81
301.979	759.81
302.209	728.81
302.439	746.81
302.669	761.81
302.9	730.81
303.13	733.81
303.36	738.81
303.59	751.81
303.82	736.81
304.051	767.81
304.281	774.81
304.511	718.81
304.741	768.81
304.971	775.81
305.201	799.81
305.431	774.81
305.661	776.81
305.891	772.81
306.121	786.81
306.352	763.81
306.582	739.81
306.812	741.81
307.042	746.81
307.272	787.81
307.502	751.81
307.731	747.81
307.961	750.81
308.191	731.81
308.421	730.81
308.651	752.81
308.881	770.81
309.111	773.81
309.341	774.81
309.571	764.81
309.8	785.81
310.03	780.81
310.26	820.81
310.49	806.81
310.72	796.81
310.949	769.81
311.179	783.81
311.409	791.81
311.639	782.81
311.868	778.81
312.098	773.81
312.328	775.81
312.557	798.81
312.787	815.81
313.017	799.81
313.246	802.81
313.476	823.81
313.706	845.81
313.935	819.81
314.165	837.81
314.394	824.81
314.624	838.81
314.853	802.81
315.083	794.81
315.312	823.81
315.542	830.81
315.771	822.81
316.001	813.81
316.23	822.81
316.46	814.81
316.689	855.81
316.919	831.81
317.148	830.81
317.377	819.81
317.607	838.81
317.836	808.81
318.065	841.81
318.295	834.81
318.524	853.81
318.753	815.81
318.983	815.81
319.212	829.81
319.441	806.81
319.67	838.81
319.9	828.81
320.129	836.81
320.358	841.81
320.587	830.81
320.816	842.81
321.046	864.81
321.275	867.81
321.504	883.81
321.733	854.81
321.962	824.81
322.191	863.81
322.42	886.81
322.649	882.81
322.878	852.81
323.108	876.81
323.337	869.81
323.566	875.81
323.795	883.81
324.024	879.81
324.253	896.81
324.482	882.81
324.71	909.81
324.939	880.81
325.168	895.81
325.397	894.81
325.626	902.81
325.855	906.81
326.084	871.81
326.313	891.81
326.542	928.81
326.77	926.81
326.999	908.81
327.228	935.81
327.457	926.81
327.686	932.81
327.914	924.81
328.143	948.81
328.372	927.81
328.6	905.81
328.829	908.81
329.058	932.81
329.287	899.81
329.515	909.81
329.744	950.81
329.972	929.81
330.201	963.81
330.43	947.81
330.658	960.81
330.887	963.81
331.115	956.81
331.344	978.81
331.572	981.81
331.801	1013.81
332.03	989.81
332.258	1020.81
332.486	1024.81
332.715	1027.81
332.943	1047.81
333.172	1067.81
333.4	1063.81
333.629	1102.81
333.857	1096.81
334.085	1123.81
334.314	1115.81
334.542	1132.81
334.771	1133.81
334.999	1133.81
335.227	1102.81
335.455	1111.81
335.684	1104.81
335.912	1122.81
336.14	1100.81
336.369	1094.81
336.597	1087.81
336.825	1116.81
337.053	1105.81
337.281	1119.81
337.51	1083.81
337.738	1092.81
337.966	1101.81
338.194	1102.81
338.422	1051.81
338.65	1054.81
338.878	1033.81
339.106	1058.81
339.334	1052.81
339.562	1037.81
339.79	1030.81
340.018	980.81
340.246	989.81
340.474	1035.81
340.702	1014.81
340.93	1007.81
341.158	1004.81
341.386	1048.81
341.614	1063.81
341.842	1035.81
342.07	1008.81
342.298	982.81
342.526	989.81
342.754	1004.81
342.981	994.81
343.209	1000.81
343.437	1074.81
343.665	1082.81
343.893	1131.81
344.12	1131.81
344.348	1124.81
344.576	1091.81
344.804	1076.81
345.031	1033.81
345.259	1021.81
345.487	1030.81
345.714	1013.81
345.942	1055.81
346.17	1034.81
346.397	1014.81
346.625	973.81
346.853	945.81
347.08	961.81
347.308	999.81
347.535	973.81
347.763	985.81
347.99	969.81
348.218	930.81
348.445	976.81
348.673	942.81
348.9	976.81
349.128	972.81
349.355	975.81
349.583	979.81
349.81	942.81
350.037	946.81
350.265	923.81
350.492	934.81
350.72	962.81
350.947	938.81
351.174	972.81
351.402	969.81
351.629	985.81
351.856	984.81
352.083	961.81
352.311	960.81
352.538	1010.81
352.765	1011.81
352.992	940.81
353.22	930.81
353.447	897.81
353.674	918.81
353.901	902.81
354.128	928.81
354.355	928.81
354.583	930.81
354.81	900.81
355.037	936.81
355.264	892.81
355.491	950.81
355.718	913.81
355.945	916.81
356.172	941.81
356.399	963.81
356.626	950.81
356.853	992.81
357.08	932.81
357.307	930.81
357.534	932.81
357.761	923.81
357.988	940.81
358.215	949.81
358.441	912.81
358.668	933.81
358.895	956.81
359.122	941.81
359.349	915.81
359.576	918.81
359.802	931.81
360.029	947.81
360.256	952.81
360.483	940.81
360.709	923.81
360.936	944.81
361.163	948.81
361.39	959.81
361.616	960.81
361.843	952.81
362.07	1028.81
362.296	1012.81
362.523	938.81
362.749	930.81
362.976	906.81
363.203	941.81
363.429	942.81
363.656	952.81
363.882	933.81
364.109	939.81
364.335	952.81
364.562	934.81
364.788	931.81
365.015	933.81
365.241	943.81
365.468	944.81
365.694	963.81
365.92	936.81
366.147	929.81
366.373	987.81
366.599	945.81
366.826	948.81
367.052	932.81
367.278	926.81
367.505	963.81
367.731	970.81
367.957	954.81
368.184	952.81
368.41	947.81
368.636	931.81
368.862	990.81
369.089	950.81
369.315	944.81
369.541	977.81
369.767	982.81
369.993	966.81
370.219	965.81
370.445	965.81
370.672	1003.81
370.898	1006.81
371.124	999.81
371.35	1030.81
371.576	982.81
371.802	1012.81
372.028	1008.81
372.254	1024.81
372.48	1030.81
372.706	1033.81
372.932	1001.81
373.158	1025.81
373.384	1016.81
373.61	1002.81
373.835	1029.81
374.061	1018.81
374.287	983.81
374.513	1041.81
374.739	1045.81
374.965	1036.81
375.191	1068.81
375.416	1065.81
375.642	1059.81
375.868	1051.81
376.094	1060.81
376.319	1016.81
376.545	1001.81
376.771	1032.81
376.997	1013.81
377.222	1018.81
377.448	1019.81
377.674	1002.81
377.899	1018.81
378.125	1000.81
378.35	1010.81
378.576	983.81
378.802	1011.81
379.027	974.81
379.253	994.81
379.478	987.81
379.704	979.81
379.929	977.81
380.155	994.81
380.38	985.81
380.606	1003.81
380.831	1014.81
381.057	998.81
381.282	981.81
381.507	997.81
381.733	1011.81
381.958	1006.81
382.184	1009.81
382.409	1026.81
382.634	1043.81
382.86	1026.81
383.085	1065.81
383.31	1057.81
383.535	1085.81
383.761	1048.81
383.986	1056.81
384.211	1087.81
384.436	1099.81
384.662	1068.81
384.887	1138.81
385.112	1111.81
385.337	1157.81
385.562	1154.81
385.787	1128.81
386.013	1150.81
386.238	1150.81
386.463	1175.81
386.688	1178.81
386.913	1150.81
387.138	1159.81
387.363	1178.81
387.588	1129.81
387.813	1169.81
388.038	1152.81
388.263	1148.81
388.488	1136.81
388.713	1165.81
388.938	1164.81
389.163	1178.81
389.387	1169.81
389.612	1123.81
389.837	1166.81
390.062	1150.81
390.287	1157.81
390.512	1179.81
390.736	1187.81
390.961	1196.81
391.186	1213.81
391.411	1234.81
391.636	1214.81
391.86	1250.81
392.085	1271.81
392.31	1258.81
392.534	1253.81
392.759	1271.81
392.984	1248.81
393.208	1213.81
393.433	1226.81
393.658	1226.81
393.882	1236.81
394.107	1231.81
394.331	1204.81
394.556	1227.81
394.78	1242.81
395.005	1233.81
395.229	1248.81
395.454	1259.81
395.678	1253.81
395.903	1278.81
396.127	1276.81
396.352	1249.81
396.576	1266.81
396.801	1251.81
397.025	1268.81
397.249	1305.81
397.474	1293.81
397.698	1274.81
397.922	1306.81
398.147	1300.81
398.371	1351.81
398.595	1379.81
398.82	1438.81
399.044	1466.81
399.268	1550.81
399.492	1647.81
399.717	1698.81
399.941	1751.81
400.165	1671.81
400.389	1647.81
400.613	1550.81
400.837	1500.81
401.062	1453.81
401.286	1432.81
401.51	1436.81
401.734	1424.81
401.958	1402.81
402.182	1402.81
402.406	1435.81
402.63	1407.81
402.854	1449.81
403.078	1439.81
403.302	1438.81
403.526	1429.81
403.75	1476.81
403.974	1487.81
404.198	1492.81
404.422	1478.81
404.645	1463.81
404.869	1419.81
405.093	1442.81
405.317	1467.81
405.541	1503.81
405.765	1520.81
405.988	1447.81
406.212	1514.81
406.436	1570.81
406.66	1574.81
406.883	1588.81
407.107	1635.81
407.331	1646.81
407.555	1677.81
407.778	1707.81
408.002	1660.81
408.226	1619.81
408.449	1628.81
408.673	1582.81
408.896	1571.81
409.12	1576.81
409.344	1574.81
409.567	1535.81
409.791	1544.81
410.014	1507.81
410.238	1518.81
410.461	1497.81
410.685	1540.81
410.908	1486.81
411.132	1531.81
411.355	1466.81
411.578	1454.81
411.802	1457.81
412.025	1468.81
412.249	1475.81
412.472	1436.81
412.695	1407.81
412.919	1419.81
413.142	1414.81
413.365	1425.81
413.589	1464.81
413.812	1421.81
414.035	1438.81
414.258	1449.81
414.482	1416.81
414.705	1414.81
414.928	1432.81
415.151	1407.81
415.374	1424.81
415.597	1400.81
415.821	1384.81
416.044	1369.81
416.267	1352.81
416.49	1366.81
416.713	1368.81
416.936	1394.81
417.159	1347.81
417.382	1378.81
417.605	1339.81
417.828	1360.81
418.051	1375.81
418.274	1365.81
418.497	1362.81
418.72	1378.81
418.943	1369.81
419.166	1456.81
419.389	1525.81
419.611	1483.81
419.834	1467.81
420.057	1422.81
420.28	1412.81
420.503	1341.81
420.726	1346.81
420.948	1376.81
421.171	1346.81
421.394	1368.81
421.617	1327.81
421.839	1366.81
422.062	1370.81
422.285	1323.81
422.507	1374.81
422.73	1348.81
422.953	1344.81
423.175	1365.81
423.398	1354.81
423.621	1368.81
423.843	1382.81
424.066	1421.81
424.288	1370.81
424.511	1348.81
424.733	1364.81
424.956	1341.81
425.178	1352.81
425.401	1383.81
425.623	1332.81
425.846	1309.81
426.068	1338.81
426.291	1314.81
426.513	1323.81
426.735	1303.81
426.958	1339.81
427.18	1292.81
427.402	1285.81
427.625	1264.81
427.847	1267.81
428.069	1295.81
428.292	1310.81
428.514	1294.81
428.736	1276.81
428.958	1276.81
429.181	1210.81
429.403	1261.81
429.625	1258.81
429.847	1240.81
430.069	1228.81
430.292	1261.81
430.514	1261.81
430.736	1239.81
430.958	1275.81
431.18	1261.81
431.402	1251.81
431.624	1242.81
431.846	1249.81
432.068	1250.81
432.29	1284.81
432.512	1247.81
432.734	1321.81
432.956	1305.81
433.178	1310.81
433.4	1316.81
433.622	1301.81
433.844	1324.81
434.066	1311.81
434.287	1331.81
434.509	1303.81
434.731	1365.81
434.953	1352.81
435.175	1371.81
435.397	1366.81
435.618	1310.81
435.84	1319.81
436.062	1323.81
436.284	1291.81
436.505	1275.81
436.727	1312.81
436.949	1300.81
437.17	1260.81
437.392	1267.81
437.614	1240.81
437.835	1172.81
438.057	1231.81
438.278	1236.81
438.5	1208.81
438.721	1190.81
438.943	1248.81
439.165	1210.81
439.386	1206.81
439.608	1267.81
439.829	1264.81
440.05	1253.81
440.272	1268.81
440.493	1272.81
440.715	1306.81
440.936	1290.81
441.158	1336.81
441.379	1347.81
441.6	1382.81
441.822	1352.81
442.043	1370.81
442.264	1335.81
442.486	1312.81
442.707	1351.81
442.928	1334.81
443.149	1321.81
443.371	1344.81
443.592	1407.81
443.813	1369.81
444.034	1362.81
444.255	1406.81
444.476	1414.81
444.698	1476.81
444.919	1461.81
445.14	1566.81
445.361	1484.81
445.582	1410.81
445.803	1348.81
446.024	1298.81
446.245	1316.81
446.466	1308.81
446.687	1301.81
446.908	1258.81
447.129	1245.81
447.35	1225.81
447.571	1218.81
447.792	1192.81
448.013	1195.81
448.234	1169.81
448.455	1175.81
448.675	1182.81
448.896	1164.81
449.117	1149.81
449.338	1167.81
449.559	1115.81
449.779	1156.81
450	1138.81
450.221	1149.81
450.442	1173.81
450.662	1132.81
450.883	1180.81
451.104	1170.81
451.324	1186.81
451.545	1179.81
451.766	1173.81
451.986	1128.81
452.207	1146.81
452.428	1120.81
452.648	1156.81
452.869	1140.81
453.089	1123.81
453.31	1136.81
453.53	1127.81
453.751	1128.81
453.971	1129.81
454.192	1132.81
454.412	1128.81
454.633	1121.81
454.853	1102.81
455.073	1050.81
455.294	1093.81
455.514	1108.81
455.734	1143.81
455.955	1096.81
456.175	1096.81
456.395	1056.81
456.616	1085.81
456.836	1090.81
457.056	1087.81
457.276	1098.81
457.497	1116.81
457.717	1128.81
457.937	1109.81
458.157	1142.81
458.377	1127.81
458.598	1154.81
458.818	1186.81
459.038	1189.81
459.258	1247.81
459.478	1278.81
459.698	1366.81
459.918	1356.81
460.138	1380.81
460.358	1344.81
460.578	1384.81
460.798	1448.81
461.018	1444.81
461.238	1397.81
461.458	1422.81
461.678	1396.81
461.898	1404.81
462.118	1437.81
462.338	1477.81
462.558	1481.81
462.777	1517.81
462.997	1622.81
463.217	1669.81
463.437	1693.81
463.657	1602.81
463.876	1589.81
464.096	1575.81
464.316	1551.81
464.536	1554.81
464.755	1524.81
464.975	1471.81
465.195	1391.81
465.414	1414.81
465.634	1314.81
465.854	1315.81
466.073	1292.81
466.293	1264.81
466.512	1233.81
466.732	1270.81
466.951	1225.81
467.171	1242.81
467.391	1216.81
467.61	1193.81
467.829	1210.81
468.049	1214.81
468.268	1160.81
468.488	1190.81
468.707	1203.81
468.927	1161.81
469.146	1180.81
469.365	1228.81
469.585	1198.81
469.804	1206.81
470.023	1214.81
470.243	1208.81
470.462	1233.81
470.681	1236.81
470.901	1211.81
471.12	1215.81
471.339	1232.81
471.558	1233.81
471.777	1210.81
471.997	1217.81
472.216	1173.81
472.435	1156.81
472.654	1170.81
472.873	1173.81
473.092	1185.81
473.311	1160.81
473.53	1161.81
473.749	1167.81
473.968	1182.81
474.187	1150.81
474.406	1183.81
474.625	1172.81
474.844	1190.81
475.063	1189.81
475.282	1226.81
475.501	1228.81
475.72	1221.81
475.939	1240.81
476.158	1247.81
476.377	1241.81
476.596	1260.81
476.814	1221.81
477.033	1241.81
477.252	1268.81
477.471	1252.81
477.69	1344.81
477.908	1337.81
478.127	1357.81
478.346	1366.81
478.564	1371.81
478.783	1414.81
479.002	1428.81
479.22	1462.81
479.439	1416.81
479.658	1445.81
479.876	1416.81
480.095	1452.81
480.313	1452.81
480.532	1497.81
480.751	1472.81
480.969	1483.81
481.188	1439.81
481.406	1418.81
481.624	1419.81
481.843	1417.81
482.061	1392.81
482.28	1384.81
482.498	1386.81
482.717	1359.81
482.935	1350.81
483.153	1405.81
483.372	1414.81
483.59	1447.81
483.808	1401.81
484.027	1412.81
484.245	1407.81
484.463	1366.81
484.681	1424.81
484.9	1376.81
485.118	1400.81
485.336	1443.81
485.554	1458.81
485.772	1376.81
485.99	1420.81
486.209	1444.81
486.427	1446.81
486.645	1418.81
486.863	1429.81
487.081	1405.81
487.299	1439.81
487.517	1445.81
487.735	1454.81
487.953	1469.81
488.171	1438.81
488.389	1471.81
488.607	1445.81
488.825	1442.81
489.043	1400.81
489.261	1403.81
489.479	1432.81
489.696	1387.81
489.914	1416.81
490.132	1432.81
490.35	1443.81
490.568	1468.81
490.786	1468.81
491.003	1460.81
491.221	1480.81
491.439	1468.81
491.657	1437.81
491.874	1442.81
492.092	1450.81
492.31	1479.81
492.527	1487.81
492.745	1470.81
492.963	1484.81
493.18	1467.81
493.398	1480.81
493.615	1476.81
493.833	1476.81
494.05	1487.81
494.268	1508.81
494.485	1499.81
494.703	1508.81
494.92	1537.81
495.138	1507.81
495.355	1493.81
495.573	1509.81
495.79	1527.81
496.008	1549.81
496.225	1548.81
496.442	1567.81
496.66	1596.81
496.877	1636.81
497.094	1639.81
497.312	1651.81
497.529	1714.81
497.746	1740.81
497.963	1771.81
498.181	1819.81
498.398	1886.81
498.615	1940.81
498.832	2027.81
499.049	2098.81
499.267	2220.81
499.484	2349.81
499.701	2477.81
499.918	2602.81
500.135	2718.81
500.352	2936.81
500.569	2989.81
500.786	2943.81
501.003	2892.81
501.22	2736.81
501.437	2520.81
501.654	2410.81
501.871	2302.81
502.088	2169.81
502.305	2067.81
502.522	2050.81
502.739	1967.81
502.956	1853.81
503.172	1839.81
503.389	1794.81
503.606	1733.81
503.823	1712.81
504.04	1651.81
504.256	1656.81
504.473	1636.81
504.69	1645.81
504.907	1620.81
505.123	1561.81
505.34	1540.81
505.557	1478.81
505.773	1483.81
505.99	1402.81
506.207	1429.81
506.423	1399.81
506.64	1384.81
506.856	1381.81
507.073	1340.81
507.289	1374.81
507.506	1319.81
507.722	1300.81
507.939	1269.81
508.155	1282.81
508.372	1292.81
508.588	1254.81
508.805	1258.81
509.021	1248.81
509.238	1237.81
509.454	1240.81
509.67	1204.81
509.887	1200.81
510.103	1215.81
510.319	1210.81
510.536	1215.81
510.752	1212.81
510.968	1170.81
511.184	1176.81
511.401	1202.81
511.617	1224.81
511.833	1194.81
512.049	1210.81
512.265	1174.81
512.481	1177.81
512.698	1158.81
512.914	1182.81
513.13	1192.81
513.346	1151.81
513.562	1192.81
513.778	1195.81
513.994	1191.81
514.21	1247.81
514.426	1200.81
514.642	1190.81
514.858	1236.81
515.074	1235.81
515.29	1252.81
515.506	1215.81
515.721	1222.81
515.937	1295.81
516.153	1277.81
516.369	1261.81
516.585	1286.81
516.801	1338.81
517.016	1332.81
517.232	1357.81
517.448	1381.81
517.664	1371.81
517.879	1402.81
518.095	1397.81
518.311	1412.81
518.527	1378.81
518.742	1358.81
518.958	1318.81
519.173	1278.81
519.389	1264.81
519.605	1240.81
519.82	1238.81
520.036	1229.81
520.251	1210.81
520.467	1192.81
520.682	1152.81
520.898	1178.81
521.113	1151.81
521.329	1136.81
521.544	1172.81
521.76	1134.81
521.975	1108.81
522.19	1130.81
522.406	1129.81
522.621	1102.81
522.836	1099.81
523.052	1139.81
523.267	1100.81
523.482	1080.81
523.698	1074.81
523.913	1094.81
524.128	1107.81
524.343	1073.81
524.559	1047.81
524.774	1068.81
524.989	1075.81
525.204	1068.81
525.419	1088.81
525.634	1078.81
525.849	1091.81
526.064	1067.81
526.28	1043.81
526.495	1041.81
526.71	1016.81
526.925	1040.81
527.14	1035.81
527.355	1042.81
527.57	1016.81
527.785	1055.81
527.999	1028.81
528.214	1044.81
528.429	1024.81
528.644	1036.81
528.859	1016.81
529.074	1053.81
529.289	1040.81
529.503	1026.81
529.718	1036.81
529.933	1028.81
530.148	1020.81
530.363	1047.81
530.577	1000.81
530.792	1026.81
531.007	1054.81
531.221	1040.81
531.436	1032.81
531.651	999.81
531.865	1024.81
532.08	1011.81
532.295	1013.81
532.509	999.81
532.724	1010.81
532.938	1030.81
533.153	1003.81
533.367	1039.81
533.582	1006.81
533.796	1046.81
534.011	1005.81
534.225	995.81
534.44	983.81
534.654	960.81
534.868	978.81
535.083	998.81
535.297	967.81
535.511	959.81
535.726	979.81
535.94	989.81
536.154	998.81
536.369	965.81
536.583	955.81
536.797	970.81
537.011	965.81
537.225	953.81
537.44	951.81
537.654	939.81
537.868	940.81
538.082	952.81
538.296	916.81
538.51	909.81
538.724	973.81
538.938	921.81
539.153	955.81
539.367	906.81
539.581	946.81
539.795	925.81
540.009	931.81
540.222	941.81
540.436	919.81
540.65	898.81
540.864	928.81
541.078	914.81
541.292	915.81
541.506	923.81
541.72	901.81
541.934	934.81
542.147	946.81
542.361	890.81
542.575	911.81
542.789	912.81
543.002	903.81
543.216	893.81
543.43	925.81
543.644	908.81
543.857	916.81
544.071	927.81
544.285	928.81
544.498	916.81
544.712	899.81
544.925	907.81
545.139	894.81
545.352	938.81
545.566	906.81
545.779	908.81
545.993	907.81
546.206	927.81
546.42	923.81
546.633	895.81
546.847	923.81
547.06	914.81
547.274	950.81
547.487	917.81
547.7	905.81
547.914	933.81
548.127	917.81
548.34	941.81
548.554	924.81
548.767	924.81
548.98	891.81
549.193	916.81
549.407	951.81
549.62	910.81
549.833	938.81
550.046	910.81
550.259	908.81
550.473	896.81
550.686	897.81
550.899	889.81
551.112	917.81
551.325	904.81
551.538	909.81
551.751	895.81
551.964	902.81
552.177	919.81
552.39	923.81
552.603	934.81
552.816	950.81
553.029	950.81
553.242	930.81
553.455	953.81
553.667	975.81
553.88	948.81
554.093	918.81
554.306	883.81
554.519	893.81
554.732	899.81
554.944	888.81
555.157	863.81
555.37	842.81
555.583	840.81
555.795	854.81
556.008	836.81
556.221	822.81
556.433	833.81
556.646	797.81
556.859	828.81
557.071	806.81
557.284	792.81
557.496	795.81
557.709	787.81
557.921	805.81
558.134	805.81
558.346	794.81
558.559	795.81
558.771	813.81
558.984	779.81
559.196	748.81
559.409	771.81
559.621	757.81
559.833	774.81
560.046	778.81
560.258	778.81
560.47	771.81
560.683	751.81
560.895	765.81
561.107	754.81
561.32	792.81
561.532	744.81
561.744	774.81
561.956	754.81
562.168	764.81
562.381	780.81
562.593	769.81
562.805	752.81
563.017	768.81
563.229	776.81
563.441	777.81
563.653	808.81
563.865	815.81
564.077	797.81
564.289	792.81
564.501	794.81
564.713	834.81
564.925	851.81
565.137	845.81
565.349	869.81
565.561	862.81
565.773	891.81
565.985	938.81
566.197	946.81
566.408	967.81
566.62	989.81
566.832	1009.81
567.044	1038.81
567.255	1046.81
567.467	1062.81
567.679	1098.81
567.891	1110.81
568.102	1102.81
568.314	1056.81
568.526	1002.81
568.737	966.81
568.949	910.81
569.161	895.81
569.372	863.81
569.584	859.81
569.795	803.81
570.007	810.81
570.218	770.81
570.43	809.81
570.641	774.81
570.853	754.81
571.064	769.81
571.276	759.81
571.487	748.81
571.698	726.81
571.91	711.81
572.121	712.81
572.333	674.81
572.544	661.81
572.755	624.81
572.966	638.81
573.178	663.81
573.389	644.81
573.6	642.81
573.811	645.81
574.023	606.81
574.234	646.81
574.445	626.81
574.656	606.81
574.867	607.81
575.078	608.81
575.289	635.81
575.501	620.81
575.712	621.81
575.923	581.81
576.134	610.81
576.345	588.81
576.556	602.81
576.767	579.81
576.978	561.81
577.188	587.81
577.399	596.81
577.61	579.81
577.821	579.81
578.032	583.81
578.243	581.81
578.454	557.81
578.665	565.81
578.875	568.81
579.086	560.81
579.297	555.81
579.508	567.81
579.718	532.81
579.929	538.81
580.14	538.81
580.35	543.81
580.561	544.81
580.772	533.81
580.982	540.81
581.193	518.81
581.403	519.81
581.614	515.81
581.825	549.81
582.035	534.81
582.246	528.81
582.456	530.81
582.667	517.81
582.877	528.81
583.087	541.81
583.298	495.81
583.508	532.81
583.719	493.81
583.929	494.81
584.139	518.81
584.35	506.81
584.56	516.81
584.77	514.81
584.981	508.81
585.191	502.81
585.401	499.81
585.611	513.81
585.821	499.81
586.032	515.81
586.242	513.81
586.452	513.81
586.662	514.81
586.872	527.81
587.082	500.81
587.292	510.81
587.502	509.81
587.713	489.81
587.923	479.81
588.133	492.81
588.343	475.81
588.553	481.81
588.762	505.81
588.972	494.81
589.182	550.81
589.392	555.81
589.602	524.81
589.812	520.81
590.022	521.81
590.232	503.81
590.441	506.81
590.651	506.81
590.861	493.81
591.071	495.81
591.281	500.81
591.49	516.81
591.7	521.81
591.91	515.81
592.119	535.81
592.329	518.81
592.539	547.81
592.748	542.81
592.958	532.81
593.167	541.81
593.377	546.81
593.587	542.81
593.796	567.81
594.006	532.81
594.215	553.81
594.424	541.81
594.634	550.81
594.843	527.81
595.053	528.81
595.262	522.81
595.472	491.81
595.681	518.81
595.89	492.81
596.1	480.81
596.309	483.81
596.518	478.81
596.727	478.81
596.937	487.81
597.146	467.81
597.355	444.81
597.564	463.81
597.774	448.81
597.983	437.81
598.192	434.81
598.401	418.81
598.61	423.81
598.819	440.81
599.028	417.81
599.237	430.81
599.446	430.81
599.655	418.81
599.864	430.81
600.073	420.81
600.282	409.81
600.491	405.81
600.7	413.81
600.909	396.81
601.118	424.81
601.327	404.81
601.536	403.81
601.745	408.81
601.953	420.81
602.162	419.81
602.371	413.81
602.58	417.81
602.789	408.81
602.997	404.81
603.206	399.81
603.415	399.81
603.623	399.81
603.832	394.81
604.041	394.81
604.249	391.81
604.458	389.81
604.666	387.81
604.875	370.81
605.084	395.81
605.292	386.81
605.501	374.81
605.709	363.81
605.918	388.81
606.126	387.81
606.334	385.81
606.543	374.81
606.751	384.81
606.96	367.81
607.168	388.81
607.376	392.81
607.585	386.81
607.793	381.81
608.001	386.81
608.21	372.81
608.418	388.81
608.626	363.81
608.834	391.81
609.043	370.81
609.251	400.81
609.459	362.81
609.667	372.81
609.875	352.81
610.083	350.81
610.291	356.81
610.499	359.81
610.707	362.81
610.916	360.81
611.124	371.81
611.332	355.81
611.54	370.81
611.748	334.81
611.955	352.81
612.163	364.81
612.371	357.81
612.579	360.81
612.787	357.81
612.995	362.81
613.203	359.81
613.411	362.81
613.618	353.81
613.826	335.81
614.034	372.81
614.242	364.81
614.449	354.81
614.657	358.81
614.865	355.81
615.072	342.81
615.28	356.81
615.488	352.81
615.695	344.81
615.903	354.81
616.111	342.81
616.318	346.81
616.526	356.81
616.733	341.81
616.941	349.81
617.148	364.81
617.356	323.81
617.563	347.81
617.771	341.81
617.978	336.81
618.185	350.81
618.393	350.81
618.6	334.81
618.807	346.81
619.015	339.81
619.222	341.81
619.429	331.81
619.637	375.81
619.844	340.81
620.051	325.81
620.258	332.81
620.466	332.81
620.673	312.81
620.88	323.81
621.087	320.81
621.294	315.81
621.501	343.81
621.708	328.81
621.915	325.81
622.122	340.81
622.329	310.81
622.536	329.81
622.743	314.81
622.95	310.81
623.157	335.81
623.364	311.81
623.571	318.81
623.778	334.81
623.985	325.81
624.192	315.81
624.399	314.81
624.606	313.81
624.812	327.81
625.019	312.81
625.226	329.81
625.433	310.81
625.639	316.81
625.846	310.81
626.053	308.81
626.259	294.81
626.466	313.81
626.673	326.81
626.879	298.81
627.086	301.81
627.293	298.81
627.499	302.81
627.706	315.81
627.912	297.81
628.119	274.81
628.325	295.81
628.532	300.81
628.738	277.81
628.945	293.81
629.151	293.81
629.357	291.81
629.564	290.81
629.77	302.81
629.976	264.81
630.183	299.81
630.389	273.81
630.595	286.81
630.802	298.81
631.008	286.81
631.214	296.81
631.42	286.81
631.627	274.81
631.833	255.81
632.039	266.81
632.245	268.81
632.451	262.81
632.657	291.81
632.863	286.81
633.069	267.81
633.275	282.81
633.481	260.81
633.688	266.81
633.893	255.81
634.099	279.81
634.305	260.81
634.511	280.81
634.717	267.81
634.923	253.81
635.129	276.81
635.335	260.81
635.541	271.81
635.747	275.81
635.952	260.81
636.158	237.81
636.364	269.81
636.57	281.81
636.775	279.81
636.981	269.81
637.187	253.81
637.392	268.81
637.598	279.81
637.804	257.81
638.009	263.81
638.215	263.81
638.421	271.81
638.626	257.81
638.832	271.81
639.037	271.81
639.243	254.81
639.448	250.81
639.654	271.81
639.859	266.81
640.065	263.81
640.27	248.81
640.475	262.81
640.681	269.81
640.886	236.81
641.091	248.81
641.297	272.81
641.502	267.81
641.707	261.81
641.913	246.81
642.118	247.81
642.323	247.81
642.528	234.81
642.733	249.81
642.939	256.81
643.144	257.81
643.349	247.81
643.554	259.81
643.759	269.81
643.964	223.81
644.169	234.81
644.374	249.81
644.579	249.81
644.784	230.81
644.989	241.81
645.194	246.81
645.399	255.81
645.604	255.81
645.809	256.81
646.014	247.81
646.219	248.81
646.423	260.81
646.628	247.81
646.833	250.81
647.038	253.81
647.243	258.81
647.447	244.81
647.652	263.81
647.857	267.81
648.062	271.81
648.266	266.81
648.471	263.81
648.676	246.81
648.88	242.81
649.085	287.81
649.289	263.81
649.494	260.81
649.698	271.81
649.903	252.81
650.107	243.81
650.312	266.81
650.516	258.81
650.721	258.81
650.925	248.81
651.13	244.81
651.334	257.81
651.539	244.81
651.743	227.81
651.947	247.81
652.152	253.81
652.356	239.81
652.56	255.81
652.764	244.81
652.969	221.81
653.173	221.81
653.377	249.81
653.581	238.81
653.785	228.81
653.99	232.81
654.194	222.81
654.398	250.81
654.602	225.81
654.806	251.81
655.01	221.81
655.214	230.81
655.418	239.81
655.622	238.81
655.826	240.81
656.03	228.81
656.234	264.81
656.438	246.81
656.642	246.81
656.846	231.81
657.049	238.81
657.253	215.81
657.457	208.81
657.661	187.81
657.865	197.81
658.068	189.81
658.272	168.81
658.476	174.81
658.68	154.81
658.883	160.81
659.087	151.81
659.291	132.81
659.494	132.81
659.698	136.81
659.901	140.81
660.105	124.81
660.309	124.81
660.512	120.81
660.716	124.81
660.919	110.81
661.123	115.81
661.326	114.81
661.53	106.81
661.733	93.81
661.936	110.81
662.14	103.81
662.343	100.81
662.546	98.81
662.75	97.81
662.953	90.81
663.156	101.81
663.36	96.81
663.563	82.81
663.766	101.81
663.969	97.81
664.173	83.81
664.376	82.81
664.579	79.81
664.782	81.81
664.985	86.81
665.188	80.81
665.391	91.81
665.594	96.81
665.797	96.81
666	85.81
666.203	80.81
666.406	82.81
666.609	79.81
666.812	70.81
667.015	80.81
667.218	85.81
667.421	94.81
667.624	94.81
667.827	85.81
668.03	103.81
668.232	84.81
668.435	87.81
668.638	79.81
668.841	85.81
669.043	78.81
669.246	95.81
669.449	91.81
669.651	89.81
669.854	76.81
670.057	92.81
670.259	83.81
670.462	98.81
670.665	62.81
670.867	83.81
671.07	101.81
671.272	72.81
671.475	102.81
671.677	89.81
671.88	89.81
672.082	94.81
672.284	91.81
672.487	99.81
672.689	93.81
672.892	86.81
