Data from Ni(NO3)2@0.25M.TitratingCurve.Agarose3%dH2O.NegLispCup.LampEnergy10.LIBS07252019_HRD10591_18-02-53-565.txt Node
Date: Thu Jul 25 18:02:53 EDT 2019
User: cochatt
Spectrometer: HR+D1059
Trigger mode: 1
Integration Time (sec): 1.000000E-1
Scans to average: 1
Electric dark correction enabled: true
Nonlinearity correction enabled: false
Boxcar width: 0
XAxis mode: Wavelengths
Number of Pixels in Spectrum: 2048
>>>>>Begin Spectral Data<<<<<
223.165	-15.31
223.4	-15.31
223.635	-15.31
223.869	-21.31
224.104	-10.31
224.338	-12.31
224.573	-5.31
224.808	-29.31
225.042	-16.31
225.277	-1.31
225.511	8.69
225.746	-13.31
225.98	8.69
226.215	18.69
226.449	13.69
226.683	19.69
226.918	40.69
227.152	14.69
227.387	37.69
227.621	45.69
227.856	31.69
228.09	40.69
228.324	58.69
228.559	58.69
228.793	72.69
229.027	70.69
229.262	80.69
229.496	93.69
229.73	84.69
229.964	109.69
230.199	113.69
230.433	104.69
230.667	106.69
230.901	122.69
231.136	104.69
231.37	113.69
231.604	117.69
231.838	117.69
232.072	102.69
232.306	91.69
232.541	113.69
232.775	94.69
233.009	115.69
233.243	105.69
233.477	118.69
233.711	114.69
233.945	111.69
234.179	121.69
234.413	115.69
234.647	118.69
234.881	119.69
235.115	116.69
235.349	106.69
235.583	107.69
235.817	111.69
236.051	104.69
236.285	109.69
236.519	117.69
236.753	127.69
236.987	111.69
237.221	114.69
237.455	111.69
237.689	125.69
237.922	120.69
238.156	117.69
238.39	117.69
238.624	116.69
238.858	130.69
239.091	117.69
239.325	103.69
239.559	108.69
239.793	125.69
240.027	136.69
240.26	124.69
240.494	127.69
240.728	137.69
240.961	125.69
241.195	115.69
241.429	129.69
241.662	139.69
241.896	142.69
242.13	142.69
242.363	125.69
242.597	113.69
242.83	135.69
243.064	138.69
243.298	141.69
243.531	139.69
243.765	135.69
243.998	135.69
244.232	144.69
244.465	143.69
244.699	144.69
244.932	159.69
245.166	160.69
245.399	146.69
245.633	142.69
245.866	151.69
246.099	153.69
246.333	166.69
246.566	148.69
246.8	163.69
247.033	167.69
247.266	183.69
247.5	165.69
247.733	167.69
247.966	186.69
248.2	177.69
248.433	165.69
248.666	169.69
248.899	181.69
249.133	202.69
249.366	203.69
249.599	188.69
249.832	195.69
250.066	200.69
250.299	208.69
250.532	197.69
250.765	222.69
250.998	211.69
251.231	223.69
251.465	223.69
251.698	230.69
251.931	246.69
252.164	230.69
252.397	249.69
252.63	233.69
252.863	247.69
253.096	246.69
253.329	272.69
253.562	247.69
253.795	265.69
254.028	234.69
254.261	264.69
254.494	275.69
254.727	286.69
254.96	279.69
255.193	291.69
255.426	291.69
255.659	283.69
255.892	308.69
256.124	309.69
256.357	303.69
256.59	303.69
256.823	305.69
257.056	310.69
257.289	307.69
257.521	309.69
257.754	311.69
257.987	325.69
258.22	334.69
258.452	330.69
258.685	322.69
258.918	307.69
259.151	342.69
259.383	349.69
259.616	341.69
259.849	341.69
260.081	351.69
260.314	365.69
260.547	339.69
260.779	345.69
261.012	362.69
261.244	368.69
261.477	352.69
261.71	374.69
261.942	375.69
262.175	372.69
262.407	375.69
262.64	376.69
262.872	371.69
263.105	379.69
263.337	385.69
263.57	391.69
263.802	390.69
264.035	395.69
264.267	374.69
264.499	375.69
264.732	380.69
264.964	398.69
265.197	379.69
265.429	395.69
265.661	404.69
265.894	397.69
266.126	410.69
266.358	400.69
266.591	414.69
266.823	424.69
267.055	398.69
267.287	396.69
267.52	393.69
267.752	411.69
267.984	415.69
268.216	410.69
268.448	419.69
268.681	411.69
268.913	414.69
269.145	414.69
269.377	406.69
269.609	392.69
269.841	400.69
270.073	381.69
270.306	409.69
270.538	421.69
270.77	413.69
271.002	412.69
271.234	441.69
271.466	430.69
271.698	415.69
271.93	423.69
272.162	408.69
272.394	405.69
272.626	453.69
272.858	436.69
273.09	447.69
273.322	414.69
273.553	429.69
273.785	446.69
274.017	441.69
274.249	445.69
274.481	448.69
274.713	421.69
274.945	426.69
275.176	423.69
275.408	414.69
275.64	412.69
275.872	421.69
276.104	444.69
276.335	453.69
276.567	445.69
276.799	449.69
277.031	435.69
277.262	447.69
277.494	445.69
277.726	442.69
277.957	448.69
278.189	452.69
278.421	459.69
278.652	445.69
278.884	447.69
279.115	433.69
279.347	447.69
279.579	457.69
279.81	424.69
280.042	419.69
280.273	464.69
280.505	440.69
280.736	449.69
280.968	449.69
281.199	445.69
281.431	467.69
281.662	444.69
281.894	464.69
282.125	454.69
282.356	437.69
282.588	481.69
282.819	461.69
283.051	478.69
283.282	453.69
283.513	462.69
283.745	452.69
283.976	426.69
284.207	473.69
284.439	450.69
284.67	461.69
284.901	460.69
285.132	463.69
285.364	469.69
285.595	463.69
285.826	447.69
286.057	468.69
286.288	455.69
286.52	442.69
286.751	463.69
286.982	476.69
287.213	460.69
287.444	471.69
287.675	463.69
287.906	454.69
288.138	467.69
288.369	460.69
288.6	458.69
288.831	474.69
289.062	460.69
289.293	463.69
289.524	462.69
289.755	458.69
289.986	467.69
290.217	453.69
290.448	455.69
290.679	470.69
290.91	471.69
291.141	446.69
291.371	466.69
291.602	472.69
291.833	440.69
292.064	450.69
292.295	471.69
292.526	485.69
292.757	474.69
292.987	473.69
293.218	469.69
293.449	458.69
293.68	475.69
293.91	436.69
294.141	463.69
294.372	462.69
294.603	457.69
294.833	447.69
295.064	460.69
295.295	459.69
295.525	460.69
295.756	452.69
295.987	429.69
296.217	461.69
296.448	459.69
296.679	481.69
296.909	475.69
297.14	468.69
297.37	470.69
297.601	483.69
297.831	471.69
298.062	484.69
298.292	459.69
298.523	473.69
298.753	486.69
298.984	467.69
299.214	471.69
299.445	490.69
299.675	469.69
299.905	463.69
300.136	470.69
300.366	495.69
300.597	498.69
300.827	509.69
301.057	491.69
301.288	485.69
301.518	470.69
301.748	501.69
301.979	505.69
302.209	490.69
302.439	491.69
302.669	508.69
302.9	497.69
303.13	494.69
303.36	497.69
303.59	517.69
303.82	502.69
304.051	530.69
304.281	516.69
304.511	515.69
304.741	516.69
304.971	507.69
305.201	503.69
305.431	510.69
305.661	507.69
305.891	512.69
306.121	519.69
306.352	532.69
306.582	519.69
306.812	534.69
307.042	535.69
307.272	526.69
307.502	542.69
307.731	546.69
307.961	541.69
308.191	538.69
308.421	535.69
308.651	567.69
308.881	566.69
309.111	584.69
309.341	552.69
309.571	564.69
309.8	564.69
310.03	586.69
310.26	570.69
310.49	565.69
310.72	545.69
310.949	557.69
311.179	571.69
311.409	603.69
311.639	581.69
311.868	605.69
312.098	611.69
312.328	593.69
312.557	591.69
312.787	605.69
313.017	598.69
313.246	618.69
313.476	605.69
313.706	615.69
313.935	617.69
314.165	629.69
314.394	648.69
314.624	646.69
314.853	644.69
315.083	660.69
315.312	644.69
315.542	649.69
315.771	660.69
316.001	658.69
316.23	664.69
316.46	677.69
316.689	706.69
316.919	693.69
317.148	702.69
317.377	724.69
317.607	704.69
317.836	707.69
318.065	706.69
318.295	717.69
318.524	731.69
318.753	697.69
318.983	729.69
319.212	715.69
319.441	718.69
319.67	756.69
319.9	755.69
320.129	754.69
320.358	715.69
320.587	790.69
320.816	800.69
321.046	786.69
321.275	802.69
321.504	777.69
321.733	817.69
321.962	798.69
322.191	806.69
322.42	803.69
322.649	813.69
322.878	823.69
323.108	825.69
323.337	846.69
323.566	840.69
323.795	826.69
324.024	868.69
324.253	874.69
324.482	886.69
324.71	864.69
324.939	878.69
325.168	878.69
325.397	887.69
325.626	879.69
325.855	888.69
326.084	907.69
326.313	931.69
326.542	942.69
326.77	911.69
326.999	954.69
327.228	916.69
327.457	923.69
327.686	926.69
327.914	962.69
328.143	953.69
328.372	935.69
328.6	965.69
328.829	946.69
329.058	981.69
329.287	954.69
329.515	994.69
329.744	1012.69
329.972	983.69
330.201	1034.69
330.43	1039.69
330.658	978.69
330.887	996.69
331.115	1035.69
331.344	1034.69
331.572	1030.69
331.801	1048.69
332.03	1043.69
332.258	1035.69
332.486	1085.69
332.715	1056.69
332.943	1052.69
333.172	1074.69
333.4	1056.69
333.629	1082.69
333.857	1098.69
334.085	1078.69
334.314	1103.69
334.542	1080.69
334.771	1123.69
334.999	1126.69
335.227	1088.69
335.455	1077.69
335.684	1126.69
335.912	1106.69
336.14	1115.69
336.369	1110.69
336.597	1120.69
336.825	1138.69
337.053	1169.69
337.281	1134.69
337.51	1093.69
337.738	1126.69
337.966	1150.69
338.194	1131.69
338.422	1119.69
338.65	1095.69
338.878	1150.69
339.106	1129.69
339.334	1157.69
339.562	1138.69
339.79	1113.69
340.018	1097.69
340.246	1127.69
340.474	1124.69
340.702	1143.69
340.93	1133.69
341.158	1111.69
341.386	1097.69
341.614	1121.69
341.842	1083.69
342.07	1146.69
342.298	1115.69
342.526	1133.69
342.754	1109.69
342.981	1138.69
343.209	1160.69
343.437	1180.69
343.665	1161.69
343.893	1149.69
344.12	1136.69
344.348	1142.69
344.576	1159.69
344.804	1131.69
345.031	1137.69
345.259	1141.69
345.487	1146.69
345.714	1157.69
345.942	1123.69
346.17	1140.69
346.397	1125.69
346.625	1137.69
346.853	1146.69
347.08	1126.69
347.308	1135.69
347.535	1114.69
347.763	1142.69
347.99	1108.69
348.218	1098.69
348.445	1126.69
348.673	1110.69
348.9	1110.69
349.128	1133.69
349.355	1100.69
349.583	1128.69
349.81	1108.69
350.037	1077.69
350.265	1099.69
350.492	1123.69
350.72	1116.69
350.947	1112.69
351.174	1135.69
351.402	1095.69
351.629	1096.69
351.856	1119.69
352.083	1132.69
352.311	1112.69
352.538	1101.69
352.765	1091.69
352.992	1080.69
353.22	1071.69
353.447	1087.69
353.674	1093.69
353.901	1073.69
354.128	1064.69
354.355	1071.69
354.583	1097.69
354.81	1083.69
355.037	1077.69
355.264	1088.69
355.491	1060.69
355.718	1084.69
355.945	1103.69
356.172	1071.69
356.399	1097.69
356.626	1083.69
356.853	1089.69
357.08	1117.69
357.307	1077.69
357.534	1100.69
357.761	1079.69
357.988	1092.69
358.215	1053.69
358.441	1090.69
358.668	1070.69
358.895	1085.69
359.122	1081.69
359.349	1078.69
359.576	1076.69
359.802	1075.69
360.029	1088.69
360.256	1102.69
360.483	1089.69
360.709	1039.69
360.936	1117.69
361.163	1047.69
361.39	1073.69
361.616	1043.69
361.843	1085.69
362.07	1095.69
362.296	1040.69
362.523	1056.69
362.749	1083.69
362.976	1097.69
363.203	1082.69
363.429	1069.69
363.656	1045.69
363.882	1071.69
364.109	1074.69
364.335	1048.69
364.562	1085.69
364.788	1071.69
365.015	1060.69
365.241	1077.69
365.468	1054.69
365.694	1069.69
365.92	1065.69
366.147	1034.69
366.373	1071.69
366.599	1058.69
366.826	1044.69
367.052	1066.69
367.278	1059.69
367.505	1059.69
367.731	1103.69
367.957	1080.69
368.184	1091.69
368.41	1083.69
368.636	1061.69
368.862	1057.69
369.089	1082.69
369.315	1059.69
369.541	1033.69
369.767	1076.69
369.993	1036.69
370.219	1051.69
370.445	1084.69
370.672	1059.69
370.898	1028.69
371.124	1046.69
371.35	1056.69
371.576	1076.69
371.802	1089.69
372.028	1042.69
372.254	1069.69
372.48	1028.69
372.706	1058.69
372.932	1056.69
373.158	1033.69
373.384	1036.69
373.61	1057.69
373.835	1076.69
374.061	1045.69
374.287	1074.69
374.513	1038.69
374.739	1061.69
374.965	1055.69
375.191	1046.69
375.416	1042.69
375.642	1023.69
375.868	1027.69
376.094	1038.69
376.319	1017.69
376.545	1018.69
376.771	1005.69
376.997	996.69
377.222	1003.69
377.448	1004.69
377.674	1023.69
377.899	998.69
378.125	1013.69
378.35	1015.69
378.576	992.69
378.802	998.69
379.027	1000.69
379.253	989.69
379.478	995.69
379.704	985.69
379.929	1002.69
380.155	1019.69
380.38	997.69
380.606	961.69
380.831	1010.69
381.057	1009.69
381.282	971.69
381.507	974.69
381.733	996.69
381.958	983.69
382.184	982.69
382.409	996.69
382.634	1005.69
382.86	1001.69
383.085	1013.69
383.31	1032.69
383.535	1013.69
383.761	1001.69
383.986	1012.69
384.211	1010.69
384.436	1011.69
384.662	1032.69
384.887	1031.69
385.112	1005.69
385.337	995.69
385.562	1006.69
385.787	1007.69
386.013	1042.69
386.238	1005.69
386.463	1031.69
386.688	1042.69
386.913	997.69
387.138	1010.69
387.363	1041.69
387.588	1041.69
387.813	1007.69
388.038	1039.69
388.263	1023.69
388.488	1042.69
388.713	1027.69
388.938	1045.69
389.163	1011.69
389.387	1070.69
389.612	1036.69
389.837	1038.69
390.062	1054.69
390.287	1057.69
390.512	998.69
390.736	1017.69
390.961	1033.69
391.186	1058.69
391.411	1081.69
391.636	1041.69
391.86	1062.69
392.085	1060.69
392.31	1045.69
392.534	1044.69
392.759	1044.69
392.984	1045.69
393.208	1087.69
393.433	1069.69
393.658	1057.69
393.882	1069.69
394.107	1043.69
394.331	1049.69
394.556	1072.69
394.78	1078.69
395.005	1071.69
395.229	1042.69
395.454	1057.69
395.678	1068.69
395.903	1092.69
396.127	1045.69
396.352	1066.69
396.576	1080.69
396.801	1064.69
397.025	1069.69
397.249	1101.69
397.474	1094.69
397.698	1094.69
397.922	1099.69
398.147	1086.69
398.371	1102.69
398.595	1120.69
398.82	1119.69
399.044	1157.69
399.268	1113.69
399.492	1144.69
399.717	1183.69
399.941	1187.69
400.165	1153.69
400.389	1183.69
400.613	1135.69
400.837	1139.69
401.062	1149.69
401.286	1123.69
401.51	1145.69
401.734	1126.69
401.958	1173.69
402.182	1140.69
402.406	1180.69
402.63	1136.69
402.854	1158.69
403.078	1147.69
403.302	1146.69
403.526	1152.69
403.75	1163.69
403.974	1183.69
404.198	1181.69
404.422	1151.69
404.645	1157.69
404.869	1149.69
405.093	1168.69
405.317	1177.69
405.541	1172.69
405.765	1195.69
405.988	1174.69
406.212	1220.69
406.436	1190.69
406.66	1182.69
406.883	1164.69
407.107	1228.69
407.331	1230.69
407.555	1251.69
407.778	1237.69
408.002	1227.69
408.226	1222.69
408.449	1246.69
408.673	1230.69
408.896	1230.69
409.12	1210.69
409.344	1228.69
409.567	1219.69
409.791	1212.69
410.014	1211.69
410.238	1234.69
410.461	1192.69
410.685	1203.69
410.908	1236.69
411.132	1212.69
411.355	1199.69
411.578	1241.69
411.802	1194.69
412.025	1201.69
412.249	1232.69
412.472	1202.69
412.695	1183.69
412.919	1199.69
413.142	1193.69
413.365	1206.69
413.589	1218.69
413.812	1194.69
414.035	1177.69
414.258	1195.69
414.482	1201.69
414.705	1201.69
414.928	1223.69
415.151	1202.69
415.374	1221.69
415.597	1203.69
415.821	1197.69
416.044	1177.69
416.267	1197.69
416.49	1173.69
416.713	1152.69
416.936	1165.69
417.159	1167.69
417.382	1175.69
417.605	1176.69
417.828	1189.69
418.051	1174.69
418.274	1189.69
418.497	1165.69
418.72	1179.69
418.943	1170.69
419.166	1219.69
419.389	1297.69
419.611	1289.69
419.834	1253.69
420.057	1225.69
420.28	1201.69
420.503	1151.69
420.726	1161.69
420.948	1158.69
421.171	1172.69
421.394	1183.69
421.617	1200.69
421.839	1220.69
422.062	1187.69
422.285	1186.69
422.507	1214.69
422.73	1150.69
422.953	1162.69
423.175	1173.69
423.398	1219.69
423.621	1195.69
423.843	1199.69
424.066	1214.69
424.288	1185.69
424.511	1193.69
424.733	1203.69
424.956	1225.69
425.178	1207.69
425.401	1207.69
425.623	1208.69
425.846	1206.69
426.068	1218.69
426.291	1208.69
426.513	1215.69
426.735	1225.69
426.958	1228.69
427.18	1212.69
427.402	1221.69
427.625	1242.69
427.847	1241.69
428.069	1223.69
428.292	1258.69
428.514	1217.69
428.736	1215.69
428.958	1267.69
429.181	1214.69
429.403	1224.69
429.625	1224.69
429.847	1238.69
430.069	1213.69
430.292	1239.69
430.514	1240.69
430.736	1224.69
430.958	1245.69
431.18	1239.69
431.402	1255.69
431.624	1225.69
431.846	1235.69
432.068	1223.69
432.29	1216.69
432.512	1203.69
432.734	1229.69
432.956	1265.69
433.178	1254.69
433.4	1250.69
433.622	1240.69
433.844	1272.69
434.066	1235.69
434.287	1245.69
434.509	1263.69
434.731	1201.69
434.953	1227.69
435.175	1231.69
435.397	1284.69
435.618	1251.69
435.84	1277.69
436.062	1230.69
436.284	1229.69
436.505	1255.69
436.727	1236.69
436.949	1246.69
437.17	1239.69
437.392	1223.69
437.614	1218.69
437.835	1185.69
438.057	1207.69
438.278	1218.69
438.5	1202.69
438.721	1247.69
438.943	1209.69
439.165	1211.69
439.386	1241.69
439.608	1243.69
439.829	1220.69
440.05	1233.69
440.272	1261.69
440.493	1220.69
440.715	1258.69
440.936	1264.69
441.158	1248.69
441.379	1254.69
441.6	1257.69
441.822	1315.69
442.043	1227.69
442.264	1277.69
442.486	1229.69
442.707	1281.69
442.928	1238.69
443.149	1267.69
443.371	1265.69
443.592	1277.69
443.813	1240.69
444.034	1237.69
444.255	1256.69
444.476	1261.69
444.698	1257.69
444.919	1277.69
445.14	1363.69
445.361	1310.69
445.582	1249.69
445.803	1227.69
446.024	1255.69
446.245	1238.69
446.466	1232.69
446.687	1235.69
446.908	1226.69
447.129	1192.69
447.35	1187.69
447.571	1237.69
447.792	1159.69
448.013	1192.69
448.234	1171.69
448.455	1157.69
448.675	1163.69
448.896	1161.69
449.117	1177.69
449.338	1176.69
449.559	1153.69
449.779	1125.69
450	1159.69
450.221	1153.69
450.442	1173.69
450.662	1156.69
450.883	1141.69
451.104	1149.69
451.324	1148.69
451.545	1167.69
451.766	1154.69
451.986	1144.69
452.207	1125.69
452.428	1153.69
452.648	1149.69
452.869	1132.69
453.089	1155.69
453.31	1137.69
453.53	1105.69
453.751	1117.69
453.971	1122.69
454.192	1138.69
454.412	1126.69
454.633	1137.69
454.853	1131.69
455.073	1142.69
455.294	1167.69
455.514	1150.69
455.734	1133.69
455.955	1150.69
456.175	1149.69
456.395	1084.69
456.616	1102.69
456.836	1101.69
457.056	1111.69
457.276	1093.69
457.497	1099.69
457.717	1097.69
457.937	1154.69
458.157	1133.69
458.377	1125.69
458.598	1108.69
458.818	1145.69
459.038	1107.69
459.258	1142.69
459.478	1175.69
459.698	1192.69
459.918	1217.69
460.138	1209.69
460.358	1200.69
460.578	1209.69
460.798	1204.69
461.018	1211.69
461.238	1231.69
461.458	1239.69
461.678	1181.69
461.898	1238.69
462.118	1177.69
462.338	1226.69
462.558	1229.69
462.777	1255.69
462.997	1278.69
463.217	1295.69
463.437	1319.69
463.657	1245.69
463.876	1292.69
464.096	1263.69
464.316	1266.69
464.536	1252.69
464.755	1251.69
464.975	1225.69
465.195	1211.69
465.414	1222.69
465.634	1206.69
465.854	1230.69
466.073	1210.69
466.293	1191.69
466.512	1189.69
466.732	1211.69
466.951	1204.69
467.171	1211.69
467.391	1267.69
467.61	1202.69
467.829	1190.69
468.049	1209.69
468.268	1191.69
468.488	1183.69
468.707	1199.69
468.927	1208.69
469.146	1187.69
469.365	1210.69
469.585	1201.69
469.804	1207.69
470.023	1237.69
470.243	1186.69
470.462	1195.69
470.681	1204.69
470.901	1246.69
471.12	1245.69
471.339	1242.69
471.558	1246.69
471.777	1228.69
471.997	1248.69
472.216	1240.69
472.435	1224.69
472.654	1217.69
472.873	1190.69
473.092	1218.69
473.311	1232.69
473.53	1256.69
473.749	1263.69
473.968	1253.69
474.187	1261.69
474.406	1251.69
474.625	1295.69
474.844	1278.69
475.063	1293.69
475.282	1279.69
475.501	1266.69
475.72	1277.69
475.939	1310.69
476.158	1294.69
476.377	1322.69
476.596	1312.69
476.814	1334.69
477.033	1327.69
477.252	1329.69
477.471	1382.69
477.69	1374.69
477.908	1389.69
478.127	1386.69
478.346	1395.69
478.564	1399.69
478.783	1415.69
479.002	1435.69
479.22	1438.69
479.439	1422.69
479.658	1411.69
479.876	1389.69
480.095	1408.69
480.313	1442.69
480.532	1465.69
480.751	1450.69
480.969	1462.69
481.188	1417.69
481.406	1440.69
481.624	1453.69
481.843	1419.69
482.061	1453.69
482.28	1473.69
482.498	1452.69
482.717	1471.69
482.935	1479.69
483.153	1544.69
483.372	1502.69
483.59	1529.69
483.808	1526.69
484.027	1523.69
484.245	1533.69
484.463	1501.69
484.681	1529.69
484.9	1535.69
485.118	1519.69
485.336	1518.69
485.554	1501.69
485.772	1535.69
485.99	1493.69
486.209	1477.69
486.427	1520.69
486.645	1560.69
486.863	1541.69
487.081	1511.69
487.299	1493.69
487.517	1554.69
487.735	1557.69
487.953	1616.69
488.171	1588.69
488.389	1589.69
488.607	1544.69
488.825	1578.69
489.043	1559.69
489.261	1597.69
489.479	1578.69
489.696	1573.69
489.914	1579.69
490.132	1591.69
490.35	1562.69
490.568	1602.69
490.786	1621.69
491.003	1589.69
491.221	1607.69
491.439	1610.69
491.657	1603.69
491.874	1638.69
492.092	1663.69
492.31	1665.69
492.527	1656.69
492.745	1645.69
492.963	1638.69
493.18	1652.69
493.398	1637.69
493.615	1661.69
493.833	1621.69
494.05	1638.69
494.268	1630.69
494.485	1658.69
494.703	1670.69
494.92	1660.69
495.138	1687.69
495.355	1645.69
495.573	1671.69
495.79	1670.69
496.008	1660.69
496.225	1696.69
496.442	1643.69
496.66	1734.69
496.877	1728.69
497.094	1673.69
497.312	1708.69
497.529	1703.69
497.746	1724.69
497.963	1737.69
498.181	1718.69
498.398	1730.69
498.615	1746.69
498.832	1748.69
499.049	1755.69
499.267	1841.69
499.484	1848.69
499.701	1823.69
499.918	1873.69
500.135	1925.69
500.352	1977.69
500.569	1946.69
500.786	1968.69
501.003	1955.69
501.22	1943.69
501.437	1849.69
501.654	1815.69
501.871	1824.69
502.088	1803.69
502.305	1761.69
502.522	1773.69
502.739	1751.69
502.956	1702.69
503.172	1712.69
503.389	1709.69
503.606	1658.69
503.823	1661.69
504.04	1649.69
504.256	1648.69
504.473	1638.69
504.69	1617.69
504.907	1622.69
505.123	1614.69
505.34	1593.69
505.557	1581.69
505.773	1586.69
505.99	1567.69
506.207	1515.69
506.423	1510.69
506.64	1523.69
506.856	1536.69
507.073	1483.69
507.289	1522.69
507.506	1467.69
507.722	1487.69
507.939	1486.69
508.155	1454.69
508.372	1492.69
508.588	1451.69
508.805	1433.69
509.021	1467.69
509.238	1450.69
509.454	1423.69
509.67	1411.69
509.887	1420.69
510.103	1434.69
510.319	1397.69
510.536	1403.69
510.752	1407.69
510.968	1402.69
511.184	1385.69
511.401	1397.69
511.617	1329.69
511.833	1379.69
512.049	1382.69
512.265	1349.69
512.481	1388.69
512.698	1353.69
512.914	1371.69
513.13	1403.69
513.346	1369.69
513.562	1368.69
513.778	1387.69
513.994	1375.69
514.21	1365.69
514.426	1372.69
514.642	1350.69
514.858	1377.69
515.074	1337.69
515.29	1376.69
515.506	1393.69
515.721	1373.69
515.937	1350.69
516.153	1353.69
516.369	1382.69
516.585	1397.69
516.801	1344.69
517.016	1374.69
517.232	1366.69
517.448	1407.69
517.664	1403.69
517.879	1389.69
518.095	1390.69
518.311	1375.69
518.527	1389.69
518.742	1373.69
518.958	1367.69
519.173	1393.69
519.389	1375.69
519.605	1340.69
519.82	1327.69
520.036	1336.69
520.251	1337.69
520.467	1352.69
520.682	1338.69
520.898	1342.69
521.113	1297.69
521.329	1307.69
521.544	1325.69
521.76	1290.69
521.975	1293.69
522.19	1314.69
522.406	1295.69
522.621	1299.69
522.836	1283.69
523.052	1286.69
523.267	1299.69
523.482	1281.69
523.698	1291.69
523.913	1289.69
524.128	1303.69
524.343	1277.69
524.559	1289.69
524.774	1268.69
524.989	1255.69
525.204	1248.69
525.419	1271.69
525.634	1236.69
525.849	1253.69
526.064	1269.69
526.28	1261.69
526.495	1242.69
526.71	1226.69
526.925	1211.69
527.14	1233.69
527.355	1268.69
527.57	1229.69
527.785	1221.69
527.999	1232.69
528.214	1229.69
528.429	1236.69
528.644	1201.69
528.859	1249.69
529.074	1250.69
529.289	1233.69
529.503	1233.69
529.718	1222.69
529.933	1214.69
530.148	1167.69
530.363	1207.69
530.577	1199.69
530.792	1187.69
531.007	1186.69
531.221	1210.69
531.436	1200.69
531.651	1184.69
531.865	1167.69
532.08	1182.69
532.295	1197.69
532.509	1196.69
532.724	1193.69
532.938	1173.69
533.153	1166.69
533.367	1166.69
533.582	1177.69
533.796	1169.69
534.011	1191.69
534.225	1182.69
534.44	1140.69
534.654	1139.69
534.868	1146.69
535.083	1148.69
535.297	1137.69
535.511	1129.69
535.726	1151.69
535.94	1133.69
536.154	1129.69
536.369	1125.69
536.583	1108.69
536.797	1135.69
537.011	1143.69
537.225	1105.69
537.44	1112.69
537.654	1126.69
537.868	1105.69
538.082	1092.69
538.296	1099.69
538.51	1074.69
538.724	1127.69
538.938	1099.69
539.153	1143.69
539.367	1123.69
539.581	1099.69
539.795	1071.69
540.009	1046.69
540.222	1053.69
540.436	1076.69
540.65	1072.69
540.864	1064.69
541.078	1061.69
541.292	1109.69
541.506	1084.69
541.72	1092.69
541.934	1076.69
542.147	1104.69
542.361	1092.69
542.575	1094.69
542.789	1082.69
543.002	1045.69
543.216	1068.69
543.43	1062.69
543.644	1064.69
543.857	1063.69
544.071	1081.69
544.285	1071.69
544.498	1058.69
544.712	1049.69
544.925	1063.69
545.139	1049.69
545.352	1045.69
545.566	1080.69
545.779	1072.69
545.993	1070.69
546.206	1059.69
546.42	1063.69
546.633	1044.69
546.847	1057.69
547.06	1043.69
547.274	1046.69
547.487	1041.69
547.7	1071.69
547.914	1039.69
548.127	1054.69
548.34	1023.69
548.554	1038.69
548.767	1063.69
548.98	1048.69
549.193	1039.69
549.407	1037.69
549.62	1029.69
549.833	1045.69
550.046	1051.69
550.259	1028.69
550.473	1053.69
550.686	1012.69
550.899	1033.69
551.112	994.69
551.325	1019.69
551.538	998.69
551.751	989.69
551.964	1024.69
552.177	979.69
552.39	990.69
552.603	1009.69
552.816	1012.69
553.029	1021.69
553.242	1006.69
553.455	983.69
553.667	1000.69
553.88	986.69
554.093	979.69
554.306	957.69
554.519	978.69
554.732	978.69
554.944	975.69
555.157	988.69
555.37	972.69
555.583	978.69
555.795	951.69
556.008	947.69
556.221	911.69
556.433	939.69
556.646	912.69
556.859	936.69
557.071	934.69
557.284	926.69
557.496	905.69
557.709	932.69
557.921	912.69
558.134	906.69
558.346	913.69
558.559	908.69
558.771	915.69
558.984	888.69
559.196	911.69
559.409	923.69
559.621	901.69
559.833	896.69
560.046	891.69
560.258	899.69
560.47	903.69
560.683	885.69
560.895	893.69
561.107	849.69
561.32	870.69
561.532	889.69
561.744	887.69
561.956	867.69
562.168	883.69
562.381	902.69
562.593	852.69
562.805	888.69
563.017	875.69
563.229	848.69
563.441	869.69
563.653	865.69
563.865	856.69
564.077	857.69
564.289	860.69
564.501	859.69
564.713	857.69
564.925	891.69
565.137	870.69
565.349	879.69
565.561	849.69
565.773	868.69
565.985	864.69
566.197	865.69
566.408	887.69
566.62	871.69
566.832	877.69
567.044	865.69
567.255	863.69
567.467	890.69
567.679	865.69
567.891	891.69
568.102	870.69
568.314	865.69
568.526	843.69
568.737	849.69
568.949	822.69
569.161	797.69
569.372	825.69
569.584	784.69
569.795	785.69
570.007	777.69
570.218	795.69
570.43	793.69
570.641	756.69
570.853	751.69
571.064	750.69
571.276	735.69
571.487	723.69
571.698	740.69
571.91	753.69
572.121	738.69
572.333	739.69
572.544	721.69
572.755	699.69
572.966	706.69
573.178	705.69
573.389	718.69
573.6	700.69
573.811	686.69
574.023	688.69
574.234	672.69
574.445	697.69
574.656	700.69
574.867	677.69
575.078	677.69
575.289	675.69
575.501	673.69
575.712	683.69
575.923	671.69
576.134	651.69
576.345	669.69
576.556	687.69
576.767	651.69
576.978	637.69
577.188	666.69
577.399	629.69
577.61	637.69
577.821	634.69
578.032	629.69
578.243	642.69
578.454	647.69
578.665	637.69
578.875	629.69
579.086	630.69
579.297	614.69
579.508	627.69
579.718	643.69
579.929	637.69
580.14	605.69
580.35	598.69
580.561	619.69
580.772	615.69
580.982	606.69
581.193	584.69
581.403	594.69
581.614	597.69
581.825	585.69
582.035	596.69
582.246	589.69
582.456	602.69
582.667	611.69
582.877	573.69
583.087	580.69
583.298	563.69
583.508	591.69
583.719	565.69
583.929	582.69
584.139	542.69
584.35	554.69
584.56	570.69
584.77	573.69
584.981	573.69
585.191	561.69
585.401	545.69
585.611	544.69
585.821	573.69
586.032	568.69
586.242	579.69
586.452	577.69
586.662	584.69
586.872	560.69
587.082	551.69
587.292	546.69
587.502	541.69
587.713	547.69
587.923	542.69
588.133	553.69
588.343	549.69
588.553	552.69
588.762	545.69
588.972	542.69
589.182	554.69
589.392	544.69
589.602	495.69
589.812	552.69
590.022	554.69
590.232	517.69
590.441	526.69
590.651	515.69
590.861	521.69
591.071	541.69
591.281	514.69
591.49	517.69
591.7	514.69
591.91	521.69
592.119	521.69
592.329	527.69
592.539	531.69
592.748	503.69
592.958	522.69
593.167	494.69
593.377	527.69
593.587	519.69
593.796	535.69
594.006	514.69
594.215	513.69
594.424	527.69
594.634	494.69
594.843	522.69
595.053	528.69
595.262	506.69
595.472	481.69
595.681	482.69
595.89	467.69
596.1	485.69
596.309	477.69
596.518	469.69
596.727	486.69
596.937	475.69
597.146	467.69
597.355	452.69
597.564	463.69
597.774	473.69
597.983	460.69
598.192	467.69
598.401	455.69
598.61	465.69
598.819	448.69
599.028	448.69
599.237	452.69
599.446	442.69
599.655	441.69
599.864	473.69
600.073	461.69
600.282	446.69
600.491	429.69
600.7	456.69
600.909	431.69
601.118	430.69
601.327	440.69
601.536	418.69
601.745	426.69
601.953	440.69
602.162	436.69
602.371	444.69
602.58	411.69
602.789	418.69
602.997	435.69
603.206	446.69
603.415	420.69
603.623	427.69
603.832	411.69
604.041	415.69
604.249	415.69
604.458	423.69
604.666	417.69
604.875	410.69
605.084	403.69
605.292	418.69
605.501	411.69
605.709	406.69
605.918	405.69
606.126	403.69
606.334	420.69
606.543	425.69
606.751	409.69
606.96	410.69
607.168	408.69
607.376	391.69
607.585	413.69
607.793	426.69
608.001	411.69
608.21	409.69
608.418	402.69
608.626	409.69
608.834	389.69
609.043	391.69
609.251	411.69
609.459	372.69
609.667	405.69
609.875	385.69
610.083	394.69
610.291	391.69
610.499	393.69
610.707	394.69
610.916	392.69
611.124	403.69
611.332	397.69
611.54	386.69
611.748	390.69
611.955	375.69
612.163	380.69
612.371	373.69
612.579	380.69
612.787	387.69
612.995	376.69
613.203	392.69
613.411	380.69
613.618	383.69
613.826	380.69
614.034	371.69
614.242	386.69
614.449	377.69
614.657	355.69
614.865	372.69
615.072	376.69
615.28	369.69
615.488	362.69
615.695	357.69
615.903	381.69
616.111	369.69
616.318	368.69
616.526	381.69
616.733	374.69
616.941	371.69
617.148	360.69
617.356	360.69
617.563	365.69
617.771	367.69
617.978	365.69
618.185	359.69
618.393	357.69
618.6	375.69
618.807	363.69
619.015	354.69
619.222	354.69
619.429	353.69
619.637	345.69
619.844	341.69
620.051	355.69
620.258	360.69
620.466	339.69
620.673	348.69
620.88	322.69
621.087	333.69
621.294	329.69
621.501	336.69
621.708	330.69
621.915	342.69
622.122	337.69
622.329	339.69
622.536	347.69
622.743	325.69
622.95	352.69
623.157	327.69
623.364	331.69
623.571	323.69
623.778	310.69
623.985	331.69
624.192	337.69
624.399	333.69
624.606	324.69
624.812	319.69
625.019	313.69
625.226	322.69
625.433	325.69
625.639	327.69
625.846	327.69
626.053	323.69
626.259	315.69
626.466	318.69
626.673	297.69
626.879	335.69
627.086	296.69
627.293	315.69
627.499	309.69
627.706	323.69
627.912	318.69
628.119	310.69
628.325	319.69
628.532	278.69
628.738	301.69
628.945	285.69
629.151	293.69
629.357	300.69
629.564	311.69
629.77	287.69
629.976	292.69
630.183	295.69
630.389	309.69
630.595	289.69
630.802	296.69
631.008	286.69
631.214	309.69
631.42	296.69
631.627	292.69
631.833	294.69
632.039	285.69
632.245	277.69
632.451	309.69
632.657	276.69
632.863	287.69
633.069	279.69
633.275	279.69
633.481	283.69
633.688	265.69
633.893	262.69
634.099	281.69
634.305	270.69
634.511	294.69
634.717	280.69
634.923	272.69
635.129	276.69
635.335	266.69
635.541	276.69
635.747	263.69
635.952	279.69
636.158	272.69
636.364	265.69
636.57	250.69
636.775	266.69
636.981	277.69
637.187	268.69
637.392	269.69
637.598	259.69
637.804	265.69
638.009	274.69
638.215	267.69
638.421	257.69
638.626	259.69
638.832	261.69
639.037	265.69
639.243	267.69
639.448	242.69
639.654	239.69
639.859	248.69
640.065	256.69
640.27	267.69
640.475	259.69
640.681	263.69
640.886	251.69
641.091	241.69
641.297	249.69
641.502	275.69
641.707	262.69
641.913	253.69
642.118	261.69
642.323	260.69
642.528	281.69
642.733	259.69
642.939	258.69
643.144	249.69
643.349	253.69
643.554	245.69
643.759	227.69
643.964	234.69
644.169	254.69
644.374	238.69
644.579	262.69
644.784	259.69
644.989	252.69
645.194	242.69
645.399	243.69
645.604	246.69
645.809	233.69
646.014	253.69
646.219	239.69
646.423	250.69
646.628	253.69
646.833	262.69
647.038	231.69
647.243	234.69
647.447	259.69
647.652	241.69
647.857	238.69
648.062	241.69
648.266	240.69
648.471	232.69
648.676	237.69
648.88	242.69
649.085	242.69
649.289	234.69
649.494	246.69
649.698	225.69
649.903	238.69
650.107	231.69
650.312	237.69
650.516	236.69
650.721	232.69
650.925	228.69
651.13	223.69
651.334	212.69
651.539	219.69
651.743	228.69
651.947	207.69
652.152	216.69
652.356	198.69
652.56	198.69
652.764	232.69
652.969	207.69
653.173	193.69
653.377	210.69
653.581	203.69
653.785	190.69
653.99	202.69
654.194	208.69
654.398	193.69
654.602	187.69
654.806	192.69
655.01	194.69
655.214	200.69
655.418	190.69
655.622	174.69
655.826	181.69
656.03	181.69
656.234	181.69
656.438	183.69
656.642	172.69
656.846	164.69
657.049	177.69
657.253	164.69
657.457	151.69
657.661	157.69
657.865	141.69
658.068	166.69
658.272	146.69
658.476	137.69
658.68	154.69
658.883	122.69
659.087	125.69
659.291	119.69
659.494	110.69
659.698	118.69
659.901	119.69
660.105	113.69
660.309	111.69
660.512	96.69
660.716	109.69
660.919	112.69
661.123	103.69
661.326	98.69
661.53	90.69
661.733	114.69
661.936	100.69
662.14	84.69
662.343	90.69
662.546	90.69
662.75	84.69
662.953	91.69
663.156	81.69
663.36	80.69
663.563	80.69
663.766	75.69
663.969	81.69
664.173	86.69
664.376	90.69
664.579	84.69
664.782	72.69
664.985	85.69
665.188	85.69
665.391	85.69
665.594	81.69
665.797	82.69
666	90.69
666.203	90.69
666.406	96.69
666.609	95.69
666.812	61.69
667.015	79.69
667.218	80.69
667.421	87.69
667.624	82.69
667.827	96.69
668.03	86.69
668.232	83.69
668.435	66.69
668.638	86.69
668.841	79.69
669.043	76.69
669.246	85.69
669.449	70.69
669.651	81.69
669.854	69.69
670.057	90.69
670.259	95.69
670.462	87.69
670.665	68.69
670.867	77.69
671.07	71.69
671.272	81.69
671.475	82.69
671.677	76.69
671.88	83.69
672.082	94.69
672.284	95.69
672.487	81.69
672.689	75.69
672.892	76.69
