Data from Ni(NO3)2@0.0625M.TitratingCurve.Agarose3%dH2O.NegLispCup.LampEnergy10.LIBS07252019_HRD10591_18-15-50-570.txt Node
Date: Thu Jul 25 18:15:50 EDT 2019
User: cochatt
Spectrometer: HR+D1059
Trigger mode: 1
Integration Time (sec): 1.000000E-1
Scans to average: 1
Electric dark correction enabled: true
Nonlinearity correction enabled: false
Boxcar width: 0
XAxis mode: Wavelengths
Number of Pixels in Spectrum: 2048
>>>>>Begin Spectral Data<<<<<
223.165	-17.12
223.4	-17.12
223.635	-17.12
223.869	-22.12
224.104	-27.12
224.338	-22.12
224.573	-24.12
224.808	-19.12
225.042	-5.12
225.277	-1.12
225.511	3.88
225.746	2.88
225.98	15.88
226.215	17.88
226.449	12.88
226.683	25.88
226.918	33.88
227.152	24.88
227.387	43.88
227.621	42.88
227.856	49.88
228.09	58.88
228.324	46.88
228.559	68.88
228.793	72.88
229.027	97.88
229.262	105.88
229.496	111.88
229.73	109.88
229.964	130.88
230.199	126.88
230.433	119.88
230.667	109.88
230.901	124.88
231.136	113.88
231.37	127.88
231.604	122.88
231.838	135.88
232.072	140.88
232.306	125.88
232.541	137.88
232.775	132.88
233.009	126.88
233.243	115.88
233.477	131.88
233.711	121.88
233.945	136.88
234.179	151.88
234.413	131.88
234.647	122.88
234.881	129.88
235.115	124.88
235.349	127.88
235.583	132.88
235.817	132.88
236.051	132.88
236.285	146.88
236.519	139.88
236.753	143.88
236.987	137.88
237.221	146.88
237.455	137.88
237.689	144.88
237.922	144.88
238.156	143.88
238.39	129.88
238.624	156.88
238.858	141.88
239.091	146.88
239.325	141.88
239.559	163.88
239.793	159.88
240.027	131.88
240.26	144.88
240.494	164.88
240.728	151.88
240.961	144.88
241.195	151.88
241.429	164.88
241.662	152.88
241.896	161.88
242.13	162.88
242.363	164.88
242.597	169.88
242.83	156.88
243.064	161.88
243.298	169.88
243.531	152.88
243.765	166.88
243.998	177.88
244.232	179.88
244.465	174.88
244.699	176.88
244.932	167.88
245.166	189.88
245.399	177.88
245.633	187.88
245.866	185.88
246.099	186.88
246.333	181.88
246.566	170.88
246.8	185.88
247.033	197.88
247.266	194.88
247.5	186.88
247.733	184.88
247.966	193.88
248.2	199.88
248.433	192.88
248.666	187.88
248.899	206.88
249.133	192.88
249.366	195.88
249.599	200.88
249.832	188.88
250.066	207.88
250.299	191.88
250.532	196.88
250.765	209.88
250.998	199.88
251.231	193.88
251.465	204.88
251.698	221.88
251.931	195.88
252.164	219.88
252.397	215.88
252.63	209.88
252.863	214.88
253.096	195.88
253.329	206.88
253.562	209.88
253.795	233.88
254.028	221.88
254.261	215.88
254.494	227.88
254.727	220.88
254.96	239.88
255.193	243.88
255.426	223.88
255.659	224.88
255.892	229.88
256.124	222.88
256.357	233.88
256.59	229.88
256.823	233.88
257.056	220.88
257.289	238.88
257.521	232.88
257.754	234.88
257.987	213.88
258.22	257.88
258.452	246.88
258.685	245.88
258.918	237.88
259.151	227.88
259.383	253.88
259.616	242.88
259.849	219.88
260.081	262.88
260.314	261.88
260.547	255.88
260.779	235.88
261.012	225.88
261.244	257.88
261.477	277.88
261.71	248.88
261.942	251.88
262.175	260.88
262.407	260.88
262.64	257.88
262.872	267.88
263.105	258.88
263.337	287.88
263.57	261.88
263.802	259.88
264.035	248.88
264.267	254.88
264.499	254.88
264.732	279.88
264.964	280.88
265.197	277.88
265.429	277.88
265.661	282.88
265.894	276.88
266.126	284.88
266.358	280.88
266.591	284.88
266.823	272.88
267.055	259.88
267.287	284.88
267.52	265.88
267.752	296.88
267.984	277.88
268.216	268.88
268.448	282.88
268.681	282.88
268.913	294.88
269.145	305.88
269.377	302.88
269.609	288.88
269.841	295.88
270.073	292.88
270.306	278.88
270.538	307.88
270.77	280.88
271.002	291.88
271.234	295.88
271.466	282.88
271.698	291.88
271.93	299.88
272.162	306.88
272.394	308.88
272.626	299.88
272.858	305.88
273.09	312.88
273.322	295.88
273.553	310.88
273.785	307.88
274.017	301.88
274.249	315.88
274.481	321.88
274.713	309.88
274.945	315.88
275.176	323.88
275.408	313.88
275.64	324.88
275.872	315.88
276.104	301.88
276.335	307.88
276.567	320.88
276.799	311.88
277.031	328.88
277.262	321.88
277.494	304.88
277.726	335.88
277.957	327.88
278.189	327.88
278.421	333.88
278.652	351.88
278.884	333.88
279.115	316.88
279.347	336.88
279.579	339.88
279.81	350.88
280.042	337.88
280.273	337.88
280.505	331.88
280.736	344.88
280.968	330.88
281.199	345.88
281.431	351.88
281.662	344.88
281.894	339.88
282.125	340.88
282.356	355.88
282.588	351.88
282.819	360.88
283.051	357.88
283.282	359.88
283.513	380.88
283.745	363.88
283.976	372.88
284.207	362.88
284.439	374.88
284.67	377.88
284.901	376.88
285.132	380.88
285.364	371.88
285.595	376.88
285.826	357.88
286.057	368.88
286.288	358.88
286.52	368.88
286.751	372.88
286.982	381.88
287.213	355.88
287.444	385.88
287.675	389.88
287.906	388.88
288.138	393.88
288.369	407.88
288.6	393.88
288.831	389.88
289.062	383.88
289.293	406.88
289.524	401.88
289.755	402.88
289.986	394.88
290.217	388.88
290.448	395.88
290.679	403.88
290.91	415.88
291.141	384.88
291.371	410.88
291.602	406.88
291.833	412.88
292.064	407.88
292.295	384.88
292.526	411.88
292.757	399.88
292.987	374.88
293.218	397.88
293.449	393.88
293.68	410.88
293.91	421.88
294.141	416.88
294.372	408.88
294.603	414.88
294.833	409.88
295.064	407.88
295.295	385.88
295.525	433.88
295.756	416.88
295.987	410.88
296.217	412.88
296.448	419.88
296.679	435.88
296.909	432.88
297.14	402.88
297.37	434.88
297.601	417.88
297.831	412.88
298.062	446.88
298.292	451.88
298.523	459.88
298.753	454.88
298.984	447.88
299.214	457.88
299.445	441.88
299.675	416.88
299.905	454.88
300.136	464.88
300.366	439.88
300.597	452.88
300.827	443.88
301.057	451.88
301.288	475.88
301.518	462.88
301.748	470.88
301.979	461.88
302.209	471.88
302.439	452.88
302.669	451.88
302.9	444.88
303.13	465.88
303.36	470.88
303.59	472.88
303.82	446.88
304.051	452.88
304.281	461.88
304.511	440.88
304.741	435.88
304.971	446.88
305.201	461.88
305.431	457.88
305.661	446.88
305.891	443.88
306.121	450.88
306.352	460.88
306.582	454.88
306.812	432.88
307.042	472.88
307.272	427.88
307.502	437.88
307.731	458.88
307.961	423.88
308.191	467.88
308.421	432.88
308.651	436.88
308.881	413.88
309.111	449.88
309.341	429.88
309.571	464.88
309.8	445.88
310.03	441.88
310.26	446.88
310.49	443.88
310.72	442.88
310.949	432.88
311.179	454.88
311.409	454.88
311.639	458.88
311.868	453.88
312.098	461.88
312.328	436.88
312.557	476.88
312.787	472.88
313.017	474.88
313.246	463.88
313.476	469.88
313.706	470.88
313.935	472.88
314.165	489.88
314.394	489.88
314.624	481.88
314.853	499.88
315.083	473.88
315.312	494.88
315.542	475.88
315.771	481.88
316.001	473.88
316.23	482.88
316.46	499.88
316.689	471.88
316.919	460.88
317.148	460.88
317.377	457.88
317.607	475.88
317.836	475.88
318.065	445.88
318.295	454.88
318.524	455.88
318.753	469.88
318.983	482.88
319.212	461.88
319.441	484.88
319.67	440.88
319.9	463.88
320.129	458.88
320.358	471.88
320.587	467.88
320.816	458.88
321.046	481.88
321.275	470.88
321.504	492.88
321.733	477.88
321.962	461.88
322.191	476.88
322.42	469.88
322.649	446.88
322.878	484.88
323.108	476.88
323.337	478.88
323.566	480.88
323.795	485.88
324.024	474.88
324.253	488.88
324.482	471.88
324.71	488.88
324.939	481.88
325.168	469.88
325.397	477.88
325.626	492.88
325.855	485.88
326.084	516.88
326.313	501.88
326.542	503.88
326.77	513.88
326.999	524.88
327.228	512.88
327.457	494.88
327.686	500.88
327.914	499.88
328.143	494.88
328.372	546.88
328.6	512.88
328.829	542.88
329.058	505.88
329.287	492.88
329.515	508.88
329.744	522.88
329.972	479.88
330.201	511.88
330.43	518.88
330.658	550.88
330.887	525.88
331.115	516.88
331.344	520.88
331.572	540.88
331.801	536.88
332.03	568.88
332.258	593.88
332.486	578.88
332.715	605.88
332.943	633.88
333.172	655.88
333.4	676.88
333.629	686.88
333.857	683.88
334.085	687.88
334.314	683.88
334.542	669.88
334.771	638.88
334.999	610.88
335.227	642.88
335.455	622.88
335.684	627.88
335.912	630.88
336.14	623.88
336.369	615.88
336.597	630.88
336.825	639.88
337.053	619.88
337.281	615.88
337.51	589.88
337.738	606.88
337.966	574.88
338.194	561.88
338.422	568.88
338.65	593.88
338.878	560.88
339.106	545.88
339.334	574.88
339.562	567.88
339.79	538.88
340.018	569.88
340.246	521.88
340.474	520.88
340.702	556.88
340.93	563.88
341.158	567.88
341.386	558.88
341.614	555.88
341.842	539.88
342.07	519.88
342.298	524.88
342.526	549.88
342.754	521.88
342.981	526.88
343.209	540.88
343.437	583.88
343.665	611.88
343.893	621.88
344.12	664.88
344.348	657.88
344.576	622.88
344.804	566.88
345.031	562.88
345.259	565.88
345.487	544.88
345.714	543.88
345.942	532.88
346.17	565.88
346.397	530.88
346.625	551.88
346.853	525.88
347.08	544.88
347.308	543.88
347.535	534.88
347.763	547.88
347.99	552.88
348.218	541.88
348.445	526.88
348.673	544.88
348.9	539.88
349.128	543.88
349.355	533.88
349.583	525.88
349.81	512.88
350.037	532.88
350.265	513.88
350.492	518.88
350.72	508.88
350.947	517.88
351.174	513.88
351.402	520.88
351.629	518.88
351.856	515.88
352.083	524.88
352.311	519.88
352.538	524.88
352.765	515.88
352.992	511.88
353.22	495.88
353.447	507.88
353.674	511.88
353.901	497.88
354.128	489.88
354.355	495.88
354.583	515.88
354.81	509.88
355.037	513.88
355.264	538.88
355.491	520.88
355.718	498.88
355.945	506.88
356.172	523.88
356.399	516.88
356.626	520.88
356.853	536.88
357.08	488.88
357.307	495.88
357.534	507.88
357.761	511.88
357.988	515.88
358.215	507.88
358.441	524.88
358.668	492.88
358.895	522.88
359.122	500.88
359.349	512.88
359.576	497.88
359.802	506.88
360.029	492.88
360.256	511.88
360.483	503.88
360.709	523.88
360.936	511.88
361.163	506.88
361.39	518.88
361.616	523.88
361.843	518.88
362.07	553.88
362.296	510.88
362.523	501.88
362.749	511.88
362.976	468.88
363.203	511.88
363.429	517.88
363.656	507.88
363.882	507.88
364.109	515.88
364.335	506.88
364.562	492.88
364.788	499.88
365.015	492.88
365.241	478.88
365.468	503.88
365.694	492.88
365.92	499.88
366.147	511.88
366.373	526.88
366.599	501.88
366.826	509.88
367.052	504.88
367.278	526.88
367.505	489.88
367.731	520.88
367.957	527.88
368.184	512.88
368.41	534.88
368.636	533.88
368.862	516.88
369.089	515.88
369.315	537.88
369.541	520.88
369.767	522.88
369.993	549.88
370.219	540.88
370.445	549.88
370.672	547.88
370.898	544.88
371.124	553.88
371.35	551.88
371.576	524.88
371.802	567.88
372.028	539.88
372.254	552.88
372.48	580.88
372.706	590.88
372.932	555.88
373.158	565.88
373.384	539.88
373.61	547.88
373.835	543.88
374.061	560.88
374.287	592.88
374.513	561.88
374.739	587.88
374.965	604.88
375.191	627.88
375.416	603.88
375.642	607.88
375.868	600.88
376.094	575.88
376.319	566.88
376.545	580.88
376.771	571.88
376.997	557.88
377.222	572.88
377.448	545.88
377.674	547.88
377.899	563.88
378.125	553.88
378.35	539.88
378.576	536.88
378.802	550.88
379.027	565.88
379.253	543.88
379.478	560.88
379.704	543.88
379.929	540.88
380.155	557.88
380.38	537.88
380.606	543.88
380.831	533.88
381.057	554.88
381.282	565.88
381.507	544.88
381.733	560.88
381.958	551.88
382.184	563.88
382.409	587.88
382.634	586.88
382.86	578.88
383.085	600.88
383.31	600.88
383.535	602.88
383.761	605.88
383.986	627.88
384.211	649.88
384.436	659.88
384.662	635.88
384.887	655.88
385.112	682.88
385.337	675.88
385.562	655.88
385.787	651.88
386.013	686.88
386.238	664.88
386.463	675.88
386.688	678.88
386.913	647.88
387.138	673.88
387.363	653.88
387.588	620.88
387.813	646.88
388.038	632.88
388.263	645.88
388.488	669.88
388.713	673.88
388.938	636.88
389.163	639.88
389.387	638.88
389.612	630.88
389.837	638.88
390.062	638.88
390.287	633.88
390.512	623.88
390.736	649.88
390.961	661.88
391.186	665.88
391.411	684.88
391.636	707.88
391.86	697.88
392.085	744.88
392.31	741.88
392.534	705.88
392.759	722.88
392.984	712.88
393.208	676.88
393.433	681.88
393.658	691.88
393.882	701.88
394.107	714.88
394.331	684.88
394.556	692.88
394.78	720.88
395.005	693.88
395.229	685.88
395.454	711.88
395.678	744.88
395.903	734.88
396.127	720.88
396.352	699.88
396.576	699.88
396.801	671.88
397.025	715.88
397.249	715.88
397.474	724.88
397.698	743.88
397.922	737.88
398.147	704.88
398.371	743.88
398.595	774.88
398.82	783.88
399.044	864.88
399.268	935.88
399.492	1069.88
399.717	1228.88
399.941	1237.88
400.165	1078.88
400.389	951.88
400.613	892.88
400.837	841.88
401.062	849.88
401.286	830.88
401.51	803.88
401.734	814.88
401.958	815.88
402.182	831.88
402.406	828.88
402.63	843.88
402.854	885.88
403.078	873.88
403.302	907.88
403.526	907.88
403.75	938.88
403.974	983.88
404.198	921.88
404.422	967.88
404.645	940.88
404.869	944.88
405.093	923.88
405.317	860.88
405.541	899.88
405.765	897.88
405.988	883.88
406.212	886.88
406.436	897.88
406.66	917.88
406.883	941.88
407.107	987.88
407.331	1045.88
407.555	1063.88
407.778	1023.88
408.002	1030.88
408.226	1008.88
408.449	990.88
408.673	939.88
408.896	957.88
409.12	922.88
409.344	930.88
409.567	932.88
409.791	962.88
410.014	932.88
410.238	931.88
410.461	959.88
410.685	930.88
410.908	919.88
411.132	902.88
411.355	829.88
411.578	869.88
411.802	836.88
412.025	860.88
412.249	877.88
412.472	884.88
412.695	849.88
412.919	831.88
413.142	815.88
413.365	823.88
413.589	816.88
413.812	836.88
414.035	805.88
414.258	835.88
414.482	788.88
414.705	823.88
414.928	845.88
415.151	791.88
415.374	836.88
415.597	817.88
415.821	811.88
416.044	800.88
416.267	804.88
416.49	791.88
416.713	799.88
416.936	811.88
417.159	800.88
417.382	797.88
417.605	775.88
417.828	781.88
418.051	789.88
418.274	808.88
418.497	819.88
418.72	843.88
418.943	848.88
419.166	903.88
419.389	919.88
419.611	920.88
419.834	888.88
420.057	857.88
420.28	823.88
420.503	789.88
420.726	802.88
420.948	796.88
421.171	829.88
421.394	827.88
421.617	788.88
421.839	800.88
422.062	831.88
422.285	819.88
422.507	824.88
422.73	830.88
422.953	840.88
423.175	850.88
423.398	864.88
423.621	849.88
423.843	874.88
424.066	851.88
424.288	890.88
424.511	843.88
424.733	860.88
424.956	816.88
425.178	827.88
425.401	820.88
425.623	821.88
425.846	795.88
426.068	791.88
426.291	783.88
426.513	776.88
426.735	756.88
426.958	776.88
427.18	755.88
427.402	751.88
427.625	736.88
427.847	716.88
428.069	720.88
428.292	739.88
428.514	709.88
428.736	712.88
428.958	709.88
429.181	697.88
429.403	716.88
429.625	723.88
429.847	699.88
430.069	709.88
430.292	708.88
430.514	700.88
430.736	701.88
430.958	714.88
431.18	711.88
431.402	720.88
431.624	719.88
431.846	735.88
432.068	724.88
432.29	746.88
432.512	720.88
432.734	723.88
432.956	723.88
433.178	739.88
433.4	711.88
433.622	731.88
433.844	754.88
434.066	759.88
434.287	762.88
434.509	790.88
434.731	798.88
434.953	827.88
435.175	847.88
435.397	847.88
435.618	768.88
435.84	794.88
436.062	769.88
436.284	745.88
436.505	742.88
436.727	743.88
436.949	735.88
437.17	709.88
437.392	709.88
437.614	720.88
437.835	704.88
438.057	704.88
438.278	683.88
438.5	691.88
438.721	693.88
438.943	698.88
439.165	685.88
439.386	691.88
439.608	741.88
439.829	747.88
440.05	757.88
440.272	760.88
440.493	717.88
440.715	746.88
440.936	777.88
441.158	769.88
441.379	794.88
441.6	839.88
441.822	824.88
442.043	827.88
442.264	831.88
442.486	814.88
442.707	791.88
442.928	826.88
443.149	795.88
443.371	824.88
443.592	832.88
443.813	839.88
444.034	828.88
444.255	862.88
444.476	887.88
444.698	958.88
444.919	1007.88
445.14	1031.88
445.361	927.88
445.582	849.88
445.803	806.88
446.024	783.88
446.245	732.88
446.466	766.88
446.687	719.88
446.908	713.88
447.129	729.88
447.35	720.88
447.571	719.88
447.792	680.88
448.013	671.88
448.234	677.88
448.455	676.88
448.675	696.88
448.896	675.88
449.117	681.88
449.338	662.88
449.559	660.88
449.779	660.88
450	669.88
450.221	708.88
450.442	680.88
450.662	678.88
450.883	679.88
451.104	686.88
451.324	712.88
451.545	719.88
451.766	679.88
451.986	690.88
452.207	723.88
452.428	687.88
452.648	689.88
452.869	678.88
453.089	667.88
453.31	692.88
453.53	660.88
453.751	668.88
453.971	643.88
454.192	679.88
454.412	646.88
454.633	663.88
454.853	635.88
455.073	651.88
455.294	652.88
455.514	627.88
455.734	666.88
455.955	652.88
456.175	624.88
456.395	644.88
456.616	622.88
456.836	631.88
457.056	627.88
457.276	629.88
457.497	624.88
457.717	638.88
457.937	637.88
458.157	672.88
458.377	655.88
458.598	662.88
458.818	680.88
459.038	709.88
459.258	737.88
459.478	757.88
459.698	777.88
459.918	798.88
460.138	845.88
460.358	862.88
460.578	852.88
460.798	871.88
461.018	885.88
461.238	863.88
461.458	875.88
461.678	869.88
461.898	881.88
462.118	856.88
462.338	945.88
462.558	951.88
462.777	982.88
462.997	1082.88
463.217	1197.88
463.437	1174.88
463.657	1111.88
463.876	1022.88
464.096	1030.88
464.316	1030.88
464.536	1003.88
464.755	985.88
464.975	942.88
465.195	915.88
465.414	876.88
465.634	809.88
465.854	783.88
466.073	733.88
466.293	727.88
466.512	753.88
466.732	760.88
466.951	712.88
467.171	729.88
467.391	714.88
467.61	727.88
467.829	727.88
468.049	701.88
468.268	702.88
468.488	701.88
468.707	691.88
468.927	665.88
469.146	679.88
469.365	729.88
469.585	693.88
469.804	708.88
470.023	736.88
470.243	722.88
470.462	744.88
470.681	758.88
470.901	748.88
471.12	729.88
471.339	720.88
471.558	695.88
471.777	709.88
471.997	697.88
472.216	701.88
472.435	667.88
472.654	656.88
472.873	688.88
473.092	664.88
473.311	681.88
473.53	668.88
473.749	671.88
473.968	692.88
474.187	684.88
474.406	667.88
474.625	675.88
474.844	680.88
475.063	672.88
475.282	679.88
475.501	707.88
475.72	724.88
475.939	671.88
476.158	707.88
476.377	696.88
476.596	676.88
476.814	691.88
477.033	700.88
477.252	704.88
477.471	744.88
477.69	750.88
477.908	759.88
478.127	784.88
478.346	797.88
478.564	799.88
478.783	813.88
479.002	857.88
479.22	860.88
479.439	846.88
479.658	822.88
479.876	813.88
480.095	846.88
480.313	876.88
480.532	937.88
480.751	880.88
480.969	844.88
481.188	825.88
481.406	830.88
481.624	796.88
481.843	791.88
482.061	783.88
482.28	779.88
482.498	784.88
482.717	785.88
482.935	780.88
483.153	795.88
483.372	796.88
483.59	787.88
483.808	808.88
484.027	795.88
484.245	805.88
484.463	775.88
484.681	803.88
484.9	792.88
485.118	839.88
485.336	849.88
485.554	838.88
485.772	855.88
485.99	819.88
486.209	854.88
486.427	852.88
486.645	841.88
486.863	819.88
487.081	837.88
487.299	843.88
487.517	837.88
487.735	841.88
487.953	847.88
488.171	823.88
488.389	820.88
488.607	806.88
488.825	805.88
489.043	777.88
489.261	826.88
489.479	824.88
489.696	807.88
489.914	804.88
490.132	807.88
490.35	791.88
490.568	803.88
490.786	805.88
491.003	810.88
491.221	827.88
491.439	832.88
491.657	815.88
491.874	795.88
492.092	812.88
492.31	827.88
492.527	850.88
492.745	848.88
492.963	826.88
493.18	835.88
493.398	855.88
493.615	875.88
493.833	875.88
494.05	849.88
494.268	856.88
494.485	848.88
494.703	817.88
494.92	866.88
495.138	862.88
495.355	840.88
495.573	839.88
495.79	862.88
496.008	875.88
496.225	859.88
496.442	858.88
496.66	905.88
496.877	879.88
497.094	915.88
497.312	919.88
497.529	922.88
497.746	942.88
497.963	953.88
498.181	1023.88
498.398	1065.88
498.615	1120.88
498.832	1185.88
499.049	1271.88
499.267	1365.88
499.484	1493.88
499.701	1658.88
499.918	1841.88
500.135	2082.88
500.352	2455.88
500.569	2542.88
500.786	2504.88
501.003	2310.88
501.22	2061.88
501.437	1821.88
501.654	1620.88
501.871	1456.88
502.088	1334.88
502.305	1229.88
502.522	1171.88
502.739	1131.88
502.956	1071.88
503.172	1017.88
503.389	1014.88
503.606	971.88
503.823	951.88
504.04	950.88
504.256	963.88
504.473	1027.88
504.69	1042.88
504.907	1001.88
505.123	961.88
505.34	871.88
505.557	847.88
505.773	830.88
505.99	809.88
506.207	762.88
506.423	810.88
506.64	762.88
506.856	749.88
507.073	771.88
507.289	772.88
507.506	753.88
507.722	739.88
507.939	760.88
508.155	733.88
508.372	737.88
508.588	718.88
508.805	738.88
509.021	721.88
509.238	731.88
509.454	719.88
509.67	682.88
509.887	703.88
510.103	710.88
510.319	692.88
510.536	725.88
510.752	696.88
510.968	687.88
511.184	680.88
511.401	695.88
511.617	666.88
511.833	683.88
512.049	704.88
512.265	688.88
512.481	703.88
512.698	705.88
512.914	703.88
513.13	669.88
513.346	687.88
513.562	697.88
513.778	739.88
513.994	694.88
514.21	713.88
514.426	699.88
514.642	698.88
514.858	702.88
515.074	680.88
515.29	736.88
515.506	690.88
515.721	738.88
515.937	756.88
516.153	753.88
516.369	772.88
516.585	778.88
516.801	806.88
517.016	827.88
517.232	879.88
517.448	911.88
517.664	963.88
517.879	967.88
518.095	951.88
518.311	932.88
518.527	877.88
518.742	877.88
518.958	823.88
519.173	793.88
519.389	773.88
519.605	750.88
519.82	737.88
520.036	720.88
520.251	727.88
520.467	696.88
520.682	703.88
520.898	720.88
521.113	698.88
521.329	692.88
521.544	661.88
521.76	670.88
521.975	656.88
522.19	651.88
522.406	696.88
522.621	662.88
522.836	645.88
523.052	653.88
523.267	652.88
523.482	657.88
523.698	648.88
523.913	640.88
524.128	621.88
524.343	629.88
524.559	666.88
524.774	625.88
524.989	649.88
525.204	657.88
525.419	667.88
525.634	650.88
525.849	632.88
526.064	632.88
526.28	623.88
526.495	640.88
526.71	657.88
526.925	639.88
527.14	622.88
527.355	621.88
527.57	635.88
527.785	625.88
527.999	613.88
528.214	653.88
528.429	614.88
528.644	621.88
528.859	612.88
529.074	656.88
529.289	620.88
529.503	633.88
529.718	654.88
529.933	621.88
530.148	649.88
530.363	608.88
530.577	643.88
530.792	601.88
531.007	635.88
531.221	624.88
531.436	629.88
531.651	653.88
531.865	632.88
532.08	643.88
532.295	641.88
532.509	647.88
532.724	640.88
532.938	622.88
533.153	641.88
533.367	611.88
533.582	636.88
533.796	643.88
534.011	650.88
534.225	636.88
534.44	627.88
534.654	645.88
534.868	622.88
535.083	624.88
535.297	620.88
535.511	596.88
535.726	606.88
535.94	607.88
536.154	615.88
536.369	590.88
536.583	586.88
536.797	604.88
537.011	605.88
537.225	594.88
537.44	571.88
537.654	583.88
537.868	592.88
538.082	598.88
538.296	592.88
538.51	539.88
538.724	581.88
538.938	597.88
539.153	583.88
539.367	572.88
539.581	565.88
539.795	566.88
540.009	576.88
540.222	581.88
540.436	551.88
540.65	565.88
540.864	535.88
541.078	564.88
541.292	598.88
541.506	581.88
541.72	577.88
541.934	563.88
542.147	567.88
542.361	544.88
542.575	569.88
542.789	551.88
543.002	548.88
543.216	558.88
543.43	572.88
543.644	549.88
543.857	547.88
544.071	540.88
544.285	532.88
544.498	567.88
544.712	564.88
544.925	574.88
545.139	584.88
545.352	566.88
545.566	611.88
545.779	565.88
545.993	608.88
546.206	587.88
546.42	582.88
546.633	580.88
546.847	564.88
547.06	574.88
547.274	579.88
547.487	563.88
547.7	561.88
547.914	589.88
548.127	583.88
548.34	590.88
548.554	580.88
548.767	587.88
548.98	590.88
549.193	568.88
549.407	587.88
549.62	585.88
549.833	611.88
550.046	578.88
550.259	582.88
550.473	573.88
550.686	568.88
550.899	571.88
551.112	589.88
551.325	540.88
551.538	572.88
551.751	572.88
551.964	565.88
552.177	551.88
552.39	594.88
552.603	584.88
552.816	626.88
553.029	624.88
553.242	599.88
553.455	611.88
553.667	637.88
553.88	619.88
554.093	611.88
554.306	590.88
554.519	581.88
554.732	570.88
554.944	587.88
555.157	572.88
555.37	558.88
555.583	547.88
555.795	534.88
556.008	538.88
556.221	524.88
556.433	507.88
556.646	524.88
556.859	516.88
557.071	504.88
557.284	505.88
557.496	481.88
557.709	504.88
557.921	480.88
558.134	483.88
558.346	474.88
558.559	491.88
558.771	484.88
558.984	508.88
559.196	478.88
559.409	475.88
559.621	454.88
559.833	476.88
560.046	490.88
560.258	477.88
560.47	474.88
560.683	475.88
560.895	485.88
561.107	464.88
561.32	491.88
561.532	496.88
561.744	488.88
561.956	490.88
562.168	508.88
562.381	477.88
562.593	492.88
562.805	505.88
563.017	485.88
563.229	475.88
563.441	480.88
563.653	479.88
563.865	494.88
564.077	515.88
564.289	492.88
564.501	496.88
564.713	519.88
564.925	516.88
565.137	530.88
565.349	526.88
565.561	542.88
565.773	564.88
565.985	599.88
566.197	591.88
566.408	665.88
566.62	688.88
566.832	765.88
567.044	782.88
567.255	810.88
567.467	833.88
567.679	847.88
567.891	900.88
568.102	928.88
568.314	892.88
568.526	798.88
568.737	736.88
568.949	669.88
569.161	598.88
569.372	576.88
569.584	557.88
569.795	537.88
570.007	504.88
570.218	516.88
570.43	496.88
570.641	494.88
570.853	494.88
571.064	484.88
571.276	508.88
571.487	511.88
571.698	495.88
571.91	440.88
572.121	438.88
572.333	456.88
572.544	443.88
572.755	441.88
572.966	425.88
573.178	421.88
573.389	422.88
573.6	421.88
573.811	399.88
574.023	419.88
574.234	404.88
574.445	395.88
574.656	401.88
574.867	397.88
575.078	420.88
575.289	411.88
575.501	400.88
575.712	394.88
575.923	398.88
576.134	377.88
576.345	382.88
576.556	393.88
576.767	399.88
576.978	392.88
577.188	368.88
577.399	392.88
577.61	372.88
577.821	373.88
578.032	373.88
578.243	353.88
578.454	385.88
578.665	383.88
578.875	361.88
579.086	375.88
579.297	379.88
579.508	361.88
579.718	367.88
579.929	364.88
580.14	345.88
580.35	351.88
580.561	345.88
580.772	335.88
580.982	366.88
581.193	343.88
581.403	356.88
581.614	356.88
581.825	353.88
582.035	359.88
582.246	347.88
582.456	343.88
582.667	348.88
582.877	355.88
583.087	344.88
583.298	341.88
583.508	337.88
583.719	344.88
583.929	341.88
584.139	322.88
584.35	337.88
584.56	346.88
584.77	343.88
584.981	331.88
585.191	328.88
585.401	346.88
585.611	318.88
585.821	343.88
586.032	325.88
586.242	345.88
586.452	342.88
586.662	325.88
586.872	337.88
587.082	320.88
587.292	333.88
587.502	346.88
587.713	355.88
587.923	344.88
588.133	331.88
588.343	330.88
588.553	302.88
588.762	326.88
588.972	325.88
589.182	343.88
589.392	342.88
589.602	336.88
589.812	353.88
590.022	335.88
590.232	339.88
590.441	329.88
590.651	335.88
590.861	333.88
591.071	352.88
591.281	344.88
591.49	325.88
591.7	343.88
591.91	343.88
592.119	366.88
592.329	377.88
592.539	351.88
592.748	367.88
592.958	401.88
593.167	408.88
593.377	423.88
593.587	421.88
593.796	422.88
594.006	416.88
594.215	413.88
594.424	436.88
594.634	403.88
594.843	409.88
595.053	376.88
595.262	368.88
595.472	341.88
595.681	367.88
595.89	329.88
596.1	339.88
596.309	341.88
596.518	307.88
596.727	327.88
596.937	318.88
597.146	303.88
597.355	316.88
597.564	314.88
597.774	320.88
597.983	310.88
598.192	310.88
598.401	305.88
598.61	315.88
598.819	311.88
599.028	298.88
599.237	303.88
599.446	279.88
599.655	298.88
599.864	294.88
600.073	278.88
600.282	264.88
600.491	287.88
600.7	281.88
600.909	280.88
601.118	275.88
601.327	289.88
601.536	280.88
601.745	291.88
601.953	263.88
602.162	288.88
602.371	272.88
602.58	289.88
602.789	296.88
602.997	300.88
603.206	295.88
603.415	276.88
603.623	287.88
603.832	286.88
604.041	270.88
604.249	266.88
604.458	287.88
604.666	287.88
604.875	256.88
605.084	272.88
605.292	267.88
605.501	268.88
605.709	284.88
605.918	276.88
606.126	276.88
606.334	261.88
606.543	282.88
606.751	274.88
606.96	260.88
607.168	259.88
607.376	260.88
607.585	265.88
607.793	263.88
608.001	252.88
608.21	257.88
608.418	277.88
608.626	284.88
608.834	269.88
609.043	259.88
609.251	233.88
609.459	245.88
609.667	269.88
609.875	251.88
610.083	257.88
610.291	249.88
610.499	238.88
610.707	244.88
610.916	256.88
611.124	257.88
611.332	240.88
611.54	257.88
611.748	277.88
611.955	253.88
612.163	257.88
612.371	252.88
612.579	257.88
612.787	244.88
612.995	259.88
613.203	235.88
613.411	272.88
613.618	272.88
613.826	267.88
614.034	260.88
614.242	259.88
614.449	261.88
614.657	264.88
614.865	239.88
615.072	235.88
615.28	264.88
615.488	252.88
615.695	249.88
615.903	259.88
616.111	241.88
616.318	272.88
616.526	268.88
616.733	244.88
616.941	261.88
617.148	281.88
617.356	266.88
617.563	249.88
617.771	245.88
617.978	275.88
618.185	252.88
618.393	268.88
618.6	260.88
618.807	253.88
619.015	250.88
619.222	240.88
619.429	243.88
619.637	247.88
619.844	238.88
620.051	225.88
620.258	238.88
620.466	238.88
620.673	226.88
620.88	249.88
621.087	239.88
621.294	226.88
621.501	229.88
621.708	246.88
621.915	219.88
622.122	230.88
622.329	229.88
622.536	225.88
622.743	211.88
622.95	230.88
623.157	231.88
623.364	228.88
623.571	238.88
623.778	214.88
623.985	229.88
624.192	219.88
624.399	243.88
624.606	235.88
624.812	208.88
625.019	213.88
625.226	208.88
625.433	225.88
625.639	220.88
625.846	215.88
626.053	222.88
626.259	230.88
626.466	212.88
626.673	207.88
626.879	227.88
627.086	220.88
627.293	212.88
627.499	196.88
627.706	211.88
627.912	213.88
628.119	209.88
628.325	223.88
628.532	221.88
628.738	204.88
628.945	197.88
629.151	225.88
629.357	216.88
629.564	211.88
629.77	198.88
629.976	193.88
630.183	198.88
630.389	212.88
630.595	206.88
630.802	235.88
631.008	192.88
631.214	206.88
631.42	190.88
631.627	212.88
631.833	200.88
632.039	217.88
632.245	200.88
632.451	187.88
632.657	184.88
632.863	210.88
633.069	208.88
633.275	203.88
633.481	190.88
633.688	208.88
633.893	201.88
634.099	201.88
634.305	195.88
634.511	196.88
634.717	196.88
634.923	188.88
635.129	187.88
635.335	208.88
635.541	204.88
635.747	191.88
635.952	203.88
636.158	198.88
636.364	196.88
636.57	193.88
636.775	175.88
636.981	202.88
637.187	201.88
637.392	197.88
637.598	190.88
637.804	181.88
638.009	184.88
638.215	184.88
638.421	204.88
638.626	203.88
638.832	188.88
639.037	179.88
639.243	174.88
639.448	173.88
639.654	184.88
639.859	191.88
640.065	187.88
640.27	193.88
640.475	173.88
640.681	174.88
640.886	183.88
641.091	176.88
641.297	192.88
641.502	184.88
641.707	184.88
641.913	191.88
642.118	181.88
642.323	168.88
642.528	184.88
642.733	191.88
642.939	187.88
643.144	171.88
643.349	182.88
643.554	166.88
643.759	174.88
643.964	156.88
644.169	180.88
644.374	168.88
644.579	181.88
644.784	165.88
644.989	175.88
645.194	190.88
645.399	180.88
645.604	154.88
645.809	168.88
646.014	173.88
646.219	176.88
646.423	172.88
646.628	177.88
646.833	173.88
647.038	175.88
647.243	171.88
647.447	170.88
647.652	189.88
647.857	181.88
648.062	196.88
648.266	197.88
648.471	184.88
648.676	196.88
648.88	183.88
649.085	177.88
649.289	187.88
649.494	172.88
649.698	182.88
649.903	164.88
650.107	172.88
650.312	174.88
650.516	181.88
650.721	163.88
650.925	162.88
651.13	152.88
651.334	167.88
651.539	157.88
651.743	149.88
651.947	168.88
652.152	177.88
652.356	170.88
652.56	170.88
652.764	154.88
652.969	155.88
653.173	148.88
653.377	153.88
653.581	143.88
653.785	153.88
653.99	144.88
654.194	155.88
654.398	152.88
654.602	155.88
654.806	156.88
655.01	131.88
655.214	151.88
655.418	153.88
655.622	153.88
655.826	144.88
656.03	158.88
656.234	152.88
656.438	150.88
656.642	163.88
656.846	155.88
657.049	159.88
657.253	139.88
657.457	125.88
657.661	113.88
657.865	128.88
658.068	131.88
658.272	113.88
658.476	104.88
658.68	110.88
658.883	97.88
659.087	114.88
659.291	124.88
659.494	103.88
659.698	106.88
659.901	92.88
660.105	117.88
660.309	107.88
660.512	106.88
660.716	112.88
660.919	96.88
661.123	94.88
661.326	96.88
661.53	92.88
661.733	103.88
661.936	102.88
662.14	81.88
662.343	95.88
662.546	97.88
662.75	95.88
662.953	98.88
663.156	97.88
663.36	85.88
663.563	87.88
663.766	93.88
663.969	85.88
664.173	89.88
664.376	102.88
664.579	85.88
664.782	85.88
664.985	99.88
665.188	81.88
665.391	84.88
665.594	76.88
665.797	78.88
666	84.88
666.203	86.88
666.406	86.88
666.609	91.88
666.812	78.88
667.015	91.88
667.218	92.88
667.421	84.88
667.624	73.88
667.827	88.88
668.03	92.88
668.232	75.88
668.435	83.88
668.638	92.88
668.841	101.88
669.043	72.88
669.246	81.88
669.449	73.88
669.651	83.88
669.854	81.88
670.057	84.88
670.259	83.88
670.462	85.88
670.665	79.88
670.867	83.88
671.07	91.88
671.272	87.88
671.475	87.88
671.677	89.88
671.88	93.88
672.082	87.88
672.284	98.88
672.487	88.88
672.689	68.88
672.892	76.88
