Data from Ni(NO3)2@0.5M.TitratingCurve.Agarose3%dH2O.NegLispCup.LampEnergy10.LIBS07252019_HRD10591_17-57-24-564.txt Node
Date: Thu Jul 25 17:57:24 EDT 2019
User: cochatt
Spectrometer: HR+D1059
Trigger mode: 1
Integration Time (sec): 1.000000E-1
Scans to average: 1
Electric dark correction enabled: true
Nonlinearity correction enabled: false
Boxcar width: 0
XAxis mode: Wavelengths
Number of Pixels in Spectrum: 2048
>>>>>Begin Spectral Data<<<<<
223.165	-13.31
223.4	-13.31
223.635	-13.31
223.869	-17.31
224.104	-23.31
224.338	-18.31
224.573	-10.31
224.808	-6.31
225.042	-18.31
225.277	-18.31
225.511	5.69
225.746	-3.31
225.98	23.69
226.215	9.69
226.449	16.69
226.683	7.69
226.918	25.69
227.152	39.69
227.387	25.69
227.621	44.69
227.856	43.69
228.09	49.69
228.324	64.69
228.559	62.69
228.793	85.69
229.027	146.69
229.262	140.69
229.496	163.69
229.73	143.69
229.964	181.69
230.199	198.69
230.433	187.69
230.667	195.69
230.901	192.69
231.136	160.69
231.37	160.69
231.604	196.69
231.838	205.69
232.072	215.69
232.306	197.69
232.541	199.69
232.775	188.69
233.009	170.69
233.243	187.69
233.477	176.69
233.711	173.69
233.945	189.69
234.179	190.69
234.413	205.69
234.647	196.69
234.881	211.69
235.115	204.69
235.349	199.69
235.583	191.69
235.817	201.69
236.051	183.69
236.285	180.69
236.519	209.69
236.753	230.69
236.987	203.69
237.221	213.69
237.455	211.69
237.689	204.69
237.922	211.69
238.156	209.69
238.39	206.69
238.624	212.69
238.858	221.69
239.091	227.69
239.325	235.69
239.559	248.69
239.793	247.69
240.027	248.69
240.26	233.69
240.494	247.69
240.728	244.69
240.961	244.69
241.195	253.69
241.429	236.69
241.662	250.69
241.896	279.69
242.13	293.69
242.363	281.69
242.597	261.69
242.83	257.69
243.064	259.69
243.298	267.69
243.531	284.69
243.765	281.69
243.998	304.69
244.232	299.69
244.465	292.69
244.699	285.69
244.932	299.69
245.166	307.69
245.399	287.69
245.633	304.69
245.866	293.69
246.099	278.69
246.333	314.69
246.566	294.69
246.8	298.69
247.033	307.69
247.266	326.69
247.5	342.69
247.733	327.69
247.966	337.69
248.2	313.69
248.433	341.69
248.666	353.69
248.899	330.69
249.133	329.69
249.366	348.69
249.599	357.69
249.832	353.69
250.066	358.69
250.299	352.69
250.532	352.69
250.765	373.69
250.998	365.69
251.231	376.69
251.465	397.69
251.698	381.69
251.931	389.69
252.164	399.69
252.397	387.69
252.63	411.69
252.863	396.69
253.096	409.69
253.329	419.69
253.562	411.69
253.795	408.69
254.028	397.69
254.261	428.69
254.494	411.69
254.727	428.69
254.96	433.69
255.193	437.69
255.426	425.69
255.659	427.69
255.892	445.69
256.124	441.69
256.357	460.69
256.59	476.69
256.823	444.69
257.056	470.69
257.289	428.69
257.521	439.69
257.754	460.69
257.987	473.69
258.22	503.69
258.452	482.69
258.685	468.69
258.918	485.69
259.151	465.69
259.383	496.69
259.616	489.69
259.849	503.69
260.081	475.69
260.314	516.69
260.547	511.69
260.779	501.69
261.012	525.69
261.244	521.69
261.477	541.69
261.71	513.69
261.942	491.69
262.175	494.69
262.407	529.69
262.64	541.69
262.872	526.69
263.105	532.69
263.337	548.69
263.57	541.69
263.802	543.69
264.035	528.69
264.267	551.69
264.499	554.69
264.732	565.69
264.964	570.69
265.197	559.69
265.429	563.69
265.661	557.69
265.894	548.69
266.126	582.69
266.358	565.69
266.591	577.69
266.823	576.69
267.055	577.69
267.287	580.69
267.52	579.69
267.752	582.69
267.984	588.69
268.216	600.69
268.448	591.69
268.681	588.69
268.913	596.69
269.145	588.69
269.377	583.69
269.609	603.69
269.841	596.69
270.073	598.69
270.306	600.69
270.538	617.69
270.77	599.69
271.002	635.69
271.234	624.69
271.466	623.69
271.698	621.69
271.93	619.69
272.162	635.69
272.394	608.69
272.626	623.69
272.858	641.69
273.09	649.69
273.322	652.69
273.553	631.69
273.785	669.69
274.017	632.69
274.249	662.69
274.481	663.69
274.713	647.69
274.945	657.69
275.176	663.69
275.408	668.69
275.64	664.69
275.872	649.69
276.104	702.69
276.335	663.69
276.567	667.69
276.799	674.69
277.031	691.69
277.262	705.69
277.494	696.69
277.726	713.69
277.957	703.69
278.189	697.69
278.421	715.69
278.652	695.69
278.884	678.69
279.115	700.69
279.347	689.69
279.579	700.69
279.81	697.69
280.042	699.69
280.273	719.69
280.505	719.69
280.736	721.69
280.968	704.69
281.199	698.69
281.431	718.69
281.662	740.69
281.894	720.69
282.125	683.69
282.356	729.69
282.588	736.69
282.819	687.69
283.051	700.69
283.282	733.69
283.513	738.69
283.745	729.69
283.976	733.69
284.207	732.69
284.439	779.69
284.67	741.69
284.901	733.69
285.132	723.69
285.364	741.69
285.595	781.69
285.826	744.69
286.057	745.69
286.288	752.69
286.52	765.69
286.751	744.69
286.982	780.69
287.213	756.69
287.444	736.69
287.675	760.69
287.906	783.69
288.138	769.69
288.369	777.69
288.6	777.69
288.831	779.69
289.062	781.69
289.293	774.69
289.524	805.69
289.755	799.69
289.986	812.69
290.217	788.69
290.448	813.69
290.679	792.69
290.91	793.69
291.141	760.69
291.371	777.69
291.602	793.69
291.833	825.69
292.064	788.69
292.295	805.69
292.526	796.69
292.757	793.69
292.987	801.69
293.218	783.69
293.449	811.69
293.68	816.69
293.91	815.69
294.141	773.69
294.372	809.69
294.603	771.69
294.833	792.69
295.064	802.69
295.295	800.69
295.525	798.69
295.756	817.69
295.987	800.69
296.217	809.69
296.448	798.69
296.679	785.69
296.909	800.69
297.14	793.69
297.37	815.69
297.601	805.69
297.831	830.69
298.062	828.69
298.292	856.69
298.523	842.69
298.753	854.69
298.984	857.69
299.214	846.69
299.445	848.69
299.675	845.69
299.905	871.69
300.136	863.69
300.366	911.69
300.597	895.69
300.827	873.69
301.057	901.69
301.288	849.69
301.518	856.69
301.748	892.69
301.979	897.69
302.209	890.69
302.439	889.69
302.669	890.69
302.9	887.69
303.13	879.69
303.36	889.69
303.59	917.69
303.82	919.69
304.051	906.69
304.281	932.69
304.511	906.69
304.741	903.69
304.971	934.69
305.201	949.69
305.431	934.69
305.661	929.69
305.891	930.69
306.121	931.69
306.352	932.69
306.582	912.69
306.812	901.69
307.042	924.69
307.272	919.69
307.502	904.69
307.731	978.69
307.961	895.69
308.191	926.69
308.421	935.69
308.651	915.69
308.881	902.69
309.111	926.69
309.341	934.69
309.571	963.69
309.8	950.69
310.03	945.69
310.26	973.69
310.49	955.69
310.72	967.69
310.949	930.69
311.179	948.69
311.409	967.69
311.639	972.69
311.868	965.69
312.098	1014.69
312.328	967.69
312.557	986.69
312.787	989.69
313.017	972.69
313.246	991.69
313.476	1015.69
313.706	1037.69
313.935	1025.69
314.165	1035.69
314.394	1028.69
314.624	1000.69
314.853	1017.69
315.083	1034.69
315.312	1039.69
315.542	1044.69
315.771	1027.69
316.001	1029.69
316.23	1050.69
316.46	1033.69
316.689	1057.69
316.919	1056.69
317.148	1028.69
317.377	1046.69
317.607	1069.69
317.836	1068.69
318.065	1085.69
318.295	1073.69
318.524	1050.69
318.753	1080.69
318.983	1094.69
319.212	1067.69
319.441	1077.69
319.67	1112.69
319.9	1118.69
320.129	1104.69
320.358	1081.69
320.587	1101.69
320.816	1137.69
321.046	1108.69
321.275	1115.69
321.504	1124.69
321.733	1105.69
321.962	1104.69
322.191	1117.69
322.42	1131.69
322.649	1130.69
322.878	1127.69
323.108	1141.69
323.337	1125.69
323.566	1158.69
323.795	1173.69
324.024	1184.69
324.253	1191.69
324.482	1190.69
324.71	1151.69
324.939	1164.69
325.168	1179.69
325.397	1173.69
325.626	1168.69
325.855	1169.69
326.084	1165.69
326.313	1192.69
326.542	1195.69
326.77	1200.69
326.999	1203.69
327.228	1229.69
327.457	1211.69
327.686	1207.69
327.914	1193.69
328.143	1230.69
328.372	1194.69
328.6	1233.69
328.829	1209.69
329.058	1211.69
329.287	1223.69
329.515	1223.69
329.744	1242.69
329.972	1248.69
330.201	1241.69
330.43	1251.69
330.658	1246.69
330.887	1225.69
331.115	1236.69
331.344	1263.69
331.572	1258.69
331.801	1267.69
332.03	1274.69
332.258	1233.69
332.486	1268.69
332.715	1277.69
332.943	1270.69
333.172	1267.69
333.4	1302.69
333.629	1273.69
333.857	1255.69
334.085	1311.69
334.314	1325.69
334.542	1303.69
334.771	1315.69
334.999	1324.69
335.227	1298.69
335.455	1300.69
335.684	1317.69
335.912	1353.69
336.14	1330.69
336.369	1347.69
336.597	1356.69
336.825	1323.69
337.053	1342.69
337.281	1389.69
337.51	1323.69
337.738	1344.69
337.966	1335.69
338.194	1362.69
338.422	1368.69
338.65	1315.69
338.878	1344.69
339.106	1346.69
339.334	1340.69
339.562	1308.69
339.79	1291.69
340.018	1292.69
340.246	1295.69
340.474	1317.69
340.702	1337.69
340.93	1310.69
341.158	1290.69
341.386	1325.69
341.614	1344.69
341.842	1362.69
342.07	1285.69
342.298	1307.69
342.526	1337.69
342.754	1316.69
342.981	1298.69
343.209	1315.69
343.437	1343.69
343.665	1363.69
343.893	1333.69
344.12	1310.69
344.348	1331.69
344.576	1345.69
344.804	1357.69
345.031	1307.69
345.259	1339.69
345.487	1376.69
345.714	1344.69
345.942	1319.69
346.17	1367.69
346.397	1344.69
346.625	1321.69
346.853	1301.69
347.08	1272.69
347.308	1290.69
347.535	1259.69
347.763	1280.69
347.99	1230.69
348.218	1287.69
348.445	1297.69
348.673	1254.69
348.9	1287.69
349.128	1315.69
349.355	1292.69
349.583	1307.69
349.81	1285.69
350.037	1274.69
350.265	1268.69
350.492	1283.69
350.72	1273.69
350.947	1311.69
351.174	1314.69
351.402	1329.69
351.629	1293.69
351.856	1292.69
352.083	1280.69
352.311	1278.69
352.538	1277.69
352.765	1316.69
352.992	1240.69
353.22	1272.69
353.447	1254.69
353.674	1235.69
353.901	1221.69
354.128	1251.69
354.355	1254.69
354.583	1262.69
354.81	1248.69
355.037	1280.69
355.264	1232.69
355.491	1240.69
355.718	1224.69
355.945	1256.69
356.172	1278.69
356.399	1271.69
356.626	1284.69
356.853	1304.69
357.08	1248.69
357.307	1223.69
357.534	1245.69
357.761	1242.69
357.988	1258.69
358.215	1254.69
358.441	1231.69
358.668	1227.69
358.895	1259.69
359.122	1233.69
359.349	1267.69
359.576	1271.69
359.802	1278.69
360.029	1251.69
360.256	1263.69
360.483	1255.69
360.709	1243.69
360.936	1259.69
361.163	1285.69
361.39	1259.69
361.616	1249.69
361.843	1279.69
362.07	1331.69
362.296	1312.69
362.523	1243.69
362.749	1252.69
362.976	1258.69
363.203	1227.69
363.429	1235.69
363.656	1269.69
363.882	1258.69
364.109	1245.69
364.335	1247.69
364.562	1241.69
364.788	1244.69
365.015	1296.69
365.241	1262.69
365.468	1237.69
365.694	1273.69
365.92	1269.69
366.147	1273.69
366.373	1271.69
366.599	1258.69
366.826	1249.69
367.052	1276.69
367.278	1266.69
367.505	1246.69
367.731	1301.69
367.957	1299.69
368.184	1243.69
368.41	1272.69
368.636	1307.69
368.862	1292.69
369.089	1284.69
369.315	1258.69
369.541	1273.69
369.767	1280.69
369.993	1283.69
370.219	1269.69
370.445	1308.69
370.672	1279.69
370.898	1300.69
371.124	1274.69
371.35	1317.69
371.576	1318.69
371.802	1272.69
372.028	1313.69
372.254	1297.69
372.48	1260.69
372.706	1304.69
372.932	1308.69
373.158	1264.69
373.384	1274.69
373.61	1258.69
373.835	1298.69
374.061	1253.69
374.287	1299.69
374.513	1263.69
374.739	1299.69
374.965	1292.69
375.191	1295.69
375.416	1293.69
375.642	1276.69
375.868	1282.69
376.094	1243.69
376.319	1254.69
376.545	1275.69
376.771	1262.69
376.997	1247.69
377.222	1273.69
377.448	1267.69
377.674	1263.69
377.899	1239.69
378.125	1255.69
378.35	1257.69
378.576	1247.69
378.802	1256.69
379.027	1239.69
379.253	1222.69
379.478	1230.69
379.704	1214.69
379.929	1267.69
380.155	1221.69
380.38	1233.69
380.606	1275.69
380.831	1250.69
381.057	1280.69
381.282	1230.69
381.507	1252.69
381.733	1250.69
381.958	1236.69
382.184	1269.69
382.409	1262.69
382.634	1259.69
382.86	1256.69
383.085	1288.69
383.31	1279.69
383.535	1264.69
383.761	1263.69
383.986	1304.69
384.211	1244.69
384.436	1270.69
384.662	1265.69
384.887	1293.69
385.112	1277.69
385.337	1289.69
385.562	1283.69
385.787	1279.69
386.013	1326.69
386.238	1322.69
386.463	1314.69
386.688	1337.69
386.913	1292.69
387.138	1328.69
387.363	1303.69
387.588	1333.69
387.813	1313.69
388.038	1307.69
388.263	1334.69
388.488	1309.69
388.713	1315.69
388.938	1345.69
389.163	1323.69
389.387	1329.69
389.612	1291.69
389.837	1325.69
390.062	1322.69
390.287	1317.69
390.512	1301.69
390.736	1299.69
390.961	1319.69
391.186	1306.69
391.411	1315.69
391.636	1309.69
391.86	1337.69
392.085	1343.69
392.31	1321.69
392.534	1331.69
392.759	1351.69
392.984	1325.69
393.208	1338.69
393.433	1331.69
393.658	1308.69
393.882	1318.69
394.107	1357.69
394.331	1297.69
394.556	1339.69
394.78	1319.69
395.005	1334.69
395.229	1322.69
395.454	1302.69
395.678	1324.69
395.903	1330.69
396.127	1343.69
396.352	1361.69
396.576	1310.69
396.801	1323.69
397.025	1329.69
397.249	1370.69
397.474	1350.69
397.698	1354.69
397.922	1368.69
398.147	1370.69
398.371	1360.69
398.595	1384.69
398.82	1407.69
399.044	1403.69
399.268	1412.69
399.492	1416.69
399.717	1486.69
399.941	1438.69
400.165	1439.69
400.389	1473.69
400.613	1451.69
400.837	1424.69
401.062	1439.69
401.286	1415.69
401.51	1420.69
401.734	1400.69
401.958	1409.69
402.182	1425.69
402.406	1379.69
402.63	1424.69
402.854	1442.69
403.078	1413.69
403.302	1429.69
403.526	1424.69
403.75	1398.69
403.974	1404.69
404.198	1372.69
404.422	1399.69
404.645	1403.69
404.869	1427.69
405.093	1437.69
405.317	1434.69
405.541	1454.69
405.765	1401.69
405.988	1431.69
406.212	1470.69
406.436	1441.69
406.66	1482.69
406.883	1446.69
407.107	1486.69
407.331	1481.69
407.555	1477.69
407.778	1500.69
408.002	1498.69
408.226	1521.69
408.449	1531.69
408.673	1506.69
408.896	1481.69
409.12	1463.69
409.344	1503.69
409.567	1468.69
409.791	1443.69
410.014	1441.69
410.238	1455.69
410.461	1483.69
410.685	1469.69
410.908	1441.69
411.132	1447.69
411.355	1412.69
411.578	1464.69
411.802	1471.69
412.025	1437.69
412.249	1483.69
412.472	1429.69
412.695	1415.69
412.919	1399.69
413.142	1430.69
413.365	1416.69
413.589	1459.69
413.812	1403.69
414.035	1396.69
414.258	1402.69
414.482	1431.69
414.705	1402.69
414.928	1413.69
415.151	1430.69
415.374	1435.69
415.597	1399.69
415.821	1400.69
416.044	1396.69
416.267	1389.69
416.49	1385.69
416.713	1379.69
416.936	1398.69
417.159	1384.69
417.382	1325.69
417.605	1379.69
417.828	1349.69
418.051	1395.69
418.274	1357.69
418.497	1352.69
418.72	1369.69
418.943	1333.69
419.166	1371.69
419.389	1518.69
419.611	1472.69
419.834	1380.69
420.057	1385.69
420.28	1380.69
420.503	1365.69
420.726	1344.69
420.948	1349.69
421.171	1321.69
421.394	1372.69
421.617	1345.69
421.839	1347.69
422.062	1374.69
422.285	1318.69
422.507	1395.69
422.73	1362.69
422.953	1379.69
423.175	1348.69
423.398	1376.69
423.621	1361.69
423.843	1355.69
424.066	1349.69
424.288	1349.69
424.511	1355.69
424.733	1350.69
424.956	1331.69
425.178	1356.69
425.401	1369.69
425.623	1377.69
425.846	1343.69
426.068	1369.69
426.291	1350.69
426.513	1398.69
426.735	1332.69
426.958	1339.69
427.18	1288.69
427.402	1393.69
427.625	1371.69
427.847	1347.69
428.069	1354.69
428.292	1369.69
428.514	1349.69
428.736	1356.69
428.958	1384.69
429.181	1359.69
429.403	1352.69
429.625	1386.69
429.847	1372.69
430.069	1376.69
430.292	1340.69
430.514	1365.69
430.736	1348.69
430.958	1351.69
431.18	1353.69
431.402	1374.69
431.624	1341.69
431.846	1312.69
432.068	1319.69
432.29	1349.69
432.512	1344.69
432.734	1377.69
432.956	1341.69
433.178	1436.69
433.4	1387.69
433.622	1405.69
433.844	1425.69
434.066	1401.69
434.287	1388.69
434.509	1350.69
434.731	1335.69
434.953	1353.69
435.175	1416.69
435.397	1413.69
435.618	1370.69
435.84	1411.69
436.062	1375.69
436.284	1329.69
436.505	1368.69
436.727	1387.69
436.949	1379.69
437.17	1353.69
437.392	1388.69
437.614	1341.69
437.835	1309.69
438.057	1326.69
438.278	1308.69
438.5	1318.69
438.721	1304.69
438.943	1300.69
439.165	1339.69
439.386	1355.69
439.608	1356.69
439.829	1334.69
440.05	1335.69
440.272	1362.69
440.493	1310.69
440.715	1345.69
440.936	1371.69
441.158	1345.69
441.379	1358.69
441.6	1383.69
441.822	1343.69
442.043	1375.69
442.264	1342.69
442.486	1349.69
442.707	1369.69
442.928	1347.69
443.149	1361.69
443.371	1345.69
443.592	1403.69
443.813	1403.69
444.034	1363.69
444.255	1392.69
444.476	1395.69
444.698	1358.69
444.919	1373.69
445.14	1503.69
445.361	1410.69
445.582	1370.69
445.803	1347.69
446.024	1326.69
446.245	1371.69
446.466	1325.69
446.687	1322.69
446.908	1344.69
447.129	1316.69
447.35	1323.69
447.571	1288.69
447.792	1291.69
448.013	1289.69
448.234	1291.69
448.455	1261.69
448.675	1243.69
448.896	1222.69
449.117	1253.69
449.338	1260.69
449.559	1275.69
449.779	1255.69
450	1253.69
450.221	1241.69
450.442	1261.69
450.662	1253.69
450.883	1269.69
451.104	1233.69
451.324	1263.69
451.545	1248.69
451.766	1251.69
451.986	1203.69
452.207	1235.69
452.428	1247.69
452.648	1256.69
452.869	1191.69
453.089	1251.69
453.31	1254.69
453.53	1223.69
453.751	1160.69
453.971	1228.69
454.192	1243.69
454.412	1214.69
454.633	1200.69
454.853	1229.69
455.073	1249.69
455.294	1226.69
455.514	1227.69
455.734	1240.69
455.955	1239.69
456.175	1235.69
456.395	1189.69
456.616	1193.69
456.836	1214.69
457.056	1179.69
457.276	1213.69
457.497	1229.69
457.717	1201.69
457.937	1244.69
458.157	1236.69
458.377	1228.69
458.598	1239.69
458.818	1253.69
459.038	1277.69
459.258	1233.69
459.478	1291.69
459.698	1321.69
459.918	1341.69
460.138	1337.69
460.358	1331.69
460.578	1279.69
460.798	1345.69
461.018	1377.69
461.238	1339.69
461.458	1313.69
461.678	1297.69
461.898	1304.69
462.118	1313.69
462.338	1358.69
462.558	1374.69
462.777	1370.69
462.997	1412.69
463.217	1390.69
463.437	1443.69
463.657	1419.69
463.876	1395.69
464.096	1367.69
464.316	1383.69
464.536	1365.69
464.755	1393.69
464.975	1350.69
465.195	1319.69
465.414	1331.69
465.634	1308.69
465.854	1293.69
466.073	1300.69
466.293	1308.69
466.512	1286.69
466.732	1297.69
466.951	1320.69
467.171	1296.69
467.391	1298.69
467.61	1279.69
467.829	1317.69
468.049	1317.69
468.268	1296.69
468.488	1276.69
468.707	1301.69
468.927	1309.69
469.146	1298.69
469.365	1315.69
469.585	1273.69
469.804	1335.69
470.023	1315.69
470.243	1297.69
470.462	1309.69
470.681	1296.69
470.901	1291.69
471.12	1275.69
471.339	1296.69
471.558	1320.69
471.777	1296.69
471.997	1306.69
472.216	1339.69
472.435	1331.69
472.654	1324.69
472.873	1324.69
473.092	1338.69
473.311	1323.69
473.53	1331.69
473.749	1357.69
473.968	1390.69
474.187	1323.69
474.406	1303.69
474.625	1336.69
474.844	1343.69
475.063	1361.69
475.282	1397.69
475.501	1416.69
475.72	1393.69
475.939	1399.69
476.158	1421.69
476.377	1443.69
476.596	1412.69
476.814	1400.69
477.033	1406.69
477.252	1429.69
477.471	1449.69
477.69	1456.69
477.908	1492.69
478.127	1496.69
478.346	1484.69
478.564	1504.69
478.783	1526.69
479.002	1563.69
479.22	1569.69
479.439	1559.69
479.658	1553.69
479.876	1550.69
480.095	1524.69
480.313	1541.69
480.532	1540.69
480.751	1569.69
480.969	1553.69
481.188	1539.69
481.406	1558.69
481.624	1539.69
481.843	1570.69
482.061	1574.69
482.28	1603.69
482.498	1573.69
482.717	1571.69
482.935	1583.69
483.153	1667.69
483.372	1659.69
483.59	1699.69
483.808	1616.69
484.027	1638.69
484.245	1675.69
484.463	1654.69
484.681	1685.69
484.9	1667.69
485.118	1659.69
485.336	1617.69
485.554	1639.69
485.772	1653.69
485.99	1630.69
486.209	1631.69
486.427	1649.69
486.645	1667.69
486.863	1685.69
487.081	1649.69
487.299	1710.69
487.517	1661.69
487.735	1665.69
487.953	1688.69
488.171	1696.69
488.389	1696.69
488.607	1690.69
488.825	1669.69
489.043	1697.69
489.261	1658.69
489.479	1636.69
489.696	1671.69
489.914	1656.69
490.132	1652.69
490.35	1681.69
490.568	1700.69
490.786	1672.69
491.003	1720.69
491.221	1694.69
491.439	1684.69
491.657	1717.69
491.874	1726.69
492.092	1728.69
492.31	1720.69
492.527	1727.69
492.745	1715.69
492.963	1702.69
493.18	1728.69
493.398	1725.69
493.615	1722.69
493.833	1713.69
494.05	1723.69
494.268	1721.69
494.485	1717.69
494.703	1712.69
494.92	1734.69
495.138	1725.69
495.355	1723.69
495.573	1750.69
495.79	1723.69
496.008	1716.69
496.225	1732.69
496.442	1810.69
496.66	1777.69
496.877	1735.69
497.094	1758.69
497.312	1785.69
497.529	1799.69
497.746	1768.69
497.963	1746.69
498.181	1819.69
498.398	1800.69
498.615	1829.69
498.832	1831.69
499.049	1846.69
499.267	1847.69
499.484	1944.69
499.701	1895.69
499.918	1961.69
500.135	1999.69
500.352	2020.69
500.569	2026.69
500.786	2007.69
501.003	1999.69
501.22	1979.69
501.437	1942.69
501.654	1896.69
501.871	1920.69
502.088	1884.69
502.305	1846.69
502.522	1852.69
502.739	1849.69
502.956	1757.69
503.172	1757.69
503.389	1731.69
503.606	1744.69
503.823	1740.69
504.04	1678.69
504.256	1694.69
504.473	1708.69
504.69	1696.69
504.907	1655.69
505.123	1661.69
505.34	1597.69
505.557	1630.69
505.773	1591.69
505.99	1581.69
506.207	1553.69
506.423	1558.69
506.64	1532.69
506.856	1524.69
507.073	1529.69
507.289	1578.69
507.506	1507.69
507.722	1521.69
507.939	1515.69
508.155	1501.69
508.372	1512.69
508.588	1495.69
508.805	1484.69
509.021	1455.69
509.238	1406.69
509.454	1437.69
509.67	1426.69
509.887	1426.69
510.103	1436.69
510.319	1431.69
510.536	1398.69
510.752	1383.69
510.968	1420.69
511.184	1392.69
511.401	1399.69
511.617	1361.69
511.833	1369.69
512.049	1409.69
512.265	1365.69
512.481	1379.69
512.698	1344.69
512.914	1367.69
513.13	1363.69
513.346	1358.69
513.562	1369.69
513.778	1395.69
513.994	1401.69
514.21	1377.69
514.426	1365.69
514.642	1341.69
514.858	1364.69
515.074	1394.69
515.29	1391.69
515.506	1385.69
515.721	1403.69
515.937	1392.69
516.153	1355.69
516.369	1390.69
516.585	1410.69
516.801	1419.69
517.016	1430.69
517.232	1413.69
517.448	1387.69
517.664	1419.69
517.879	1398.69
518.095	1402.69
518.311	1381.69
518.527	1382.69
518.742	1355.69
518.958	1423.69
519.173	1379.69
519.389	1360.69
519.605	1339.69
519.82	1363.69
520.036	1352.69
520.251	1324.69
520.467	1361.69
520.682	1330.69
520.898	1333.69
521.113	1290.69
521.329	1299.69
521.544	1298.69
521.76	1280.69
521.975	1285.69
522.19	1289.69
522.406	1309.69
522.621	1309.69
522.836	1310.69
523.052	1276.69
523.267	1273.69
523.482	1260.69
523.698	1221.69
523.913	1253.69
524.128	1265.69
524.343	1246.69
524.559	1264.69
524.774	1278.69
524.989	1258.69
525.204	1284.69
525.419	1251.69
525.634	1257.69
525.849	1240.69
526.064	1275.69
526.28	1232.69
526.495	1217.69
526.71	1242.69
526.925	1210.69
527.14	1213.69
527.355	1242.69
527.57	1216.69
527.785	1222.69
527.999	1230.69
528.214	1219.69
528.429	1203.69
528.644	1249.69
528.859	1219.69
529.074	1218.69
529.289	1233.69
529.503	1239.69
529.718	1233.69
529.933	1227.69
530.148	1191.69
530.363	1180.69
530.577	1174.69
530.792	1180.69
531.007	1188.69
531.221	1200.69
531.436	1177.69
531.651	1185.69
531.865	1184.69
532.08	1155.69
532.295	1148.69
532.509	1190.69
532.724	1190.69
532.938	1141.69
533.153	1193.69
533.367	1165.69
533.582	1189.69
533.796	1173.69
534.011	1151.69
534.225	1156.69
534.44	1131.69
534.654	1143.69
534.868	1140.69
535.083	1133.69
535.297	1127.69
535.511	1158.69
535.726	1141.69
535.94	1141.69
536.154	1137.69
536.369	1109.69
536.583	1085.69
536.797	1119.69
537.011	1103.69
537.225	1081.69
537.44	1094.69
537.654	1123.69
537.868	1095.69
538.082	1091.69
538.296	1133.69
538.51	1139.69
538.724	1109.69
538.938	1095.69
539.153	1051.69
539.367	1122.69
539.581	1091.69
539.795	1070.69
540.009	1090.69
540.222	1070.69
540.436	1073.69
540.65	1104.69
540.864	1086.69
541.078	1091.69
541.292	1092.69
541.506	1086.69
541.72	1067.69
541.934	1103.69
542.147	1101.69
542.361	1083.69
542.575	1093.69
542.789	1081.69
543.002	1077.69
543.216	1048.69
543.43	1057.69
543.644	1065.69
543.857	1042.69
544.071	1052.69
544.285	1088.69
544.498	1045.69
544.712	1060.69
544.925	1077.69
545.139	1048.69
545.352	1083.69
545.566	1045.69
545.779	1060.69
545.993	1081.69
546.206	1055.69
546.42	1055.69
546.633	1080.69
546.847	1054.69
547.06	1047.69
547.274	1059.69
547.487	1021.69
547.7	1055.69
547.914	1065.69
548.127	1041.69
548.34	1053.69
548.554	1038.69
548.767	1025.69
548.98	1049.69
549.193	1031.69
549.407	1011.69
549.62	1008.69
549.833	1039.69
550.046	1031.69
550.259	1015.69
550.473	1011.69
550.686	1004.69
550.899	1005.69
551.112	1019.69
551.325	987.69
551.538	994.69
551.751	991.69
551.964	984.69
552.177	977.69
552.39	984.69
552.603	984.69
552.816	999.69
553.029	990.69
553.242	958.69
553.455	1000.69
553.667	972.69
553.88	999.69
554.093	994.69
554.306	947.69
554.519	955.69
554.732	952.69
554.944	963.69
555.157	936.69
555.37	940.69
555.583	933.69
555.795	940.69
556.008	921.69
556.221	912.69
556.433	912.69
556.646	909.69
556.859	902.69
557.071	909.69
557.284	923.69
557.496	907.69
557.709	893.69
557.921	923.69
558.134	909.69
558.346	941.69
558.559	917.69
558.771	904.69
558.984	877.69
559.196	885.69
559.409	890.69
559.621	871.69
559.833	885.69
560.046	890.69
560.258	878.69
560.47	865.69
560.683	868.69
560.895	864.69
561.107	846.69
561.32	867.69
561.532	867.69
561.744	845.69
561.956	876.69
562.168	872.69
562.381	862.69
562.593	865.69
562.805	875.69
563.017	839.69
563.229	853.69
563.441	875.69
563.653	860.69
563.865	853.69
564.077	860.69
564.289	851.69
564.501	860.69
564.713	853.69
564.925	864.69
565.137	871.69
565.349	853.69
565.561	872.69
565.773	857.69
565.985	860.69
566.197	856.69
566.408	868.69
566.62	889.69
566.832	899.69
567.044	880.69
567.255	885.69
567.467	883.69
567.679	865.69
567.891	855.69
568.102	843.69
568.314	831.69
568.526	849.69
568.737	812.69
568.949	812.69
569.161	816.69
569.372	789.69
569.584	808.69
569.795	788.69
570.007	790.69
570.218	751.69
570.43	773.69
570.641	786.69
570.853	758.69
571.064	749.69
571.276	728.69
571.487	757.69
571.698	738.69
571.91	733.69
572.121	750.69
572.333	705.69
572.544	709.69
572.755	695.69
572.966	722.69
573.178	682.69
573.389	699.69
573.6	705.69
573.811	692.69
574.023	681.69
574.234	680.69
574.445	676.69
574.656	652.69
574.867	685.69
575.078	677.69
575.289	669.69
575.501	683.69
575.712	664.69
575.923	659.69
576.134	639.69
576.345	639.69
576.556	657.69
576.767	662.69
576.978	657.69
577.188	663.69
577.399	644.69
577.61	645.69
577.821	641.69
578.032	636.69
578.243	613.69
578.454	651.69
578.665	632.69
578.875	636.69
579.086	615.69
579.297	616.69
579.508	614.69
579.718	617.69
579.929	614.69
580.14	603.69
580.35	603.69
580.561	616.69
580.772	589.69
580.982	624.69
581.193	593.69
581.403	583.69
581.614	601.69
581.825	583.69
582.035	593.69
582.246	596.69
582.456	575.69
582.667	604.69
582.877	588.69
583.087	585.69
583.298	565.69
583.508	565.69
583.719	571.69
583.929	595.69
584.139	577.69
584.35	558.69
584.56	548.69
584.77	567.69
584.981	567.69
585.191	568.69
585.401	571.69
585.611	554.69
585.821	568.69
586.032	544.69
586.242	546.69
586.452	555.69
586.662	559.69
586.872	552.69
587.082	538.69
587.292	551.69
587.502	553.69
587.713	532.69
587.923	554.69
588.133	556.69
588.343	539.69
588.553	538.69
588.762	548.69
588.972	557.69
589.182	593.69
589.392	591.69
589.602	555.69
589.812	566.69
590.022	540.69
590.232	529.69
590.441	529.69
590.651	535.69
590.861	523.69
591.071	534.69
591.281	520.69
591.49	517.69
591.7	529.69
591.91	527.69
592.119	547.69
592.329	546.69
592.539	525.69
592.748	524.69
592.958	520.69
593.167	528.69
593.377	530.69
593.587	517.69
593.796	523.69
594.006	513.69
594.215	517.69
594.424	484.69
594.634	512.69
594.843	501.69
595.053	507.69
595.262	519.69
595.472	522.69
595.681	487.69
595.89	504.69
596.1	507.69
596.309	472.69
596.518	483.69
596.727	484.69
596.937	462.69
597.146	490.69
597.355	485.69
597.564	478.69
597.774	465.69
597.983	486.69
598.192	451.69
598.401	465.69
598.61	461.69
598.819	472.69
599.028	457.69
599.237	464.69
599.446	476.69
599.655	473.69
599.864	432.69
600.073	438.69
600.282	443.69
600.491	456.69
600.7	445.69
600.909	461.69
601.118	455.69
601.327	444.69
601.536	448.69
601.745	435.69
601.953	423.69
602.162	446.69
602.371	430.69
602.58	435.69
602.789	444.69
602.997	442.69
603.206	448.69
603.415	440.69
603.623	440.69
603.832	425.69
604.041	406.69
604.249	420.69
604.458	417.69
604.666	407.69
604.875	408.69
605.084	405.69
605.292	426.69
605.501	419.69
605.709	431.69
605.918	420.69
606.126	430.69
606.334	422.69
606.543	428.69
606.751	423.69
606.96	415.69
607.168	397.69
607.376	403.69
607.585	411.69
607.793	410.69
608.001	404.69
608.21	435.69
608.418	407.69
608.626	389.69
608.834	404.69
609.043	384.69
609.251	400.69
609.459	391.69
609.667	401.69
609.875	388.69
610.083	403.69
610.291	410.69
610.499	404.69
610.707	403.69
610.916	396.69
611.124	403.69
611.332	384.69
611.54	396.69
611.748	400.69
611.955	406.69
612.163	396.69
612.371	397.69
612.579	408.69
612.787	409.69
612.995	375.69
613.203	398.69
613.411	376.69
613.618	387.69
613.826	393.69
614.034	388.69
614.242	395.69
614.449	374.69
614.657	367.69
614.865	383.69
615.072	371.69
615.28	386.69
615.488	394.69
615.695	391.69
615.903	383.69
616.111	383.69
616.318	398.69
616.526	366.69
616.733	369.69
616.941	370.69
617.148	383.69
617.356	377.69
617.563	390.69
617.771	374.69
617.978	364.69
618.185	375.69
618.393	359.69
618.6	372.69
618.807	371.69
619.015	367.69
619.222	356.69
619.429	356.69
619.637	372.69
619.844	376.69
620.051	351.69
620.258	353.69
620.466	353.69
620.673	344.69
620.88	357.69
621.087	343.69
621.294	344.69
621.501	341.69
621.708	350.69
621.915	343.69
622.122	330.69
622.329	350.69
622.536	337.69
622.743	337.69
622.95	349.69
623.157	364.69
623.364	339.69
623.571	343.69
623.778	337.69
623.985	357.69
624.192	350.69
624.399	343.69
624.606	328.69
624.812	319.69
625.019	320.69
625.226	341.69
625.433	323.69
625.639	315.69
625.846	334.69
626.053	325.69
626.259	328.69
626.466	338.69
626.673	317.69
626.879	311.69
627.086	333.69
627.293	330.69
627.499	327.69
627.706	321.69
627.912	329.69
628.119	320.69
628.325	320.69
628.532	306.69
628.738	334.69
628.945	319.69
629.151	310.69
629.357	309.69
629.564	311.69
629.77	309.69
629.976	321.69
630.183	307.69
630.389	298.69
630.595	301.69
630.802	319.69
631.008	313.69
631.214	309.69
631.42	316.69
631.627	318.69
631.833	303.69
632.039	303.69
632.245	303.69
632.451	315.69
632.657	300.69
632.863	286.69
633.069	269.69
633.275	296.69
633.481	308.69
633.688	293.69
633.893	288.69
634.099	295.69
634.305	305.69
634.511	289.69
634.717	284.69
634.923	295.69
635.129	270.69
635.335	312.69
635.541	307.69
635.747	296.69
635.952	301.69
636.158	303.69
636.364	296.69
636.57	279.69
636.775	304.69
636.981	288.69
637.187	284.69
637.392	298.69
637.598	284.69
637.804	294.69
638.009	280.69
638.215	286.69
638.421	277.69
638.626	263.69
638.832	281.69
639.037	267.69
639.243	278.69
639.448	275.69
639.654	286.69
639.859	264.69
640.065	277.69
640.27	277.69
640.475	280.69
640.681	259.69
640.886	265.69
641.091	283.69
641.297	293.69
641.502	274.69
641.707	270.69
641.913	280.69
642.118	273.69
642.323	269.69
642.528	275.69
642.733	269.69
642.939	284.69
643.144	265.69
643.349	274.69
643.554	257.69
643.759	262.69
643.964	260.69
644.169	271.69
644.374	262.69
644.579	263.69
644.784	265.69
644.989	278.69
645.194	277.69
645.399	267.69
645.604	259.69
645.809	283.69
646.014	266.69
646.219	282.69
646.423	261.69
646.628	277.69
646.833	285.69
647.038	276.69
647.243	289.69
647.447	289.69
647.652	284.69
647.857	282.69
648.062	286.69
648.266	271.69
648.471	284.69
648.676	273.69
648.88	289.69
649.085	269.69
649.289	298.69
649.494	262.69
649.698	270.69
649.903	272.69
650.107	272.69
650.312	268.69
650.516	270.69
650.721	270.69
650.925	262.69
651.13	266.69
651.334	267.69
651.539	269.69
651.743	266.69
651.947	259.69
652.152	271.69
652.356	275.69
652.56	271.69
652.764	267.69
652.969	268.69
653.173	265.69
653.377	274.69
653.581	259.69
653.785	263.69
653.99	248.69
654.194	252.69
654.398	263.69
654.602	258.69
654.806	253.69
655.01	273.69
655.214	270.69
655.418	255.69
655.622	255.69
655.826	244.69
656.03	268.69
656.234	266.69
656.438	262.69
656.642	274.69
656.846	277.69
657.049	249.69
657.253	255.69
657.457	234.69
657.661	187.69
657.865	187.69
658.068	206.69
658.272	203.69
658.476	192.69
658.68	183.69
658.883	171.69
659.087	157.69
659.291	150.69
659.494	151.69
659.698	137.69
659.901	144.69
660.105	128.69
660.309	125.69
660.512	137.69
660.716	131.69
660.919	128.69
661.123	113.69
661.326	113.69
661.53	110.69
661.733	120.69
661.936	120.69
662.14	94.69
662.343	102.69
662.546	87.69
662.75	103.69
662.953	96.69
663.156	85.69
663.36	78.69
663.563	80.69
663.766	95.69
663.969	76.69
664.173	88.69
664.376	90.69
664.579	92.69
664.782	99.69
664.985	94.69
665.188	92.69
665.391	89.69
665.594	83.69
665.797	97.69
666	88.69
666.203	78.69
666.406	89.69
666.609	76.69
666.812	93.69
667.015	79.69
667.218	81.69
667.421	81.69
667.624	90.69
667.827	90.69
668.03	80.69
668.232	84.69
668.435	93.69
668.638	92.69
668.841	82.69
669.043	85.69
669.246	77.69
669.449	91.69
669.651	92.69
669.854	84.69
670.057	96.69
670.259	94.69
670.462	91.69
670.665	93.69
670.867	98.69
671.07	71.69
671.272	88.69
671.475	92.69
671.677	84.69
671.88	66.69
672.082	86.69
672.284	96.69
672.487	94.69
672.689	87.69
672.892	82.69
