Data from Ni(NO3)2@0.0625M.TitratingCurve.Agarose3%dH2O.NegLispCup.LampEnergy10.LIBS07252019_HRD10591_18-13-32-568.txt Node
Date: Thu Jul 25 18:13:32 EDT 2019
User: cochatt
Spectrometer: HR+D1059
Trigger mode: 1
Integration Time (sec): 1.000000E-1
Scans to average: 1
Electric dark correction enabled: true
Nonlinearity correction enabled: false
Boxcar width: 0
XAxis mode: Wavelengths
Number of Pixels in Spectrum: 2048
>>>>>Begin Spectral Data<<<<<
223.165	-2.56
223.4	-2.56
223.635	-2.56
223.869	-21.56
224.104	-11.56
224.338	-20.56
224.573	-21.56
224.808	-6.56
225.042	-11.56
225.277	7.44
225.511	-8.56
225.746	2.44
225.98	15.44
226.215	14.44
226.449	26.44
226.683	9.44
226.918	12.44
227.152	16.44
227.387	31.44
227.621	40.44
227.856	42.44
228.09	51.44
228.324	46.44
228.559	50.44
228.793	83.44
229.027	98.44
229.262	96.44
229.496	114.44
229.73	114.44
229.964	124.44
230.199	121.44
230.433	122.44
230.667	108.44
230.901	116.44
231.136	131.44
231.37	126.44
231.604	139.44
231.838	128.44
232.072	136.44
232.306	137.44
232.541	129.44
232.775	145.44
233.009	136.44
233.243	145.44
233.477	137.44
233.711	141.44
233.945	140.44
234.179	129.44
234.413	130.44
234.647	132.44
234.881	127.44
235.115	155.44
235.349	138.44
235.583	140.44
235.817	142.44
236.051	122.44
236.285	133.44
236.519	137.44
236.753	141.44
236.987	150.44
237.221	139.44
237.455	147.44
237.689	144.44
237.922	136.44
238.156	155.44
238.39	161.44
238.624	163.44
238.858	147.44
239.091	150.44
239.325	149.44
239.559	170.44
239.793	154.44
240.027	157.44
240.26	152.44
240.494	153.44
240.728	134.44
240.961	152.44
241.195	181.44
241.429	175.44
241.662	170.44
241.896	171.44
242.13	178.44
242.363	171.44
242.597	165.44
242.83	163.44
243.064	177.44
243.298	187.44
243.531	193.44
243.765	184.44
243.998	185.44
244.232	178.44
244.465	193.44
244.699	190.44
244.932	185.44
245.166	189.44
245.399	205.44
245.633	183.44
245.866	203.44
246.099	194.44
246.333	178.44
246.566	183.44
246.8	197.44
247.033	202.44
247.266	208.44
247.5	196.44
247.733	203.44
247.966	211.44
248.2	204.44
248.433	210.44
248.666	218.44
248.899	206.44
249.133	190.44
249.366	214.44
249.599	227.44
249.832	214.44
250.066	217.44
250.299	223.44
250.532	216.44
250.765	212.44
250.998	229.44
251.231	234.44
251.465	237.44
251.698	234.44
251.931	226.44
252.164	223.44
252.397	235.44
252.63	254.44
252.863	228.44
253.096	219.44
253.329	252.44
253.562	245.44
253.795	243.44
254.028	242.44
254.261	246.44
254.494	243.44
254.727	233.44
254.96	233.44
255.193	259.44
255.426	232.44
255.659	235.44
255.892	266.44
256.124	248.44
256.357	247.44
256.59	257.44
256.823	240.44
257.056	268.44
257.289	258.44
257.521	247.44
257.754	254.44
257.987	267.44
258.22	250.44
258.452	252.44
258.685	252.44
258.918	273.44
259.151	271.44
259.383	261.44
259.616	249.44
259.849	277.44
260.081	264.44
260.314	269.44
260.547	288.44
260.779	266.44
261.012	282.44
261.244	275.44
261.477	278.44
261.71	282.44
261.942	286.44
262.175	280.44
262.407	285.44
262.64	287.44
262.872	316.44
263.105	287.44
263.337	277.44
263.57	293.44
263.802	294.44
264.035	289.44
264.267	301.44
264.499	317.44
264.732	293.44
264.964	307.44
265.197	298.44
265.429	311.44
265.661	283.44
265.894	317.44
266.126	301.44
266.358	292.44
266.591	314.44
266.823	314.44
267.055	310.44
267.287	292.44
267.52	301.44
267.752	313.44
267.984	299.44
268.216	319.44
268.448	317.44
268.681	318.44
268.913	321.44
269.145	323.44
269.377	319.44
269.609	311.44
269.841	318.44
270.073	325.44
270.306	322.44
270.538	330.44
270.77	314.44
271.002	347.44
271.234	332.44
271.466	334.44
271.698	320.44
271.93	328.44
272.162	362.44
272.394	360.44
272.626	326.44
272.858	326.44
273.09	338.44
273.322	362.44
273.553	333.44
273.785	348.44
274.017	348.44
274.249	357.44
274.481	335.44
274.713	369.44
274.945	353.44
275.176	351.44
275.408	359.44
275.64	354.44
275.872	352.44
276.104	347.44
276.335	356.44
276.567	356.44
276.799	365.44
277.031	385.44
277.262	370.44
277.494	357.44
277.726	366.44
277.957	365.44
278.189	373.44
278.421	356.44
278.652	374.44
278.884	379.44
279.115	360.44
279.347	381.44
279.579	375.44
279.81	392.44
280.042	374.44
280.273	401.44
280.505	385.44
280.736	378.44
280.968	381.44
281.199	401.44
281.431	410.44
281.662	396.44
281.894	389.44
282.125	378.44
282.356	403.44
282.588	404.44
282.819	398.44
283.051	404.44
283.282	390.44
283.513	409.44
283.745	406.44
283.976	393.44
284.207	389.44
284.439	403.44
284.67	407.44
284.901	404.44
285.132	405.44
285.364	392.44
285.595	432.44
285.826	435.44
286.057	448.44
286.288	423.44
286.52	436.44
286.751	422.44
286.982	425.44
287.213	439.44
287.444	437.44
287.675	427.44
287.906	450.44
288.138	441.44
288.369	434.44
288.6	443.44
288.831	437.44
289.062	444.44
289.293	425.44
289.524	458.44
289.755	452.44
289.986	439.44
290.217	467.44
290.448	442.44
290.679	460.44
290.91	447.44
291.141	455.44
291.371	438.44
291.602	437.44
291.833	465.44
292.064	442.44
292.295	453.44
292.526	460.44
292.757	443.44
292.987	461.44
293.218	431.44
293.449	443.44
293.68	470.44
293.91	455.44
294.141	462.44
294.372	446.44
294.603	468.44
294.833	459.44
295.064	458.44
295.295	436.44
295.525	463.44
295.756	467.44
295.987	454.44
296.217	481.44
296.448	499.44
296.679	463.44
296.909	471.44
297.14	486.44
297.37	483.44
297.601	493.44
297.831	498.44
298.062	486.44
298.292	495.44
298.523	489.44
298.753	482.44
298.984	500.44
299.214	490.44
299.445	477.44
299.675	492.44
299.905	491.44
300.136	490.44
300.366	494.44
300.597	515.44
300.827	490.44
301.057	538.44
301.288	513.44
301.518	516.44
301.748	512.44
301.979	519.44
302.209	518.44
302.439	514.44
302.669	506.44
302.9	512.44
303.13	525.44
303.36	511.44
303.59	500.44
303.82	484.44
304.051	509.44
304.281	492.44
304.511	520.44
304.741	510.44
304.971	523.44
305.201	500.44
305.431	493.44
305.661	538.44
305.891	510.44
306.121	488.44
306.352	494.44
306.582	490.44
306.812	492.44
307.042	489.44
307.272	493.44
307.502	488.44
307.731	493.44
307.961	524.44
308.191	502.44
308.421	498.44
308.651	503.44
308.881	491.44
309.111	501.44
309.341	492.44
309.571	518.44
309.8	493.44
310.03	492.44
310.26	496.44
310.49	511.44
310.72	487.44
310.949	504.44
311.179	513.44
311.409	516.44
311.639	520.44
311.868	533.44
312.098	534.44
312.328	532.44
312.557	526.44
312.787	527.44
313.017	525.44
313.246	525.44
313.476	528.44
313.706	541.44
313.935	557.44
314.165	545.44
314.394	567.44
314.624	514.44
314.853	543.44
315.083	554.44
315.312	535.44
315.542	555.44
315.771	507.44
316.001	519.44
316.23	545.44
316.46	529.44
316.689	530.44
316.919	512.44
317.148	543.44
317.377	525.44
317.607	527.44
317.836	525.44
318.065	547.44
318.295	534.44
318.524	547.44
318.753	514.44
318.983	501.44
319.212	535.44
319.441	528.44
319.67	542.44
319.9	545.44
320.129	515.44
320.358	537.44
320.587	524.44
320.816	543.44
321.046	533.44
321.275	534.44
321.504	536.44
321.733	539.44
321.962	539.44
322.191	538.44
322.42	555.44
322.649	530.44
322.878	554.44
323.108	566.44
323.337	565.44
323.566	555.44
323.795	571.44
324.024	547.44
324.253	571.44
324.482	537.44
324.71	530.44
324.939	556.44
325.168	550.44
325.397	573.44
325.626	563.44
325.855	589.44
326.084	585.44
326.313	594.44
326.542	604.44
326.77	582.44
326.999	598.44
327.228	581.44
327.457	609.44
327.686	605.44
327.914	593.44
328.143	612.44
328.372	566.44
328.6	583.44
328.829	587.44
329.058	595.44
329.287	573.44
329.515	579.44
329.744	593.44
329.972	595.44
330.201	599.44
330.43	589.44
330.658	627.44
330.887	588.44
331.115	603.44
331.344	619.44
331.572	609.44
331.801	645.44
332.03	645.44
332.258	675.44
332.486	683.44
332.715	698.44
332.943	736.44
333.172	762.44
333.4	797.44
333.629	803.44
333.857	781.44
334.085	790.44
334.314	785.44
334.542	747.44
334.771	744.44
334.999	731.44
335.227	733.44
335.455	743.44
335.684	729.44
335.912	730.44
336.14	705.44
336.369	712.44
336.597	717.44
336.825	723.44
337.053	705.44
337.281	692.44
337.51	683.44
337.738	684.44
337.966	667.44
338.194	674.44
338.422	660.44
338.65	642.44
338.878	635.44
339.106	646.44
339.334	648.44
339.562	639.44
339.79	602.44
340.018	604.44
340.246	607.44
340.474	592.44
340.702	621.44
340.93	629.44
341.158	608.44
341.386	627.44
341.614	633.44
341.842	608.44
342.07	597.44
342.298	600.44
342.526	618.44
342.754	627.44
342.981	610.44
343.209	625.44
343.437	654.44
343.665	676.44
343.893	760.44
344.12	767.44
344.348	733.44
344.576	689.44
344.804	683.44
345.031	656.44
345.259	638.44
345.487	641.44
345.714	619.44
345.942	604.44
346.17	628.44
346.397	589.44
346.625	602.44
346.853	599.44
347.08	603.44
347.308	620.44
347.535	592.44
347.763	606.44
347.99	612.44
348.218	611.44
348.445	594.44
348.673	619.44
348.9	593.44
349.128	588.44
349.355	593.44
349.583	606.44
349.81	579.44
350.037	589.44
350.265	579.44
350.492	582.44
350.72	573.44
350.947	582.44
351.174	585.44
351.402	585.44
351.629	579.44
351.856	576.44
352.083	586.44
352.311	604.44
352.538	565.44
352.765	583.44
352.992	592.44
353.22	572.44
353.447	591.44
353.674	551.44
353.901	567.44
354.128	578.44
354.355	589.44
354.583	562.44
354.81	586.44
355.037	577.44
355.264	577.44
355.491	590.44
355.718	579.44
355.945	609.44
356.172	598.44
356.399	598.44
356.626	579.44
356.853	577.44
357.08	575.44
357.307	589.44
357.534	587.44
357.761	581.44
357.988	589.44
358.215	572.44
358.441	588.44
358.668	578.44
358.895	587.44
359.122	583.44
359.349	593.44
359.576	577.44
359.802	562.44
360.029	580.44
360.256	602.44
360.483	575.44
360.709	591.44
360.936	595.44
361.163	580.44
361.39	572.44
361.616	580.44
361.843	589.44
362.07	577.44
362.296	575.44
362.523	577.44
362.749	598.44
362.976	594.44
363.203	586.44
363.429	581.44
363.656	579.44
363.882	574.44
364.109	567.44
364.335	582.44
364.562	580.44
364.788	574.44
365.015	599.44
365.241	571.44
365.468	555.44
365.694	590.44
365.92	570.44
366.147	575.44
366.373	575.44
366.599	585.44
366.826	571.44
367.052	573.44
367.278	580.44
367.505	559.44
367.731	570.44
367.957	583.44
368.184	592.44
368.41	576.44
368.636	598.44
368.862	597.44
369.089	592.44
369.315	592.44
369.541	615.44
369.767	606.44
369.993	594.44
370.219	608.44
370.445	602.44
370.672	622.44
370.898	626.44
371.124	633.44
371.35	606.44
371.576	637.44
371.802	622.44
372.028	638.44
372.254	621.44
372.48	649.44
372.706	642.44
372.932	667.44
373.158	667.44
373.384	637.44
373.61	635.44
373.835	644.44
374.061	627.44
374.287	647.44
374.513	644.44
374.739	669.44
374.965	717.44
375.191	702.44
375.416	685.44
375.642	670.44
375.868	675.44
376.094	650.44
376.319	635.44
376.545	630.44
376.771	655.44
376.997	655.44
377.222	654.44
377.448	634.44
377.674	647.44
377.899	619.44
378.125	612.44
378.35	624.44
378.576	609.44
378.802	605.44
379.027	623.44
379.253	640.44
379.478	603.44
379.704	611.44
379.929	636.44
380.155	633.44
380.38	602.44
380.606	645.44
380.831	633.44
381.057	640.44
381.282	638.44
381.507	628.44
381.733	636.44
381.958	627.44
382.184	651.44
382.409	663.44
382.634	648.44
382.86	667.44
383.085	703.44
383.31	701.44
383.535	689.44
383.761	711.44
383.986	729.44
384.211	739.44
384.436	724.44
384.662	742.44
384.887	754.44
385.112	746.44
385.337	779.44
385.562	758.44
385.787	760.44
386.013	803.44
386.238	774.44
386.463	775.44
386.688	757.44
386.913	749.44
387.138	763.44
387.363	742.44
387.588	740.44
387.813	740.44
388.038	719.44
388.263	753.44
388.488	749.44
388.713	741.44
388.938	734.44
389.163	730.44
389.387	750.44
389.612	716.44
389.837	718.44
390.062	733.44
390.287	745.44
390.512	744.44
390.736	729.44
390.961	753.44
391.186	766.44
391.411	787.44
391.636	820.44
391.86	823.44
392.085	849.44
392.31	872.44
392.534	853.44
392.759	807.44
392.984	807.44
393.208	820.44
393.433	806.44
393.658	814.44
393.882	794.44
394.107	821.44
394.331	811.44
394.556	820.44
394.78	827.44
395.005	829.44
395.229	835.44
395.454	862.44
395.678	856.44
395.903	866.44
396.127	814.44
396.352	807.44
396.576	806.44
396.801	795.44
397.025	809.44
397.249	814.44
397.474	843.44
397.698	845.44
397.922	874.44
398.147	843.44
398.371	851.44
398.595	894.44
398.82	945.44
399.044	975.44
399.268	1137.44
399.492	1291.44
399.717	1522.44
399.941	1476.44
400.165	1267.44
400.389	1139.44
400.613	1067.44
400.837	1037.44
401.062	970.44
401.286	941.44
401.51	949.44
401.734	931.44
401.958	970.44
402.182	993.44
402.406	976.44
402.63	989.44
402.854	1003.44
403.078	1043.44
403.302	1097.44
403.526	1104.44
403.75	1118.44
403.974	1130.44
404.198	1146.44
404.422	1128.44
404.645	1116.44
404.869	1066.44
405.093	1073.44
405.317	1038.44
405.541	1058.44
405.765	1040.44
405.988	1062.44
406.212	1077.44
406.436	1067.44
406.66	1066.44
406.883	1106.44
407.107	1146.44
407.331	1187.44
407.555	1228.44
407.778	1241.44
408.002	1192.44
408.226	1167.44
408.449	1154.44
408.673	1082.44
408.896	1069.44
409.12	1091.44
409.344	1078.44
409.567	1074.44
409.791	1089.44
410.014	1080.44
410.238	1078.44
410.461	1061.44
410.685	1058.44
410.908	1032.44
411.132	1004.44
411.355	984.44
411.578	991.44
411.802	960.44
412.025	983.44
412.249	976.44
412.472	993.44
412.695	945.44
412.919	937.44
413.142	943.44
413.365	975.44
413.589	952.44
413.812	927.44
414.035	928.44
414.258	920.44
414.482	927.44
414.705	975.44
414.928	973.44
415.151	943.44
415.374	968.44
415.597	987.44
415.821	911.44
416.044	925.44
416.267	928.44
416.49	904.44
416.713	915.44
416.936	938.44
417.159	924.44
417.382	939.44
417.605	924.44
417.828	943.44
418.051	988.44
418.274	959.44
418.497	952.44
418.72	998.44
418.943	961.44
419.166	1037.44
419.389	1080.44
419.611	1077.44
419.834	1024.44
420.057	1023.44
420.28	965.44
420.503	955.44
420.726	963.44
420.948	951.44
421.171	920.44
421.394	918.44
421.617	936.44
421.839	915.44
422.062	932.44
422.285	954.44
422.507	978.44
422.73	978.44
422.953	969.44
423.175	993.44
423.398	985.44
423.621	981.44
423.843	1016.44
424.066	1023.44
424.288	1007.44
424.511	997.44
424.733	971.44
424.956	974.44
425.178	966.44
425.401	940.44
425.623	954.44
425.846	907.44
426.068	925.44
426.291	927.44
426.513	882.44
426.735	887.44
426.958	861.44
427.18	868.44
427.402	862.44
427.625	856.44
427.847	825.44
428.069	837.44
428.292	837.44
428.514	838.44
428.736	831.44
428.958	847.44
429.181	827.44
429.403	819.44
429.625	840.44
429.847	840.44
430.069	804.44
430.292	829.44
430.514	795.44
430.736	819.44
430.958	819.44
431.18	814.44
431.402	823.44
431.624	815.44
431.846	845.44
432.068	854.44
432.29	871.44
432.512	836.44
432.734	832.44
432.956	830.44
433.178	815.44
433.4	833.44
433.622	837.44
433.844	861.44
434.066	856.44
434.287	853.44
434.509	902.44
434.731	923.44
434.953	966.44
435.175	947.44
435.397	958.44
435.618	914.44
435.84	863.44
436.062	851.44
436.284	830.44
436.505	827.44
436.727	852.44
436.949	856.44
437.17	837.44
437.392	818.44
437.614	826.44
437.835	803.44
438.057	829.44
438.278	789.44
438.5	781.44
438.721	801.44
438.943	827.44
439.165	806.44
439.386	821.44
439.608	838.44
439.829	850.44
440.05	843.44
440.272	859.44
440.493	843.44
440.715	858.44
440.936	863.44
441.158	860.44
441.379	901.44
441.6	925.44
441.822	949.44
442.043	969.44
442.264	934.44
442.486	924.44
442.707	928.44
442.928	913.44
443.149	914.44
443.371	937.44
443.592	950.44
443.813	967.44
444.034	971.44
444.255	1012.44
444.476	1034.44
444.698	1073.44
444.919	1171.44
445.14	1203.44
445.361	1097.44
445.582	968.44
445.803	875.44
446.024	893.44
446.245	857.44
446.466	851.44
446.687	843.44
446.908	838.44
447.129	847.44
447.35	817.44
447.571	818.44
447.792	797.44
448.013	799.44
448.234	770.44
448.455	761.44
448.675	785.44
448.896	762.44
449.117	762.44
449.338	758.44
449.559	773.44
449.779	759.44
450	767.44
450.221	770.44
450.442	785.44
450.662	794.44
450.883	782.44
451.104	817.44
451.324	797.44
451.545	785.44
451.766	780.44
451.986	799.44
452.207	771.44
452.428	771.44
452.648	759.44
452.869	775.44
453.089	763.44
453.31	755.44
453.53	763.44
453.751	772.44
453.971	781.44
454.192	724.44
454.412	723.44
454.633	756.44
454.853	717.44
455.073	714.44
455.294	715.44
455.514	727.44
455.734	728.44
455.955	709.44
456.175	734.44
456.395	737.44
456.616	721.44
456.836	701.44
457.056	695.44
457.276	717.44
457.497	717.44
457.717	712.44
457.937	710.44
458.157	749.44
458.377	772.44
458.598	754.44
458.818	777.44
459.038	796.44
459.258	839.44
459.478	845.44
459.698	888.44
459.918	915.44
460.138	965.44
460.358	981.44
460.578	1014.44
460.798	1001.44
461.018	996.44
461.238	988.44
461.458	968.44
461.678	988.44
461.898	981.44
462.118	1034.44
462.338	1055.44
462.558	1069.44
462.777	1103.44
462.997	1233.44
463.217	1365.44
463.437	1375.44
463.657	1216.44
463.876	1189.44
464.096	1160.44
464.316	1159.44
464.536	1187.44
464.755	1131.44
464.975	1094.44
465.195	1010.44
465.414	969.44
465.634	923.44
465.854	858.44
466.073	883.44
466.293	833.44
466.512	826.44
466.732	812.44
466.951	834.44
467.171	804.44
467.391	819.44
467.61	819.44
467.829	815.44
468.049	789.44
468.268	782.44
468.488	755.44
468.707	767.44
468.927	766.44
469.146	778.44
469.365	787.44
469.585	789.44
469.804	823.44
470.023	801.44
470.243	837.44
470.462	845.44
470.681	837.44
470.901	838.44
471.12	814.44
471.339	810.44
471.558	789.44
471.777	775.44
471.997	772.44
472.216	768.44
472.435	778.44
472.654	763.44
472.873	740.44
473.092	742.44
473.311	769.44
473.53	763.44
473.749	758.44
473.968	750.44
474.187	735.44
474.406	714.44
474.625	765.44
474.844	755.44
475.063	732.44
475.282	749.44
475.501	745.44
475.72	761.44
475.939	752.44
476.158	787.44
476.377	781.44
476.596	770.44
476.814	796.44
477.033	799.44
477.252	804.44
477.471	840.44
477.69	825.44
477.908	849.44
478.127	890.44
478.346	899.44
478.564	898.44
478.783	927.44
479.002	934.44
479.22	948.44
479.439	933.44
479.658	907.44
479.876	896.44
480.095	929.44
480.313	980.44
480.532	1013.44
480.751	1002.44
480.969	936.44
481.188	911.44
481.406	891.44
481.624	871.44
481.843	877.44
482.061	856.44
482.28	845.44
482.498	861.44
482.717	833.44
482.935	845.44
483.153	864.44
483.372	837.44
483.59	835.44
483.808	834.44
484.027	850.44
484.245	827.44
484.463	845.44
484.681	881.44
484.9	874.44
485.118	859.44
485.336	872.44
485.554	915.44
485.772	890.44
485.99	907.44
486.209	894.44
486.427	897.44
486.645	915.44
486.863	902.44
487.081	893.44
487.299	911.44
487.517	902.44
487.735	903.44
487.953	892.44
488.171	890.44
488.389	883.44
488.607	875.44
488.825	870.44
489.043	876.44
489.261	868.44
489.479	878.44
489.696	865.44
489.914	893.44
490.132	885.44
490.35	880.44
490.568	874.44
490.786	904.44
491.003	892.44
491.221	872.44
491.439	900.44
491.657	877.44
491.874	910.44
492.092	889.44
492.31	883.44
492.527	914.44
492.745	920.44
492.963	926.44
493.18	904.44
493.398	903.44
493.615	938.44
493.833	955.44
494.05	937.44
494.268	950.44
494.485	947.44
494.703	946.44
494.92	974.44
495.138	961.44
495.355	932.44
495.573	936.44
495.79	946.44
496.008	961.44
496.225	929.44
496.442	984.44
496.66	980.44
496.877	977.44
497.094	986.44
497.312	1027.44
497.529	1055.44
497.746	1060.44
497.963	1065.44
498.181	1113.44
498.398	1197.44
498.615	1242.44
498.832	1363.44
499.049	1459.44
499.267	1582.44
499.484	1742.44
499.701	1953.44
499.918	2146.44
500.135	2489.44
500.352	2915.44
500.569	3044.44
500.786	2952.44
501.003	2743.44
501.22	2401.44
501.437	2077.44
501.654	1823.44
501.871	1680.44
502.088	1523.44
502.305	1428.44
502.522	1355.44
502.739	1289.44
502.956	1228.44
503.172	1188.44
503.389	1107.44
503.606	1077.44
503.823	1075.44
504.04	1087.44
504.256	1089.44
504.473	1137.44
504.69	1144.44
504.907	1127.44
505.123	1035.44
505.34	998.44
505.557	925.44
505.773	919.44
505.99	924.44
506.207	877.44
506.423	860.44
506.64	835.44
506.856	823.44
507.073	842.44
507.289	852.44
507.506	857.44
507.722	833.44
507.939	809.44
508.155	796.44
508.372	810.44
508.588	807.44
508.805	793.44
509.021	801.44
509.238	791.44
509.454	780.44
509.67	769.44
509.887	803.44
510.103	757.44
510.319	753.44
510.536	773.44
510.752	775.44
510.968	747.44
511.184	762.44
511.401	740.44
511.617	756.44
511.833	753.44
512.049	742.44
512.265	766.44
512.481	765.44
512.698	756.44
512.914	772.44
513.13	749.44
513.346	769.44
513.562	763.44
513.778	750.44
513.994	777.44
514.21	781.44
514.426	779.44
514.642	761.44
514.858	801.44
515.074	787.44
515.29	789.44
515.506	781.44
515.721	800.44
515.937	829.44
516.153	823.44
516.369	825.44
516.585	865.44
516.801	887.44
517.016	965.44
517.232	994.44
517.448	1089.44
517.664	1085.44
517.879	1096.44
518.095	1092.44
518.311	1064.44
518.527	989.44
518.742	971.44
518.958	929.44
519.173	895.44
519.389	862.44
519.605	829.44
519.82	833.44
520.036	820.44
520.251	783.44
520.467	787.44
520.682	791.44
520.898	762.44
521.113	759.44
521.329	743.44
521.544	768.44
521.76	762.44
521.975	747.44
522.19	740.44
522.406	732.44
522.621	727.44
522.836	705.44
523.052	730.44
523.267	706.44
523.482	731.44
523.698	716.44
523.913	715.44
524.128	719.44
524.343	715.44
524.559	713.44
524.774	694.44
524.989	702.44
525.204	707.44
525.419	713.44
525.634	709.44
525.849	713.44
526.064	666.44
526.28	693.44
526.495	692.44
526.71	685.44
526.925	705.44
527.14	701.44
527.355	698.44
527.57	698.44
527.785	690.44
527.999	665.44
528.214	716.44
528.429	698.44
528.644	709.44
528.859	726.44
529.074	679.44
529.289	687.44
529.503	680.44
529.718	680.44
529.933	696.44
530.148	693.44
530.363	705.44
530.577	681.44
530.792	693.44
531.007	669.44
531.221	706.44
531.436	718.44
531.651	714.44
531.865	719.44
532.08	701.44
532.295	708.44
532.509	684.44
532.724	699.44
532.938	714.44
533.153	707.44
533.367	686.44
533.582	677.44
533.796	694.44
534.011	706.44
534.225	686.44
534.44	665.44
534.654	700.44
534.868	683.44
535.083	689.44
535.297	689.44
535.511	668.44
535.726	681.44
535.94	682.44
536.154	663.44
536.369	669.44
536.583	657.44
536.797	663.44
537.011	654.44
537.225	667.44
537.44	643.44
537.654	644.44
537.868	634.44
538.082	657.44
538.296	651.44
538.51	625.44
538.724	644.44
538.938	655.44
539.153	634.44
539.367	620.44
539.581	627.44
539.795	614.44
540.009	629.44
540.222	633.44
540.436	638.44
540.65	615.44
540.864	622.44
541.078	633.44
541.292	635.44
541.506	619.44
541.72	627.44
541.934	625.44
542.147	612.44
542.361	617.44
542.575	603.44
542.789	633.44
543.002	601.44
543.216	607.44
543.43	613.44
543.644	612.44
543.857	591.44
544.071	616.44
544.285	627.44
544.498	635.44
544.712	613.44
544.925	614.44
545.139	627.44
545.352	639.44
545.566	650.44
545.779	635.44
545.993	643.44
546.206	628.44
546.42	638.44
546.633	610.44
546.847	648.44
547.06	621.44
547.274	618.44
547.487	619.44
547.7	653.44
547.914	622.44
548.127	639.44
548.34	649.44
548.554	644.44
548.767	625.44
548.98	619.44
549.193	649.44
549.407	635.44
549.62	666.44
549.833	655.44
550.046	654.44
550.259	656.44
550.473	625.44
550.686	631.44
550.899	627.44
551.112	615.44
551.325	598.44
551.538	603.44
551.751	635.44
551.964	614.44
552.177	634.44
552.39	639.44
552.603	649.44
552.816	673.44
553.029	701.44
553.242	697.44
553.455	715.44
553.667	699.44
553.88	703.44
554.093	699.44
554.306	650.44
554.519	646.44
554.732	627.44
554.944	626.44
555.157	648.44
555.37	613.44
555.583	580.44
555.795	593.44
556.008	587.44
556.221	572.44
556.433	541.44
556.646	556.44
556.859	577.44
557.071	568.44
557.284	517.44
557.496	534.44
557.709	509.44
557.921	551.44
558.134	519.44
558.346	563.44
558.559	527.44
558.771	549.44
558.984	535.44
559.196	559.44
559.409	526.44
559.621	540.44
559.833	539.44
560.046	540.44
560.258	551.44
560.47	542.44
560.683	526.44
560.895	521.44
561.107	517.44
561.32	531.44
561.532	519.44
561.744	505.44
561.956	535.44
562.168	517.44
562.381	498.44
562.593	533.44
562.805	533.44
563.017	514.44
563.229	543.44
563.441	522.44
563.653	540.44
563.865	561.44
564.077	538.44
564.289	530.44
564.501	547.44
564.713	545.44
564.925	580.44
565.137	594.44
565.349	603.44
565.561	598.44
565.773	611.44
565.985	651.44
566.197	671.44
566.408	723.44
566.62	799.44
566.832	862.44
567.044	912.44
567.255	859.44
567.467	914.44
567.679	955.44
567.891	1041.44
568.102	1090.44
568.314	1026.44
568.526	899.44
568.737	809.44
568.949	725.44
569.161	673.44
569.372	620.44
569.584	610.44
569.795	572.44
570.007	565.44
570.218	559.44
570.43	569.44
570.641	545.44
570.853	539.44
571.064	564.44
571.276	573.44
571.487	554.44
571.698	513.44
571.91	493.44
572.121	482.44
572.333	493.44
572.544	478.44
572.755	443.44
572.966	476.44
573.178	471.44
573.389	466.44
573.6	471.44
573.811	447.44
574.023	455.44
574.234	434.44
574.445	454.44
574.656	452.44
574.867	435.44
575.078	453.44
575.289	439.44
575.501	421.44
575.712	447.44
575.923	417.44
576.134	414.44
576.345	407.44
576.556	404.44
576.767	425.44
576.978	404.44
577.188	412.44
577.399	392.44
577.61	407.44
577.821	403.44
578.032	390.44
578.243	391.44
578.454	427.44
578.665	405.44
578.875	396.44
579.086	393.44
579.297	388.44
579.508	384.44
579.718	383.44
579.929	386.44
580.14	395.44
580.35	370.44
580.561	393.44
580.772	373.44
580.982	371.44
581.193	366.44
581.403	374.44
581.614	375.44
581.825	370.44
582.035	377.44
582.246	367.44
582.456	362.44
582.667	371.44
582.877	365.44
583.087	372.44
583.298	348.44
583.508	371.44
583.719	371.44
583.929	374.44
584.139	365.44
584.35	371.44
584.56	371.44
584.77	356.44
584.981	358.44
585.191	360.44
585.401	357.44
585.611	359.44
585.821	357.44
586.032	363.44
586.242	356.44
586.452	382.44
586.662	347.44
586.872	341.44
587.082	363.44
587.292	358.44
587.502	363.44
587.713	352.44
587.923	362.44
588.133	352.44
588.343	353.44
588.553	369.44
588.762	355.44
588.972	334.44
589.182	358.44
589.392	339.44
589.602	353.44
589.812	371.44
590.022	349.44
590.232	353.44
590.441	369.44
590.651	343.44
590.861	382.44
591.071	359.44
591.281	360.44
591.49	371.44
591.7	387.44
591.91	389.44
592.119	377.44
592.329	401.44
592.539	409.44
592.748	409.44
592.958	429.44
593.167	465.44
593.377	455.44
593.587	465.44
593.796	474.44
594.006	458.44
594.215	478.44
594.424	487.44
594.634	462.44
594.843	433.44
595.053	422.44
595.262	397.44
595.472	394.44
595.681	369.44
595.89	371.44
596.1	350.44
596.309	351.44
596.518	352.44
596.727	347.44
596.937	344.44
597.146	332.44
597.355	338.44
597.564	345.44
597.774	314.44
597.983	326.44
598.192	322.44
598.401	312.44
598.61	302.44
598.819	283.44
599.028	303.44
599.237	307.44
599.446	296.44
599.655	299.44
599.864	311.44
600.073	288.44
600.282	301.44
600.491	282.44
600.7	302.44
600.909	309.44
601.118	312.44
601.327	292.44
601.536	306.44
601.745	301.44
601.953	283.44
602.162	294.44
602.371	302.44
602.58	299.44
602.789	283.44
602.997	301.44
603.206	309.44
603.415	303.44
603.623	291.44
603.832	271.44
604.041	265.44
604.249	280.44
604.458	302.44
604.666	295.44
604.875	288.44
605.084	286.44
605.292	291.44
605.501	278.44
605.709	281.44
605.918	276.44
606.126	285.44
606.334	276.44
606.543	267.44
606.751	292.44
606.96	287.44
607.168	286.44
607.376	296.44
607.585	274.44
607.793	272.44
608.001	289.44
608.21	272.44
608.418	278.44
608.626	278.44
608.834	264.44
609.043	265.44
609.251	276.44
609.459	268.44
609.667	277.44
609.875	272.44
610.083	262.44
610.291	272.44
610.499	261.44
610.707	277.44
610.916	263.44
611.124	261.44
611.332	268.44
611.54	284.44
611.748	268.44
611.955	274.44
612.163	265.44
612.371	269.44
612.579	252.44
612.787	267.44
612.995	266.44
613.203	269.44
613.411	265.44
613.618	274.44
613.826	246.44
614.034	269.44
614.242	257.44
614.449	267.44
614.657	257.44
614.865	257.44
615.072	282.44
615.28	261.44
615.488	270.44
615.695	281.44
615.903	266.44
616.111	265.44
616.318	269.44
616.526	254.44
616.733	266.44
616.941	268.44
617.148	261.44
617.356	273.44
617.563	276.44
617.771	272.44
617.978	277.44
618.185	259.44
618.393	249.44
618.6	257.44
618.807	263.44
619.015	264.44
619.222	255.44
619.429	249.44
619.637	245.44
619.844	265.44
620.051	257.44
620.258	245.44
620.466	249.44
620.673	232.44
620.88	242.44
621.087	236.44
621.294	250.44
621.501	249.44
621.708	225.44
621.915	227.44
622.122	236.44
622.329	247.44
622.536	265.44
622.743	236.44
622.95	246.44
623.157	234.44
623.364	249.44
623.571	241.44
623.778	237.44
623.985	229.44
624.192	226.44
624.399	236.44
624.606	243.44
624.812	249.44
625.019	245.44
625.226	236.44
625.433	242.44
625.639	227.44
625.846	221.44
626.053	234.44
626.259	228.44
626.466	220.44
626.673	215.44
626.879	219.44
627.086	218.44
627.293	228.44
627.499	233.44
627.706	217.44
627.912	235.44
628.119	219.44
628.325	211.44
628.532	220.44
628.738	211.44
628.945	211.44
629.151	221.44
629.357	206.44
629.564	207.44
629.77	225.44
629.976	224.44
630.183	191.44
630.389	204.44
630.595	214.44
630.802	211.44
631.008	213.44
631.214	211.44
631.42	215.44
631.627	206.44
631.833	205.44
632.039	203.44
632.245	218.44
632.451	218.44
632.657	201.44
632.863	199.44
633.069	191.44
633.275	195.44
633.481	201.44
633.688	201.44
633.893	199.44
634.099	194.44
634.305	207.44
634.511	205.44
634.717	186.44
634.923	194.44
635.129	179.44
635.335	201.44
635.541	183.44
635.747	200.44
635.952	187.44
636.158	203.44
636.364	198.44
636.57	174.44
636.775	194.44
636.981	169.44
637.187	197.44
637.392	204.44
637.598	181.44
637.804	195.44
638.009	198.44
638.215	194.44
638.421	179.44
638.626	177.44
638.832	180.44
639.037	198.44
639.243	191.44
639.448	202.44
639.654	204.44
639.859	192.44
640.065	206.44
640.27	187.44
640.475	179.44
640.681	182.44
640.886	169.44
641.091	182.44
641.297	194.44
641.502	192.44
641.707	178.44
641.913	167.44
642.118	182.44
642.323	179.44
642.528	190.44
642.733	179.44
642.939	183.44
643.144	171.44
643.349	180.44
643.554	193.44
643.759	173.44
643.964	163.44
644.169	190.44
644.374	169.44
644.579	173.44
644.784	180.44
644.989	175.44
645.194	175.44
645.399	173.44
645.604	175.44
645.809	189.44
646.014	168.44
646.219	178.44
646.423	185.44
646.628	181.44
646.833	181.44
647.038	179.44
647.243	189.44
647.447	167.44
647.652	165.44
647.857	178.44
648.062	180.44
648.266	183.44
648.471	197.44
648.676	191.44
648.88	171.44
649.085	192.44
649.289	185.44
649.494	167.44
649.698	177.44
649.903	165.44
650.107	181.44
650.312	182.44
650.516	166.44
650.721	171.44
650.925	159.44
651.13	166.44
651.334	158.44
651.539	172.44
651.743	159.44
651.947	178.44
652.152	156.44
652.356	154.44
652.56	141.44
652.764	131.44
652.969	154.44
653.173	147.44
653.377	149.44
653.581	147.44
653.785	137.44
653.99	142.44
654.194	121.44
654.398	122.44
654.602	143.44
654.806	139.44
655.01	132.44
655.214	129.44
655.418	140.44
655.622	130.44
655.826	130.44
656.03	128.44
656.234	125.44
656.438	128.44
656.642	133.44
656.846	122.44
657.049	131.44
657.253	138.44
657.457	118.44
657.661	118.44
657.865	121.44
658.068	113.44
658.272	117.44
658.476	110.44
658.68	93.44
658.883	108.44
659.087	103.44
659.291	114.44
659.494	110.44
659.698	110.44
659.901	106.44
660.105	84.44
660.309	104.44
660.512	104.44
660.716	88.44
660.919	104.44
661.123	99.44
661.326	90.44
661.53	98.44
661.733	87.44
661.936	91.44
662.14	91.44
662.343	82.44
662.546	86.44
662.75	95.44
662.953	99.44
663.156	81.44
663.36	80.44
663.563	77.44
663.766	90.44
663.969	84.44
664.173	71.44
664.376	76.44
664.579	85.44
664.782	86.44
664.985	78.44
665.188	84.44
665.391	84.44
665.594	77.44
665.797	74.44
666	90.44
666.203	83.44
666.406	87.44
666.609	85.44
666.812	81.44
667.015	90.44
667.218	90.44
667.421	77.44
667.624	91.44
667.827	73.44
668.03	70.44
668.232	88.44
668.435	82.44
668.638	88.44
668.841	79.44
669.043	77.44
669.246	97.44
669.449	78.44
669.651	86.44
669.854	85.44
670.057	88.44
670.259	84.44
670.462	79.44
670.665	78.44
670.867	85.44
671.07	90.44
671.272	79.44
671.475	76.44
671.677	78.44
671.88	89.44
672.082	79.44
672.284	74.44
672.487	79.44
672.689	86.44
672.892	97.44
