Data from Ni(NO3)2@0.125M.TitratingCurve.Agarose3%dH2O.NegLispCup.LampEnergy10.LIBS07252019_HRD10591_18-08-46-567.txt Node
Date: Thu Jul 25 18:08:46 EDT 2019
User: cochatt
Spectrometer: HR+D1059
Trigger mode: 1
Integration Time (sec): 1.000000E-1
Scans to average: 1
Electric dark correction enabled: true
Nonlinearity correction enabled: false
Boxcar width: 0
XAxis mode: Wavelengths
Number of Pixels in Spectrum: 2048
>>>>>Begin Spectral Data<<<<<
223.165	-9.19
223.4	-9.19
223.635	-9.19
223.869	-24.19
224.104	-9.19
224.338	-15.19
224.573	-16.19
224.808	-9.19
225.042	-10.19
225.277	-5.19
225.511	-13.19
225.746	8.81
225.98	7.81
226.215	11.81
226.449	14.81
226.683	16.81
226.918	15.81
227.152	35.81
227.387	34.81
227.621	25.81
227.856	49.81
228.09	62.81
228.324	53.81
228.559	57.81
228.793	64.81
229.027	102.81
229.262	104.81
229.496	103.81
229.73	111.81
229.964	119.81
230.199	119.81
230.433	120.81
230.667	127.81
230.901	134.81
231.136	127.81
231.37	127.81
231.604	130.81
231.838	135.81
232.072	144.81
232.306	140.81
232.541	129.81
232.775	135.81
233.009	131.81
233.243	144.81
233.477	149.81
233.711	146.81
233.945	128.81
234.179	134.81
234.413	135.81
234.647	137.81
234.881	150.81
235.115	129.81
235.349	131.81
235.583	135.81
235.817	144.81
236.051	136.81
236.285	140.81
236.519	139.81
236.753	155.81
236.987	152.81
237.221	130.81
237.455	142.81
237.689	167.81
237.922	151.81
238.156	154.81
238.39	146.81
238.624	134.81
238.858	131.81
239.091	181.81
239.325	154.81
239.559	160.81
239.793	157.81
240.027	173.81
240.26	162.81
240.494	162.81
240.728	151.81
240.961	170.81
241.195	180.81
241.429	176.81
241.662	157.81
241.896	183.81
242.13	194.81
242.363	176.81
242.597	175.81
242.83	171.81
243.064	174.81
243.298	196.81
243.531	179.81
243.765	192.81
243.998	196.81
244.232	185.81
244.465	199.81
244.699	201.81
244.932	193.81
245.166	207.81
245.399	193.81
245.633	200.81
245.866	219.81
246.099	212.81
246.333	215.81
246.566	210.81
246.8	208.81
247.033	213.81
247.266	203.81
247.5	223.81
247.733	226.81
247.966	214.81
248.2	216.81
248.433	221.81
248.666	223.81
248.899	228.81
249.133	229.81
249.366	221.81
249.599	233.81
249.832	230.81
250.066	242.81
250.299	235.81
250.532	231.81
250.765	234.81
250.998	236.81
251.231	232.81
251.465	254.81
251.698	247.81
251.931	241.81
252.164	250.81
252.397	243.81
252.63	262.81
252.863	278.81
253.096	256.81
253.329	263.81
253.562	262.81
253.795	257.81
254.028	271.81
254.261	260.81
254.494	279.81
254.727	269.81
254.96	268.81
255.193	250.81
255.426	268.81
255.659	271.81
255.892	274.81
256.124	282.81
256.357	256.81
256.59	258.81
256.823	266.81
257.056	282.81
257.289	292.81
257.521	279.81
257.754	304.81
257.987	279.81
258.22	299.81
258.452	284.81
258.685	293.81
258.918	298.81
259.151	301.81
259.383	314.81
259.616	283.81
259.849	287.81
260.081	273.81
260.314	299.81
260.547	302.81
260.779	299.81
261.012	318.81
261.244	320.81
261.477	315.81
261.71	298.81
261.942	330.81
262.175	307.81
262.407	325.81
262.64	298.81
262.872	302.81
263.105	320.81
263.337	327.81
263.57	338.81
263.802	322.81
264.035	324.81
264.267	330.81
264.499	312.81
264.732	326.81
264.964	339.81
265.197	340.81
265.429	357.81
265.661	322.81
265.894	332.81
266.126	334.81
266.358	343.81
266.591	335.81
266.823	331.81
267.055	336.81
267.287	333.81
267.52	344.81
267.752	352.81
267.984	344.81
268.216	351.81
268.448	361.81
268.681	356.81
268.913	336.81
269.145	340.81
269.377	356.81
269.609	358.81
269.841	336.81
270.073	346.81
270.306	354.81
270.538	345.81
270.77	346.81
271.002	342.81
271.234	360.81
271.466	356.81
271.698	353.81
271.93	359.81
272.162	368.81
272.394	350.81
272.626	355.81
272.858	347.81
273.09	370.81
273.322	375.81
273.553	352.81
273.785	371.81
274.017	363.81
274.249	384.81
274.481	376.81
274.713	383.81
274.945	400.81
275.176	375.81
275.408	379.81
275.64	403.81
275.872	389.81
276.104	386.81
276.335	385.81
276.567	388.81
276.799	372.81
277.031	396.81
277.262	398.81
277.494	432.81
277.726	395.81
277.957	378.81
278.189	388.81
278.421	371.81
278.652	402.81
278.884	400.81
279.115	415.81
279.347	403.81
279.579	391.81
279.81	410.81
280.042	404.81
280.273	421.81
280.505	431.81
280.736	399.81
280.968	415.81
281.199	438.81
281.431	398.81
281.662	414.81
281.894	422.81
282.125	432.81
282.356	416.81
282.588	423.81
282.819	424.81
283.051	454.81
283.282	436.81
283.513	437.81
283.745	422.81
283.976	441.81
284.207	428.81
284.439	436.81
284.67	464.81
284.901	453.81
285.132	435.81
285.364	448.81
285.595	436.81
285.826	447.81
286.057	444.81
286.288	462.81
286.52	447.81
286.751	455.81
286.982	454.81
287.213	454.81
287.444	455.81
287.675	470.81
287.906	468.81
288.138	465.81
288.369	458.81
288.6	457.81
288.831	458.81
289.062	471.81
289.293	481.81
289.524	467.81
289.755	464.81
289.986	485.81
290.217	473.81
290.448	492.81
290.679	468.81
290.91	464.81
291.141	460.81
291.371	488.81
291.602	480.81
291.833	478.81
292.064	502.81
292.295	486.81
292.526	492.81
292.757	467.81
292.987	478.81
293.218	479.81
293.449	487.81
293.68	471.81
293.91	457.81
294.141	466.81
294.372	466.81
294.603	516.81
294.833	491.81
295.064	484.81
295.295	496.81
295.525	469.81
295.756	471.81
295.987	472.81
296.217	495.81
296.448	490.81
296.679	496.81
296.909	511.81
297.14	501.81
297.37	520.81
297.601	540.81
297.831	496.81
298.062	507.81
298.292	507.81
298.523	546.81
298.753	540.81
298.984	534.81
299.214	535.81
299.445	531.81
299.675	523.81
299.905	504.81
300.136	521.81
300.366	545.81
300.597	536.81
300.827	545.81
301.057	538.81
301.288	541.81
301.518	539.81
301.748	541.81
301.979	554.81
302.209	561.81
302.439	527.81
302.669	520.81
302.9	551.81
303.13	560.81
303.36	543.81
303.59	539.81
303.82	532.81
304.051	536.81
304.281	536.81
304.511	546.81
304.741	522.81
304.971	519.81
305.201	527.81
305.431	547.81
305.661	548.81
305.891	524.81
306.121	523.81
306.352	524.81
306.582	519.81
306.812	538.81
307.042	533.81
307.272	525.81
307.502	545.81
307.731	533.81
307.961	526.81
308.191	544.81
308.421	546.81
308.651	523.81
308.881	524.81
309.111	497.81
309.341	520.81
309.571	500.81
309.8	517.81
310.03	539.81
310.26	521.81
310.49	543.81
310.72	521.81
310.949	531.81
311.179	524.81
311.409	529.81
311.639	547.81
311.868	565.81
312.098	523.81
312.328	576.81
312.557	562.81
312.787	556.81
313.017	546.81
313.246	555.81
313.476	560.81
313.706	541.81
313.935	552.81
314.165	570.81
314.394	588.81
314.624	598.81
314.853	572.81
315.083	555.81
315.312	564.81
315.542	572.81
315.771	556.81
316.001	562.81
316.23	549.81
316.46	554.81
316.689	546.81
316.919	562.81
317.148	551.81
317.377	570.81
317.607	558.81
317.836	567.81
318.065	547.81
318.295	560.81
318.524	552.81
318.753	568.81
318.983	548.81
319.212	553.81
319.441	555.81
319.67	544.81
319.9	560.81
320.129	552.81
320.358	553.81
320.587	549.81
320.816	563.81
321.046	562.81
321.275	584.81
321.504	556.81
321.733	570.81
321.962	569.81
322.191	561.81
322.42	570.81
322.649	562.81
322.878	579.81
323.108	593.81
323.337	587.81
323.566	611.81
323.795	599.81
324.024	597.81
324.253	576.81
324.482	601.81
324.71	590.81
324.939	588.81
325.168	595.81
325.397	595.81
325.626	604.81
325.855	611.81
326.084	627.81
326.313	636.81
326.542	650.81
326.77	635.81
326.999	635.81
327.228	636.81
327.457	650.81
327.686	633.81
327.914	643.81
328.143	641.81
328.372	622.81
328.6	640.81
328.829	624.81
329.058	655.81
329.287	660.81
329.515	643.81
329.744	642.81
329.972	645.81
330.201	640.81
330.43	649.81
330.658	656.81
330.887	660.81
331.115	668.81
331.344	660.81
331.572	677.81
331.801	689.81
332.03	702.81
332.258	707.81
332.486	750.81
332.715	770.81
332.943	763.81
333.172	823.81
333.4	849.81
333.629	886.81
333.857	880.81
334.085	858.81
334.314	852.81
334.542	820.81
334.771	850.81
334.999	817.81
335.227	812.81
335.455	809.81
335.684	801.81
335.912	797.81
336.14	804.81
336.369	763.81
336.597	785.81
336.825	806.81
337.053	778.81
337.281	762.81
337.51	739.81
337.738	742.81
337.966	710.81
338.194	722.81
338.422	696.81
338.65	678.81
338.878	727.81
339.106	716.81
339.334	714.81
339.562	700.81
339.79	704.81
340.018	715.81
340.246	682.81
340.474	677.81
340.702	670.81
340.93	669.81
341.158	699.81
341.386	683.81
341.614	696.81
341.842	674.81
342.07	674.81
342.298	681.81
342.526	664.81
342.754	700.81
342.981	684.81
343.209	689.81
343.437	709.81
343.665	775.81
343.893	814.81
344.12	852.81
344.348	812.81
344.576	787.81
344.804	723.81
345.031	714.81
345.259	696.81
345.487	694.81
345.714	694.81
345.942	663.81
346.17	671.81
346.397	670.81
346.625	673.81
346.853	667.81
347.08	673.81
347.308	681.81
347.535	688.81
347.763	664.81
347.99	683.81
348.218	685.81
348.445	657.81
348.673	666.81
348.9	658.81
349.128	648.81
349.355	632.81
349.583	655.81
349.81	652.81
350.037	619.81
350.265	632.81
350.492	630.81
350.72	643.81
350.947	614.81
351.174	638.81
351.402	638.81
351.629	634.81
351.856	632.81
352.083	616.81
352.311	642.81
352.538	619.81
352.765	644.81
352.992	638.81
353.22	629.81
353.447	611.81
353.674	618.81
353.901	622.81
354.128	630.81
354.355	604.81
354.583	634.81
354.81	626.81
355.037	648.81
355.264	640.81
355.491	644.81
355.718	636.81
355.945	643.81
356.172	635.81
356.399	641.81
356.626	638.81
356.853	687.81
357.08	646.81
357.307	644.81
357.534	646.81
357.761	639.81
357.988	628.81
358.215	619.81
358.441	634.81
358.668	620.81
358.895	639.81
359.122	627.81
359.349	635.81
359.576	625.81
359.802	612.81
360.029	630.81
360.256	634.81
360.483	642.81
360.709	629.81
360.936	636.81
361.163	633.81
361.39	619.81
361.616	623.81
361.843	609.81
362.07	626.81
362.296	640.81
362.523	633.81
362.749	629.81
362.976	612.81
363.203	629.81
363.429	626.81
363.656	638.81
363.882	610.81
364.109	630.81
364.335	616.81
364.562	622.81
364.788	636.81
365.015	637.81
365.241	611.81
365.468	619.81
365.694	617.81
365.92	628.81
366.147	618.81
366.373	610.81
366.599	616.81
366.826	622.81
367.052	608.81
367.278	615.81
367.505	600.81
367.731	649.81
367.957	626.81
368.184	627.81
368.41	605.81
368.636	660.81
368.862	648.81
369.089	642.81
369.315	650.81
369.541	663.81
369.767	650.81
369.993	651.81
370.219	635.81
370.445	648.81
370.672	647.81
370.898	667.81
371.124	669.81
371.35	682.81
371.576	702.81
371.802	671.81
372.028	708.81
372.254	676.81
372.48	688.81
372.706	716.81
372.932	713.81
373.158	699.81
373.384	692.81
373.61	675.81
373.835	658.81
374.061	671.81
374.287	684.81
374.513	687.81
374.739	711.81
374.965	770.81
375.191	743.81
375.416	742.81
375.642	724.81
375.868	711.81
376.094	700.81
376.319	706.81
376.545	667.81
376.771	692.81
376.997	670.81
377.222	673.81
377.448	686.81
377.674	656.81
377.899	667.81
378.125	665.81
378.35	670.81
378.576	664.81
378.802	667.81
379.027	680.81
379.253	662.81
379.478	665.81
379.704	643.81
379.929	658.81
380.155	665.81
380.38	666.81
380.606	672.81
380.831	643.81
381.057	660.81
381.282	656.81
381.507	673.81
381.733	660.81
381.958	674.81
382.184	696.81
382.409	666.81
382.634	680.81
382.86	709.81
383.085	702.81
383.31	712.81
383.535	715.81
383.761	708.81
383.986	746.81
384.211	768.81
384.436	770.81
384.662	791.81
384.887	795.81
385.112	798.81
385.337	822.81
385.562	803.81
385.787	814.81
386.013	816.81
386.238	821.81
386.463	794.81
386.688	795.81
386.913	793.81
387.138	790.81
387.363	794.81
387.588	773.81
387.813	764.81
388.038	775.81
388.263	778.81
388.488	802.81
388.713	791.81
388.938	778.81
389.163	768.81
389.387	775.81
389.612	755.81
389.837	760.81
390.062	778.81
390.287	770.81
390.512	752.81
390.736	792.81
390.961	775.81
391.186	811.81
391.411	806.81
391.636	852.81
391.86	868.81
392.085	913.81
392.31	906.81
392.534	888.81
392.759	866.81
392.984	838.81
393.208	842.81
393.433	821.81
393.658	854.81
393.882	848.81
394.107	846.81
394.331	837.81
394.556	828.81
394.78	840.81
395.005	848.81
395.229	854.81
395.454	859.81
395.678	899.81
395.903	886.81
396.127	874.81
396.352	843.81
396.576	835.81
396.801	834.81
397.025	847.81
397.249	887.81
397.474	875.81
397.698	880.81
397.922	878.81
398.147	900.81
398.371	892.81
398.595	935.81
398.82	958.81
399.044	1030.81
399.268	1100.81
399.492	1316.81
399.717	1506.81
399.941	1487.81
400.165	1323.81
400.389	1176.81
400.613	1076.81
400.837	1024.81
401.062	1026.81
401.286	985.81
401.51	988.81
401.734	969.81
401.958	979.81
402.182	991.81
402.406	1019.81
402.63	1026.81
402.854	1081.81
403.078	1077.81
403.302	1108.81
403.526	1111.81
403.75	1144.81
403.974	1170.81
404.198	1179.81
404.422	1182.81
404.645	1132.81
404.869	1165.81
405.093	1160.81
405.317	1126.81
405.541	1115.81
405.765	1133.81
405.988	1115.81
406.212	1090.81
406.436	1092.81
406.66	1108.81
406.883	1113.81
407.107	1211.81
407.331	1284.81
407.555	1310.81
407.778	1260.81
408.002	1280.81
408.226	1235.81
408.449	1227.81
408.673	1150.81
408.896	1134.81
409.12	1136.81
409.344	1126.81
409.567	1113.81
409.791	1127.81
410.014	1156.81
410.238	1137.81
410.461	1124.81
410.685	1108.81
410.908	1081.81
411.132	1061.81
411.355	1031.81
411.578	1039.81
411.802	1021.81
412.025	1031.81
412.249	1083.81
412.472	1045.81
412.695	1040.81
412.919	1025.81
413.142	991.81
413.365	1023.81
413.589	1000.81
413.812	1003.81
414.035	984.81
414.258	986.81
414.482	1043.81
414.705	1037.81
414.928	1032.81
415.151	1034.81
415.374	1016.81
415.597	1006.81
415.821	979.81
416.044	980.81
416.267	970.81
416.49	983.81
416.713	1000.81
416.936	981.81
417.159	992.81
417.382	984.81
417.605	979.81
417.828	1022.81
418.051	1015.81
418.274	1013.81
418.497	1029.81
418.72	1033.81
418.943	1050.81
419.166	1099.81
419.389	1167.81
419.611	1143.81
419.834	1118.81
420.057	1075.81
420.28	1045.81
420.503	991.81
420.726	1013.81
420.948	974.81
421.171	998.81
421.394	1041.81
421.617	982.81
421.839	1021.81
422.062	1014.81
422.285	1007.81
422.507	1036.81
422.73	1027.81
422.953	1064.81
423.175	1087.81
423.398	1112.81
423.621	1049.81
423.843	1095.81
424.066	1086.81
424.288	1087.81
424.511	1094.81
424.733	1087.81
424.956	1050.81
425.178	1022.81
425.401	1033.81
425.623	1035.81
425.846	971.81
426.068	1030.81
426.291	947.81
426.513	962.81
426.735	919.81
426.958	977.81
427.18	932.81
427.402	959.81
427.625	934.81
427.847	904.81
428.069	915.81
428.292	923.81
428.514	887.81
428.736	891.81
428.958	904.81
429.181	891.81
429.403	851.81
429.625	894.81
429.847	884.81
430.069	880.81
430.292	889.81
430.514	894.81
430.736	900.81
430.958	901.81
431.18	892.81
431.402	892.81
431.624	893.81
431.846	943.81
432.068	932.81
432.29	939.81
432.512	904.81
432.734	946.81
432.956	896.81
433.178	926.81
433.4	909.81
433.622	930.81
433.844	936.81
434.066	938.81
434.287	901.81
434.509	951.81
434.731	1000.81
434.953	1044.81
435.175	1066.81
435.397	1038.81
435.618	972.81
435.84	959.81
436.062	912.81
436.284	903.81
436.505	898.81
436.727	951.81
436.949	921.81
437.17	914.81
437.392	924.81
437.614	903.81
437.835	872.81
438.057	912.81
438.278	894.81
438.5	876.81
438.721	879.81
438.943	894.81
439.165	902.81
439.386	899.81
439.608	907.81
439.829	918.81
440.05	952.81
440.272	935.81
440.493	930.81
440.715	960.81
440.936	949.81
441.158	987.81
441.379	995.81
441.6	1042.81
441.822	1064.81
442.043	1055.81
442.264	1017.81
442.486	1031.81
442.707	1013.81
442.928	993.81
443.149	1028.81
443.371	1014.81
443.592	1023.81
443.813	1048.81
444.034	1080.81
444.255	1078.81
444.476	1129.81
444.698	1198.81
444.919	1243.81
445.14	1328.81
445.361	1173.81
445.582	1092.81
445.803	1009.81
446.024	986.81
446.245	992.81
446.466	953.81
446.687	924.81
446.908	935.81
447.129	908.81
447.35	882.81
447.571	894.81
447.792	864.81
448.013	867.81
448.234	847.81
448.455	856.81
448.675	839.81
448.896	883.81
449.117	856.81
449.338	855.81
449.559	866.81
449.779	834.81
450	842.81
450.221	854.81
450.442	856.81
450.662	871.81
450.883	856.81
451.104	867.81
451.324	874.81
451.545	878.81
451.766	884.81
451.986	875.81
452.207	869.81
452.428	850.81
452.648	846.81
452.869	843.81
453.089	836.81
453.31	824.81
453.53	853.81
453.751	804.81
453.971	819.81
454.192	781.81
454.412	829.81
454.633	816.81
454.853	831.81
455.073	812.81
455.294	790.81
455.514	798.81
455.734	804.81
455.955	800.81
456.175	777.81
456.395	805.81
456.616	780.81
456.836	781.81
457.056	770.81
457.276	770.81
457.497	794.81
457.717	796.81
457.937	788.81
458.157	804.81
458.377	802.81
458.598	790.81
458.818	837.81
459.038	896.81
459.258	900.81
459.478	915.81
459.698	938.81
459.918	983.81
460.138	1033.81
460.358	1079.81
460.578	1111.81
460.798	1102.81
461.018	1098.81
461.238	1107.81
461.458	1114.81
461.678	1112.81
461.898	1112.81
462.118	1107.81
462.338	1161.81
462.558	1191.81
462.777	1223.81
462.997	1338.81
463.217	1500.81
463.437	1511.81
463.657	1371.81
463.876	1282.81
464.096	1273.81
464.316	1272.81
464.536	1291.81
464.755	1231.81
464.975	1179.81
465.195	1116.81
465.414	1076.81
465.634	999.81
465.854	942.81
466.073	962.81
466.293	950.81
466.512	906.81
466.732	886.81
466.951	899.81
467.171	902.81
467.391	904.81
467.61	872.81
467.829	902.81
468.049	878.81
468.268	871.81
468.488	844.81
468.707	850.81
468.927	869.81
469.146	849.81
469.365	900.81
469.585	852.81
469.804	900.81
470.023	912.81
470.243	907.81
470.462	912.81
470.681	946.81
470.901	940.81
471.12	919.81
471.339	879.81
471.558	893.81
471.777	889.81
471.997	858.81
472.216	852.81
472.435	832.81
472.654	804.81
472.873	830.81
473.092	818.81
473.311	837.81
473.53	828.81
473.749	846.81
473.968	838.81
474.187	810.81
474.406	835.81
474.625	852.81
474.844	824.81
475.063	822.81
475.282	824.81
475.501	835.81
475.72	844.81
475.939	827.81
476.158	861.81
476.377	890.81
476.596	872.81
476.814	889.81
477.033	878.81
477.252	881.81
477.471	898.81
477.69	942.81
477.908	934.81
478.127	991.81
478.346	994.81
478.564	1052.81
478.783	1045.81
479.002	1046.81
479.22	1060.81
479.439	1063.81
479.658	1027.81
479.876	1032.81
480.095	1044.81
480.313	1078.81
480.532	1126.81
480.751	1117.81
480.969	1074.81
481.188	1059.81
481.406	987.81
481.624	966.81
481.843	937.81
482.061	946.81
482.28	942.81
482.498	954.81
482.717	937.81
482.935	934.81
483.153	967.81
483.372	931.81
483.59	955.81
483.808	933.81
484.027	944.81
484.245	920.81
484.463	945.81
484.681	965.81
484.9	951.81
485.118	995.81
485.336	973.81
485.554	999.81
485.772	1016.81
485.99	990.81
486.209	1012.81
486.427	993.81
486.645	1022.81
486.863	1034.81
487.081	985.81
487.299	1019.81
487.517	992.81
487.735	988.81
487.953	1015.81
488.171	998.81
488.389	998.81
488.607	984.81
488.825	971.81
489.043	979.81
489.261	938.81
489.479	978.81
489.696	965.81
489.914	989.81
490.132	1001.81
490.35	1001.81
490.568	991.81
490.786	1008.81
491.003	1022.81
491.221	1019.81
491.439	1008.81
491.657	1022.81
491.874	1032.81
492.092	1028.81
492.31	1038.81
492.527	1063.81
492.745	1045.81
492.963	1039.81
493.18	1041.81
493.398	1022.81
493.615	1042.81
493.833	1071.81
494.05	1078.81
494.268	1057.81
494.485	1075.81
494.703	1081.81
494.92	1070.81
495.138	1074.81
495.355	1056.81
495.573	1053.81
495.79	1053.81
496.008	1107.81
496.225	1075.81
496.442	1093.81
496.66	1100.81
496.877	1126.81
497.094	1155.81
497.312	1143.81
497.529	1159.81
497.746	1199.81
497.963	1221.81
498.181	1280.81
498.398	1322.81
498.615	1410.81
498.832	1488.81
499.049	1586.81
499.267	1759.81
499.484	1870.81
499.701	2145.81
499.918	2322.81
500.135	2720.81
500.352	3204.81
500.569	3317.81
500.786	3352.81
501.003	3092.81
501.22	2724.81
501.437	2358.81
501.654	2048.81
501.871	1863.81
502.088	1680.81
502.305	1566.81
502.522	1504.81
502.739	1437.81
502.956	1364.81
503.172	1314.81
503.389	1251.81
503.606	1217.81
503.823	1224.81
504.04	1214.81
504.256	1208.81
504.473	1247.81
504.69	1271.81
504.907	1254.81
505.123	1185.81
505.34	1102.81
505.557	1050.81
505.773	1036.81
505.99	1027.81
506.207	987.81
506.423	990.81
506.64	954.81
506.856	950.81
507.073	959.81
507.289	946.81
507.506	959.81
507.722	923.81
507.939	920.81
508.155	911.81
508.372	918.81
508.588	911.81
508.805	901.81
509.021	917.81
509.238	876.81
509.454	880.81
509.67	858.81
509.887	871.81
510.103	864.81
510.319	862.81
510.536	862.81
510.752	878.81
510.968	863.81
511.184	862.81
511.401	837.81
511.617	873.81
511.833	842.81
512.049	834.81
512.265	850.81
512.481	857.81
512.698	883.81
512.914	860.81
513.13	837.81
513.346	864.81
513.562	854.81
513.778	850.81
513.994	861.81
514.21	877.81
514.426	882.81
514.642	843.81
514.858	898.81
515.074	867.81
515.29	898.81
515.506	872.81
515.721	896.81
515.937	921.81
516.153	934.81
516.369	945.81
516.585	965.81
516.801	1015.81
517.016	1048.81
517.232	1111.81
517.448	1188.81
517.664	1245.81
517.879	1245.81
518.095	1233.81
518.311	1217.81
518.527	1115.81
518.742	1099.81
518.958	1040.81
519.173	1018.81
519.389	980.81
519.605	935.81
519.82	897.81
520.036	913.81
520.251	890.81
520.467	894.81
520.682	862.81
520.898	855.81
521.113	851.81
521.329	838.81
521.544	827.81
521.76	830.81
521.975	841.81
522.19	797.81
522.406	818.81
522.621	841.81
522.836	806.81
523.052	833.81
523.267	786.81
523.482	795.81
523.698	796.81
523.913	815.81
524.128	824.81
524.343	803.81
524.559	805.81
524.774	764.81
524.989	797.81
525.204	806.81
525.419	752.81
525.634	784.81
525.849	774.81
526.064	773.81
526.28	788.81
526.495	782.81
526.71	777.81
526.925	782.81
527.14	784.81
527.355	785.81
527.57	776.81
527.785	781.81
527.999	781.81
528.214	775.81
528.429	793.81
528.644	793.81
528.859	781.81
529.074	824.81
529.289	770.81
529.503	752.81
529.718	766.81
529.933	800.81
530.148	790.81
530.363	772.81
530.577	783.81
530.792	778.81
531.007	779.81
531.221	743.81
531.436	782.81
531.651	774.81
531.865	769.81
532.08	752.81
532.295	787.81
532.509	779.81
532.724	766.81
532.938	791.81
533.153	758.81
533.367	807.81
533.582	795.81
533.796	791.81
534.011	783.81
534.225	744.81
534.44	769.81
534.654	740.81
534.868	782.81
535.083	753.81
535.297	739.81
535.511	756.81
535.726	740.81
535.94	762.81
536.154	725.81
536.369	727.81
536.583	714.81
536.797	715.81
537.011	726.81
537.225	690.81
537.44	704.81
537.654	729.81
537.868	709.81
538.082	734.81
538.296	703.81
538.51	717.81
538.724	711.81
538.938	695.81
539.153	698.81
539.367	729.81
539.581	697.81
539.795	725.81
540.009	709.81
540.222	701.81
540.436	682.81
540.65	676.81
540.864	705.81
541.078	704.81
541.292	710.81
541.506	716.81
541.72	702.81
541.934	704.81
542.147	705.81
542.361	722.81
542.575	670.81
542.789	696.81
543.002	698.81
543.216	726.81
543.43	688.81
543.644	691.81
543.857	667.81
544.071	706.81
544.285	718.81
544.498	694.81
544.712	692.81
544.925	714.81
545.139	726.81
545.352	727.81
545.566	706.81
545.779	734.81
545.993	731.81
546.206	716.81
546.42	726.81
546.633	729.81
546.847	737.81
547.06	710.81
547.274	716.81
547.487	719.81
547.7	711.81
547.914	735.81
548.127	746.81
548.34	722.81
548.554	752.81
548.767	745.81
548.98	727.81
549.193	705.81
549.407	751.81
549.62	754.81
549.833	746.81
550.046	746.81
550.259	724.81
550.473	702.81
550.686	735.81
550.899	723.81
551.112	738.81
551.325	696.81
551.538	708.81
551.751	686.81
551.964	717.81
552.177	707.81
552.39	728.81
552.603	742.81
552.816	782.81
553.029	779.81
553.242	798.81
553.455	814.81
553.667	798.81
553.88	811.81
554.093	764.81
554.306	746.81
554.519	735.81
554.732	724.81
554.944	691.81
555.157	702.81
555.37	680.81
555.583	657.81
555.795	667.81
556.008	657.81
556.221	659.81
556.433	612.81
556.646	603.81
556.859	636.81
557.071	612.81
557.284	605.81
557.496	631.81
557.709	628.81
557.921	618.81
558.134	627.81
558.346	600.81
558.559	634.81
558.771	596.81
558.984	594.81
559.196	588.81
559.409	608.81
559.621	606.81
559.833	610.81
560.046	585.81
560.258	610.81
560.47	577.81
560.683	569.81
560.895	592.81
561.107	580.81
561.32	585.81
561.532	602.81
561.744	593.81
561.956	575.81
562.168	588.81
562.381	586.81
562.593	603.81
562.805	586.81
563.017	583.81
563.229	599.81
563.441	591.81
563.653	610.81
563.865	607.81
564.077	604.81
564.289	602.81
564.501	622.81
564.713	632.81
564.925	628.81
565.137	635.81
565.349	667.81
565.561	645.81
565.773	691.81
565.985	731.81
566.197	759.81
566.408	817.81
566.62	914.81
566.832	978.81
567.044	981.81
567.255	980.81
567.467	1002.81
567.679	1054.81
567.891	1141.81
568.102	1189.81
568.314	1154.81
568.526	1026.81
568.737	907.81
568.949	823.81
569.161	742.81
569.372	704.81
569.584	658.81
569.795	628.81
570.007	626.81
570.218	608.81
570.43	617.81
570.641	598.81
570.853	607.81
571.064	620.81
571.276	628.81
571.487	587.81
571.698	582.81
571.91	562.81
572.121	566.81
572.333	525.81
572.544	522.81
572.755	506.81
572.966	512.81
573.178	486.81
573.389	499.81
573.6	512.81
573.811	487.81
574.023	490.81
574.234	493.81
574.445	492.81
574.656	524.81
574.867	482.81
575.078	476.81
575.289	491.81
575.501	464.81
575.712	454.81
575.923	449.81
576.134	453.81
576.345	468.81
576.556	484.81
576.767	475.81
576.978	476.81
577.188	433.81
577.399	435.81
577.61	448.81
577.821	463.81
578.032	447.81
578.243	449.81
578.454	455.81
578.665	431.81
578.875	408.81
579.086	437.81
579.297	432.81
579.508	421.81
579.718	426.81
579.929	430.81
580.14	419.81
580.35	432.81
580.561	415.81
580.772	414.81
580.982	436.81
581.193	428.81
581.403	431.81
581.614	432.81
581.825	414.81
582.035	425.81
582.246	426.81
582.456	420.81
582.667	432.81
582.877	419.81
583.087	420.81
583.298	411.81
583.508	391.81
583.719	403.81
583.929	414.81
584.139	404.81
584.35	416.81
584.56	410.81
584.77	406.81
584.981	396.81
585.191	385.81
585.401	403.81
585.611	401.81
585.821	387.81
586.032	411.81
586.242	387.81
586.452	405.81
586.662	392.81
586.872	391.81
587.082	402.81
587.292	378.81
587.502	382.81
587.713	415.81
587.923	377.81
588.133	393.81
588.343	411.81
588.553	376.81
588.762	406.81
588.972	400.81
589.182	415.81
589.392	406.81
589.602	402.81
589.812	392.81
590.022	392.81
590.232	387.81
590.441	379.81
590.651	419.81
590.861	398.81
591.071	400.81
591.281	385.81
591.49	411.81
591.7	425.81
591.91	431.81
592.119	404.81
592.329	447.81
592.539	440.81
592.748	452.81
592.958	467.81
593.167	483.81
593.377	520.81
593.587	506.81
593.796	493.81
594.006	497.81
594.215	506.81
594.424	518.81
594.634	500.81
594.843	478.81
595.053	457.81
595.262	452.81
595.472	418.81
595.681	416.81
595.89	410.81
596.1	406.81
596.309	385.81
596.518	395.81
596.727	389.81
596.937	375.81
597.146	374.81
597.355	367.81
597.564	367.81
597.774	356.81
597.983	366.81
598.192	368.81
598.401	344.81
598.61	342.81
598.819	343.81
599.028	347.81
599.237	323.81
599.446	341.81
599.655	354.81
599.864	329.81
600.073	326.81
600.282	347.81
600.491	329.81
600.7	321.81
600.909	342.81
601.118	311.81
601.327	323.81
601.536	323.81
601.745	325.81
601.953	333.81
602.162	325.81
602.371	332.81
602.58	336.81
602.789	304.81
602.997	313.81
603.206	317.81
603.415	302.81
603.623	321.81
603.832	314.81
604.041	324.81
604.249	318.81
604.458	316.81
604.666	334.81
604.875	288.81
605.084	311.81
605.292	314.81
605.501	316.81
605.709	319.81
605.918	306.81
606.126	319.81
606.334	301.81
606.543	310.81
606.751	311.81
606.96	319.81
607.168	321.81
607.376	313.81
607.585	306.81
607.793	317.81
608.001	324.81
608.21	315.81
608.418	302.81
608.626	324.81
608.834	309.81
609.043	318.81
609.251	292.81
609.459	287.81
609.667	308.81
609.875	318.81
610.083	315.81
610.291	310.81
610.499	311.81
610.707	308.81
610.916	288.81
611.124	292.81
611.332	311.81
611.54	286.81
611.748	288.81
611.955	295.81
612.163	291.81
612.371	312.81
612.579	281.81
612.787	290.81
612.995	276.81
613.203	304.81
613.411	276.81
613.618	297.81
613.826	275.81
614.034	291.81
614.242	287.81
614.449	299.81
614.657	310.81
614.865	291.81
615.072	292.81
615.28	300.81
615.488	287.81
615.695	303.81
615.903	283.81
616.111	281.81
616.318	293.81
616.526	288.81
616.733	290.81
616.941	277.81
617.148	306.81
617.356	291.81
617.563	282.81
617.771	306.81
617.978	281.81
618.185	279.81
618.393	294.81
618.6	292.81
618.807	286.81
619.015	294.81
619.222	275.81
619.429	288.81
619.637	283.81
619.844	270.81
620.051	283.81
620.258	266.81
620.466	265.81
620.673	265.81
620.88	262.81
621.087	273.81
621.294	295.81
621.501	293.81
621.708	284.81
621.915	264.81
622.122	257.81
622.329	277.81
622.536	266.81
622.743	270.81
622.95	265.81
623.157	250.81
623.364	262.81
623.571	260.81
623.778	244.81
623.985	250.81
624.192	248.81
624.399	253.81
624.606	238.81
624.812	267.81
625.019	252.81
625.226	258.81
625.433	259.81
625.639	249.81
625.846	261.81
626.053	251.81
626.259	260.81
626.466	247.81
626.673	244.81
626.879	250.81
627.086	245.81
627.293	242.81
627.499	250.81
627.706	227.81
627.912	225.81
628.119	227.81
628.325	240.81
628.532	238.81
628.738	220.81
628.945	252.81
629.151	239.81
629.357	228.81
629.564	247.81
629.77	229.81
629.976	222.81
630.183	231.81
630.389	234.81
630.595	225.81
630.802	226.81
631.008	225.81
631.214	225.81
631.42	226.81
631.627	214.81
631.833	227.81
632.039	221.81
632.245	236.81
632.451	213.81
632.657	220.81
632.863	209.81
633.069	216.81
633.275	223.81
633.481	218.81
633.688	214.81
633.893	219.81
634.099	220.81
634.305	211.81
634.511	210.81
634.717	206.81
634.923	193.81
635.129	206.81
635.335	214.81
635.541	213.81
635.747	218.81
635.952	199.81
636.158	200.81
636.364	204.81
636.57	200.81
636.775	201.81
636.981	213.81
637.187	207.81
637.392	215.81
637.598	194.81
637.804	208.81
638.009	205.81
638.215	194.81
638.421	218.81
638.626	206.81
638.832	200.81
639.037	199.81
639.243	196.81
639.448	195.81
639.654	195.81
639.859	188.81
640.065	182.81
640.27	197.81
640.475	195.81
640.681	191.81
640.886	198.81
641.091	194.81
641.297	188.81
641.502	192.81
641.707	199.81
641.913	185.81
642.118	191.81
642.323	199.81
642.528	197.81
642.733	198.81
642.939	186.81
643.144	189.81
643.349	186.81
643.554	176.81
643.759	169.81
643.964	172.81
644.169	177.81
644.374	182.81
644.579	179.81
644.784	174.81
644.989	183.81
645.194	178.81
645.399	196.81
645.604	179.81
645.809	183.81
646.014	177.81
646.219	194.81
646.423	185.81
646.628	190.81
646.833	173.81
647.038	176.81
647.243	194.81
647.447	175.81
647.652	179.81
647.857	182.81
648.062	190.81
648.266	200.81
648.471	212.81
648.676	200.81
648.88	190.81
649.085	202.81
649.289	195.81
649.494	188.81
649.698	182.81
649.903	170.81
650.107	190.81
650.312	171.81
650.516	182.81
650.721	162.81
650.925	166.81
651.13	162.81
651.334	164.81
651.539	175.81
651.743	172.81
651.947	167.81
652.152	155.81
652.356	147.81
652.56	160.81
652.764	153.81
652.969	135.81
653.173	153.81
653.377	130.81
653.581	154.81
653.785	154.81
653.99	147.81
654.194	131.81
654.398	143.81
654.602	135.81
654.806	130.81
655.01	133.81
655.214	140.81
655.418	151.81
655.622	148.81
655.826	124.81
656.03	123.81
656.234	134.81
656.438	124.81
656.642	127.81
656.846	137.81
657.049	139.81
657.253	128.81
657.457	127.81
657.661	121.81
657.865	124.81
658.068	111.81
658.272	107.81
658.476	113.81
658.68	110.81
658.883	104.81
659.087	102.81
659.291	97.81
659.494	102.81
659.698	102.81
659.901	99.81
660.105	75.81
660.309	90.81
660.512	103.81
660.716	102.81
660.919	96.81
661.123	107.81
661.326	76.81
661.53	94.81
661.733	88.81
661.936	79.81
662.14	75.81
662.343	87.81
662.546	72.81
662.75	83.81
662.953	94.81
663.156	87.81
663.36	78.81
663.563	81.81
663.766	85.81
663.969	88.81
664.173	92.81
664.376	80.81
664.579	71.81
664.782	76.81
664.985	75.81
665.188	101.81
665.391	82.81
665.594	84.81
665.797	77.81
666	82.81
666.203	97.81
666.406	75.81
666.609	84.81
666.812	79.81
667.015	82.81
667.218	83.81
667.421	79.81
667.624	76.81
667.827	82.81
668.03	67.81
668.232	68.81
668.435	64.81
668.638	79.81
668.841	94.81
669.043	79.81
669.246	85.81
669.449	73.81
669.651	73.81
669.854	94.81
670.057	64.81
670.259	84.81
670.462	82.81
670.665	68.81
670.867	70.81
671.07	63.81
671.272	90.81
671.475	80.81
671.677	71.81
671.88	85.81
672.082	64.81
672.284	78.81
672.487	85.81
672.689	80.81
672.892	88.81
