Data from Ni(NO3)2@0.5M.TitratingCurve.Agarose3%dH2O.NegLispCup.LampEnergy10.LIBS07252019_HRD10591_17-58-45-565.txt Node
Date: Thu Jul 25 17:58:45 EDT 2019
User: cochatt
Spectrometer: HR+D1059
Trigger mode: 1
Integration Time (sec): 1.000000E-1
Scans to average: 1
Electric dark correction enabled: true
Nonlinearity correction enabled: false
Boxcar width: 0
XAxis mode: Wavelengths
Number of Pixels in Spectrum: 2048
>>>>>Begin Spectral Data<<<<<
223.165	-22.62
223.4	-22.62
223.635	-22.62
223.869	-16.62
224.104	-19.62
224.338	-24.62
224.573	-1.62
224.808	-14.62
225.042	-5.62
225.277	2.38
225.511	2.38
225.746	8.38
225.98	5.38
226.215	13.38
226.449	11.38
226.683	18.38
226.918	27.38
227.152	16.38
227.387	25.38
227.621	45.38
227.856	56.38
228.09	47.38
228.324	58.38
228.559	64.38
228.793	75.38
229.027	154.38
229.262	168.38
229.496	169.38
229.73	177.38
229.964	200.38
230.199	255.38
230.433	256.38
230.667	239.38
230.901	258.38
231.136	203.38
231.37	196.38
231.604	236.38
231.838	242.38
232.072	268.38
232.306	247.38
232.541	212.38
232.775	191.38
233.009	194.38
233.243	198.38
233.477	183.38
233.711	202.38
233.945	205.38
234.179	209.38
234.413	208.38
234.647	214.38
234.881	205.38
235.115	217.38
235.349	195.38
235.583	190.38
235.817	181.38
236.051	212.38
236.285	190.38
236.519	196.38
236.753	195.38
236.987	196.38
237.221	204.38
237.455	219.38
237.689	226.38
237.922	201.38
238.156	213.38
238.39	215.38
238.624	213.38
238.858	202.38
239.091	223.38
239.325	260.38
239.559	247.38
239.793	291.38
240.027	290.38
240.26	240.38
240.494	233.38
240.728	223.38
240.961	204.38
241.195	221.38
241.429	247.38
241.662	249.38
241.896	300.38
242.13	307.38
242.363	246.38
242.597	249.38
242.83	240.38
243.064	244.38
243.298	247.38
243.531	260.38
243.765	277.38
243.998	274.38
244.232	277.38
244.465	283.38
244.699	276.38
244.932	268.38
245.166	261.38
245.399	263.38
245.633	280.38
245.866	269.38
246.099	275.38
246.333	278.38
246.566	259.38
246.8	273.38
247.033	282.38
247.266	283.38
247.5	287.38
247.733	282.38
247.966	308.38
248.2	289.38
248.433	306.38
248.666	289.38
248.899	309.38
249.133	292.38
249.366	327.38
249.599	311.38
249.832	304.38
250.066	313.38
250.299	307.38
250.532	319.38
250.765	328.38
250.998	344.38
251.231	363.38
251.465	381.38
251.698	390.38
251.931	353.38
252.164	354.38
252.397	360.38
252.63	359.38
252.863	332.38
253.096	340.38
253.329	358.38
253.562	347.38
253.795	345.38
254.028	357.38
254.261	363.38
254.494	374.38
254.727	371.38
254.96	380.38
255.193	381.38
255.426	378.38
255.659	371.38
255.892	386.38
256.124	395.38
256.357	378.38
256.59	388.38
256.823	371.38
257.056	387.38
257.289	419.38
257.521	404.38
257.754	383.38
257.987	393.38
258.22	423.38
258.452	424.38
258.685	390.38
258.918	413.38
259.151	417.38
259.383	419.38
259.616	416.38
259.849	410.38
260.081	425.38
260.314	425.38
260.547	401.38
260.779	426.38
261.012	415.38
261.244	442.38
261.477	437.38
261.71	452.38
261.942	431.38
262.175	445.38
262.407	442.38
262.64	445.38
262.872	464.38
263.105	477.38
263.337	444.38
263.57	480.38
263.802	475.38
264.035	471.38
264.267	466.38
264.499	471.38
264.732	473.38
264.964	469.38
265.197	469.38
265.429	470.38
265.661	479.38
265.894	467.38
266.126	461.38
266.358	489.38
266.591	480.38
266.823	471.38
267.055	484.38
267.287	481.38
267.52	493.38
267.752	502.38
267.984	508.38
268.216	497.38
268.448	537.38
268.681	525.38
268.913	498.38
269.145	521.38
269.377	495.38
269.609	507.38
269.841	512.38
270.073	520.38
270.306	516.38
270.538	535.38
270.77	505.38
271.002	547.38
271.234	533.38
271.466	527.38
271.698	554.38
271.93	544.38
272.162	533.38
272.394	540.38
272.626	537.38
272.858	559.38
273.09	527.38
273.322	547.38
273.553	524.38
273.785	557.38
274.017	554.38
274.249	548.38
274.481	533.38
274.713	572.38
274.945	570.38
275.176	569.38
275.408	581.38
275.64	567.38
275.872	588.38
276.104	579.38
276.335	579.38
276.567	584.38
276.799	582.38
277.031	586.38
277.262	602.38
277.494	603.38
277.726	601.38
277.957	594.38
278.189	614.38
278.421	611.38
278.652	586.38
278.884	584.38
279.115	606.38
279.347	608.38
279.579	633.38
279.81	610.38
280.042	618.38
280.273	647.38
280.505	624.38
280.736	604.38
280.968	601.38
281.199	637.38
281.431	613.38
281.662	635.38
281.894	649.38
282.125	655.38
282.356	626.38
282.588	651.38
282.819	641.38
283.051	652.38
283.282	643.38
283.513	647.38
283.745	638.38
283.976	636.38
284.207	664.38
284.439	664.38
284.67	644.38
284.901	677.38
285.132	669.38
285.364	665.38
285.595	661.38
285.826	665.38
286.057	696.38
286.288	683.38
286.52	716.38
286.751	697.38
286.982	650.38
287.213	689.38
287.444	675.38
287.675	674.38
287.906	694.38
288.138	676.38
288.369	693.38
288.6	723.38
288.831	685.38
289.062	700.38
289.293	697.38
289.524	719.38
289.755	701.38
289.986	693.38
290.217	694.38
290.448	697.38
290.679	703.38
290.91	689.38
291.141	704.38
291.371	701.38
291.602	703.38
291.833	716.38
292.064	680.38
292.295	709.38
292.526	720.38
292.757	716.38
292.987	714.38
293.218	700.38
293.449	717.38
293.68	703.38
293.91	723.38
294.141	716.38
294.372	726.38
294.603	720.38
294.833	711.38
295.064	694.38
295.295	706.38
295.525	712.38
295.756	705.38
295.987	740.38
296.217	726.38
296.448	730.38
296.679	724.38
296.909	719.38
297.14	730.38
297.37	729.38
297.601	728.38
297.831	756.38
298.062	735.38
298.292	753.38
298.523	783.38
298.753	773.38
298.984	762.38
299.214	770.38
299.445	798.38
299.675	799.38
299.905	801.38
300.136	789.38
300.366	869.38
300.597	855.38
300.827	838.38
301.057	818.38
301.288	836.38
301.518	833.38
301.748	828.38
301.979	837.38
302.209	795.38
302.439	785.38
302.669	805.38
302.9	805.38
303.13	799.38
303.36	848.38
303.59	827.38
303.82	864.38
304.051	865.38
304.281	856.38
304.511	827.38
304.741	839.38
304.971	867.38
305.201	879.38
305.431	925.38
305.661	880.38
305.891	869.38
306.121	841.38
306.352	826.38
306.582	838.38
306.812	856.38
307.042	843.38
307.272	800.38
307.502	807.38
307.731	829.38
307.961	843.38
308.191	828.38
308.421	851.38
308.651	857.38
308.881	832.38
309.111	845.38
309.341	840.38
309.571	842.38
309.8	851.38
310.03	874.38
310.26	924.38
310.49	943.38
310.72	897.38
310.949	834.38
311.179	886.38
311.409	853.38
311.639	856.38
311.868	863.38
312.098	880.38
312.328	903.38
312.557	886.38
312.787	917.38
313.017	860.38
313.246	891.38
313.476	887.38
313.706	931.38
313.935	905.38
314.165	882.38
314.394	911.38
314.624	888.38
314.853	904.38
315.083	897.38
315.312	899.38
315.542	899.38
315.771	907.38
316.001	934.38
316.23	920.38
316.46	927.38
316.689	959.38
316.919	910.38
317.148	931.38
317.377	944.38
317.607	955.38
317.836	931.38
318.065	929.38
318.295	938.38
318.524	943.38
318.753	947.38
318.983	974.38
319.212	923.38
319.441	943.38
319.67	960.38
319.9	954.38
320.129	933.38
320.358	966.38
320.587	961.38
320.816	975.38
321.046	952.38
321.275	964.38
321.504	955.38
321.733	989.38
321.962	980.38
322.191	990.38
322.42	968.38
322.649	974.38
322.878	988.38
323.108	960.38
323.337	1026.38
323.566	999.38
323.795	987.38
324.024	993.38
324.253	1012.38
324.482	994.38
324.71	1020.38
324.939	1007.38
325.168	1017.38
325.397	999.38
325.626	1020.38
325.855	1014.38
326.084	1010.38
326.313	1038.38
326.542	1004.38
326.77	1023.38
326.999	1033.38
327.228	1026.38
327.457	1035.38
327.686	1026.38
327.914	1049.38
328.143	1050.38
328.372	1035.38
328.6	1019.38
328.829	1036.38
329.058	1056.38
329.287	1051.38
329.515	1058.38
329.744	1080.38
329.972	1089.38
330.201	1070.38
330.43	1066.38
330.658	1059.38
330.887	1076.38
331.115	1095.38
331.344	1088.38
331.572	1081.38
331.801	1082.38
332.03	1113.38
332.258	1124.38
332.486	1132.38
332.715	1130.38
332.943	1124.38
333.172	1163.38
333.4	1163.38
333.629	1168.38
333.857	1200.38
334.085	1201.38
334.314	1187.38
334.542	1196.38
334.771	1225.38
334.999	1226.38
335.227	1237.38
335.455	1219.38
335.684	1231.38
335.912	1228.38
336.14	1214.38
336.369	1220.38
336.597	1298.38
336.825	1283.38
337.053	1299.38
337.281	1255.38
337.51	1193.38
337.738	1241.38
337.966	1254.38
338.194	1267.38
338.422	1233.38
338.65	1202.38
338.878	1181.38
339.106	1199.38
339.334	1247.38
339.562	1238.38
339.79	1208.38
340.018	1147.38
340.246	1169.38
340.474	1144.38
340.702	1152.38
340.93	1148.38
341.158	1203.38
341.386	1255.38
341.614	1340.38
341.842	1273.38
342.07	1188.38
342.298	1174.38
342.526	1178.38
342.754	1190.38
342.981	1143.38
343.209	1176.38
343.437	1236.38
343.665	1239.38
343.893	1226.38
344.12	1263.38
344.348	1241.38
344.576	1271.38
344.804	1301.38
345.031	1236.38
345.259	1203.38
345.487	1195.38
345.714	1221.38
345.942	1283.38
346.17	1305.38
346.397	1260.38
346.625	1168.38
346.853	1132.38
347.08	1126.38
347.308	1157.38
347.535	1124.38
347.763	1122.38
347.99	1106.38
348.218	1096.38
348.445	1123.38
348.673	1128.38
348.9	1137.38
349.128	1157.38
349.355	1201.38
349.583	1209.38
349.81	1145.38
350.037	1113.38
350.265	1119.38
350.492	1096.38
350.72	1131.38
350.947	1138.38
351.174	1188.38
351.402	1234.38
351.629	1246.38
351.856	1218.38
352.083	1142.38
352.311	1209.38
352.538	1258.38
352.765	1247.38
352.992	1126.38
353.22	1063.38
353.447	1073.38
353.674	1088.38
353.901	1076.38
354.128	1072.38
354.355	1040.38
354.583	1085.38
354.81	1046.38
355.037	1075.38
355.264	1074.38
355.491	1065.38
355.718	1088.38
355.945	1034.38
356.172	1092.38
356.399	1126.38
356.626	1172.38
356.853	1174.38
357.08	1142.38
357.307	1083.38
357.534	1082.38
357.761	1080.38
357.988	1103.38
358.215	1095.38
358.441	1050.38
358.668	1066.38
358.895	1032.38
359.122	1097.38
359.349	1072.38
359.576	1073.38
359.802	1098.38
360.029	1106.38
360.256	1104.38
360.483	1073.38
360.709	1095.38
360.936	1085.38
361.163	1131.38
361.39	1131.38
361.616	1129.38
361.843	1188.38
362.07	1265.38
362.296	1207.38
362.523	1120.38
362.749	1089.38
362.976	1094.38
363.203	1065.38
363.429	1051.38
363.656	1092.38
363.882	1063.38
364.109	1112.38
364.335	1089.38
364.562	1067.38
364.788	1123.38
365.015	1092.38
365.241	1083.38
365.468	1091.38
365.694	1073.38
365.92	1083.38
366.147	1091.38
366.373	1128.38
366.599	1100.38
366.826	1107.38
367.052	1092.38
367.278	1088.38
367.505	1116.38
367.731	1120.38
367.957	1112.38
368.184	1104.38
368.41	1112.38
368.636	1098.38
368.862	1141.38
369.089	1106.38
369.315	1132.38
369.541	1131.38
369.767	1124.38
369.993	1133.38
370.219	1126.38
370.445	1148.38
370.672	1145.38
370.898	1133.38
371.124	1125.38
371.35	1158.38
371.576	1149.38
371.802	1149.38
372.028	1180.38
372.254	1163.38
372.48	1136.38
372.706	1156.38
372.932	1189.38
373.158	1151.38
373.384	1189.38
373.61	1155.38
373.835	1185.38
374.061	1188.38
374.287	1214.38
374.513	1191.38
374.739	1183.38
374.965	1195.38
375.191	1215.38
375.416	1226.38
375.642	1203.38
375.868	1189.38
376.094	1199.38
376.319	1168.38
376.545	1163.38
376.771	1144.38
376.997	1192.38
377.222	1164.38
377.448	1143.38
377.674	1162.38
377.899	1159.38
378.125	1148.38
378.35	1157.38
378.576	1142.38
378.802	1181.38
379.027	1158.38
379.253	1159.38
379.478	1131.38
379.704	1157.38
379.929	1144.38
380.155	1121.38
380.38	1139.38
380.606	1160.38
380.831	1156.38
381.057	1171.38
381.282	1172.38
381.507	1151.38
381.733	1173.38
381.958	1162.38
382.184	1161.38
382.409	1157.38
382.634	1152.38
382.86	1174.38
383.085	1184.38
383.31	1165.38
383.535	1199.38
383.761	1205.38
383.986	1181.38
384.211	1229.38
384.436	1229.38
384.662	1254.38
384.887	1237.38
385.112	1219.38
385.337	1231.38
385.562	1277.38
385.787	1289.38
386.013	1327.38
386.238	1306.38
386.463	1316.38
386.688	1304.38
386.913	1307.38
387.138	1307.38
387.363	1313.38
387.588	1312.38
387.813	1313.38
388.038	1323.38
388.263	1324.38
388.488	1297.38
388.713	1304.38
388.938	1312.38
389.163	1289.38
389.387	1313.38
389.612	1291.38
389.837	1300.38
390.062	1345.38
390.287	1329.38
390.512	1313.38
390.736	1310.38
390.961	1333.38
391.186	1342.38
391.411	1349.38
391.636	1361.38
391.86	1339.38
392.085	1373.38
392.31	1370.38
392.534	1388.38
392.759	1379.38
392.984	1377.38
393.208	1356.38
393.433	1381.38
393.658	1327.38
393.882	1365.38
394.107	1347.38
394.331	1352.38
394.556	1348.38
394.78	1345.38
395.005	1357.38
395.229	1331.38
395.454	1387.38
395.678	1435.38
395.903	1379.38
396.127	1388.38
396.352	1401.38
396.576	1431.38
396.801	1407.38
397.025	1391.38
397.249	1422.38
397.474	1473.38
397.698	1421.38
397.922	1474.38
398.147	1411.38
398.371	1473.38
398.595	1493.38
398.82	1511.38
399.044	1577.38
399.268	1626.38
399.492	1672.38
399.717	1737.38
399.941	1712.38
400.165	1735.38
400.389	1664.38
400.613	1653.38
400.837	1609.38
401.062	1562.38
401.286	1577.38
401.51	1563.38
401.734	1531.38
401.958	1552.38
402.182	1516.38
402.406	1537.38
402.63	1515.38
402.854	1566.38
403.078	1514.38
403.302	1562.38
403.526	1520.38
403.75	1539.38
403.974	1541.38
404.198	1550.38
404.422	1537.38
404.645	1507.38
404.869	1511.38
405.093	1561.38
405.317	1563.38
405.541	1589.38
405.765	1611.38
405.988	1589.38
406.212	1609.38
406.436	1634.38
406.66	1656.38
406.883	1632.38
407.107	1694.38
407.331	1736.38
407.555	1740.38
407.778	1693.38
408.002	1705.38
408.226	1722.38
408.449	1729.38
408.673	1669.38
408.896	1667.38
409.12	1648.38
409.344	1627.38
409.567	1641.38
409.791	1609.38
410.014	1616.38
410.238	1584.38
410.461	1605.38
410.685	1616.38
410.908	1591.38
411.132	1630.38
411.355	1575.38
411.578	1600.38
411.802	1604.38
412.025	1574.38
412.249	1553.38
412.472	1586.38
412.695	1587.38
412.919	1526.38
413.142	1558.38
413.365	1506.38
413.589	1544.38
413.812	1544.38
414.035	1548.38
414.258	1492.38
414.482	1535.38
414.705	1541.38
414.928	1524.38
415.151	1557.38
415.374	1510.38
415.597	1484.38
415.821	1498.38
416.044	1451.38
416.267	1461.38
416.49	1507.38
416.713	1472.38
416.936	1520.38
417.159	1433.38
417.382	1478.38
417.605	1447.38
417.828	1466.38
418.051	1487.38
418.274	1479.38
418.497	1439.38
418.72	1467.38
418.943	1475.38
419.166	1528.38
419.389	1625.38
419.611	1612.38
419.834	1516.38
420.057	1508.38
420.28	1454.38
420.503	1451.38
420.726	1431.38
420.948	1452.38
421.171	1440.38
421.394	1475.38
421.617	1473.38
421.839	1484.38
422.062	1454.38
422.285	1404.38
422.507	1436.38
422.73	1449.38
422.953	1491.38
423.175	1459.38
423.398	1487.38
423.621	1452.38
423.843	1445.38
424.066	1460.38
424.288	1481.38
424.511	1419.38
424.733	1464.38
424.956	1463.38
425.178	1441.38
425.401	1457.38
425.623	1424.38
425.846	1464.38
426.068	1459.38
426.291	1410.38
426.513	1461.38
426.735	1409.38
426.958	1449.38
427.18	1416.38
427.402	1412.38
427.625	1395.38
427.847	1379.38
428.069	1395.38
428.292	1437.38
428.514	1391.38
428.736	1384.38
428.958	1400.38
429.181	1403.38
429.403	1388.38
429.625	1396.38
429.847	1379.38
430.069	1375.38
430.292	1394.38
430.514	1343.38
430.736	1408.38
430.958	1403.38
431.18	1411.38
431.402	1403.38
431.624	1379.38
431.846	1405.38
432.068	1387.38
432.29	1401.38
432.512	1391.38
432.734	1423.38
432.956	1421.38
433.178	1427.38
433.4	1487.38
433.622	1477.38
433.844	1494.38
434.066	1469.38
434.287	1485.38
434.509	1425.38
434.731	1466.38
434.953	1502.38
435.175	1564.38
435.397	1577.38
435.618	1489.38
435.84	1449.38
436.062	1425.38
436.284	1442.38
436.505	1395.38
436.727	1411.38
436.949	1398.38
437.17	1459.38
437.392	1440.38
437.614	1411.38
437.835	1331.38
438.057	1387.38
438.278	1363.38
438.5	1349.38
438.721	1388.38
438.943	1401.38
439.165	1373.38
439.386	1353.38
439.608	1417.38
439.829	1369.38
440.05	1393.38
440.272	1417.38
440.493	1438.38
440.715	1441.38
440.936	1431.38
441.158	1450.38
441.379	1459.38
441.6	1503.38
441.822	1478.38
442.043	1490.38
442.264	1444.38
442.486	1469.38
442.707	1456.38
442.928	1449.38
443.149	1480.38
443.371	1539.38
443.592	1625.38
443.813	1585.38
444.034	1520.38
444.255	1496.38
444.476	1549.38
444.698	1563.38
444.919	1582.38
445.14	1724.38
445.361	1643.38
445.582	1569.38
445.803	1489.38
446.024	1440.38
446.245	1447.38
446.466	1421.38
446.687	1364.38
446.908	1401.38
447.129	1400.38
447.35	1339.38
447.571	1354.38
447.792	1309.38
448.013	1320.38
448.234	1302.38
448.455	1322.38
448.675	1290.38
448.896	1316.38
449.117	1288.38
449.338	1274.38
449.559	1268.38
449.779	1293.38
450	1263.38
450.221	1289.38
450.442	1278.38
450.662	1266.38
450.883	1281.38
451.104	1344.38
451.324	1274.38
451.545	1297.38
451.766	1307.38
451.986	1299.38
452.207	1248.38
452.428	1270.38
452.648	1273.38
452.869	1251.38
453.089	1269.38
453.31	1307.38
453.53	1259.38
453.751	1232.38
453.971	1249.38
454.192	1322.38
454.412	1303.38
454.633	1274.38
454.853	1236.38
455.073	1237.38
455.294	1267.38
455.514	1281.38
455.734	1305.38
455.955	1317.38
456.175	1329.38
456.395	1232.38
456.616	1256.38
456.836	1241.38
457.056	1229.38
457.276	1243.38
457.497	1305.38
457.717	1337.38
457.937	1295.38
458.157	1283.38
458.377	1259.38
458.598	1306.38
458.818	1345.38
459.038	1311.38
459.258	1391.38
459.478	1479.38
459.698	1665.38
459.918	1645.38
460.138	1547.38
460.358	1587.38
460.578	1537.38
460.798	1628.38
461.018	1634.38
461.238	1520.38
461.458	1525.38
461.678	1528.38
461.898	1549.38
462.118	1555.38
462.338	1591.38
462.558	1615.38
462.777	1691.38
462.997	1741.38
463.217	1771.38
463.437	1841.38
463.657	1799.38
463.876	1655.38
464.096	1669.38
464.316	1654.38
464.536	1647.38
464.755	1605.38
464.975	1577.38
465.195	1527.38
465.414	1526.38
465.634	1456.38
465.854	1417.38
466.073	1440.38
466.293	1406.38
466.512	1421.38
466.732	1413.38
466.951	1376.38
467.171	1396.38
467.391	1382.38
467.61	1363.38
467.829	1343.38
468.049	1359.38
468.268	1327.38
468.488	1323.38
468.707	1370.38
468.927	1361.38
469.146	1375.38
469.365	1424.38
469.585	1363.38
469.804	1397.38
470.023	1331.38
470.243	1314.38
470.462	1359.38
470.681	1388.38
470.901	1346.38
471.12	1332.38
471.339	1370.38
471.558	1396.38
471.777	1398.38
471.997	1363.38
472.216	1359.38
472.435	1336.38
472.654	1336.38
472.873	1332.38
473.092	1327.38
473.311	1354.38
473.53	1337.38
473.749	1318.38
473.968	1348.38
474.187	1350.38
474.406	1357.38
474.625	1381.38
474.844	1335.38
475.063	1363.38
475.282	1402.38
475.501	1394.38
475.72	1373.38
475.939	1401.38
476.158	1416.38
476.377	1453.38
476.596	1403.38
476.814	1449.38
477.033	1423.38
477.252	1447.38
477.471	1503.38
477.69	1516.38
477.908	1517.38
478.127	1510.38
478.346	1518.38
478.564	1555.38
478.783	1614.38
479.002	1643.38
479.22	1725.38
479.439	1658.38
479.658	1601.38
479.876	1579.38
480.095	1583.38
480.313	1628.38
480.532	1613.38
480.751	1618.38
480.969	1618.38
481.188	1625.38
481.406	1591.38
481.624	1612.38
481.843	1599.38
482.061	1606.38
482.28	1569.38
482.498	1612.38
482.717	1584.38
482.935	1597.38
483.153	1621.38
483.372	1704.38
483.59	1708.38
483.808	1637.38
484.027	1631.38
484.245	1629.38
484.463	1636.38
484.681	1615.38
484.9	1649.38
485.118	1691.38
485.336	1663.38
485.554	1652.38
485.772	1637.38
485.99	1641.38
486.209	1643.38
486.427	1642.38
486.645	1676.38
486.863	1672.38
487.081	1642.38
487.299	1668.38
487.517	1684.38
487.735	1707.38
487.953	1731.38
488.171	1688.38
488.389	1670.38
488.607	1691.38
488.825	1682.38
489.043	1666.38
489.261	1655.38
489.479	1649.38
489.696	1633.38
489.914	1632.38
490.132	1633.38
490.35	1675.38
490.568	1687.38
490.786	1659.38
491.003	1674.38
491.221	1709.38
491.439	1639.38
491.657	1672.38
491.874	1704.38
492.092	1717.38
492.31	1689.38
492.527	1693.38
492.745	1644.38
492.963	1700.38
493.18	1716.38
493.398	1731.38
493.615	1705.38
493.833	1732.38
494.05	1736.38
494.268	1737.38
494.485	1717.38
494.703	1727.38
494.92	1718.38
495.138	1715.38
495.355	1737.38
495.573	1790.38
495.79	1777.38
496.008	1802.38
496.225	1806.38
496.442	1777.38
496.66	1794.38
496.877	1843.38
497.094	1822.38
497.312	1884.38
497.529	1860.38
497.746	1943.38
497.963	1946.38
498.181	2016.38
498.398	2058.38
498.615	2113.38
498.832	2138.38
499.049	2197.38
499.267	2269.38
499.484	2382.38
499.701	2494.38
499.918	2569.38
500.135	2676.38
500.352	2775.38
500.569	2784.38
500.786	2723.38
501.003	2773.38
501.22	2666.38
501.437	2515.38
501.654	2385.38
501.871	2391.38
502.088	2292.38
502.305	2232.38
502.522	2186.38
502.739	2130.38
502.956	2020.38
503.172	2005.38
503.389	1957.38
503.606	1904.38
503.823	1887.38
504.04	1880.38
504.256	1827.38
504.473	1854.38
504.69	1764.38
504.907	1779.38
505.123	1738.38
505.34	1752.38
505.557	1673.38
505.773	1683.38
505.99	1661.38
506.207	1626.38
506.423	1579.38
506.64	1557.38
506.856	1549.38
507.073	1574.38
507.289	1547.38
507.506	1552.38
507.722	1553.38
507.939	1519.38
508.155	1526.38
508.372	1540.38
508.588	1465.38
508.805	1477.38
509.021	1427.38
509.238	1477.38
509.454	1468.38
509.67	1456.38
509.887	1428.38
510.103	1414.38
510.319	1431.38
510.536	1428.38
510.752	1381.38
510.968	1370.38
511.184	1348.38
511.401	1401.38
511.617	1399.38
511.833	1361.38
512.049	1409.38
512.265	1386.38
512.481	1399.38
512.698	1365.38
512.914	1369.38
513.13	1396.38
513.346	1396.38
513.562	1382.38
513.778	1367.38
513.994	1393.38
514.21	1392.38
514.426	1402.38
514.642	1373.38
514.858	1358.38
515.074	1395.38
515.29	1402.38
515.506	1415.38
515.721	1459.38
515.937	1458.38
516.153	1422.38
516.369	1430.38
516.585	1439.38
516.801	1469.38
517.016	1468.38
517.232	1475.38
517.448	1495.38
517.664	1501.38
517.879	1508.38
518.095	1511.38
518.311	1497.38
518.527	1466.38
518.742	1461.38
518.958	1435.38
519.173	1425.38
519.389	1394.38
519.605	1418.38
519.82	1376.38
520.036	1376.38
520.251	1325.38
520.467	1348.38
520.682	1354.38
520.898	1349.38
521.113	1309.38
521.329	1290.38
521.544	1313.38
521.76	1318.38
521.975	1281.38
522.19	1316.38
522.406	1281.38
522.621	1292.38
522.836	1253.38
523.052	1293.38
523.267	1263.38
523.482	1249.38
523.698	1258.38
523.913	1280.38
524.128	1260.38
524.343	1251.38
524.559	1214.38
524.774	1219.38
524.989	1201.38
525.204	1235.38
525.419	1225.38
525.634	1195.38
525.849	1216.38
526.064	1213.38
526.28	1180.38
526.495	1196.38
526.71	1185.38
526.925	1202.38
527.14	1175.38
527.355	1224.38
527.57	1238.38
527.785	1201.38
527.999	1213.38
528.214	1232.38
528.429	1151.38
528.644	1180.38
528.859	1217.38
529.074	1171.38
529.289	1172.38
529.503	1172.38
529.718	1183.38
529.933	1185.38
530.148	1173.38
530.363	1186.38
530.577	1151.38
530.792	1186.38
531.007	1170.38
531.221	1160.38
531.436	1155.38
531.651	1171.38
531.865	1147.38
532.08	1130.38
532.295	1175.38
532.509	1165.38
532.724	1159.38
532.938	1149.38
533.153	1171.38
533.367	1173.38
533.582	1154.38
533.796	1138.38
534.011	1128.38
534.225	1169.38
534.44	1141.38
534.654	1155.38
534.868	1123.38
535.083	1131.38
535.297	1147.38
535.511	1130.38
535.726	1115.38
535.94	1142.38
536.154	1098.38
536.369	1111.38
536.583	1093.38
536.797	1079.38
537.011	1094.38
537.225	1095.38
537.44	1095.38
537.654	1087.38
537.868	1076.38
538.082	1089.38
538.296	1057.38
538.51	1063.38
538.724	1053.38
538.938	1096.38
539.153	1064.38
539.367	1084.38
539.581	1046.38
539.795	1064.38
540.009	1047.38
540.222	1029.38
540.436	1052.38
540.65	1062.38
540.864	1074.38
541.078	1043.38
541.292	1074.38
541.506	1080.38
541.72	1066.38
541.934	1084.38
542.147	1071.38
542.361	1076.38
542.575	1035.38
542.789	1029.38
543.002	1048.38
543.216	1027.38
543.43	1036.38
543.644	1014.38
543.857	1028.38
544.071	1047.38
544.285	1077.38
544.498	1043.38
544.712	1051.38
544.925	1055.38
545.139	1047.38
545.352	1020.38
545.566	1015.38
545.779	1058.38
545.993	1069.38
546.206	1067.38
546.42	1037.38
546.633	1035.38
546.847	1076.38
547.06	1043.38
547.274	999.38
547.487	1053.38
547.7	1085.38
547.914	1062.38
548.127	1051.38
548.34	1034.38
548.554	1040.38
548.767	1041.38
548.98	1041.38
549.193	1019.38
549.407	1037.38
549.62	1025.38
549.833	1038.38
550.046	1041.38
550.259	989.38
550.473	1019.38
550.686	1035.38
550.899	1038.38
551.112	1028.38
551.325	1023.38
551.538	1023.38
551.751	1025.38
551.964	997.38
552.177	1019.38
552.39	1035.38
552.603	1033.38
552.816	1044.38
553.029	1043.38
553.242	1033.38
553.455	1034.38
553.667	1044.38
553.88	1012.38
554.093	1002.38
554.306	999.38
554.519	965.38
554.732	977.38
554.944	965.38
555.157	976.38
555.37	983.38
555.583	961.38
555.795	966.38
556.008	907.38
556.221	929.38
556.433	917.38
556.646	924.38
556.859	921.38
557.071	910.38
557.284	884.38
557.496	906.38
557.709	901.38
557.921	905.38
558.134	916.38
558.346	896.38
558.559	857.38
558.771	895.38
558.984	887.38
559.196	879.38
559.409	887.38
559.621	893.38
559.833	883.38
560.046	876.38
560.258	872.38
560.47	867.38
560.683	861.38
560.895	870.38
561.107	873.38
561.32	880.38
561.532	866.38
561.744	868.38
561.956	888.38
562.168	885.38
562.381	888.38
562.593	858.38
562.805	842.38
563.017	891.38
563.229	887.38
563.441	869.38
563.653	865.38
563.865	874.38
564.077	880.38
564.289	909.38
564.501	883.38
564.713	912.38
564.925	916.38
565.137	935.38
565.349	967.38
565.561	944.38
565.773	945.38
565.985	983.38
566.197	998.38
566.408	1011.38
566.62	1018.38
566.832	1062.38
567.044	1047.38
567.255	1075.38
567.467	1076.38
567.679	1073.38
567.891	1082.38
568.102	1048.38
568.314	1025.38
568.526	1010.38
568.737	974.38
568.949	968.38
569.161	933.38
569.372	905.38
569.584	875.38
569.795	879.38
570.007	859.38
570.218	867.38
570.43	853.38
570.641	841.38
570.853	820.38
571.064	796.38
571.276	825.38
571.487	760.38
571.698	776.38
571.91	791.38
572.121	771.38
572.333	754.38
572.544	748.38
572.755	753.38
572.966	733.38
573.178	728.38
573.389	721.38
573.6	717.38
573.811	696.38
574.023	675.38
574.234	684.38
574.445	677.38
574.656	691.38
574.867	695.38
575.078	692.38
575.289	713.38
575.501	689.38
575.712	663.38
575.923	672.38
576.134	667.38
576.345	647.38
576.556	670.38
576.767	677.38
576.978	673.38
577.188	661.38
577.399	632.38
577.61	634.38
577.821	631.38
578.032	617.38
578.243	661.38
578.454	611.38
578.665	613.38
578.875	619.38
579.086	608.38
579.297	619.38
579.508	607.38
579.718	622.38
579.929	620.38
580.14	611.38
580.35	596.38
580.561	632.38
580.772	620.38
580.982	595.38
581.193	588.38
581.403	597.38
581.614	586.38
581.825	612.38
582.035	581.38
582.246	582.38
582.456	578.38
582.667	599.38
582.877	580.38
583.087	595.38
583.298	593.38
583.508	609.38
583.719	570.38
583.929	602.38
584.139	597.38
584.35	572.38
584.56	570.38
584.77	592.38
584.981	544.38
585.191	571.38
585.401	554.38
585.611	584.38
585.821	574.38
586.032	586.38
586.242	565.38
586.452	567.38
586.662	548.38
586.872	563.38
587.082	557.38
587.292	545.38
587.502	559.38
587.713	552.38
587.923	561.38
588.133	542.38
588.343	563.38
588.553	544.38
588.762	547.38
588.972	559.38
589.182	651.38
589.392	649.38
589.602	562.38
589.812	635.38
590.022	569.38
590.232	545.38
590.441	536.38
590.651	571.38
590.861	542.38
591.071	550.38
591.281	552.38
591.49	569.38
591.7	565.38
591.91	567.38
592.119	554.38
592.329	565.38
592.539	561.38
592.748	575.38
592.958	555.38
593.167	595.38
593.377	577.38
593.587	595.38
593.796	571.38
594.006	584.38
594.215	569.38
594.424	595.38
594.634	565.38
594.843	557.38
595.053	515.38
595.262	537.38
595.472	538.38
595.681	545.38
595.89	536.38
596.1	525.38
596.309	524.38
596.518	522.38
596.727	522.38
596.937	525.38
597.146	519.38
597.355	497.38
597.564	504.38
597.774	488.38
597.983	484.38
598.192	505.38
598.401	491.38
598.61	467.38
598.819	487.38
599.028	467.38
599.237	457.38
599.446	482.38
599.655	469.38
599.864	478.38
600.073	467.38
600.282	471.38
600.491	462.38
600.7	479.38
600.909	469.38
601.118	464.38
601.327	445.38
601.536	443.38
601.745	461.38
601.953	456.38
602.162	448.38
602.371	479.38
602.58	460.38
602.789	464.38
602.997	444.38
603.206	443.38
603.415	427.38
603.623	431.38
603.832	419.38
604.041	432.38
604.249	443.38
604.458	420.38
604.666	405.38
604.875	420.38
605.084	435.38
605.292	409.38
605.501	428.38
605.709	431.38
605.918	419.38
606.126	428.38
606.334	413.38
606.543	403.38
606.751	419.38
606.96	430.38
607.168	422.38
607.376	432.38
607.585	417.38
607.793	420.38
608.001	444.38
608.21	423.38
608.418	425.38
608.626	415.38
608.834	412.38
609.043	423.38
609.251	414.38
609.459	405.38
609.667	409.38
609.875	410.38
610.083	400.38
610.291	405.38
610.499	389.38
610.707	403.38
610.916	395.38
611.124	399.38
611.332	420.38
611.54	397.38
611.748	399.38
611.955	390.38
612.163	408.38
612.371	399.38
612.579	401.38
612.787	378.38
612.995	392.38
613.203	416.38
613.411	397.38
613.618	389.38
613.826	397.38
614.034	404.38
614.242	387.38
614.449	398.38
614.657	389.38
614.865	395.38
615.072	413.38
615.28	386.38
615.488	395.38
615.695	377.38
615.903	407.38
616.111	388.38
616.318	393.38
616.526	388.38
616.733	378.38
616.941	381.38
617.148	372.38
617.356	379.38
617.563	389.38
617.771	367.38
617.978	377.38
618.185	382.38
618.393	380.38
618.6	385.38
618.807	387.38
619.015	357.38
619.222	387.38
619.429	361.38
619.637	369.38
619.844	352.38
620.051	381.38
620.258	370.38
620.466	348.38
620.673	348.38
620.88	361.38
621.087	366.38
621.294	357.38
621.501	362.38
621.708	372.38
621.915	354.38
622.122	327.38
622.329	346.38
622.536	374.38
622.743	355.38
622.95	350.38
623.157	374.38
623.364	326.38
623.571	341.38
623.778	352.38
623.985	341.38
624.192	355.38
624.399	360.38
624.606	336.38
624.812	328.38
625.019	344.38
625.226	348.38
625.433	339.38
625.639	324.38
625.846	349.38
626.053	363.38
626.259	345.38
626.466	348.38
626.673	321.38
626.879	339.38
627.086	336.38
627.293	325.38
627.499	330.38
627.706	335.38
627.912	303.38
628.119	321.38
628.325	330.38
628.532	325.38
628.738	315.38
628.945	342.38
629.151	317.38
629.357	336.38
629.564	315.38
629.77	305.38
629.976	324.38
630.183	302.38
630.389	329.38
630.595	334.38
630.802	306.38
631.008	318.38
631.214	309.38
631.42	330.38
631.627	305.38
631.833	309.38
632.039	307.38
632.245	339.38
632.451	305.38
632.657	304.38
632.863	305.38
633.069	309.38
633.275	298.38
633.481	310.38
633.688	308.38
633.893	322.38
634.099	310.38
634.305	291.38
634.511	316.38
634.717	302.38
634.923	293.38
635.129	305.38
635.335	304.38
635.541	302.38
635.747	325.38
635.952	299.38
636.158	301.38
636.364	288.38
636.57	303.38
636.775	296.38
636.981	307.38
637.187	283.38
637.392	295.38
637.598	284.38
637.804	287.38
638.009	295.38
638.215	283.38
638.421	284.38
638.626	284.38
638.832	292.38
639.037	283.38
639.243	268.38
639.448	299.38
639.654	283.38
639.859	279.38
640.065	282.38
640.27	283.38
640.475	295.38
640.681	291.38
640.886	290.38
641.091	293.38
641.297	296.38
641.502	273.38
641.707	280.38
641.913	275.38
642.118	287.38
642.323	263.38
642.528	285.38
642.733	269.38
642.939	288.38
643.144	290.38
643.349	279.38
643.554	279.38
643.759	280.38
643.964	289.38
644.169	287.38
644.374	284.38
644.579	288.38
644.784	279.38
644.989	282.38
645.194	280.38
645.399	259.38
645.604	269.38
645.809	290.38
646.014	285.38
646.219	279.38
646.423	278.38
646.628	294.38
646.833	293.38
647.038	279.38
647.243	281.38
647.447	288.38
647.652	305.38
647.857	292.38
648.062	301.38
648.266	301.38
648.471	293.38
648.676	296.38
648.88	305.38
649.085	287.38
649.289	289.38
649.494	298.38
649.698	304.38
649.903	311.38
650.107	289.38
650.312	279.38
650.516	268.38
650.721	294.38
650.925	276.38
651.13	295.38
651.334	273.38
651.539	280.38
651.743	277.38
651.947	283.38
652.152	293.38
652.356	277.38
652.56	285.38
652.764	276.38
652.969	281.38
653.173	257.38
653.377	285.38
653.581	283.38
653.785	266.38
653.99	257.38
654.194	267.38
654.398	285.38
654.602	267.38
654.806	256.38
655.01	265.38
655.214	280.38
655.418	267.38
655.622	288.38
655.826	287.38
656.03	268.38
656.234	296.38
656.438	298.38
656.642	294.38
656.846	295.38
657.049	260.38
657.253	265.38
657.457	218.38
657.661	221.38
657.865	201.38
658.068	208.38
658.272	193.38
658.476	170.38
658.68	152.38
658.883	167.38
659.087	149.38
659.291	154.38
659.494	147.38
659.698	134.38
659.901	131.38
660.105	132.38
660.309	130.38
660.512	135.38
660.716	124.38
660.919	108.38
661.123	125.38
661.326	107.38
661.53	103.38
661.733	116.38
661.936	121.38
662.14	89.38
662.343	97.38
662.546	96.38
662.75	88.38
662.953	90.38
663.156	95.38
663.36	91.38
663.563	91.38
663.766	84.38
663.969	70.38
664.173	94.38
664.376	91.38
664.579	77.38
664.782	97.38
664.985	82.38
665.188	75.38
665.391	81.38
665.594	82.38
665.797	80.38
666	72.38
666.203	82.38
666.406	67.38
666.609	90.38
666.812	91.38
667.015	84.38
667.218	79.38
667.421	73.38
667.624	84.38
667.827	87.38
668.03	83.38
668.232	78.38
668.435	83.38
668.638	81.38
668.841	89.38
669.043	89.38
669.246	85.38
669.449	77.38
669.651	97.38
669.854	85.38
670.057	90.38
670.259	91.38
670.462	91.38
670.665	83.38
670.867	71.38
671.07	79.38
671.272	85.38
671.475	90.38
671.677	74.38
671.88	74.38
672.082	84.38
672.284	86.38
672.487	72.38
672.689	75.38
672.892	80.38
