Data from Ni(NO3)2@0.0625M.TitratingCurve.Agarose3%dH2O.NegLispCup.LampEnergy10.LIBS07252019_HRD10591_18-15-48-569.txt Node
Date: Thu Jul 25 18:15:48 EDT 2019
User: cochatt
Spectrometer: HR+D1059
Trigger mode: 1
Integration Time (sec): 1.000000E-1
Scans to average: 1
Electric dark correction enabled: true
Nonlinearity correction enabled: false
Boxcar width: 0
XAxis mode: Wavelengths
Number of Pixels in Spectrum: 2048
>>>>>Begin Spectral Data<<<<<
223.165	-16.25
223.4	-16.25
223.635	-16.25
223.869	-14.25
224.104	-7.25
224.338	-31.25
224.573	-13.25
224.808	-20.25
225.042	-5.25
225.277	-3.25
225.511	-12.25
225.746	3.75
225.98	2.75
226.215	16.75
226.449	14.75
226.683	22.75
226.918	28.75
227.152	33.75
227.387	25.75
227.621	43.75
227.856	50.75
228.09	52.75
228.324	57.75
228.559	58.75
228.793	64.75
229.027	103.75
229.262	116.75
229.496	111.75
229.73	125.75
229.964	114.75
230.199	121.75
230.433	125.75
230.667	130.75
230.901	129.75
231.136	127.75
231.37	127.75
231.604	122.75
231.838	131.75
232.072	129.75
232.306	131.75
232.541	129.75
232.775	146.75
233.009	135.75
233.243	159.75
233.477	153.75
233.711	135.75
233.945	128.75
234.179	139.75
234.413	140.75
234.647	151.75
234.881	147.75
235.115	151.75
235.349	136.75
235.583	137.75
235.817	137.75
236.051	167.75
236.285	155.75
236.519	134.75
236.753	141.75
236.987	143.75
237.221	149.75
237.455	156.75
237.689	156.75
237.922	141.75
238.156	154.75
238.39	146.75
238.624	147.75
238.858	152.75
239.091	166.75
239.325	169.75
239.559	171.75
239.793	176.75
240.027	153.75
240.26	164.75
240.494	166.75
240.728	159.75
240.961	156.75
241.195	168.75
241.429	161.75
241.662	165.75
241.896	179.75
242.13	185.75
242.363	167.75
242.597	183.75
242.83	177.75
243.064	169.75
243.298	177.75
243.531	194.75
243.765	187.75
243.998	187.75
244.232	178.75
244.465	193.75
244.699	189.75
244.932	203.75
245.166	189.75
245.399	196.75
245.633	189.75
245.866	186.75
246.099	201.75
246.333	197.75
246.566	206.75
246.8	205.75
247.033	205.75
247.266	213.75
247.5	215.75
247.733	203.75
247.966	209.75
248.2	215.75
248.433	218.75
248.666	207.75
248.899	219.75
249.133	233.75
249.366	217.75
249.599	236.75
249.832	218.75
250.066	199.75
250.299	230.75
250.532	218.75
250.765	222.75
250.998	220.75
251.231	213.75
251.465	243.75
251.698	251.75
251.931	244.75
252.164	250.75
252.397	237.75
252.63	243.75
252.863	238.75
253.096	239.75
253.329	249.75
253.562	262.75
253.795	277.75
254.028	255.75
254.261	237.75
254.494	254.75
254.727	247.75
254.96	245.75
255.193	261.75
255.426	265.75
255.659	258.75
255.892	249.75
256.124	262.75
256.357	271.75
256.59	261.75
256.823	266.75
257.056	269.75
257.289	278.75
257.521	267.75
257.754	270.75
257.987	242.75
258.22	281.75
258.452	288.75
258.685	276.75
258.918	270.75
259.151	288.75
259.383	279.75
259.616	277.75
259.849	282.75
260.081	278.75
260.314	298.75
260.547	291.75
260.779	293.75
261.012	278.75
261.244	298.75
261.477	301.75
261.71	304.75
261.942	291.75
262.175	287.75
262.407	284.75
262.64	280.75
262.872	299.75
263.105	303.75
263.337	294.75
263.57	298.75
263.802	297.75
264.035	292.75
264.267	308.75
264.499	309.75
264.732	312.75
264.964	311.75
265.197	297.75
265.429	327.75
265.661	285.75
265.894	292.75
266.126	314.75
266.358	316.75
266.591	310.75
266.823	331.75
267.055	324.75
267.287	312.75
267.52	322.75
267.752	322.75
267.984	327.75
268.216	310.75
268.448	352.75
268.681	336.75
268.913	348.75
269.145	326.75
269.377	335.75
269.609	323.75
269.841	337.75
270.073	324.75
270.306	330.75
270.538	340.75
270.77	335.75
271.002	336.75
271.234	347.75
271.466	345.75
271.698	338.75
271.93	332.75
272.162	367.75
272.394	338.75
272.626	361.75
272.858	368.75
273.09	348.75
273.322	373.75
273.553	356.75
273.785	341.75
274.017	359.75
274.249	352.75
274.481	358.75
274.713	353.75
274.945	378.75
275.176	359.75
275.408	371.75
275.64	390.75
275.872	368.75
276.104	371.75
276.335	369.75
276.567	379.75
276.799	381.75
277.031	382.75
277.262	387.75
277.494	357.75
277.726	379.75
277.957	370.75
278.189	385.75
278.421	389.75
278.652	383.75
278.884	381.75
279.115	422.75
279.347	406.75
279.579	402.75
279.81	390.75
280.042	412.75
280.273	405.75
280.505	394.75
280.736	414.75
280.968	420.75
281.199	409.75
281.431	433.75
281.662	446.75
281.894	432.75
282.125	401.75
282.356	405.75
282.588	418.75
282.819	425.75
283.051	417.75
283.282	420.75
283.513	443.75
283.745	421.75
283.976	413.75
284.207	417.75
284.439	445.75
284.67	428.75
284.901	435.75
285.132	442.75
285.364	449.75
285.595	448.75
285.826	439.75
286.057	443.75
286.288	453.75
286.52	445.75
286.751	450.75
286.982	454.75
287.213	453.75
287.444	467.75
287.675	444.75
287.906	459.75
288.138	459.75
288.369	457.75
288.6	483.75
288.831	443.75
289.062	488.75
289.293	472.75
289.524	477.75
289.755	496.75
289.986	451.75
290.217	467.75
290.448	479.75
290.679	484.75
290.91	468.75
291.141	451.75
291.371	463.75
291.602	478.75
291.833	467.75
292.064	480.75
292.295	461.75
292.526	469.75
292.757	482.75
292.987	465.75
293.218	464.75
293.449	484.75
293.68	480.75
293.91	475.75
294.141	474.75
294.372	492.75
294.603	458.75
294.833	486.75
295.064	467.75
295.295	491.75
295.525	467.75
295.756	496.75
295.987	472.75
296.217	486.75
296.448	494.75
296.679	497.75
296.909	535.75
297.14	486.75
297.37	514.75
297.601	525.75
297.831	518.75
298.062	504.75
298.292	496.75
298.523	523.75
298.753	536.75
298.984	509.75
299.214	530.75
299.445	511.75
299.675	529.75
299.905	524.75
300.136	530.75
300.366	507.75
300.597	522.75
300.827	535.75
301.057	554.75
301.288	543.75
301.518	531.75
301.748	551.75
301.979	532.75
302.209	561.75
302.439	551.75
302.669	535.75
302.9	533.75
303.13	516.75
303.36	518.75
303.59	525.75
303.82	548.75
304.051	534.75
304.281	555.75
304.511	539.75
304.741	533.75
304.971	552.75
305.201	537.75
305.431	535.75
305.661	518.75
305.891	513.75
306.121	508.75
306.352	511.75
306.582	538.75
306.812	514.75
307.042	544.75
307.272	544.75
307.502	540.75
307.731	539.75
307.961	520.75
308.191	518.75
308.421	509.75
308.651	511.75
308.881	523.75
309.111	520.75
309.341	521.75
309.571	521.75
309.8	511.75
310.03	535.75
310.26	513.75
310.49	530.75
310.72	539.75
310.949	527.75
311.179	535.75
311.409	542.75
311.639	546.75
311.868	547.75
312.098	548.75
312.328	535.75
312.557	547.75
312.787	545.75
313.017	554.75
313.246	569.75
313.476	561.75
313.706	578.75
313.935	564.75
314.165	570.75
314.394	580.75
314.624	575.75
314.853	570.75
315.083	588.75
315.312	566.75
315.542	566.75
315.771	556.75
316.001	560.75
316.23	578.75
316.46	539.75
316.689	580.75
316.919	563.75
317.148	567.75
317.377	552.75
317.607	550.75
317.836	553.75
318.065	559.75
318.295	554.75
318.524	554.75
318.753	545.75
318.983	532.75
319.212	536.75
319.441	541.75
319.67	567.75
319.9	549.75
320.129	560.75
320.358	545.75
320.587	559.75
320.816	569.75
321.046	563.75
321.275	561.75
321.504	555.75
321.733	570.75
321.962	536.75
322.191	551.75
322.42	546.75
322.649	554.75
322.878	563.75
323.108	559.75
323.337	577.75
323.566	573.75
323.795	591.75
324.024	603.75
324.253	564.75
324.482	569.75
324.71	580.75
324.939	571.75
325.168	599.75
325.397	572.75
325.626	587.75
325.855	609.75
326.084	577.75
326.313	609.75
326.542	609.75
326.77	608.75
326.999	610.75
327.228	611.75
327.457	610.75
327.686	590.75
327.914	615.75
328.143	626.75
328.372	629.75
328.6	604.75
328.829	614.75
329.058	598.75
329.287	613.75
329.515	615.75
329.744	628.75
329.972	615.75
330.201	619.75
330.43	639.75
330.658	613.75
330.887	629.75
331.115	629.75
331.344	656.75
331.572	637.75
331.801	673.75
332.03	676.75
332.258	696.75
332.486	736.75
332.715	767.75
332.943	762.75
333.172	815.75
333.4	849.75
333.629	883.75
333.857	848.75
334.085	841.75
334.314	818.75
334.542	810.75
334.771	801.75
334.999	768.75
335.227	780.75
335.455	761.75
335.684	764.75
335.912	755.75
336.14	735.75
336.369	720.75
336.597	735.75
336.825	748.75
337.053	724.75
337.281	743.75
337.51	714.75
337.738	698.75
337.966	708.75
338.194	677.75
338.422	664.75
338.65	655.75
338.878	663.75
339.106	669.75
339.334	683.75
339.562	646.75
339.79	649.75
340.018	642.75
340.246	642.75
340.474	644.75
340.702	654.75
340.93	653.75
341.158	655.75
341.386	651.75
341.614	627.75
341.842	628.75
342.07	638.75
342.298	678.75
342.526	650.75
342.754	640.75
342.981	641.75
343.209	645.75
343.437	717.75
343.665	740.75
343.893	764.75
344.12	789.75
344.348	775.75
344.576	714.75
344.804	687.75
345.031	672.75
345.259	644.75
345.487	668.75
345.714	650.75
345.942	651.75
346.17	633.75
346.397	610.75
346.625	621.75
346.853	617.75
347.08	622.75
347.308	633.75
347.535	626.75
347.763	638.75
347.99	640.75
348.218	618.75
348.445	641.75
348.673	605.75
348.9	609.75
349.128	611.75
349.355	620.75
349.583	623.75
349.81	610.75
350.037	627.75
350.265	645.75
350.492	618.75
350.72	601.75
350.947	632.75
351.174	604.75
351.402	620.75
351.629	626.75
351.856	584.75
352.083	589.75
352.311	619.75
352.538	604.75
352.765	595.75
352.992	583.75
353.22	592.75
353.447	584.75
353.674	599.75
353.901	587.75
354.128	597.75
354.355	568.75
354.583	602.75
354.81	590.75
355.037	613.75
355.264	595.75
355.491	612.75
355.718	612.75
355.945	600.75
356.172	600.75
356.399	615.75
356.626	611.75
356.853	591.75
357.08	599.75
357.307	618.75
357.534	609.75
357.761	597.75
357.988	614.75
358.215	573.75
358.441	587.75
358.668	594.75
358.895	595.75
359.122	621.75
359.349	615.75
359.576	607.75
359.802	615.75
360.029	583.75
360.256	619.75
360.483	616.75
360.709	621.75
360.936	604.75
361.163	599.75
361.39	596.75
361.616	607.75
361.843	610.75
362.07	634.75
362.296	602.75
362.523	594.75
362.749	610.75
362.976	600.75
363.203	576.75
363.429	575.75
363.656	584.75
363.882	575.75
364.109	576.75
364.335	588.75
364.562	609.75
364.788	619.75
365.015	590.75
365.241	616.75
365.468	609.75
365.694	604.75
365.92	587.75
366.147	578.75
366.373	602.75
366.599	603.75
366.826	603.75
367.052	610.75
367.278	596.75
367.505	617.75
367.731	640.75
367.957	595.75
368.184	598.75
368.41	608.75
368.636	618.75
368.862	627.75
369.089	618.75
369.315	595.75
369.541	629.75
369.767	607.75
369.993	633.75
370.219	654.75
370.445	616.75
370.672	637.75
370.898	610.75
371.124	654.75
371.35	651.75
371.576	663.75
371.802	653.75
372.028	656.75
372.254	655.75
372.48	649.75
372.706	702.75
372.932	680.75
373.158	680.75
373.384	669.75
373.61	650.75
373.835	672.75
374.061	655.75
374.287	687.75
374.513	657.75
374.739	704.75
374.965	708.75
375.191	719.75
375.416	726.75
375.642	723.75
375.868	696.75
376.094	692.75
376.319	679.75
376.545	651.75
376.771	677.75
376.997	689.75
377.222	659.75
377.448	657.75
377.674	668.75
377.899	630.75
378.125	642.75
378.35	644.75
378.576	659.75
378.802	653.75
379.027	641.75
379.253	652.75
379.478	638.75
379.704	652.75
379.929	637.75
380.155	641.75
380.38	679.75
380.606	637.75
380.831	641.75
381.057	659.75
381.282	629.75
381.507	656.75
381.733	653.75
381.958	678.75
382.184	652.75
382.409	676.75
382.634	698.75
382.86	694.75
383.085	710.75
383.31	711.75
383.535	716.75
383.761	715.75
383.986	735.75
384.211	767.75
384.436	787.75
384.662	772.75
384.887	803.75
385.112	779.75
385.337	803.75
385.562	798.75
385.787	785.75
386.013	796.75
386.238	784.75
386.463	801.75
386.688	795.75
386.913	770.75
387.138	781.75
387.363	785.75
387.588	753.75
387.813	764.75
388.038	773.75
388.263	772.75
388.488	770.75
388.713	799.75
388.938	781.75
389.163	789.75
389.387	777.75
389.612	772.75
389.837	788.75
390.062	771.75
390.287	756.75
390.512	742.75
390.736	779.75
390.961	777.75
391.186	820.75
391.411	825.75
391.636	851.75
391.86	899.75
392.085	897.75
392.31	903.75
392.534	855.75
392.759	844.75
392.984	840.75
393.208	842.75
393.433	845.75
393.658	808.75
393.882	845.75
394.107	826.75
394.331	844.75
394.556	819.75
394.78	870.75
395.005	828.75
395.229	857.75
395.454	885.75
395.678	895.75
395.903	902.75
396.127	869.75
396.352	862.75
396.576	827.75
396.801	818.75
397.025	835.75
397.249	866.75
397.474	890.75
397.698	903.75
397.922	896.75
398.147	883.75
398.371	904.75
398.595	951.75
398.82	973.75
399.044	1075.75
399.268	1171.75
399.492	1371.75
399.717	1593.75
399.941	1573.75
400.165	1352.75
400.389	1163.75
400.613	1093.75
400.837	1034.75
401.062	1029.75
401.286	986.75
401.51	1005.75
401.734	990.75
401.958	1026.75
402.182	1027.75
402.406	1025.75
402.63	1053.75
402.854	1078.75
403.078	1062.75
403.302	1122.75
403.526	1140.75
403.75	1161.75
403.974	1159.75
404.198	1185.75
404.422	1189.75
404.645	1160.75
404.869	1135.75
405.093	1149.75
405.317	1106.75
405.541	1100.75
405.765	1066.75
405.988	1095.75
406.212	1099.75
406.436	1091.75
406.66	1118.75
406.883	1121.75
407.107	1212.75
407.331	1281.75
407.555	1329.75
407.778	1298.75
408.002	1253.75
408.226	1212.75
408.449	1179.75
408.673	1142.75
408.896	1157.75
409.12	1126.75
409.344	1137.75
409.567	1105.75
409.791	1168.75
410.014	1144.75
410.238	1123.75
410.461	1122.75
410.685	1114.75
410.908	1082.75
411.132	1055.75
411.355	1013.75
411.578	1042.75
411.802	1011.75
412.025	1013.75
412.249	1037.75
412.472	1026.75
412.695	1013.75
412.919	978.75
413.142	1007.75
413.365	1003.75
413.589	979.75
413.812	978.75
414.035	951.75
414.258	994.75
414.482	1015.75
414.705	1000.75
414.928	1003.75
415.151	999.75
415.374	1004.75
415.597	988.75
415.821	968.75
416.044	967.75
416.267	955.75
416.49	976.75
416.713	973.75
416.936	982.75
417.159	957.75
417.382	957.75
417.605	976.75
417.828	974.75
418.051	954.75
418.274	996.75
418.497	1001.75
418.72	1017.75
418.943	1034.75
419.166	1036.75
419.389	1143.75
419.611	1095.75
419.834	1093.75
420.057	1049.75
420.28	996.75
420.503	962.75
420.726	930.75
420.948	946.75
421.171	970.75
421.394	985.75
421.617	981.75
421.839	990.75
422.062	991.75
422.285	983.75
422.507	993.75
422.73	995.75
422.953	1007.75
423.175	1050.75
423.398	1061.75
423.621	1070.75
423.843	1084.75
424.066	1081.75
424.288	1049.75
424.511	1027.75
424.733	1010.75
424.956	984.75
425.178	1011.75
425.401	985.75
425.623	969.75
425.846	962.75
426.068	930.75
426.291	908.75
426.513	932.75
426.735	920.75
426.958	924.75
427.18	898.75
427.402	870.75
427.625	899.75
427.847	860.75
428.069	873.75
428.292	883.75
428.514	847.75
428.736	847.75
428.958	873.75
429.181	855.75
429.403	839.75
429.625	840.75
429.847	843.75
430.069	829.75
430.292	864.75
430.514	812.75
430.736	843.75
430.958	820.75
431.18	817.75
431.402	838.75
431.624	859.75
431.846	865.75
432.068	910.75
432.29	919.75
432.512	873.75
432.734	851.75
432.956	855.75
433.178	853.75
433.4	866.75
433.622	861.75
433.844	865.75
434.066	866.75
434.287	899.75
434.509	910.75
434.731	925.75
434.953	975.75
435.175	1012.75
435.397	991.75
435.618	933.75
435.84	896.75
436.062	876.75
436.284	885.75
436.505	863.75
436.727	865.75
436.949	857.75
437.17	863.75
437.392	859.75
437.614	832.75
437.835	823.75
438.057	830.75
438.278	829.75
438.5	820.75
438.721	848.75
438.943	856.75
439.165	833.75
439.386	859.75
439.608	861.75
439.829	863.75
440.05	854.75
440.272	855.75
440.493	897.75
440.715	895.75
440.936	884.75
441.158	903.75
441.379	925.75
441.6	981.75
441.822	1037.75
442.043	1014.75
442.264	985.75
442.486	943.75
442.707	977.75
442.928	938.75
443.149	967.75
443.371	974.75
443.592	951.75
443.813	994.75
444.034	1007.75
444.255	1023.75
444.476	1057.75
444.698	1157.75
444.919	1197.75
445.14	1238.75
445.361	1083.75
445.582	981.75
445.803	950.75
446.024	913.75
446.245	915.75
446.466	916.75
446.687	848.75
446.908	890.75
447.129	822.75
447.35	832.75
447.571	836.75
447.792	813.75
448.013	815.75
448.234	808.75
448.455	795.75
448.675	802.75
448.896	817.75
449.117	805.75
449.338	809.75
449.559	772.75
449.779	767.75
450	777.75
450.221	785.75
450.442	780.75
450.662	821.75
450.883	817.75
451.104	820.75
451.324	826.75
451.545	832.75
451.766	829.75
451.986	821.75
452.207	786.75
452.428	813.75
452.648	796.75
452.869	787.75
453.089	784.75
453.31	784.75
453.53	775.75
453.751	786.75
453.971	795.75
454.192	769.75
454.412	737.75
454.633	770.75
454.853	754.75
455.073	740.75
455.294	769.75
455.514	742.75
455.734	753.75
455.955	748.75
456.175	747.75
456.395	767.75
456.616	728.75
456.836	717.75
457.056	736.75
457.276	733.75
457.497	744.75
457.717	721.75
457.937	756.75
458.157	775.75
458.377	749.75
458.598	779.75
458.818	800.75
459.038	813.75
459.258	857.75
459.478	882.75
459.698	894.75
459.918	920.75
460.138	970.75
460.358	1023.75
460.578	1048.75
460.798	1034.75
461.018	1043.75
461.238	1013.75
461.458	1031.75
461.678	1037.75
461.898	1053.75
462.118	1044.75
462.338	1105.75
462.558	1132.75
462.777	1177.75
462.997	1286.75
463.217	1443.75
463.437	1446.75
463.657	1269.75
463.876	1223.75
464.096	1242.75
464.316	1214.75
464.536	1257.75
464.755	1160.75
464.975	1096.75
465.195	1099.75
465.414	1016.75
465.634	923.75
465.854	907.75
466.073	904.75
466.293	882.75
466.512	852.75
466.732	844.75
466.951	810.75
467.171	835.75
467.391	860.75
467.61	822.75
467.829	825.75
468.049	839.75
468.268	811.75
468.488	776.75
468.707	784.75
468.927	800.75
469.146	824.75
469.365	823.75
469.585	792.75
469.804	844.75
470.023	850.75
470.243	870.75
470.462	854.75
470.681	864.75
470.901	873.75
471.12	848.75
471.339	852.75
471.558	826.75
471.777	808.75
471.997	795.75
472.216	793.75
472.435	780.75
472.654	799.75
472.873	764.75
473.092	753.75
473.311	779.75
473.53	771.75
473.749	771.75
473.968	772.75
474.187	772.75
474.406	776.75
474.625	778.75
474.844	778.75
475.063	788.75
475.282	779.75
475.501	787.75
475.72	808.75
475.939	812.75
476.158	796.75
476.377	794.75
476.596	789.75
476.814	839.75
477.033	802.75
477.252	838.75
477.471	852.75
477.69	856.75
477.908	886.75
478.127	903.75
478.346	908.75
478.564	942.75
478.783	981.75
479.002	963.75
479.22	988.75
479.439	955.75
479.658	941.75
479.876	954.75
480.095	988.75
480.313	1041.75
480.532	1079.75
480.751	1092.75
480.969	1016.75
481.188	983.75
481.406	926.75
481.624	934.75
481.843	889.75
482.061	866.75
482.28	882.75
482.498	863.75
482.717	870.75
482.935	852.75
483.153	891.75
483.372	851.75
483.59	864.75
483.808	881.75
484.027	875.75
484.245	896.75
484.463	907.75
484.681	908.75
484.9	935.75
485.118	949.75
485.336	911.75
485.554	925.75
485.772	924.75
485.99	941.75
486.209	905.75
486.427	925.75
486.645	923.75
486.863	921.75
487.081	954.75
487.299	921.75
487.517	923.75
487.735	906.75
487.953	916.75
488.171	921.75
488.389	930.75
488.607	899.75
488.825	895.75
489.043	895.75
489.261	891.75
489.479	907.75
489.696	916.75
489.914	948.75
490.132	940.75
490.35	895.75
490.568	931.75
490.786	912.75
491.003	923.75
491.221	933.75
491.439	886.75
491.657	907.75
491.874	916.75
492.092	949.75
492.31	932.75
492.527	913.75
492.745	907.75
492.963	930.75
493.18	935.75
493.398	958.75
493.615	970.75
493.833	995.75
494.05	980.75
494.268	980.75
494.485	971.75
494.703	963.75
494.92	1002.75
495.138	955.75
495.355	939.75
495.573	963.75
495.79	978.75
496.008	987.75
496.225	983.75
496.442	974.75
496.66	995.75
496.877	1021.75
497.094	1040.75
497.312	1087.75
497.529	1104.75
497.746	1109.75
497.963	1116.75
498.181	1178.75
498.398	1257.75
498.615	1312.75
498.832	1371.75
499.049	1509.75
499.267	1608.75
499.484	1821.75
499.701	2028.75
499.918	2263.75
500.135	2637.75
500.352	3057.75
500.569	3225.75
500.786	3139.75
501.003	2901.75
501.22	2524.75
501.437	2217.75
501.654	1919.75
501.871	1699.75
502.088	1560.75
502.305	1476.75
502.522	1417.75
502.739	1347.75
502.956	1292.75
503.172	1177.75
503.389	1177.75
503.606	1119.75
503.823	1116.75
504.04	1095.75
504.256	1109.75
504.473	1153.75
504.69	1203.75
504.907	1148.75
505.123	1093.75
505.34	1033.75
505.557	980.75
505.773	953.75
505.99	926.75
506.207	919.75
506.423	902.75
506.64	897.75
506.856	862.75
507.073	855.75
507.289	900.75
507.506	867.75
507.722	857.75
507.939	839.75
508.155	852.75
508.372	860.75
508.588	821.75
508.805	827.75
509.021	843.75
509.238	828.75
509.454	788.75
509.67	794.75
509.887	811.75
510.103	776.75
510.319	780.75
510.536	803.75
510.752	797.75
510.968	800.75
511.184	785.75
511.401	780.75
511.617	795.75
511.833	767.75
512.049	757.75
512.265	805.75
512.481	788.75
512.698	790.75
512.914	781.75
513.13	781.75
513.346	751.75
513.562	812.75
513.778	793.75
513.994	777.75
514.21	811.75
514.426	797.75
514.642	804.75
514.858	811.75
515.074	811.75
515.29	793.75
515.506	836.75
515.721	831.75
515.937	856.75
516.153	846.75
516.369	887.75
516.585	897.75
516.801	947.75
517.016	975.75
517.232	1030.75
517.448	1107.75
517.664	1151.75
517.879	1114.75
518.095	1129.75
518.311	1101.75
518.527	1055.75
518.742	995.75
518.958	952.75
519.173	938.75
519.389	899.75
519.605	872.75
519.82	849.75
520.036	834.75
520.251	821.75
520.467	805.75
520.682	799.75
520.898	793.75
521.113	795.75
521.329	779.75
521.544	768.75
521.76	787.75
521.975	749.75
522.19	739.75
522.406	753.75
522.621	732.75
522.836	756.75
523.052	747.75
523.267	737.75
523.482	779.75
523.698	730.75
523.913	723.75
524.128	705.75
524.343	729.75
524.559	741.75
524.774	718.75
524.989	716.75
525.204	713.75
525.419	708.75
525.634	716.75
525.849	725.75
526.064	712.75
526.28	719.75
526.495	716.75
526.71	705.75
526.925	710.75
527.14	713.75
527.355	720.75
527.57	728.75
527.785	697.75
527.999	708.75
528.214	730.75
528.429	725.75
528.644	715.75
528.859	728.75
529.074	709.75
529.289	695.75
529.503	700.75
529.718	746.75
529.933	698.75
530.148	709.75
530.363	704.75
530.577	704.75
530.792	692.75
531.007	706.75
531.221	682.75
531.436	700.75
531.651	720.75
531.865	714.75
532.08	705.75
532.295	735.75
532.509	723.75
532.724	706.75
532.938	715.75
533.153	707.75
533.367	704.75
533.582	714.75
533.796	684.75
534.011	704.75
534.225	717.75
534.44	716.75
534.654	709.75
534.868	709.75
535.083	694.75
535.297	689.75
535.511	700.75
535.726	679.75
535.94	677.75
536.154	665.75
536.369	697.75
536.583	672.75
536.797	657.75
537.011	654.75
537.225	664.75
537.44	645.75
537.654	651.75
537.868	651.75
538.082	632.75
538.296	642.75
538.51	666.75
538.724	663.75
538.938	645.75
539.153	638.75
539.367	653.75
539.581	651.75
539.795	636.75
540.009	620.75
540.222	653.75
540.436	633.75
540.65	641.75
540.864	640.75
541.078	651.75
541.292	635.75
541.506	648.75
541.72	636.75
541.934	627.75
542.147	646.75
542.361	629.75
542.575	635.75
542.789	633.75
543.002	625.75
543.216	607.75
543.43	609.75
543.644	616.75
543.857	643.75
544.071	636.75
544.285	627.75
544.498	638.75
544.712	600.75
544.925	629.75
545.139	652.75
545.352	662.75
545.566	643.75
545.779	645.75
545.993	654.75
546.206	676.75
546.42	674.75
546.633	673.75
546.847	615.75
547.06	626.75
547.274	645.75
547.487	644.75
547.7	638.75
547.914	671.75
548.127	687.75
548.34	672.75
548.554	677.75
548.767	672.75
548.98	632.75
549.193	651.75
549.407	633.75
549.62	674.75
549.833	689.75
550.046	698.75
550.259	665.75
550.473	635.75
550.686	630.75
550.899	651.75
551.112	653.75
551.325	623.75
551.538	613.75
551.751	643.75
551.964	661.75
552.177	642.75
552.39	648.75
552.603	655.75
552.816	675.75
553.029	691.75
553.242	731.75
553.455	732.75
553.667	744.75
553.88	727.75
554.093	721.75
554.306	684.75
554.519	649.75
554.732	634.75
554.944	628.75
555.157	631.75
555.37	628.75
555.583	608.75
555.795	602.75
556.008	598.75
556.221	589.75
556.433	565.75
556.646	564.75
556.859	570.75
557.071	576.75
557.284	577.75
557.496	567.75
557.709	569.75
557.921	569.75
558.134	549.75
558.346	533.75
558.559	572.75
558.771	546.75
558.984	535.75
559.196	535.75
559.409	546.75
559.621	556.75
559.833	559.75
560.046	559.75
560.258	516.75
560.47	519.75
560.683	531.75
560.895	533.75
561.107	527.75
561.32	543.75
561.532	548.75
561.744	552.75
561.956	543.75
562.168	536.75
562.381	528.75
562.593	528.75
562.805	543.75
563.017	549.75
563.229	551.75
563.441	535.75
563.653	514.75
563.865	552.75
564.077	538.75
564.289	561.75
564.501	559.75
564.713	584.75
564.925	587.75
565.137	580.75
565.349	594.75
565.561	634.75
565.773	647.75
565.985	628.75
566.197	663.75
566.408	765.75
566.62	846.75
566.832	924.75
567.044	922.75
567.255	924.75
567.467	956.75
567.679	984.75
567.891	1082.75
568.102	1124.75
568.314	1073.75
568.526	934.75
568.737	840.75
568.949	783.75
569.161	713.75
569.372	635.75
569.584	631.75
569.795	568.75
570.007	573.75
570.218	578.75
570.43	546.75
570.641	555.75
570.853	564.75
571.064	577.75
571.276	581.75
571.487	539.75
571.698	546.75
571.91	512.75
572.121	491.75
572.333	489.75
572.544	489.75
572.755	474.75
572.966	459.75
573.178	466.75
573.389	451.75
573.6	451.75
573.811	445.75
574.023	448.75
574.234	450.75
574.445	466.75
574.656	448.75
574.867	455.75
575.078	442.75
575.289	440.75
575.501	428.75
575.712	461.75
575.923	442.75
576.134	428.75
576.345	428.75
576.556	454.75
576.767	432.75
576.978	411.75
577.188	405.75
577.399	408.75
577.61	425.75
577.821	410.75
578.032	403.75
578.243	405.75
578.454	409.75
578.665	400.75
578.875	388.75
579.086	410.75
579.297	407.75
579.508	389.75
579.718	403.75
579.929	390.75
580.14	386.75
580.35	374.75
580.561	392.75
580.772	393.75
580.982	384.75
581.193	396.75
581.403	381.75
581.614	395.75
581.825	384.75
582.035	370.75
582.246	383.75
582.456	389.75
582.667	387.75
582.877	379.75
583.087	358.75
583.298	379.75
583.508	365.75
583.719	372.75
583.929	377.75
584.139	376.75
584.35	357.75
584.56	375.75
584.77	380.75
584.981	371.75
585.191	361.75
585.401	371.75
585.611	364.75
585.821	391.75
586.032	357.75
586.242	352.75
586.452	352.75
586.662	360.75
586.872	363.75
587.082	342.75
587.292	359.75
587.502	370.75
587.713	371.75
587.923	356.75
588.133	355.75
588.343	363.75
588.553	360.75
588.762	373.75
588.972	369.75
589.182	358.75
589.392	375.75
589.602	345.75
589.812	373.75
590.022	376.75
590.232	348.75
590.441	375.75
590.651	376.75
590.861	376.75
591.071	369.75
591.281	374.75
591.49	381.75
591.7	371.75
591.91	385.75
592.119	387.75
592.329	397.75
592.539	403.75
592.748	439.75
592.958	449.75
593.167	435.75
593.377	486.75
593.587	460.75
593.796	474.75
594.006	488.75
594.215	495.75
594.424	467.75
594.634	465.75
594.843	448.75
595.053	427.75
595.262	416.75
595.472	392.75
595.681	366.75
595.89	365.75
596.1	371.75
596.309	377.75
596.518	356.75
596.727	346.75
596.937	354.75
597.146	329.75
597.355	334.75
597.564	346.75
597.774	312.75
597.983	317.75
598.192	309.75
598.401	324.75
598.61	308.75
598.819	321.75
599.028	299.75
599.237	305.75
599.446	340.75
599.655	316.75
599.864	298.75
600.073	319.75
600.282	300.75
600.491	322.75
600.7	311.75
600.909	299.75
601.118	319.75
601.327	288.75
601.536	300.75
601.745	300.75
601.953	316.75
602.162	305.75
602.371	296.75
602.58	296.75
602.789	299.75
602.997	289.75
603.206	309.75
603.415	308.75
603.623	292.75
603.832	295.75
604.041	297.75
604.249	280.75
604.458	281.75
604.666	267.75
604.875	293.75
605.084	294.75
605.292	271.75
605.501	293.75
605.709	287.75
605.918	279.75
606.126	268.75
606.334	297.75
606.543	273.75
606.751	260.75
606.96	288.75
607.168	267.75
607.376	275.75
607.585	279.75
607.793	272.75
608.001	275.75
608.21	276.75
608.418	266.75
608.626	263.75
608.834	287.75
609.043	275.75
609.251	269.75
609.459	281.75
609.667	269.75
609.875	280.75
610.083	277.75
610.291	273.75
610.499	275.75
610.707	282.75
610.916	283.75
611.124	263.75
611.332	264.75
611.54	269.75
611.748	285.75
611.955	276.75
612.163	263.75
612.371	241.75
612.579	270.75
612.787	270.75
612.995	263.75
613.203	244.75
613.411	250.75
613.618	255.75
613.826	253.75
614.034	252.75
614.242	272.75
614.449	265.75
614.657	250.75
614.865	261.75
615.072	265.75
615.28	252.75
615.488	272.75
615.695	264.75
615.903	269.75
616.111	252.75
616.318	294.75
616.526	259.75
616.733	270.75
616.941	262.75
617.148	265.75
617.356	272.75
617.563	277.75
617.771	286.75
617.978	262.75
618.185	292.75
618.393	284.75
618.6	264.75
618.807	258.75
619.015	271.75
619.222	265.75
619.429	251.75
619.637	271.75
619.844	272.75
620.051	247.75
620.258	237.75
620.466	252.75
620.673	235.75
620.88	251.75
621.087	245.75
621.294	261.75
621.501	255.75
621.708	240.75
621.915	236.75
622.122	221.75
622.329	247.75
622.536	252.75
622.743	235.75
622.95	231.75
623.157	239.75
623.364	242.75
623.571	242.75
623.778	241.75
623.985	251.75
624.192	239.75
624.399	215.75
624.606	252.75
624.812	222.75
625.019	231.75
625.226	229.75
625.433	225.75
625.639	228.75
625.846	245.75
626.053	239.75
626.259	226.75
626.466	224.75
626.673	217.75
626.879	240.75
627.086	229.75
627.293	212.75
627.499	218.75
627.706	247.75
627.912	219.75
628.119	234.75
628.325	227.75
628.532	236.75
628.738	217.75
628.945	211.75
629.151	218.75
629.357	219.75
629.564	206.75
629.77	221.75
629.976	211.75
630.183	227.75
630.389	220.75
630.595	216.75
630.802	216.75
631.008	214.75
631.214	210.75
631.42	210.75
631.627	213.75
631.833	212.75
632.039	196.75
632.245	209.75
632.451	198.75
632.657	189.75
632.863	214.75
633.069	193.75
633.275	210.75
633.481	218.75
633.688	203.75
633.893	208.75
634.099	193.75
634.305	195.75
634.511	196.75
634.717	192.75
634.923	192.75
635.129	192.75
635.335	198.75
635.541	195.75
635.747	193.75
635.952	194.75
636.158	200.75
636.364	182.75
636.57	214.75
636.775	185.75
636.981	187.75
637.187	181.75
637.392	183.75
637.598	194.75
637.804	198.75
638.009	204.75
638.215	197.75
638.421	197.75
638.626	203.75
638.832	195.75
639.037	182.75
639.243	193.75
639.448	192.75
639.654	212.75
639.859	173.75
640.065	188.75
640.27	174.75
640.475	179.75
640.681	187.75
640.886	177.75
641.091	202.75
641.297	209.75
641.502	180.75
641.707	175.75
641.913	167.75
642.118	180.75
642.323	181.75
642.528	176.75
642.733	195.75
642.939	170.75
643.144	167.75
643.349	193.75
643.554	181.75
643.759	186.75
643.964	192.75
644.169	187.75
644.374	188.75
644.579	195.75
644.784	191.75
644.989	172.75
645.194	169.75
645.399	168.75
645.604	176.75
645.809	202.75
646.014	164.75
646.219	171.75
646.423	176.75
646.628	192.75
646.833	179.75
647.038	177.75
647.243	181.75
647.447	195.75
647.652	184.75
647.857	183.75
648.062	199.75
648.266	197.75
648.471	192.75
648.676	182.75
648.88	183.75
649.085	179.75
649.289	195.75
649.494	184.75
649.698	179.75
649.903	164.75
650.107	175.75
650.312	165.75
650.516	177.75
650.721	172.75
650.925	163.75
651.13	173.75
651.334	178.75
651.539	181.75
651.743	166.75
651.947	154.75
652.152	155.75
652.356	141.75
652.56	140.75
652.764	151.75
652.969	149.75
653.173	153.75
653.377	150.75
653.581	135.75
653.785	121.75
653.99	139.75
654.194	138.75
654.398	139.75
654.602	141.75
654.806	135.75
655.01	147.75
655.214	131.75
655.418	128.75
655.622	129.75
655.826	132.75
656.03	151.75
656.234	137.75
656.438	136.75
656.642	134.75
656.846	132.75
657.049	124.75
657.253	132.75
657.457	115.75
657.661	112.75
657.865	125.75
658.068	104.75
658.272	112.75
658.476	101.75
658.68	103.75
658.883	92.75
659.087	95.75
659.291	104.75
659.494	98.75
659.698	103.75
659.901	114.75
660.105	100.75
660.309	100.75
660.512	96.75
660.716	92.75
660.919	96.75
661.123	101.75
661.326	112.75
661.53	85.75
661.733	83.75
661.936	89.75
662.14	83.75
662.343	82.75
662.546	74.75
662.75	93.75
662.953	87.75
663.156	72.75
663.36	92.75
663.563	93.75
663.766	89.75
663.969	77.75
664.173	73.75
664.376	77.75
664.579	87.75
664.782	85.75
664.985	77.75
665.188	81.75
665.391	84.75
665.594	81.75
665.797	81.75
666	90.75
666.203	89.75
666.406	91.75
666.609	86.75
666.812	87.75
667.015	83.75
667.218	71.75
667.421	96.75
667.624	98.75
667.827	84.75
668.03	99.75
668.232	77.75
668.435	85.75
668.638	82.75
668.841	75.75
669.043	85.75
669.246	87.75
669.449	75.75
669.651	97.75
669.854	93.75
670.057	83.75
670.259	84.75
670.462	97.75
670.665	71.75
670.867	97.75
671.07	81.75
671.272	80.75
671.475	80.75
671.677	65.75
671.88	74.75
672.082	71.75
672.284	80.75
672.487	91.75
672.689	85.75
672.892	98.75
