Data from Ni(NO3)2@0.125M.TitratingCurve.Agarose3%dH2O.NegLispCup.LampEnergy10.LIBS07252019_HRD10591_18-11-04-568.txt Node
Date: Thu Jul 25 18:11:04 EDT 2019
User: cochatt
Spectrometer: HR+D1059
Trigger mode: 1
Integration Time (sec): 1.000000E-1
Scans to average: 1
Electric dark correction enabled: true
Nonlinearity correction enabled: false
Boxcar width: 0
XAxis mode: Wavelengths
Number of Pixels in Spectrum: 2048
>>>>>Begin Spectral Data<<<<<
223.165	-10.19
223.4	-10.19
223.635	-10.19
223.869	-24.19
224.104	-22.19
224.338	-14.19
224.573	-13.19
224.808	-10.19
225.042	-4.19
225.277	-13.19
225.511	-12.19
225.746	5.81
225.98	11.81
226.215	14.81
226.449	19.81
226.683	12.81
226.918	22.81
227.152	35.81
227.387	31.81
227.621	38.81
227.856	40.81
228.09	37.81
228.324	62.81
228.559	60.81
228.793	72.81
229.027	102.81
229.262	118.81
229.496	110.81
229.73	119.81
229.964	123.81
230.199	121.81
230.433	126.81
230.667	133.81
230.901	131.81
231.136	134.81
231.37	135.81
231.604	141.81
231.838	137.81
232.072	138.81
232.306	138.81
232.541	149.81
232.775	130.81
233.009	141.81
233.243	147.81
233.477	156.81
233.711	160.81
233.945	140.81
234.179	151.81
234.413	155.81
234.647	155.81
234.881	155.81
235.115	148.81
235.349	162.81
235.583	140.81
235.817	151.81
236.051	149.81
236.285	158.81
236.519	163.81
236.753	161.81
236.987	159.81
237.221	181.81
237.455	148.81
237.689	163.81
237.922	159.81
238.156	154.81
238.39	168.81
238.624	178.81
238.858	168.81
239.091	163.81
239.325	182.81
239.559	176.81
239.793	158.81
240.027	168.81
240.26	176.81
240.494	186.81
240.728	182.81
240.961	168.81
241.195	169.81
241.429	183.81
241.662	191.81
241.896	211.81
242.13	191.81
242.363	204.81
242.597	202.81
242.83	192.81
243.064	195.81
243.298	183.81
243.531	196.81
243.765	195.81
243.998	199.81
244.232	210.81
244.465	204.81
244.699	199.81
244.932	207.81
245.166	223.81
245.399	217.81
245.633	219.81
245.866	221.81
246.099	224.81
246.333	238.81
246.566	218.81
246.8	216.81
247.033	227.81
247.266	221.81
247.5	231.81
247.733	219.81
247.966	230.81
248.2	212.81
248.433	228.81
248.666	247.81
248.899	239.81
249.133	238.81
249.366	252.81
249.599	235.81
249.832	238.81
250.066	272.81
250.299	230.81
250.532	254.81
250.765	256.81
250.998	232.81
251.231	263.81
251.465	280.81
251.698	261.81
251.931	244.81
252.164	244.81
252.397	244.81
252.63	269.81
252.863	274.81
253.096	276.81
253.329	279.81
253.562	287.81
253.795	280.81
254.028	283.81
254.261	269.81
254.494	279.81
254.727	281.81
254.96	268.81
255.193	284.81
255.426	294.81
255.659	292.81
255.892	290.81
256.124	287.81
256.357	296.81
256.59	287.81
256.823	308.81
257.056	297.81
257.289	307.81
257.521	318.81
257.754	286.81
257.987	299.81
258.22	333.81
258.452	316.81
258.685	321.81
258.918	322.81
259.151	307.81
259.383	305.81
259.616	302.81
259.849	307.81
260.081	335.81
260.314	325.81
260.547	307.81
260.779	314.81
261.012	332.81
261.244	319.81
261.477	341.81
261.71	327.81
261.942	331.81
262.175	338.81
262.407	331.81
262.64	345.81
262.872	336.81
263.105	340.81
263.337	343.81
263.57	342.81
263.802	358.81
264.035	355.81
264.267	335.81
264.499	323.81
264.732	355.81
264.964	364.81
265.197	353.81
265.429	358.81
265.661	335.81
265.894	346.81
266.126	370.81
266.358	361.81
266.591	366.81
266.823	378.81
267.055	382.81
267.287	362.81
267.52	370.81
267.752	374.81
267.984	378.81
268.216	374.81
268.448	388.81
268.681	376.81
268.913	354.81
269.145	378.81
269.377	367.81
269.609	376.81
269.841	355.81
270.073	384.81
270.306	392.81
270.538	385.81
270.77	378.81
271.002	384.81
271.234	374.81
271.466	391.81
271.698	386.81
271.93	380.81
272.162	387.81
272.394	408.81
272.626	390.81
272.858	404.81
273.09	415.81
273.322	389.81
273.553	401.81
273.785	414.81
274.017	408.81
274.249	387.81
274.481	427.81
274.713	413.81
274.945	409.81
275.176	417.81
275.408	425.81
275.64	415.81
275.872	434.81
276.104	419.81
276.335	413.81
276.567	420.81
276.799	440.81
277.031	433.81
277.262	440.81
277.494	432.81
277.726	434.81
277.957	435.81
278.189	425.81
278.421	426.81
278.652	444.81
278.884	432.81
279.115	451.81
279.347	443.81
279.579	446.81
279.81	454.81
280.042	459.81
280.273	468.81
280.505	449.81
280.736	464.81
280.968	469.81
281.199	460.81
281.431	452.81
281.662	481.81
281.894	475.81
282.125	479.81
282.356	477.81
282.588	476.81
282.819	488.81
283.051	481.81
283.282	462.81
283.513	475.81
283.745	483.81
283.976	504.81
284.207	483.81
284.439	485.81
284.67	460.81
284.901	495.81
285.132	488.81
285.364	486.81
285.595	513.81
285.826	487.81
286.057	491.81
286.288	494.81
286.52	510.81
286.751	522.81
286.982	531.81
287.213	518.81
287.444	501.81
287.675	510.81
287.906	525.81
288.138	512.81
288.369	516.81
288.6	512.81
288.831	531.81
289.062	539.81
289.293	538.81
289.524	527.81
289.755	528.81
289.986	528.81
290.217	536.81
290.448	536.81
290.679	543.81
290.91	534.81
291.141	543.81
291.371	554.81
291.602	535.81
291.833	525.81
292.064	543.81
292.295	535.81
292.526	545.81
292.757	528.81
292.987	543.81
293.218	538.81
293.449	545.81
293.68	516.81
293.91	528.81
294.141	560.81
294.372	536.81
294.603	573.81
294.833	554.81
295.064	552.81
295.295	543.81
295.525	531.81
295.756	552.81
295.987	558.81
296.217	567.81
296.448	567.81
296.679	544.81
296.909	552.81
297.14	563.81
297.37	573.81
297.601	555.81
297.831	606.81
298.062	576.81
298.292	574.81
298.523	583.81
298.753	583.81
298.984	596.81
299.214	581.81
299.445	581.81
299.675	566.81
299.905	592.81
300.136	599.81
300.366	593.81
300.597	598.81
300.827	618.81
301.057	614.81
301.288	602.81
301.518	635.81
301.748	618.81
301.979	646.81
302.209	615.81
302.439	594.81
302.669	618.81
302.9	616.81
303.13	629.81
303.36	600.81
303.59	604.81
303.82	623.81
304.051	594.81
304.281	595.81
304.511	593.81
304.741	584.81
304.971	609.81
305.201	598.81
305.431	603.81
305.661	610.81
305.891	613.81
306.121	605.81
306.352	605.81
306.582	617.81
306.812	574.81
307.042	598.81
307.272	584.81
307.502	619.81
307.731	598.81
307.961	582.81
308.191	575.81
308.421	580.81
308.651	601.81
308.881	613.81
309.111	583.81
309.341	572.81
309.571	598.81
309.8	566.81
310.03	611.81
310.26	611.81
310.49	603.81
310.72	616.81
310.949	612.81
311.179	611.81
311.409	615.81
311.639	608.81
311.868	618.81
312.098	595.81
312.328	613.81
312.557	619.81
312.787	619.81
313.017	636.81
313.246	649.81
313.476	630.81
313.706	642.81
313.935	650.81
314.165	644.81
314.394	638.81
314.624	673.81
314.853	636.81
315.083	676.81
315.312	666.81
315.542	647.81
315.771	658.81
316.001	639.81
316.23	654.81
316.46	618.81
316.689	640.81
316.919	625.81
317.148	626.81
317.377	627.81
317.607	634.81
317.836	623.81
318.065	613.81
318.295	638.81
318.524	642.81
318.753	642.81
318.983	617.81
319.212	614.81
319.441	633.81
319.67	633.81
319.9	624.81
320.129	629.81
320.358	629.81
320.587	632.81
320.816	648.81
321.046	628.81
321.275	638.81
321.504	652.81
321.733	659.81
321.962	645.81
322.191	650.81
322.42	650.81
322.649	638.81
322.878	632.81
323.108	646.81
323.337	650.81
323.566	672.81
323.795	681.81
324.024	661.81
324.253	673.81
324.482	659.81
324.71	649.81
324.939	664.81
325.168	690.81
325.397	666.81
325.626	658.81
325.855	689.81
326.084	729.81
326.313	706.81
326.542	671.81
326.77	712.81
326.999	700.81
327.228	703.81
327.457	688.81
327.686	694.81
327.914	703.81
328.143	708.81
328.372	698.81
328.6	716.81
328.829	726.81
329.058	699.81
329.287	699.81
329.515	697.81
329.744	723.81
329.972	720.81
330.201	708.81
330.43	723.81
330.658	726.81
330.887	735.81
331.115	771.81
331.344	754.81
331.572	755.81
331.801	766.81
332.03	811.81
332.258	792.81
332.486	833.81
332.715	848.81
332.943	889.81
333.172	923.81
333.4	934.81
333.629	976.81
333.857	966.81
334.085	987.81
334.314	975.81
334.542	935.81
334.771	946.81
334.999	902.81
335.227	905.81
335.455	913.81
335.684	868.81
335.912	894.81
336.14	862.81
336.369	853.81
336.597	850.81
336.825	854.81
337.053	844.81
337.281	843.81
337.51	816.81
337.738	831.81
337.966	805.81
338.194	810.81
338.422	782.81
338.65	774.81
338.878	773.81
339.106	776.81
339.334	753.81
339.562	765.81
339.79	760.81
340.018	748.81
340.246	715.81
340.474	765.81
340.702	743.81
340.93	750.81
341.158	761.81
341.386	751.81
341.614	756.81
341.842	766.81
342.07	746.81
342.298	741.81
342.526	731.81
342.754	746.81
342.981	729.81
343.209	740.81
343.437	789.81
343.665	861.81
343.893	914.81
344.12	960.81
344.348	910.81
344.576	854.81
344.804	800.81
345.031	774.81
345.259	766.81
345.487	750.81
345.714	752.81
345.942	736.81
346.17	752.81
346.397	728.81
346.625	725.81
346.853	715.81
347.08	709.81
347.308	721.81
347.535	713.81
347.763	717.81
347.99	728.81
348.218	729.81
348.445	723.81
348.673	705.81
348.9	707.81
349.128	730.81
349.355	695.81
349.583	707.81
349.81	716.81
350.037	727.81
350.265	706.81
350.492	726.81
350.72	723.81
350.947	682.81
351.174	699.81
351.402	704.81
351.629	669.81
351.856	688.81
352.083	678.81
352.311	677.81
352.538	690.81
352.765	690.81
352.992	707.81
353.22	659.81
353.447	683.81
353.674	717.81
353.901	675.81
354.128	691.81
354.355	698.81
354.583	699.81
354.81	703.81
355.037	701.81
355.264	695.81
355.491	681.81
355.718	686.81
355.945	694.81
356.172	716.81
356.399	695.81
356.626	704.81
356.853	696.81
357.08	674.81
357.307	680.81
357.534	720.81
357.761	682.81
357.988	688.81
358.215	693.81
358.441	673.81
358.668	689.81
358.895	690.81
359.122	683.81
359.349	689.81
359.576	708.81
359.802	713.81
360.029	698.81
360.256	694.81
360.483	702.81
360.709	691.81
360.936	692.81
361.163	700.81
361.39	705.81
361.616	694.81
361.843	695.81
362.07	684.81
362.296	677.81
362.523	684.81
362.749	696.81
362.976	695.81
363.203	699.81
363.429	707.81
363.656	678.81
363.882	706.81
364.109	679.81
364.335	699.81
364.562	695.81
364.788	672.81
365.015	669.81
365.241	676.81
365.468	665.81
365.694	702.81
365.92	674.81
366.147	692.81
366.373	667.81
366.599	697.81
366.826	678.81
367.052	682.81
367.278	691.81
367.505	670.81
367.731	683.81
367.957	707.81
368.184	702.81
368.41	723.81
368.636	721.81
368.862	717.81
369.089	702.81
369.315	710.81
369.541	712.81
369.767	719.81
369.993	719.81
370.219	705.81
370.445	717.81
370.672	728.81
370.898	752.81
371.124	744.81
371.35	747.81
371.576	767.81
371.802	739.81
372.028	771.81
372.254	752.81
372.48	766.81
372.706	808.81
372.932	782.81
373.158	771.81
373.384	757.81
373.61	752.81
373.835	772.81
374.061	786.81
374.287	776.81
374.513	776.81
374.739	786.81
374.965	830.81
375.191	836.81
375.416	827.81
375.642	809.81
375.868	808.81
376.094	818.81
376.319	757.81
376.545	755.81
376.771	764.81
376.997	753.81
377.222	743.81
377.448	779.81
377.674	752.81
377.899	720.81
378.125	734.81
378.35	738.81
378.576	722.81
378.802	727.81
379.027	752.81
379.253	741.81
379.478	735.81
379.704	732.81
379.929	731.81
380.155	711.81
380.38	712.81
380.606	742.81
380.831	730.81
381.057	730.81
381.282	743.81
381.507	755.81
381.733	775.81
381.958	746.81
382.184	752.81
382.409	760.81
382.634	787.81
382.86	812.81
383.085	790.81
383.31	826.81
383.535	838.81
383.761	872.81
383.986	843.81
384.211	899.81
384.436	882.81
384.662	883.81
384.887	890.81
385.112	908.81
385.337	916.81
385.562	925.81
385.787	912.81
386.013	933.81
386.238	892.81
386.463	934.81
386.688	913.81
386.913	914.81
387.138	881.81
387.363	890.81
387.588	901.81
387.813	910.81
388.038	908.81
388.263	926.81
388.488	903.81
388.713	905.81
388.938	896.81
389.163	879.81
389.387	889.81
389.612	911.81
389.837	864.81
390.062	919.81
390.287	895.81
390.512	887.81
390.736	893.81
390.961	902.81
391.186	932.81
391.411	943.81
391.636	995.81
391.86	1041.81
392.085	1003.81
392.31	1007.81
392.534	1000.81
392.759	950.81
392.984	968.81
393.208	959.81
393.433	977.81
393.658	936.81
393.882	937.81
394.107	955.81
394.331	988.81
394.556	966.81
394.78	967.81
395.005	963.81
395.229	993.81
395.454	971.81
395.678	1042.81
395.903	1042.81
396.127	990.81
396.352	980.81
396.576	953.81
396.801	950.81
397.025	960.81
397.249	967.81
397.474	1016.81
397.698	1010.81
397.922	1024.81
398.147	1020.81
398.371	1032.81
398.595	1036.81
398.82	1130.81
399.044	1195.81
399.268	1346.81
399.492	1548.81
399.717	1787.81
399.941	1782.81
400.165	1578.81
400.389	1385.81
400.613	1260.81
400.837	1218.81
401.062	1196.81
401.286	1166.81
401.51	1145.81
401.734	1119.81
401.958	1151.81
402.182	1155.81
402.406	1178.81
402.63	1212.81
402.854	1248.81
403.078	1244.81
403.302	1296.81
403.526	1292.81
403.75	1315.81
403.974	1348.81
404.198	1374.81
404.422	1317.81
404.645	1320.81
404.869	1322.81
405.093	1311.81
405.317	1252.81
405.541	1235.81
405.765	1268.81
405.988	1230.81
406.212	1258.81
406.436	1218.81
406.66	1306.81
406.883	1322.81
407.107	1385.81
407.331	1484.81
407.555	1467.81
407.778	1471.81
408.002	1446.81
408.226	1387.81
408.449	1323.81
408.673	1327.81
408.896	1320.81
409.12	1273.81
409.344	1326.81
409.567	1307.81
409.791	1267.81
410.014	1307.81
410.238	1307.81
410.461	1290.81
410.685	1269.81
410.908	1251.81
411.132	1212.81
411.355	1172.81
411.578	1185.81
411.802	1206.81
412.025	1184.81
412.249	1244.81
412.472	1183.81
412.695	1145.81
412.919	1139.81
413.142	1133.81
413.365	1131.81
413.589	1142.81
413.812	1082.81
414.035	1134.81
414.258	1116.81
414.482	1132.81
414.705	1153.81
414.928	1150.81
415.151	1145.81
415.374	1142.81
415.597	1117.81
415.821	1092.81
416.044	1113.81
416.267	1113.81
416.49	1105.81
416.713	1113.81
416.936	1109.81
417.159	1125.81
417.382	1137.81
417.605	1116.81
417.828	1101.81
418.051	1125.81
418.274	1138.81
418.497	1112.81
418.72	1157.81
418.943	1163.81
419.166	1263.81
419.389	1311.81
419.611	1288.81
419.834	1205.81
420.057	1204.81
420.28	1143.81
420.503	1114.81
420.726	1128.81
420.948	1123.81
421.171	1091.81
421.394	1129.81
421.617	1127.81
421.839	1126.81
422.062	1133.81
422.285	1115.81
422.507	1174.81
422.73	1150.81
422.953	1171.81
423.175	1201.81
423.398	1219.81
423.621	1194.81
423.843	1232.81
424.066	1240.81
424.288	1221.81
424.511	1203.81
424.733	1212.81
424.956	1174.81
425.178	1140.81
425.401	1126.81
425.623	1156.81
425.846	1078.81
426.068	1072.81
426.291	1075.81
426.513	1065.81
426.735	1058.81
426.958	1043.81
427.18	1012.81
427.402	1038.81
427.625	1010.81
427.847	978.81
428.069	1010.81
428.292	1000.81
428.514	991.81
428.736	979.81
428.958	1025.81
429.181	975.81
429.403	959.81
429.625	980.81
429.847	992.81
430.069	962.81
430.292	965.81
430.514	986.81
430.736	971.81
430.958	978.81
431.18	983.81
431.402	961.81
431.624	1006.81
431.846	1008.81
432.068	1007.81
432.29	997.81
432.512	958.81
432.734	995.81
432.956	972.81
433.178	998.81
433.4	1007.81
433.622	1010.81
433.844	1033.81
434.066	988.81
434.287	1026.81
434.509	1060.81
434.731	1112.81
434.953	1146.81
435.175	1158.81
435.397	1114.81
435.618	1096.81
435.84	1050.81
436.062	1041.81
436.284	1031.81
436.505	1022.81
436.727	1024.81
436.949	993.81
437.17	1018.81
437.392	1024.81
437.614	974.81
437.835	931.81
438.057	955.81
438.278	942.81
438.5	963.81
438.721	964.81
438.943	960.81
439.165	956.81
439.386	974.81
439.608	1014.81
439.829	977.81
440.05	992.81
440.272	991.81
440.493	990.81
440.715	1042.81
440.936	1006.81
441.158	1040.81
441.379	1119.81
441.6	1134.81
441.822	1149.81
442.043	1137.81
442.264	1099.81
442.486	1119.81
442.707	1105.81
442.928	1082.81
443.149	1098.81
443.371	1100.81
443.592	1128.81
443.813	1111.81
444.034	1164.81
444.255	1192.81
444.476	1251.81
444.698	1361.81
444.919	1396.81
445.14	1479.81
445.361	1291.81
445.582	1164.81
445.803	1108.81
446.024	1102.81
446.245	1063.81
446.466	1042.81
446.687	1010.81
446.908	1018.81
447.129	978.81
447.35	975.81
447.571	988.81
447.792	962.81
448.013	960.81
448.234	950.81
448.455	913.81
448.675	895.81
448.896	950.81
449.117	897.81
449.338	922.81
449.559	894.81
449.779	917.81
450	921.81
450.221	929.81
450.442	908.81
450.662	923.81
450.883	949.81
451.104	958.81
451.324	944.81
451.545	933.81
451.766	947.81
451.986	889.81
452.207	930.81
452.428	922.81
452.648	900.81
452.869	882.81
453.089	896.81
453.31	915.81
453.53	902.81
453.751	867.81
453.971	881.81
454.192	888.81
454.412	866.81
454.633	870.81
454.853	880.81
455.073	834.81
455.294	854.81
455.514	840.81
455.734	866.81
455.955	849.81
456.175	840.81
456.395	853.81
456.616	851.81
456.836	879.81
457.056	884.81
457.276	825.81
457.497	858.81
457.717	831.81
457.937	887.81
458.157	862.81
458.377	879.81
458.598	920.81
458.818	912.81
459.038	945.81
459.258	980.81
459.478	983.81
459.698	996.81
459.918	1067.81
460.138	1098.81
460.358	1169.81
460.578	1195.81
460.798	1200.81
461.018	1222.81
461.238	1183.81
461.458	1170.81
461.678	1154.81
461.898	1179.81
462.118	1164.81
462.338	1279.81
462.558	1332.81
462.777	1353.81
462.997	1487.81
463.217	1643.81
463.437	1706.81
463.657	1473.81
463.876	1389.81
464.096	1420.81
464.316	1393.81
464.536	1424.81
464.755	1339.81
464.975	1286.81
465.195	1247.81
465.414	1172.81
465.634	1094.81
465.854	1056.81
466.073	1003.81
466.293	993.81
466.512	988.81
466.732	973.81
466.951	955.81
467.171	970.81
467.391	982.81
467.61	957.81
467.829	970.81
468.049	930.81
468.268	912.81
468.488	932.81
468.707	908.81
468.927	935.81
469.146	915.81
469.365	927.81
469.585	939.81
469.804	962.81
470.023	978.81
470.243	955.81
470.462	976.81
470.681	984.81
470.901	1022.81
471.12	976.81
471.339	958.81
471.558	953.81
471.777	929.81
471.997	912.81
472.216	896.81
472.435	907.81
472.654	869.81
472.873	884.81
473.092	886.81
473.311	890.81
473.53	907.81
473.749	889.81
473.968	888.81
474.187	880.81
474.406	907.81
474.625	874.81
474.844	873.81
475.063	888.81
475.282	887.81
475.501	876.81
475.72	889.81
475.939	930.81
476.158	923.81
476.377	939.81
476.596	930.81
476.814	933.81
477.033	938.81
477.252	956.81
477.471	953.81
477.69	982.81
477.908	1010.81
478.127	1077.81
478.346	1065.81
478.564	1091.81
478.783	1100.81
479.002	1140.81
479.22	1134.81
479.439	1107.81
479.658	1088.81
479.876	1092.81
480.095	1112.81
480.313	1182.81
480.532	1203.81
480.751	1205.81
480.969	1148.81
481.188	1099.81
481.406	1081.81
481.624	1025.81
481.843	994.81
482.061	1025.81
482.28	1030.81
482.498	1001.81
482.717	999.81
482.935	986.81
483.153	1024.81
483.372	1020.81
483.59	1004.81
483.808	1008.81
484.027	1006.81
484.245	1062.81
484.463	1055.81
484.681	1068.81
484.9	1051.81
485.118	1091.81
485.336	1086.81
485.554	1098.81
485.772	1092.81
485.99	1079.81
486.209	1072.81
486.427	1083.81
486.645	1074.81
486.863	1087.81
487.081	1034.81
487.299	1095.81
487.517	1054.81
487.735	1098.81
487.953	1062.81
488.171	1083.81
488.389	1070.81
488.607	1038.81
488.825	1030.81
489.043	1056.81
489.261	1075.81
489.479	1054.81
489.696	1065.81
489.914	1057.81
490.132	1074.81
490.35	1068.81
490.568	1056.81
490.786	1072.81
491.003	1050.81
491.221	1075.81
491.439	1074.81
491.657	1093.81
491.874	1084.81
492.092	1056.81
492.31	1081.81
492.527	1070.81
492.745	1074.81
492.963	1090.81
493.18	1110.81
493.398	1114.81
493.615	1136.81
493.833	1148.81
494.05	1146.81
494.268	1107.81
494.485	1105.81
494.703	1110.81
494.92	1140.81
495.138	1122.81
495.355	1113.81
495.573	1101.81
495.79	1143.81
496.008	1148.81
496.225	1144.81
496.442	1158.81
496.66	1152.81
496.877	1173.81
497.094	1201.81
497.312	1209.81
497.529	1235.81
497.746	1292.81
497.963	1288.81
498.181	1404.81
498.398	1443.81
498.615	1508.81
498.832	1624.81
499.049	1778.81
499.267	1918.81
499.484	2095.81
499.701	2302.81
499.918	2573.81
500.135	2994.81
500.352	3466.81
500.569	3651.81
500.786	3568.81
501.003	3306.81
501.22	2878.81
501.437	2570.81
501.654	2246.81
501.871	2005.81
502.088	1799.81
502.305	1715.81
502.522	1618.81
502.739	1559.81
502.956	1476.81
503.172	1403.81
503.389	1328.81
503.606	1278.81
503.823	1282.81
504.04	1290.81
504.256	1285.81
504.473	1348.81
504.69	1386.81
504.907	1338.81
505.123	1234.81
505.34	1162.81
505.557	1124.81
505.773	1088.81
505.99	1055.81
506.207	1050.81
506.423	1048.81
506.64	1030.81
506.856	999.81
507.073	1004.81
507.289	1000.81
507.506	984.81
507.722	1022.81
507.939	975.81
508.155	969.81
508.372	958.81
508.588	942.81
508.805	919.81
509.021	955.81
509.238	942.81
509.454	944.81
509.67	921.81
509.887	916.81
510.103	928.81
510.319	937.81
510.536	900.81
510.752	901.81
510.968	912.81
511.184	891.81
511.401	864.81
511.617	880.81
511.833	902.81
512.049	912.81
512.265	903.81
512.481	903.81
512.698	904.81
512.914	898.81
513.13	887.81
513.346	899.81
513.562	891.81
513.778	926.81
513.994	886.81
514.21	894.81
514.426	915.81
514.642	916.81
514.858	957.81
515.074	949.81
515.29	936.81
515.506	926.81
515.721	953.81
515.937	983.81
516.153	1008.81
516.369	1011.81
516.585	1025.81
516.801	1064.81
517.016	1097.81
517.232	1190.81
517.448	1287.81
517.664	1317.81
517.879	1331.81
518.095	1284.81
518.311	1300.81
518.527	1199.81
518.742	1160.81
518.958	1114.81
519.173	1072.81
519.389	1023.81
519.605	990.81
519.82	982.81
520.036	968.81
520.251	968.81
520.467	926.81
520.682	923.81
520.898	914.81
521.113	861.81
521.329	875.81
521.544	859.81
521.76	860.81
521.975	886.81
522.19	862.81
522.406	854.81
522.621	825.81
522.836	828.81
523.052	838.81
523.267	857.81
523.482	824.81
523.698	809.81
523.913	833.81
524.128	828.81
524.343	818.81
524.559	818.81
524.774	814.81
524.989	842.81
525.204	809.81
525.419	820.81
525.634	810.81
525.849	809.81
526.064	823.81
526.28	786.81
526.495	803.81
526.71	817.81
526.925	818.81
527.14	825.81
527.355	836.81
527.57	790.81
527.785	834.81
527.999	800.81
528.214	797.81
528.429	851.81
528.644	807.81
528.859	816.81
529.074	838.81
529.289	828.81
529.503	826.81
529.718	832.81
529.933	830.81
530.148	790.81
530.363	811.81
530.577	811.81
530.792	816.81
531.007	824.81
531.221	828.81
531.436	821.81
531.651	817.81
531.865	826.81
532.08	809.81
532.295	794.81
532.509	819.81
532.724	814.81
532.938	837.81
533.153	841.81
533.367	824.81
533.582	827.81
533.796	819.81
534.011	825.81
534.225	829.81
534.44	806.81
534.654	810.81
534.868	770.81
535.083	798.81
535.297	807.81
535.511	779.81
535.726	777.81
535.94	802.81
536.154	791.81
536.369	770.81
536.583	781.81
536.797	772.81
537.011	748.81
537.225	750.81
537.44	770.81
537.654	747.81
537.868	762.81
538.082	715.81
538.296	750.81
538.51	717.81
538.724	757.81
538.938	746.81
539.153	717.81
539.367	740.81
539.581	742.81
539.795	709.81
540.009	730.81
540.222	727.81
540.436	721.81
540.65	708.81
540.864	714.81
541.078	722.81
541.292	718.81
541.506	709.81
541.72	711.81
541.934	735.81
542.147	748.81
542.361	736.81
542.575	717.81
542.789	740.81
543.002	728.81
543.216	708.81
543.43	693.81
543.644	702.81
543.857	735.81
544.071	736.81
544.285	748.81
544.498	734.81
544.712	711.81
544.925	736.81
545.139	736.81
545.352	745.81
545.566	748.81
545.779	732.81
545.993	753.81
546.206	752.81
546.42	752.81
546.633	731.81
546.847	732.81
547.06	747.81
547.274	744.81
547.487	737.81
547.7	744.81
547.914	761.81
548.127	764.81
548.34	769.81
548.554	741.81
548.767	737.81
548.98	760.81
549.193	752.81
549.407	744.81
549.62	752.81
549.833	794.81
550.046	759.81
550.259	780.81
550.473	726.81
550.686	735.81
550.899	713.81
551.112	733.81
551.325	728.81
551.538	721.81
551.751	728.81
551.964	712.81
552.177	759.81
552.39	779.81
552.603	767.81
552.816	773.81
553.029	785.81
553.242	801.81
553.455	849.81
553.667	838.81
553.88	839.81
554.093	814.81
554.306	779.81
554.519	752.81
554.732	748.81
554.944	730.81
555.157	715.81
555.37	712.81
555.583	689.81
555.795	706.81
556.008	667.81
556.221	666.81
556.433	641.81
556.646	650.81
556.859	653.81
557.071	645.81
557.284	634.81
557.496	662.81
557.709	680.81
557.921	630.81
558.134	641.81
558.346	622.81
558.559	628.81
558.771	632.81
558.984	603.81
559.196	626.81
559.409	626.81
559.621	607.81
559.833	626.81
560.046	604.81
560.258	608.81
560.47	601.81
560.683	613.81
560.895	588.81
561.107	618.81
561.32	619.81
561.532	601.81
561.744	606.81
561.956	612.81
562.168	627.81
562.381	612.81
562.593	615.81
562.805	636.81
563.017	606.81
563.229	610.81
563.441	636.81
563.653	625.81
563.865	616.81
564.077	626.81
564.289	630.81
564.501	634.81
564.713	629.81
564.925	660.81
565.137	662.81
565.349	692.81
565.561	719.81
565.773	733.81
565.985	768.81
566.197	823.81
566.408	862.81
566.62	932.81
566.832	1040.81
567.044	1058.81
567.255	1024.81
567.467	1063.81
567.679	1124.81
567.891	1235.81
568.102	1261.81
568.314	1208.81
568.526	1060.81
568.737	940.81
568.949	874.81
569.161	779.81
569.372	743.81
569.584	684.81
569.795	662.81
570.007	627.81
570.218	645.81
570.43	645.81
570.641	651.81
570.853	656.81
571.064	647.81
571.276	660.81
571.487	632.81
571.698	582.81
571.91	582.81
572.121	571.81
572.333	560.81
572.544	540.81
572.755	536.81
572.966	540.81
573.178	533.81
573.389	539.81
573.6	522.81
573.811	499.81
574.023	514.81
574.234	488.81
574.445	495.81
574.656	505.81
574.867	523.81
575.078	529.81
575.289	516.81
575.501	496.81
575.712	495.81
575.923	497.81
576.134	488.81
576.345	481.81
576.556	474.81
576.767	480.81
576.978	485.81
577.188	482.81
577.399	465.81
577.61	454.81
577.821	480.81
578.032	452.81
578.243	464.81
578.454	472.81
578.665	456.81
578.875	443.81
579.086	427.81
579.297	436.81
579.508	430.81
579.718	438.81
579.929	444.81
580.14	456.81
580.35	425.81
580.561	448.81
580.772	430.81
580.982	419.81
581.193	440.81
581.403	435.81
581.614	418.81
581.825	437.81
582.035	450.81
582.246	412.81
582.456	398.81
582.667	415.81
582.877	435.81
583.087	414.81
583.298	392.81
583.508	421.81
583.719	415.81
583.929	418.81
584.139	414.81
584.35	394.81
584.56	448.81
584.77	420.81
584.981	419.81
585.191	400.81
585.401	413.81
585.611	413.81
585.821	426.81
586.032	400.81
586.242	403.81
586.452	412.81
586.662	403.81
586.872	378.81
587.082	400.81
587.292	423.81
587.502	400.81
587.713	404.81
587.923	388.81
588.133	408.81
588.343	414.81
588.553	402.81
588.762	391.81
588.972	414.81
589.182	390.81
589.392	397.81
589.602	408.81
589.812	399.81
590.022	402.81
590.232	416.81
590.441	408.81
590.651	406.81
590.861	404.81
591.071	418.81
591.281	408.81
591.49	418.81
591.7	432.81
591.91	427.81
592.119	448.81
592.329	456.81
592.539	437.81
592.748	474.81
592.958	508.81
593.167	519.81
593.377	529.81
593.587	536.81
593.796	530.81
594.006	534.81
594.215	539.81
594.424	531.81
594.634	517.81
594.843	496.81
595.053	473.81
595.262	454.81
595.472	432.81
595.681	411.81
595.89	396.81
596.1	414.81
596.309	419.81
596.518	393.81
596.727	390.81
596.937	372.81
597.146	384.81
597.355	363.81
597.564	361.81
597.774	375.81
597.983	361.81
598.192	356.81
598.401	357.81
598.61	372.81
598.819	366.81
599.028	349.81
599.237	338.81
599.446	343.81
599.655	366.81
599.864	338.81
600.073	336.81
600.282	329.81
600.491	333.81
600.7	342.81
600.909	331.81
601.118	348.81
601.327	355.81
601.536	349.81
601.745	337.81
601.953	328.81
602.162	339.81
602.371	337.81
602.58	330.81
602.789	328.81
602.997	321.81
603.206	328.81
603.415	334.81
603.623	326.81
603.832	328.81
604.041	319.81
604.249	313.81
604.458	312.81
604.666	315.81
604.875	315.81
605.084	317.81
605.292	298.81
605.501	329.81
605.709	300.81
605.918	329.81
606.126	304.81
606.334	303.81
606.543	326.81
606.751	328.81
606.96	308.81
607.168	306.81
607.376	312.81
607.585	314.81
607.793	322.81
608.001	296.81
608.21	282.81
608.418	314.81
608.626	286.81
608.834	306.81
609.043	311.81
609.251	319.81
609.459	290.81
609.667	312.81
609.875	289.81
610.083	294.81
610.291	319.81
610.499	323.81
610.707	317.81
610.916	312.81
611.124	318.81
611.332	291.81
611.54	314.81
611.748	299.81
611.955	289.81
612.163	313.81
612.371	294.81
612.579	294.81
612.787	298.81
612.995	277.81
613.203	298.81
613.411	295.81
613.618	293.81
613.826	294.81
614.034	295.81
614.242	304.81
614.449	292.81
614.657	280.81
614.865	290.81
615.072	303.81
615.28	296.81
615.488	296.81
615.695	293.81
615.903	308.81
616.111	296.81
616.318	309.81
616.526	302.81
616.733	308.81
616.941	295.81
617.148	304.81
617.356	328.81
617.563	295.81
617.771	314.81
617.978	311.81
618.185	313.81
618.393	305.81
618.6	294.81
618.807	302.81
619.015	287.81
619.222	285.81
619.429	294.81
619.637	287.81
619.844	279.81
620.051	284.81
620.258	280.81
620.466	276.81
620.673	262.81
620.88	294.81
621.087	260.81
621.294	257.81
621.501	283.81
621.708	254.81
621.915	270.81
622.122	288.81
622.329	258.81
622.536	280.81
622.743	270.81
622.95	261.81
623.157	259.81
623.364	264.81
623.571	242.81
623.778	242.81
623.985	250.81
624.192	264.81
624.399	251.81
624.606	266.81
624.812	241.81
625.019	258.81
625.226	267.81
625.433	263.81
625.639	243.81
625.846	249.81
626.053	252.81
626.259	250.81
626.466	258.81
626.673	268.81
626.879	230.81
627.086	234.81
627.293	251.81
627.499	239.81
627.706	260.81
627.912	241.81
628.119	243.81
628.325	252.81
628.532	243.81
628.738	247.81
628.945	228.81
629.151	238.81
629.357	229.81
629.564	224.81
629.77	225.81
629.976	235.81
630.183	242.81
630.389	231.81
630.595	224.81
630.802	228.81
631.008	197.81
631.214	244.81
631.42	240.81
631.627	219.81
631.833	215.81
632.039	234.81
632.245	215.81
632.451	238.81
632.657	234.81
632.863	233.81
633.069	200.81
633.275	227.81
633.481	224.81
633.688	222.81
633.893	232.81
634.099	224.81
634.305	208.81
634.511	224.81
634.717	198.81
634.923	214.81
635.129	206.81
635.335	217.81
635.541	221.81
635.747	203.81
635.952	208.81
636.158	209.81
636.364	224.81
636.57	209.81
636.775	193.81
636.981	193.81
637.187	214.81
637.392	212.81
637.598	195.81
637.804	204.81
638.009	210.81
638.215	213.81
638.421	199.81
638.626	200.81
638.832	202.81
639.037	193.81
639.243	195.81
639.448	194.81
639.654	193.81
639.859	195.81
640.065	188.81
640.27	202.81
640.475	198.81
640.681	196.81
640.886	196.81
641.091	212.81
641.297	195.81
641.502	201.81
641.707	208.81
641.913	202.81
642.118	202.81
642.323	183.81
642.528	201.81
642.733	194.81
642.939	191.81
643.144	199.81
643.349	197.81
643.554	187.81
643.759	191.81
643.964	184.81
644.169	190.81
644.374	178.81
644.579	178.81
644.784	187.81
644.989	215.81
645.194	193.81
645.399	178.81
645.604	183.81
645.809	182.81
646.014	204.81
646.219	193.81
646.423	201.81
646.628	193.81
646.833	183.81
647.038	194.81
647.243	173.81
647.447	199.81
647.652	197.81
647.857	209.81
648.062	190.81
648.266	207.81
648.471	227.81
648.676	204.81
648.88	210.81
649.085	203.81
649.289	199.81
649.494	186.81
649.698	174.81
649.903	185.81
650.107	190.81
650.312	178.81
650.516	181.81
650.721	203.81
650.925	171.81
651.13	181.81
651.334	171.81
651.539	180.81
651.743	168.81
651.947	177.81
652.152	154.81
652.356	164.81
652.56	158.81
652.764	174.81
652.969	165.81
653.173	163.81
653.377	158.81
653.581	156.81
653.785	146.81
653.99	154.81
654.194	146.81
654.398	152.81
654.602	136.81
654.806	136.81
655.01	150.81
655.214	140.81
655.418	134.81
655.622	167.81
655.826	148.81
656.03	129.81
656.234	142.81
656.438	154.81
656.642	152.81
656.846	143.81
657.049	138.81
657.253	150.81
657.457	137.81
657.661	131.81
657.865	133.81
658.068	128.81
658.272	118.81
658.476	117.81
658.68	113.81
658.883	124.81
659.087	113.81
659.291	107.81
659.494	102.81
659.698	104.81
659.901	90.81
660.105	98.81
660.309	105.81
660.512	109.81
660.716	95.81
660.919	95.81
661.123	91.81
661.326	88.81
661.53	86.81
661.733	84.81
661.936	101.81
662.14	74.81
662.343	93.81
662.546	84.81
662.75	95.81
662.953	92.81
663.156	81.81
663.36	76.81
663.563	82.81
663.766	80.81
663.969	92.81
664.173	88.81
664.376	83.81
664.579	87.81
664.782	75.81
664.985	80.81
665.188	77.81
665.391	96.81
665.594	81.81
665.797	77.81
666	83.81
666.203	94.81
666.406	75.81
666.609	66.81
666.812	79.81
667.015	92.81
667.218	74.81
667.421	82.81
667.624	91.81
667.827	74.81
668.03	83.81
668.232	78.81
668.435	65.81
668.638	87.81
668.841	78.81
669.043	71.81
669.246	74.81
669.449	85.81
669.651	79.81
669.854	79.81
670.057	75.81
670.259	87.81
670.462	94.81
670.665	89.81
670.867	90.81
671.07	83.81
671.272	91.81
671.475	86.81
671.677	76.81
671.88	68.81
672.082	70.81
672.284	75.81
672.487	80.81
672.689	81.81
672.892	71.81
