Data from Ni(NO3)2@0.0625M.TitratingCurve.Agarose3%dH2O.NegLispCup.LampEnergy10.LIBS07252019_HRD10591_18-13-04-569.txt Node
Date: Thu Jul 25 18:13:04 EDT 2019
User: cochatt
Spectrometer: HR+D1059
Trigger mode: 1
Integration Time (sec): 1.000000E-1
Scans to average: 1
Electric dark correction enabled: true
Nonlinearity correction enabled: false
Boxcar width: 0
XAxis mode: Wavelengths
Number of Pixels in Spectrum: 2048
>>>>>Begin Spectral Data<<<<<
223.165	-23.12
223.4	-23.12
223.635	-23.12
223.869	-31.12
224.104	-15.12
224.338	-10.12
224.573	-18.12
224.808	-15.12
225.042	-10.12
225.277	12.88
225.511	8.88
225.746	-2.12
225.98	4.88
226.215	6.88
226.449	8.88
226.683	31.88
226.918	29.88
227.152	20.88
227.387	36.88
227.621	37.88
227.856	41.88
228.09	31.88
228.324	56.88
228.559	58.88
228.793	72.88
229.027	82.88
229.262	124.88
229.496	98.88
229.73	116.88
229.964	122.88
230.199	117.88
230.433	126.88
230.667	129.88
230.901	103.88
231.136	122.88
231.37	112.88
231.604	122.88
231.838	132.88
232.072	124.88
232.306	136.88
232.541	140.88
232.775	143.88
233.009	133.88
233.243	130.88
233.477	130.88
233.711	128.88
233.945	143.88
234.179	128.88
234.413	118.88
234.647	132.88
234.881	134.88
235.115	129.88
235.349	131.88
235.583	134.88
235.817	146.88
236.051	133.88
236.285	124.88
236.519	153.88
236.753	141.88
236.987	141.88
237.221	128.88
237.455	149.88
237.689	146.88
237.922	149.88
238.156	139.88
238.39	137.88
238.624	149.88
238.858	154.88
239.091	150.88
239.325	149.88
239.559	129.88
239.793	156.88
240.027	165.88
240.26	148.88
240.494	136.88
240.728	155.88
240.961	152.88
241.195	148.88
241.429	169.88
241.662	169.88
241.896	154.88
242.13	156.88
242.363	160.88
242.597	154.88
242.83	159.88
243.064	157.88
243.298	168.88
243.531	186.88
243.765	181.88
243.998	179.88
244.232	163.88
244.465	182.88
244.699	177.88
244.932	176.88
245.166	172.88
245.399	195.88
245.633	189.88
245.866	179.88
246.099	172.88
246.333	183.88
246.566	193.88
246.8	180.88
247.033	182.88
247.266	184.88
247.5	190.88
247.733	192.88
247.966	191.88
248.2	200.88
248.433	186.88
248.666	183.88
248.899	173.88
249.133	196.88
249.366	197.88
249.599	204.88
249.832	189.88
250.066	213.88
250.299	210.88
250.532	200.88
250.765	204.88
250.998	199.88
251.231	208.88
251.465	214.88
251.698	210.88
251.931	221.88
252.164	207.88
252.397	211.88
252.63	216.88
252.863	217.88
253.096	214.88
253.329	215.88
253.562	216.88
253.795	224.88
254.028	220.88
254.261	213.88
254.494	248.88
254.727	221.88
254.96	223.88
255.193	230.88
255.426	219.88
255.659	220.88
255.892	236.88
256.124	230.88
256.357	229.88
256.59	245.88
256.823	244.88
257.056	228.88
257.289	235.88
257.521	244.88
257.754	240.88
257.987	241.88
258.22	252.88
258.452	248.88
258.685	243.88
258.918	238.88
259.151	241.88
259.383	250.88
259.616	242.88
259.849	223.88
260.081	260.88
260.314	269.88
260.547	265.88
260.779	269.88
261.012	251.88
261.244	247.88
261.477	242.88
261.71	255.88
261.942	278.88
262.175	272.88
262.407	274.88
262.64	288.88
262.872	265.88
263.105	277.88
263.337	261.88
263.57	265.88
263.802	284.88
264.035	292.88
264.267	270.88
264.499	294.88
264.732	292.88
264.964	272.88
265.197	305.88
265.429	276.88
265.661	268.88
265.894	280.88
266.126	290.88
266.358	280.88
266.591	275.88
266.823	285.88
267.055	290.88
267.287	290.88
267.52	292.88
267.752	311.88
267.984	291.88
268.216	313.88
268.448	290.88
268.681	288.88
268.913	297.88
269.145	280.88
269.377	281.88
269.609	298.88
269.841	301.88
270.073	311.88
270.306	304.88
270.538	305.88
270.77	310.88
271.002	318.88
271.234	295.88
271.466	282.88
271.698	310.88
271.93	305.88
272.162	295.88
272.394	305.88
272.626	320.88
272.858	298.88
273.09	335.88
273.322	318.88
273.553	317.88
273.785	312.88
274.017	307.88
274.249	318.88
274.481	314.88
274.713	322.88
274.945	321.88
275.176	330.88
275.408	319.88
275.64	317.88
275.872	333.88
276.104	323.88
276.335	313.88
276.567	334.88
276.799	338.88
277.031	329.88
277.262	322.88
277.494	342.88
277.726	333.88
277.957	356.88
278.189	338.88
278.421	352.88
278.652	347.88
278.884	350.88
279.115	336.88
279.347	355.88
279.579	349.88
279.81	384.88
280.042	345.88
280.273	348.88
280.505	374.88
280.736	368.88
280.968	356.88
281.199	361.88
281.431	368.88
281.662	358.88
281.894	363.88
282.125	380.88
282.356	373.88
282.588	362.88
282.819	374.88
283.051	388.88
283.282	364.88
283.513	371.88
283.745	372.88
283.976	386.88
284.207	356.88
284.439	378.88
284.67	379.88
284.901	393.88
285.132	388.88
285.364	380.88
285.595	385.88
285.826	373.88
286.057	390.88
286.288	377.88
286.52	398.88
286.751	414.88
286.982	386.88
287.213	373.88
287.444	407.88
287.675	402.88
287.906	410.88
288.138	408.88
288.369	405.88
288.6	413.88
288.831	410.88
289.062	404.88
289.293	407.88
289.524	408.88
289.755	418.88
289.986	422.88
290.217	419.88
290.448	386.88
290.679	429.88
290.91	407.88
291.141	418.88
291.371	415.88
291.602	410.88
291.833	423.88
292.064	420.88
292.295	417.88
292.526	405.88
292.757	410.88
292.987	430.88
293.218	416.88
293.449	412.88
293.68	417.88
293.91	412.88
294.141	396.88
294.372	422.88
294.603	421.88
294.833	434.88
295.064	428.88
295.295	419.88
295.525	418.88
295.756	422.88
295.987	422.88
296.217	432.88
296.448	429.88
296.679	442.88
296.909	433.88
297.14	445.88
297.37	445.88
297.601	458.88
297.831	450.88
298.062	442.88
298.292	457.88
298.523	478.88
298.753	452.88
298.984	454.88
299.214	453.88
299.445	453.88
299.675	451.88
299.905	459.88
300.136	462.88
300.366	456.88
300.597	464.88
300.827	462.88
301.057	463.88
301.288	474.88
301.518	471.88
301.748	474.88
301.979	477.88
302.209	465.88
302.439	484.88
302.669	470.88
302.9	448.88
303.13	460.88
303.36	452.88
303.59	469.88
303.82	441.88
304.051	465.88
304.281	493.88
304.511	477.88
304.741	457.88
304.971	472.88
305.201	474.88
305.431	464.88
305.661	456.88
305.891	461.88
306.121	441.88
306.352	462.88
306.582	460.88
306.812	469.88
307.042	458.88
307.272	459.88
307.502	465.88
307.731	471.88
307.961	447.88
308.191	458.88
308.421	443.88
308.651	469.88
308.881	490.88
309.111	459.88
309.341	462.88
309.571	460.88
309.8	450.88
310.03	438.88
310.26	444.88
310.49	446.88
310.72	469.88
310.949	470.88
311.179	469.88
311.409	460.88
311.639	470.88
311.868	482.88
312.098	473.88
312.328	476.88
312.557	478.88
312.787	454.88
313.017	466.88
313.246	498.88
313.476	494.88
313.706	494.88
313.935	500.88
314.165	482.88
314.394	500.88
314.624	478.88
314.853	491.88
315.083	484.88
315.312	473.88
315.542	478.88
315.771	499.88
316.001	485.88
316.23	490.88
316.46	464.88
316.689	481.88
316.919	498.88
317.148	501.88
317.377	529.88
317.607	471.88
317.836	490.88
318.065	477.88
318.295	475.88
318.524	480.88
318.753	484.88
318.983	500.88
319.212	487.88
319.441	487.88
319.67	465.88
319.9	482.88
320.129	467.88
320.358	474.88
320.587	481.88
320.816	497.88
321.046	489.88
321.275	500.88
321.504	485.88
321.733	482.88
321.962	498.88
322.191	493.88
322.42	485.88
322.649	489.88
322.878	470.88
323.108	489.88
323.337	498.88
323.566	492.88
323.795	496.88
324.024	501.88
324.253	499.88
324.482	499.88
324.71	507.88
324.939	510.88
325.168	524.88
325.397	499.88
325.626	523.88
325.855	523.88
326.084	527.88
326.313	524.88
326.542	539.88
326.77	555.88
326.999	537.88
327.228	550.88
327.457	534.88
327.686	550.88
327.914	522.88
328.143	532.88
328.372	526.88
328.6	534.88
328.829	540.88
329.058	537.88
329.287	514.88
329.515	534.88
329.744	547.88
329.972	546.88
330.201	544.88
330.43	533.88
330.658	545.88
330.887	539.88
331.115	534.88
331.344	572.88
331.572	586.88
331.801	578.88
332.03	574.88
332.258	606.88
332.486	629.88
332.715	644.88
332.943	667.88
333.172	690.88
333.4	726.88
333.629	740.88
333.857	737.88
334.085	739.88
334.314	716.88
334.542	694.88
334.771	671.88
334.999	690.88
335.227	674.88
335.455	683.88
335.684	671.88
335.912	649.88
336.14	649.88
336.369	664.88
336.597	657.88
336.825	642.88
337.053	654.88
337.281	644.88
337.51	628.88
337.738	601.88
337.966	597.88
338.194	581.88
338.422	609.88
338.65	602.88
338.878	568.88
339.106	601.88
339.334	599.88
339.562	578.88
339.79	542.88
340.018	569.88
340.246	544.88
340.474	553.88
340.702	579.88
340.93	577.88
341.158	556.88
341.386	605.88
341.614	557.88
341.842	554.88
342.07	548.88
342.298	568.88
342.526	550.88
342.754	569.88
342.981	571.88
343.209	582.88
343.437	581.88
343.665	640.88
343.893	682.88
344.12	713.88
344.348	665.88
344.576	656.88
344.804	594.88
345.031	604.88
345.259	595.88
345.487	550.88
345.714	552.88
345.942	544.88
346.17	555.88
346.397	538.88
346.625	550.88
346.853	553.88
347.08	541.88
347.308	570.88
347.535	550.88
347.763	542.88
347.99	562.88
348.218	560.88
348.445	558.88
348.673	554.88
348.9	552.88
349.128	536.88
349.355	537.88
349.583	553.88
349.81	537.88
350.037	528.88
350.265	531.88
350.492	531.88
350.72	532.88
350.947	514.88
351.174	542.88
351.402	531.88
351.629	548.88
351.856	528.88
352.083	520.88
352.311	536.88
352.538	535.88
352.765	561.88
352.992	524.88
353.22	522.88
353.447	517.88
353.674	533.88
353.901	524.88
354.128	538.88
354.355	515.88
354.583	523.88
354.81	515.88
355.037	541.88
355.264	523.88
355.491	518.88
355.718	520.88
355.945	522.88
356.172	552.88
356.399	533.88
356.626	523.88
356.853	543.88
357.08	517.88
357.307	539.88
357.534	548.88
357.761	539.88
357.988	535.88
358.215	536.88
358.441	512.88
358.668	538.88
358.895	522.88
359.122	536.88
359.349	520.88
359.576	534.88
359.802	558.88
360.029	542.88
360.256	536.88
360.483	524.88
360.709	551.88
360.936	518.88
361.163	525.88
361.39	540.88
361.616	536.88
361.843	530.88
362.07	518.88
362.296	536.88
362.523	530.88
362.749	536.88
362.976	530.88
363.203	518.88
363.429	514.88
363.656	527.88
363.882	520.88
364.109	527.88
364.335	541.88
364.562	538.88
364.788	532.88
365.015	509.88
365.241	553.88
365.468	522.88
365.694	515.88
365.92	544.88
366.147	516.88
366.373	518.88
366.599	514.88
366.826	538.88
367.052	524.88
367.278	532.88
367.505	536.88
367.731	544.88
367.957	530.88
368.184	548.88
368.41	549.88
368.636	546.88
368.862	538.88
369.089	564.88
369.315	553.88
369.541	547.88
369.767	533.88
369.993	561.88
370.219	569.88
370.445	579.88
370.672	555.88
370.898	548.88
371.124	570.88
371.35	581.88
371.576	573.88
371.802	570.88
372.028	595.88
372.254	584.88
372.48	557.88
372.706	595.88
372.932	598.88
373.158	582.88
373.384	585.88
373.61	578.88
373.835	572.88
374.061	591.88
374.287	598.88
374.513	587.88
374.739	607.88
374.965	648.88
375.191	632.88
375.416	629.88
375.642	640.88
375.868	600.88
376.094	592.88
376.319	590.88
376.545	587.88
376.771	564.88
376.997	569.88
377.222	576.88
377.448	572.88
377.674	555.88
377.899	571.88
378.125	572.88
378.35	570.88
378.576	592.88
378.802	580.88
379.027	578.88
379.253	577.88
379.478	558.88
379.704	552.88
379.929	580.88
380.155	584.88
380.38	593.88
380.606	574.88
380.831	567.88
381.057	595.88
381.282	570.88
381.507	587.88
381.733	592.88
381.958	609.88
382.184	572.88
382.409	588.88
382.634	578.88
382.86	587.88
383.085	613.88
383.31	624.88
383.535	638.88
383.761	628.88
383.986	626.88
384.211	661.88
384.436	683.88
384.662	684.88
384.887	693.88
385.112	702.88
385.337	698.88
385.562	690.88
385.787	697.88
386.013	692.88
386.238	712.88
386.463	683.88
386.688	701.88
386.913	662.88
387.138	679.88
387.363	688.88
387.588	676.88
387.813	678.88
388.038	670.88
388.263	651.88
388.488	702.88
388.713	688.88
388.938	669.88
389.163	668.88
389.387	655.88
389.612	633.88
389.837	668.88
390.062	668.88
390.287	665.88
390.512	666.88
390.736	669.88
390.961	718.88
391.186	713.88
391.411	728.88
391.636	752.88
391.86	764.88
392.085	782.88
392.31	776.88
392.534	747.88
392.759	741.88
392.984	696.88
393.208	728.88
393.433	725.88
393.658	721.88
393.882	717.88
394.107	743.88
394.331	742.88
394.556	741.88
394.78	773.88
395.005	748.88
395.229	739.88
395.454	768.88
395.678	772.88
395.903	791.88
396.127	747.88
396.352	730.88
396.576	737.88
396.801	721.88
397.025	726.88
397.249	723.88
397.474	747.88
397.698	747.88
397.922	744.88
398.147	748.88
398.371	773.88
398.595	800.88
398.82	843.88
399.044	896.88
399.268	994.88
399.492	1160.88
399.717	1326.88
399.941	1321.88
400.165	1145.88
400.389	1042.88
400.613	939.88
400.837	894.88
401.062	876.88
401.286	840.88
401.51	824.88
401.734	845.88
401.958	865.88
402.182	876.88
402.406	883.88
402.63	923.88
402.854	907.88
403.078	926.88
403.302	987.88
403.526	977.88
403.75	1010.88
403.974	1014.88
404.198	1043.88
404.422	1060.88
404.645	1008.88
404.869	994.88
405.093	971.88
405.317	960.88
405.541	968.88
405.765	952.88
405.988	948.88
406.212	952.88
406.436	920.88
406.66	979.88
406.883	982.88
407.107	1009.88
407.331	1066.88
407.555	1118.88
407.778	1088.88
408.002	1099.88
408.226	1053.88
408.449	1026.88
408.673	1014.88
408.896	971.88
409.12	989.88
409.344	1001.88
409.567	996.88
409.791	1010.88
410.014	1011.88
410.238	973.88
410.461	964.88
410.685	964.88
410.908	930.88
411.132	914.88
411.355	892.88
411.578	879.88
411.802	879.88
412.025	923.88
412.249	910.88
412.472	900.88
412.695	886.88
412.919	859.88
413.142	880.88
413.365	853.88
413.589	868.88
413.812	854.88
414.035	839.88
414.258	838.88
414.482	847.88
414.705	904.88
414.928	898.88
415.151	866.88
415.374	857.88
415.597	857.88
415.821	845.88
416.044	823.88
416.267	852.88
416.49	822.88
416.713	834.88
416.936	840.88
417.159	858.88
417.382	836.88
417.605	841.88
417.828	859.88
418.051	874.88
418.274	862.88
418.497	855.88
418.72	884.88
418.943	884.88
419.166	909.88
419.389	981.88
419.611	974.88
419.834	931.88
420.057	927.88
420.28	872.88
420.503	840.88
420.726	851.88
420.948	842.88
421.171	840.88
421.394	862.88
421.617	859.88
421.839	844.88
422.062	864.88
422.285	840.88
422.507	865.88
422.73	899.88
422.953	892.88
423.175	919.88
423.398	903.88
423.621	937.88
423.843	945.88
424.066	953.88
424.288	929.88
424.511	911.88
424.733	885.88
424.956	870.88
425.178	839.88
425.401	846.88
425.623	874.88
425.846	872.88
426.068	849.88
426.291	830.88
426.513	814.88
426.735	793.88
426.958	797.88
427.18	812.88
427.402	787.88
427.625	783.88
427.847	749.88
428.069	776.88
428.292	784.88
428.514	765.88
428.736	763.88
428.958	741.88
429.181	736.88
429.403	726.88
429.625	771.88
429.847	745.88
430.069	735.88
430.292	770.88
430.514	742.88
430.736	732.88
430.958	734.88
431.18	726.88
431.402	727.88
431.624	729.88
431.846	755.88
432.068	768.88
432.29	799.88
432.512	764.88
432.734	745.88
432.956	752.88
433.178	762.88
433.4	787.88
433.622	768.88
433.844	794.88
434.066	780.88
434.287	785.88
434.509	811.88
434.731	851.88
434.953	900.88
435.175	899.88
435.397	870.88
435.618	826.88
435.84	811.88
436.062	792.88
436.284	768.88
436.505	755.88
436.727	768.88
436.949	778.88
437.17	779.88
437.392	773.88
437.614	753.88
437.835	736.88
438.057	735.88
438.278	708.88
438.5	729.88
438.721	745.88
438.943	768.88
439.165	752.88
439.386	747.88
439.608	764.88
439.829	792.88
440.05	770.88
440.272	749.88
440.493	784.88
440.715	758.88
440.936	787.88
441.158	802.88
441.379	835.88
441.6	889.88
441.822	898.88
442.043	892.88
442.264	866.88
442.486	847.88
442.707	860.88
442.928	876.88
443.149	830.88
443.371	859.88
443.592	893.88
443.813	874.88
444.034	856.88
444.255	919.88
444.476	947.88
444.698	989.88
444.919	1059.88
445.14	1115.88
445.361	971.88
445.582	881.88
445.803	840.88
446.024	818.88
446.245	796.88
446.466	806.88
446.687	790.88
446.908	791.88
447.129	749.88
447.35	739.88
447.571	732.88
447.792	729.88
448.013	724.88
448.234	728.88
448.455	696.88
448.675	693.88
448.896	691.88
449.117	703.88
449.338	693.88
449.559	706.88
449.779	699.88
450	698.88
450.221	714.88
450.442	700.88
450.662	722.88
450.883	724.88
451.104	759.88
451.324	738.88
451.545	728.88
451.766	738.88
451.986	723.88
452.207	738.88
452.428	719.88
452.648	728.88
452.869	734.88
453.089	716.88
453.31	722.88
453.53	717.88
453.751	721.88
453.971	684.88
454.192	646.88
454.412	690.88
454.633	684.88
454.853	676.88
455.073	659.88
455.294	666.88
455.514	652.88
455.734	676.88
455.955	652.88
456.175	678.88
456.395	671.88
456.616	683.88
456.836	676.88
457.056	663.88
457.276	656.88
457.497	676.88
457.717	652.88
457.937	654.88
458.157	674.88
458.377	678.88
458.598	698.88
458.818	701.88
459.038	752.88
459.258	759.88
459.478	766.88
459.698	784.88
459.918	829.88
460.138	864.88
460.358	898.88
460.578	906.88
460.798	923.88
461.018	932.88
461.238	917.88
461.458	936.88
461.678	909.88
461.898	914.88
462.118	924.88
462.338	987.88
462.558	998.88
462.777	1032.88
462.997	1120.88
463.217	1249.88
463.437	1269.88
463.657	1140.88
463.876	1077.88
464.096	1070.88
464.316	1114.88
464.536	1058.88
464.755	1072.88
464.975	989.88
465.195	964.88
465.414	912.88
465.634	850.88
465.854	793.88
466.073	796.88
466.293	784.88
466.512	785.88
466.732	754.88
466.951	759.88
467.171	758.88
467.391	721.88
467.61	754.88
467.829	768.88
468.049	753.88
468.268	727.88
468.488	696.88
468.707	685.88
468.927	733.88
469.146	728.88
469.365	709.88
469.585	747.88
469.804	749.88
470.023	771.88
470.243	758.88
470.462	768.88
470.681	780.88
470.901	775.88
471.12	793.88
471.339	748.88
471.558	746.88
471.777	740.88
471.997	730.88
472.216	709.88
472.435	700.88
472.654	701.88
472.873	687.88
473.092	706.88
473.311	686.88
473.53	700.88
473.749	692.88
473.968	676.88
474.187	682.88
474.406	715.88
474.625	714.88
474.844	709.88
475.063	674.88
475.282	695.88
475.501	712.88
475.72	700.88
475.939	708.88
476.158	720.88
476.377	732.88
476.596	709.88
476.814	756.88
477.033	694.88
477.252	745.88
477.471	768.88
477.69	776.88
477.908	803.88
478.127	821.88
478.346	809.88
478.564	804.88
478.783	846.88
479.002	858.88
479.22	885.88
479.439	867.88
479.658	851.88
479.876	838.88
480.095	888.88
480.313	936.88
480.532	955.88
480.751	922.88
480.969	887.88
481.188	852.88
481.406	820.88
481.624	819.88
481.843	802.88
482.061	762.88
482.28	774.88
482.498	800.88
482.717	816.88
482.935	804.88
483.153	760.88
483.372	804.88
483.59	816.88
483.808	771.88
484.027	785.88
484.245	807.88
484.463	808.88
484.681	812.88
484.9	840.88
485.118	833.88
485.336	807.88
485.554	832.88
485.772	824.88
485.99	849.88
486.209	861.88
486.427	843.88
486.645	865.88
486.863	853.88
487.081	825.88
487.299	847.88
487.517	830.88
487.735	828.88
487.953	809.88
488.171	854.88
488.389	827.88
488.607	820.88
488.825	813.88
489.043	805.88
489.261	808.88
489.479	816.88
489.696	825.88
489.914	834.88
490.132	852.88
490.35	814.88
490.568	846.88
490.786	794.88
491.003	825.88
491.221	829.88
491.439	817.88
491.657	846.88
491.874	844.88
492.092	846.88
492.31	841.88
492.527	868.88
492.745	844.88
492.963	860.88
493.18	844.88
493.398	877.88
493.615	890.88
493.833	889.88
494.05	885.88
494.268	876.88
494.485	881.88
494.703	881.88
494.92	888.88
495.138	894.88
495.355	885.88
495.573	869.88
495.79	910.88
496.008	915.88
496.225	874.88
496.442	923.88
496.66	904.88
496.877	908.88
497.094	929.88
497.312	971.88
497.529	972.88
497.746	970.88
497.963	982.88
498.181	1024.88
498.398	1093.88
498.615	1153.88
498.832	1231.88
499.049	1316.88
499.267	1460.88
499.484	1570.88
499.701	1730.88
499.918	1959.88
500.135	2296.88
500.352	2701.88
500.569	2792.88
500.786	2802.88
501.003	2562.88
501.22	2263.88
501.437	1928.88
501.654	1696.88
501.871	1548.88
502.088	1383.88
502.305	1289.88
502.522	1245.88
502.739	1222.88
502.956	1137.88
503.172	1040.88
503.389	1001.88
503.606	1012.88
503.823	964.88
504.04	1000.88
504.256	1005.88
504.473	1031.88
504.69	1068.88
504.907	1064.88
505.123	944.88
505.34	884.88
505.557	867.88
505.773	848.88
505.99	830.88
506.207	828.88
506.423	801.88
506.64	794.88
506.856	761.88
507.073	772.88
507.289	804.88
507.506	773.88
507.722	759.88
507.939	768.88
508.155	744.88
508.372	753.88
508.588	742.88
508.805	741.88
509.021	735.88
509.238	738.88
509.454	760.88
509.67	728.88
509.887	732.88
510.103	748.88
510.319	732.88
510.536	705.88
510.752	753.88
510.968	739.88
511.184	723.88
511.401	709.88
511.617	714.88
511.833	713.88
512.049	700.88
512.265	707.88
512.481	707.88
512.698	700.88
512.914	721.88
513.13	701.88
513.346	718.88
513.562	694.88
513.778	717.88
513.994	737.88
514.21	711.88
514.426	722.88
514.642	722.88
514.858	719.88
515.074	737.88
515.29	738.88
515.506	736.88
515.721	764.88
515.937	772.88
516.153	765.88
516.369	797.88
516.585	768.88
516.801	833.88
517.016	874.88
517.232	912.88
517.448	965.88
517.664	1001.88
517.879	1014.88
518.095	1028.88
518.311	1009.88
518.527	941.88
518.742	916.88
518.958	853.88
519.173	839.88
519.389	822.88
519.605	794.88
519.82	756.88
520.036	776.88
520.251	722.88
520.467	721.88
520.682	703.88
520.898	706.88
521.113	725.88
521.329	697.88
521.544	697.88
521.76	698.88
521.975	683.88
522.19	682.88
522.406	672.88
522.621	702.88
522.836	676.88
523.052	677.88
523.267	671.88
523.482	677.88
523.698	668.88
523.913	642.88
524.128	659.88
524.343	654.88
524.559	664.88
524.774	683.88
524.989	664.88
525.204	671.88
525.419	664.88
525.634	661.88
525.849	661.88
526.064	672.88
526.28	664.88
526.495	653.88
526.71	652.88
526.925	649.88
527.14	640.88
527.355	662.88
527.57	664.88
527.785	636.88
527.999	644.88
528.214	658.88
528.429	649.88
528.644	636.88
528.859	639.88
529.074	647.88
529.289	662.88
529.503	678.88
529.718	658.88
529.933	643.88
530.148	645.88
530.363	655.88
530.577	647.88
530.792	653.88
531.007	660.88
531.221	655.88
531.436	646.88
531.651	658.88
531.865	670.88
532.08	656.88
532.295	679.88
532.509	637.88
532.724	661.88
532.938	670.88
533.153	660.88
533.367	647.88
533.582	650.88
533.796	659.88
534.011	658.88
534.225	647.88
534.44	660.88
534.654	656.88
534.868	617.88
535.083	634.88
535.297	640.88
535.511	644.88
535.726	633.88
535.94	619.88
536.154	628.88
536.369	620.88
536.583	609.88
536.797	604.88
537.011	613.88
537.225	623.88
537.44	602.88
537.654	620.88
537.868	604.88
538.082	594.88
538.296	602.88
538.51	587.88
538.724	601.88
538.938	598.88
539.153	607.88
539.367	582.88
539.581	585.88
539.795	588.88
540.009	614.88
540.222	598.88
540.436	595.88
540.65	585.88
540.864	590.88
541.078	604.88
541.292	578.88
541.506	580.88
541.72	580.88
541.934	572.88
542.147	604.88
542.361	576.88
542.575	565.88
542.789	574.88
543.002	575.88
543.216	562.88
543.43	585.88
543.644	565.88
543.857	591.88
544.071	564.88
544.285	592.88
544.498	558.88
544.712	609.88
544.925	616.88
545.139	593.88
545.352	615.88
545.566	602.88
545.779	603.88
545.993	575.88
546.206	591.88
546.42	605.88
546.633	596.88
546.847	591.88
547.06	585.88
547.274	597.88
547.487	588.88
547.7	595.88
547.914	617.88
548.127	597.88
548.34	621.88
548.554	593.88
548.767	599.88
548.98	589.88
549.193	604.88
549.407	617.88
549.62	611.88
549.833	607.88
550.046	617.88
550.259	582.88
550.473	587.88
550.686	588.88
550.899	586.88
551.112	589.88
551.325	576.88
551.538	597.88
551.751	557.88
551.964	569.88
552.177	578.88
552.39	583.88
552.603	601.88
552.816	621.88
553.029	630.88
553.242	646.88
553.455	690.88
553.667	656.88
553.88	672.88
554.093	659.88
554.306	630.88
554.519	594.88
554.732	597.88
554.944	583.88
555.157	550.88
555.37	578.88
555.583	581.88
555.795	569.88
556.008	522.88
556.221	534.88
556.433	549.88
556.646	541.88
556.859	536.88
557.071	491.88
557.284	519.88
557.496	517.88
557.709	518.88
557.921	539.88
558.134	485.88
558.346	506.88
558.559	497.88
558.771	503.88
558.984	520.88
559.196	510.88
559.409	503.88
559.621	495.88
559.833	499.88
560.046	487.88
560.258	483.88
560.47	475.88
560.683	505.88
560.895	493.88
561.107	482.88
561.32	507.88
561.532	516.88
561.744	504.88
561.956	501.88
562.168	481.88
562.381	504.88
562.593	481.88
562.805	495.88
563.017	515.88
563.229	511.88
563.441	483.88
563.653	531.88
563.865	525.88
564.077	514.88
564.289	504.88
564.501	523.88
564.713	522.88
564.925	530.88
565.137	550.88
565.349	564.88
565.561	573.88
565.773	556.88
565.985	599.88
566.197	663.88
566.408	694.88
566.62	748.88
566.832	816.88
567.044	825.88
567.255	782.88
567.467	816.88
567.679	887.88
567.891	985.88
568.102	1015.88
568.314	936.88
568.526	843.88
568.737	774.88
568.949	658.88
569.161	652.88
569.372	581.88
569.584	551.88
569.795	552.88
570.007	536.88
570.218	521.88
570.43	528.88
570.641	530.88
570.853	499.88
571.064	523.88
571.276	547.88
571.487	484.88
571.698	479.88
571.91	453.88
572.121	445.88
572.333	455.88
572.544	426.88
572.755	418.88
572.966	408.88
573.178	437.88
573.389	426.88
573.6	420.88
573.811	416.88
574.023	416.88
574.234	427.88
574.445	424.88
574.656	420.88
574.867	437.88
575.078	409.88
575.289	411.88
575.501	408.88
575.712	399.88
575.923	426.88
576.134	408.88
576.345	391.88
576.556	402.88
576.767	394.88
576.978	376.88
577.188	393.88
577.399	400.88
577.61	382.88
577.821	395.88
578.032	375.88
578.243	370.88
578.454	384.88
578.665	384.88
578.875	365.88
579.086	350.88
579.297	370.88
579.508	388.88
579.718	367.88
579.929	372.88
580.14	360.88
580.35	372.88
580.561	363.88
580.772	360.88
580.982	337.88
581.193	361.88
581.403	373.88
581.614	356.88
581.825	340.88
582.035	345.88
582.246	365.88
582.456	345.88
582.667	347.88
582.877	361.88
583.087	373.88
583.298	358.88
583.508	352.88
583.719	351.88
583.929	364.88
584.139	347.88
584.35	348.88
584.56	353.88
584.77	340.88
584.981	345.88
585.191	344.88
585.401	333.88
585.611	343.88
585.821	356.88
586.032	338.88
586.242	348.88
586.452	347.88
586.662	346.88
586.872	339.88
587.082	338.88
587.292	324.88
587.502	331.88
587.713	346.88
587.923	338.88
588.133	355.88
588.343	351.88
588.553	342.88
588.762	351.88
588.972	339.88
589.182	341.88
589.392	345.88
589.602	342.88
589.812	335.88
590.022	331.88
590.232	320.88
590.441	343.88
590.651	331.88
590.861	341.88
591.071	344.88
591.281	366.88
591.49	348.88
591.7	367.88
591.91	354.88
592.119	356.88
592.329	387.88
592.539	379.88
592.748	394.88
592.958	402.88
593.167	408.88
593.377	413.88
593.587	424.88
593.796	436.88
594.006	435.88
594.215	421.88
594.424	432.88
594.634	411.88
594.843	406.88
595.053	398.88
595.262	379.88
595.472	369.88
595.681	361.88
595.89	359.88
596.1	346.88
596.309	331.88
596.518	330.88
596.727	325.88
596.937	312.88
597.146	317.88
597.355	321.88
597.564	331.88
597.774	299.88
597.983	299.88
598.192	314.88
598.401	318.88
598.61	308.88
598.819	318.88
599.028	305.88
599.237	290.88
599.446	299.88
599.655	274.88
599.864	293.88
600.073	305.88
600.282	296.88
600.491	300.88
600.7	288.88
600.909	281.88
601.118	285.88
601.327	307.88
601.536	304.88
601.745	296.88
601.953	278.88
602.162	279.88
602.371	283.88
602.58	285.88
602.789	307.88
602.997	298.88
603.206	288.88
603.415	278.88
603.623	274.88
603.832	293.88
604.041	261.88
604.249	261.88
604.458	271.88
604.666	262.88
604.875	257.88
605.084	276.88
605.292	265.88
605.501	264.88
605.709	270.88
605.918	289.88
606.126	278.88
606.334	252.88
606.543	260.88
606.751	255.88
606.96	257.88
607.168	291.88
607.376	258.88
607.585	278.88
607.793	268.88
608.001	272.88
608.21	250.88
608.418	273.88
608.626	274.88
608.834	277.88
609.043	287.88
609.251	257.88
609.459	244.88
609.667	243.88
609.875	256.88
610.083	243.88
610.291	252.88
610.499	263.88
610.707	279.88
610.916	276.88
611.124	252.88
611.332	277.88
611.54	249.88
611.748	273.88
611.955	250.88
612.163	248.88
612.371	246.88
612.579	242.88
612.787	261.88
612.995	259.88
613.203	270.88
613.411	242.88
613.618	263.88
613.826	239.88
614.034	234.88
614.242	246.88
614.449	254.88
614.657	245.88
614.865	248.88
615.072	234.88
615.28	259.88
615.488	252.88
615.695	244.88
615.903	254.88
616.111	264.88
616.318	260.88
616.526	262.88
616.733	273.88
616.941	237.88
617.148	251.88
617.356	260.88
617.563	263.88
617.771	242.88
617.978	259.88
618.185	283.88
618.393	265.88
618.6	262.88
618.807	267.88
619.015	257.88
619.222	240.88
619.429	241.88
619.637	233.88
619.844	246.88
620.051	248.88
620.258	251.88
620.466	230.88
620.673	236.88
620.88	233.88
621.087	227.88
621.294	226.88
621.501	238.88
621.708	237.88
621.915	237.88
622.122	245.88
622.329	228.88
622.536	229.88
622.743	223.88
622.95	234.88
623.157	230.88
623.364	224.88
623.571	232.88
623.778	240.88
623.985	232.88
624.192	248.88
624.399	214.88
624.606	214.88
624.812	227.88
625.019	211.88
625.226	200.88
625.433	212.88
625.639	215.88
625.846	216.88
626.053	213.88
626.259	227.88
626.466	242.88
626.673	213.88
626.879	210.88
627.086	204.88
627.293	219.88
627.499	221.88
627.706	220.88
627.912	224.88
628.119	197.88
628.325	213.88
628.532	221.88
628.738	211.88
628.945	205.88
629.151	208.88
629.357	217.88
629.564	205.88
629.77	209.88
629.976	196.88
630.183	209.88
630.389	208.88
630.595	204.88
630.802	197.88
631.008	207.88
631.214	194.88
631.42	188.88
631.627	208.88
631.833	204.88
632.039	190.88
632.245	193.88
632.451	196.88
632.657	194.88
632.863	213.88
633.069	194.88
633.275	197.88
633.481	187.88
633.688	169.88
633.893	187.88
634.099	189.88
634.305	198.88
634.511	183.88
634.717	178.88
634.923	179.88
635.129	204.88
635.335	196.88
635.541	206.88
635.747	192.88
635.952	186.88
636.158	178.88
636.364	187.88
636.57	185.88
636.775	183.88
636.981	179.88
637.187	197.88
637.392	197.88
637.598	188.88
637.804	191.88
638.009	180.88
638.215	166.88
638.421	184.88
638.626	166.88
638.832	185.88
639.037	190.88
639.243	181.88
639.448	181.88
639.654	174.88
639.859	186.88
640.065	182.88
640.27	183.88
640.475	172.88
640.681	173.88
640.886	173.88
641.091	174.88
641.297	194.88
641.502	190.88
641.707	176.88
641.913	170.88
642.118	173.88
642.323	185.88
642.528	170.88
642.733	178.88
642.939	169.88
643.144	163.88
643.349	180.88
643.554	182.88
643.759	174.88
643.964	161.88
644.169	172.88
644.374	167.88
644.579	157.88
644.784	162.88
644.989	177.88
645.194	180.88
645.399	180.88
645.604	173.88
645.809	159.88
646.014	165.88
646.219	172.88
646.423	169.88
646.628	184.88
646.833	177.88
647.038	172.88
647.243	178.88
647.447	181.88
647.652	171.88
647.857	177.88
648.062	196.88
648.266	190.88
648.471	200.88
648.676	184.88
648.88	194.88
649.085	192.88
649.289	171.88
649.494	180.88
649.698	186.88
649.903	163.88
650.107	170.88
650.312	179.88
650.516	143.88
650.721	161.88
650.925	142.88
651.13	165.88
651.334	176.88
651.539	150.88
651.743	138.88
651.947	152.88
652.152	163.88
652.356	148.88
652.56	133.88
652.764	148.88
652.969	154.88
653.173	140.88
653.377	146.88
653.581	121.88
653.785	147.88
653.99	138.88
654.194	152.88
654.398	142.88
654.602	129.88
654.806	138.88
655.01	132.88
655.214	126.88
655.418	127.88
655.622	136.88
655.826	151.88
656.03	124.88
656.234	123.88
656.438	136.88
656.642	132.88
656.846	121.88
657.049	125.88
657.253	124.88
657.457	125.88
657.661	113.88
657.865	122.88
658.068	109.88
658.272	123.88
658.476	103.88
658.68	110.88
658.883	109.88
659.087	109.88
659.291	89.88
659.494	104.88
659.698	103.88
659.901	105.88
660.105	97.88
660.309	106.88
660.512	81.88
660.716	96.88
660.919	97.88
661.123	86.88
661.326	89.88
661.53	101.88
661.733	86.88
661.936	94.88
662.14	83.88
662.343	88.88
662.546	93.88
662.75	80.88
662.953	97.88
663.156	89.88
663.36	88.88
663.563	75.88
663.766	90.88
663.969	81.88
664.173	70.88
664.376	82.88
664.579	86.88
664.782	83.88
664.985	87.88
665.188	81.88
665.391	73.88
665.594	73.88
665.797	90.88
666	78.88
666.203	82.88
666.406	87.88
666.609	82.88
666.812	76.88
667.015	72.88
667.218	70.88
667.421	85.88
667.624	87.88
667.827	77.88
668.03	89.88
668.232	83.88
668.435	94.88
668.638	72.88
668.841	83.88
669.043	68.88
669.246	73.88
669.449	94.88
669.651	88.88
669.854	91.88
670.057	87.88
670.259	86.88
670.462	80.88
670.665	69.88
670.867	73.88
671.07	81.88
671.272	96.88
671.475	75.88
671.677	73.88
671.88	76.88
672.082	93.88
672.284	92.88
672.487	104.88
672.689	76.88
672.892	87.88
