Data from Ni(NO3)2@0.125M.TitratingCurve.Agarose3%dH2O.NegLispCup.LampEnergy10.LIBS07252019_HRD10591_18-11-34-569.txt Node
Date: Thu Jul 25 18:11:34 EDT 2019
User: cochatt
Spectrometer: HR+D1059
Trigger mode: 1
Integration Time (sec): 1.000000E-1
Scans to average: 1
Electric dark correction enabled: true
Nonlinearity correction enabled: false
Boxcar width: 0
XAxis mode: Wavelengths
Number of Pixels in Spectrum: 2048
>>>>>Begin Spectral Data<<<<<
223.165	-15.94
223.4	-15.94
223.635	-15.94
223.869	-11.94
224.104	-19.94
224.338	-14.94
224.573	-11.94
224.808	-16.94
225.042	-11.94
225.277	-0.94
225.511	-20.94
225.746	-13.94
225.98	24.06
226.215	6.06
226.449	19.06
226.683	26.06
226.918	30.06
227.152	34.06
227.387	38.06
227.621	39.06
227.856	55.06
228.09	44.06
228.324	57.06
228.559	64.06
228.793	51.06
229.027	69.06
229.262	82.06
229.496	86.06
229.73	87.06
229.964	97.06
230.199	112.06
230.433	106.06
230.667	106.06
230.901	113.06
231.136	116.06
231.37	121.06
231.604	124.06
231.838	129.06
232.072	120.06
232.306	118.06
232.541	133.06
232.775	133.06
233.009	127.06
233.243	129.06
233.477	120.06
233.711	132.06
233.945	135.06
234.179	130.06
234.413	124.06
234.647	124.06
234.881	121.06
235.115	136.06
235.349	136.06
235.583	126.06
235.817	113.06
236.051	124.06
236.285	129.06
236.519	154.06
236.753	124.06
236.987	134.06
237.221	128.06
237.455	142.06
237.689	132.06
237.922	148.06
238.156	140.06
238.39	156.06
238.624	126.06
238.858	125.06
239.091	148.06
239.325	136.06
239.559	148.06
239.793	145.06
240.027	146.06
240.26	145.06
240.494	149.06
240.728	136.06
240.961	144.06
241.195	155.06
241.429	145.06
241.662	148.06
241.896	148.06
242.13	161.06
242.363	152.06
242.597	157.06
242.83	155.06
243.064	150.06
243.298	152.06
243.531	154.06
243.765	139.06
243.998	155.06
244.232	154.06
244.465	147.06
244.699	169.06
244.932	163.06
245.166	165.06
245.399	165.06
245.633	146.06
245.866	158.06
246.099	171.06
246.333	171.06
246.566	156.06
246.8	161.06
247.033	171.06
247.266	166.06
247.5	160.06
247.733	171.06
247.966	174.06
248.2	176.06
248.433	173.06
248.666	178.06
248.899	164.06
249.133	186.06
249.366	190.06
249.599	189.06
249.832	194.06
250.066	188.06
250.299	197.06
250.532	176.06
250.765	180.06
250.998	200.06
251.231	192.06
251.465	209.06
251.698	204.06
251.931	206.06
252.164	180.06
252.397	173.06
252.63	201.06
252.863	209.06
253.096	203.06
253.329	215.06
253.562	205.06
253.795	207.06
254.028	215.06
254.261	225.06
254.494	213.06
254.727	209.06
254.96	218.06
255.193	209.06
255.426	235.06
255.659	205.06
255.892	218.06
256.124	215.06
256.357	229.06
256.59	202.06
256.823	217.06
257.056	252.06
257.289	206.06
257.521	207.06
257.754	224.06
257.987	207.06
258.22	212.06
258.452	223.06
258.685	226.06
258.918	222.06
259.151	224.06
259.383	227.06
259.616	236.06
259.849	213.06
260.081	218.06
260.314	237.06
260.547	233.06
260.779	238.06
261.012	233.06
261.244	213.06
261.477	219.06
261.71	252.06
261.942	233.06
262.175	234.06
262.407	227.06
262.64	239.06
262.872	248.06
263.105	252.06
263.337	268.06
263.57	250.06
263.802	240.06
264.035	258.06
264.267	257.06
264.499	265.06
264.732	266.06
264.964	242.06
265.197	246.06
265.429	249.06
265.661	251.06
265.894	248.06
266.126	260.06
266.358	250.06
266.591	255.06
266.823	250.06
267.055	260.06
267.287	265.06
267.52	264.06
267.752	259.06
267.984	266.06
268.216	264.06
268.448	275.06
268.681	264.06
268.913	281.06
269.145	275.06
269.377	267.06
269.609	268.06
269.841	276.06
270.073	268.06
270.306	267.06
270.538	266.06
270.77	264.06
271.002	274.06
271.234	270.06
271.466	278.06
271.698	280.06
271.93	279.06
272.162	273.06
272.394	289.06
272.626	289.06
272.858	288.06
273.09	302.06
273.322	280.06
273.553	276.06
273.785	292.06
274.017	302.06
274.249	301.06
274.481	283.06
274.713	296.06
274.945	278.06
275.176	286.06
275.408	290.06
275.64	293.06
275.872	303.06
276.104	297.06
276.335	280.06
276.567	302.06
276.799	305.06
277.031	305.06
277.262	315.06
277.494	309.06
277.726	320.06
277.957	296.06
278.189	311.06
278.421	305.06
278.652	292.06
278.884	320.06
279.115	306.06
279.347	299.06
279.579	315.06
279.81	323.06
280.042	325.06
280.273	319.06
280.505	300.06
280.736	313.06
280.968	344.06
281.199	323.06
281.431	343.06
281.662	323.06
281.894	324.06
282.125	332.06
282.356	345.06
282.588	338.06
282.819	345.06
283.051	343.06
283.282	338.06
283.513	316.06
283.745	338.06
283.976	330.06
284.207	333.06
284.439	321.06
284.67	349.06
284.901	344.06
285.132	345.06
285.364	348.06
285.595	342.06
285.826	344.06
286.057	349.06
286.288	340.06
286.52	354.06
286.751	356.06
286.982	352.06
287.213	354.06
287.444	360.06
287.675	354.06
287.906	372.06
288.138	359.06
288.369	373.06
288.6	370.06
288.831	370.06
289.062	357.06
289.293	359.06
289.524	378.06
289.755	360.06
289.986	370.06
290.217	359.06
290.448	351.06
290.679	391.06
290.91	389.06
291.141	390.06
291.371	372.06
291.602	359.06
291.833	381.06
292.064	363.06
292.295	379.06
292.526	372.06
292.757	360.06
292.987	388.06
293.218	366.06
293.449	378.06
293.68	375.06
293.91	362.06
294.141	362.06
294.372	371.06
294.603	372.06
294.833	384.06
295.064	368.06
295.295	379.06
295.525	363.06
295.756	380.06
295.987	368.06
296.217	394.06
296.448	409.06
296.679	385.06
296.909	413.06
297.14	399.06
297.37	422.06
297.601	396.06
297.831	397.06
298.062	393.06
298.292	404.06
298.523	411.06
298.753	406.06
298.984	390.06
299.214	400.06
299.445	410.06
299.675	394.06
299.905	406.06
300.136	383.06
300.366	395.06
300.597	422.06
300.827	433.06
301.057	421.06
301.288	424.06
301.518	437.06
301.748	429.06
301.979	412.06
302.209	441.06
302.439	418.06
302.669	408.06
302.9	409.06
303.13	419.06
303.36	419.06
303.59	418.06
303.82	412.06
304.051	408.06
304.281	424.06
304.511	418.06
304.741	438.06
304.971	416.06
305.201	423.06
305.431	433.06
305.661	419.06
305.891	424.06
306.121	418.06
306.352	429.06
306.582	392.06
306.812	421.06
307.042	411.06
307.272	420.06
307.502	433.06
307.731	420.06
307.961	399.06
308.191	401.06
308.421	409.06
308.651	398.06
308.881	405.06
309.111	424.06
309.341	417.06
309.571	413.06
309.8	424.06
310.03	421.06
310.26	414.06
310.49	421.06
310.72	411.06
310.949	404.06
311.179	425.06
311.409	430.06
311.639	396.06
311.868	408.06
312.098	428.06
312.328	437.06
312.557	438.06
312.787	429.06
313.017	439.06
313.246	429.06
313.476	435.06
313.706	417.06
313.935	461.06
314.165	429.06
314.394	432.06
314.624	468.06
314.853	442.06
315.083	445.06
315.312	472.06
315.542	416.06
315.771	438.06
316.001	424.06
316.23	437.06
316.46	432.06
316.689	438.06
316.919	435.06
317.148	426.06
317.377	438.06
317.607	438.06
317.836	425.06
318.065	418.06
318.295	450.06
318.524	430.06
318.753	416.06
318.983	427.06
319.212	431.06
319.441	439.06
319.67	446.06
319.9	412.06
320.129	449.06
320.358	440.06
320.587	425.06
320.816	416.06
321.046	436.06
321.275	445.06
321.504	435.06
321.733	426.06
321.962	444.06
322.191	443.06
322.42	423.06
322.649	427.06
322.878	449.06
323.108	461.06
323.337	457.06
323.566	432.06
323.795	452.06
324.024	463.06
324.253	441.06
324.482	441.06
324.71	473.06
324.939	464.06
325.168	457.06
325.397	426.06
325.626	479.06
325.855	459.06
326.084	478.06
326.313	474.06
326.542	456.06
326.77	477.06
326.999	490.06
327.228	470.06
327.457	471.06
327.686	462.06
327.914	467.06
328.143	474.06
328.372	483.06
328.6	460.06
328.829	458.06
329.058	456.06
329.287	485.06
329.515	479.06
329.744	503.06
329.972	484.06
330.201	490.06
330.43	481.06
330.658	476.06
330.887	501.06
331.115	512.06
331.344	503.06
331.572	518.06
331.801	499.06
332.03	540.06
332.258	549.06
332.486	536.06
332.715	572.06
332.943	583.06
333.172	617.06
333.4	646.06
333.629	654.06
333.857	659.06
334.085	644.06
334.314	658.06
334.542	619.06
334.771	613.06
334.999	605.06
335.227	603.06
335.455	579.06
335.684	616.06
335.912	597.06
336.14	592.06
336.369	580.06
336.597	580.06
336.825	594.06
337.053	580.06
337.281	561.06
337.51	544.06
337.738	548.06
337.966	548.06
338.194	536.06
338.422	527.06
338.65	506.06
338.878	532.06
339.106	530.06
339.334	516.06
339.562	503.06
339.79	493.06
340.018	532.06
340.246	487.06
340.474	484.06
340.702	513.06
340.93	520.06
341.158	516.06
341.386	497.06
341.614	485.06
341.842	509.06
342.07	515.06
342.298	523.06
342.526	486.06
342.754	503.06
342.981	514.06
343.209	515.06
343.437	545.06
343.665	561.06
343.893	596.06
344.12	629.06
344.348	606.06
344.576	566.06
344.804	553.06
345.031	516.06
345.259	520.06
345.487	500.06
345.714	500.06
345.942	475.06
346.17	488.06
346.397	510.06
346.625	491.06
346.853	496.06
347.08	496.06
347.308	485.06
347.535	529.06
347.763	500.06
347.99	509.06
348.218	525.06
348.445	490.06
348.673	511.06
348.9	480.06
349.128	480.06
349.355	493.06
349.583	493.06
349.81	472.06
350.037	491.06
350.265	473.06
350.492	476.06
350.72	485.06
350.947	477.06
351.174	468.06
351.402	456.06
351.629	472.06
351.856	458.06
352.083	480.06
352.311	480.06
352.538	471.06
352.765	459.06
352.992	478.06
353.22	470.06
353.447	443.06
353.674	469.06
353.901	464.06
354.128	462.06
354.355	453.06
354.583	468.06
354.81	482.06
355.037	477.06
355.264	480.06
355.491	483.06
355.718	482.06
355.945	481.06
356.172	488.06
356.399	467.06
356.626	470.06
356.853	476.06
357.08	475.06
357.307	470.06
357.534	496.06
357.761	474.06
357.988	467.06
358.215	456.06
358.441	468.06
358.668	466.06
358.895	489.06
359.122	486.06
359.349	477.06
359.576	453.06
359.802	465.06
360.029	469.06
360.256	481.06
360.483	486.06
360.709	482.06
360.936	478.06
361.163	450.06
361.39	467.06
361.616	485.06
361.843	489.06
362.07	478.06
362.296	454.06
362.523	469.06
362.749	472.06
362.976	450.06
363.203	476.06
363.429	453.06
363.656	457.06
363.882	483.06
364.109	483.06
364.335	470.06
364.562	478.06
364.788	464.06
365.015	483.06
365.241	479.06
365.468	459.06
365.694	456.06
365.92	474.06
366.147	463.06
366.373	480.06
366.599	478.06
366.826	465.06
367.052	456.06
367.278	471.06
367.505	491.06
367.731	460.06
367.957	468.06
368.184	466.06
368.41	466.06
368.636	467.06
368.862	485.06
369.089	482.06
369.315	484.06
369.541	499.06
369.767	508.06
369.993	489.06
370.219	466.06
370.445	470.06
370.672	507.06
370.898	500.06
371.124	523.06
371.35	519.06
371.576	512.06
371.802	507.06
372.028	505.06
372.254	527.06
372.48	520.06
372.706	517.06
372.932	534.06
373.158	531.06
373.384	545.06
373.61	540.06
373.835	517.06
374.061	503.06
374.287	531.06
374.513	506.06
374.739	560.06
374.965	544.06
375.191	572.06
375.416	596.06
375.642	553.06
375.868	544.06
376.094	560.06
376.319	516.06
376.545	524.06
376.771	520.06
376.997	522.06
377.222	522.06
377.448	515.06
377.674	514.06
377.899	523.06
378.125	520.06
378.35	512.06
378.576	493.06
378.802	512.06
379.027	484.06
379.253	512.06
379.478	501.06
379.704	494.06
379.929	520.06
380.155	490.06
380.38	514.06
380.606	496.06
380.831	508.06
381.057	510.06
381.282	497.06
381.507	514.06
381.733	512.06
381.958	508.06
382.184	527.06
382.409	529.06
382.634	540.06
382.86	554.06
383.085	569.06
383.31	545.06
383.535	547.06
383.761	568.06
383.986	577.06
384.211	610.06
384.436	591.06
384.662	603.06
384.887	621.06
385.112	614.06
385.337	621.06
385.562	632.06
385.787	606.06
386.013	616.06
386.238	601.06
386.463	630.06
386.688	587.06
386.913	616.06
387.138	581.06
387.363	576.06
387.588	594.06
387.813	626.06
388.038	588.06
388.263	597.06
388.488	601.06
388.713	605.06
388.938	610.06
389.163	573.06
389.387	600.06
389.612	597.06
389.837	606.06
390.062	567.06
390.287	624.06
390.512	584.06
390.736	606.06
390.961	605.06
391.186	630.06
391.411	636.06
391.636	669.06
391.86	675.06
392.085	677.06
392.31	689.06
392.534	674.06
392.759	653.06
392.984	642.06
393.208	649.06
393.433	641.06
393.658	651.06
393.882	648.06
394.107	664.06
394.331	655.06
394.556	643.06
394.78	670.06
395.005	670.06
395.229	655.06
395.454	650.06
395.678	683.06
395.903	691.06
396.127	680.06
396.352	629.06
396.576	635.06
396.801	635.06
397.025	638.06
397.249	682.06
397.474	668.06
397.698	698.06
397.922	674.06
398.147	672.06
398.371	686.06
398.595	721.06
398.82	730.06
399.044	773.06
399.268	900.06
399.492	1030.06
399.717	1140.06
399.941	1184.06
400.165	990.06
400.389	887.06
400.613	837.06
400.837	788.06
401.062	782.06
401.286	753.06
401.51	758.06
401.734	769.06
401.958	763.06
402.182	801.06
402.406	775.06
402.63	800.06
402.854	809.06
403.078	866.06
403.302	847.06
403.526	867.06
403.75	899.06
403.974	902.06
404.198	896.06
404.422	910.06
404.645	884.06
404.869	866.06
405.093	881.06
405.317	847.06
405.541	848.06
405.765	839.06
405.988	816.06
406.212	858.06
406.436	839.06
406.66	880.06
406.883	858.06
407.107	885.06
407.331	960.06
407.555	980.06
407.778	968.06
408.002	954.06
408.226	910.06
408.449	927.06
408.673	857.06
408.896	844.06
409.12	886.06
409.344	868.06
409.567	846.06
409.791	868.06
410.014	905.06
410.238	872.06
410.461	845.06
410.685	836.06
410.908	816.06
411.132	817.06
411.355	826.06
411.578	829.06
411.802	797.06
412.025	792.06
412.249	796.06
412.472	792.06
412.695	774.06
412.919	734.06
413.142	765.06
413.365	738.06
413.589	767.06
413.812	760.06
414.035	758.06
414.258	741.06
414.482	757.06
414.705	782.06
414.928	782.06
415.151	785.06
415.374	749.06
415.597	779.06
415.821	732.06
416.044	752.06
416.267	749.06
416.49	737.06
416.713	725.06
416.936	754.06
417.159	746.06
417.382	738.06
417.605	744.06
417.828	735.06
418.051	753.06
418.274	787.06
418.497	781.06
418.72	798.06
418.943	762.06
419.166	852.06
419.389	850.06
419.611	884.06
419.834	811.06
420.057	792.06
420.28	762.06
420.503	747.06
420.726	754.06
420.948	772.06
421.171	756.06
421.394	753.06
421.617	749.06
421.839	774.06
422.062	766.06
422.285	748.06
422.507	802.06
422.73	796.06
422.953	763.06
423.175	789.06
423.398	802.06
423.621	800.06
423.843	809.06
424.066	818.06
424.288	797.06
424.511	800.06
424.733	800.06
424.956	792.06
425.178	771.06
425.401	794.06
425.623	784.06
425.846	736.06
426.068	728.06
426.291	728.06
426.513	729.06
426.735	709.06
426.958	704.06
427.18	706.06
427.402	701.06
427.625	693.06
427.847	693.06
428.069	689.06
428.292	674.06
428.514	676.06
428.736	673.06
428.958	689.06
429.181	679.06
429.403	652.06
429.625	670.06
429.847	666.06
430.069	664.06
430.292	679.06
430.514	662.06
430.736	667.06
430.958	639.06
431.18	664.06
431.402	666.06
431.624	665.06
431.846	675.06
432.068	693.06
432.29	678.06
432.512	690.06
432.734	693.06
432.956	696.06
433.178	704.06
433.4	677.06
433.622	676.06
433.844	689.06
434.066	709.06
434.287	703.06
434.509	712.06
434.731	744.06
434.953	746.06
435.175	792.06
435.397	763.06
435.618	709.06
435.84	704.06
436.062	684.06
436.284	678.06
436.505	667.06
436.727	682.06
436.949	711.06
437.17	695.06
437.392	668.06
437.614	697.06
437.835	645.06
438.057	675.06
438.278	655.06
438.5	667.06
438.721	636.06
438.943	665.06
439.165	660.06
439.386	665.06
439.608	680.06
439.829	688.06
440.05	692.06
440.272	684.06
440.493	707.06
440.715	722.06
440.936	707.06
441.158	728.06
441.379	722.06
441.6	763.06
441.822	812.06
442.043	815.06
442.264	749.06
442.486	738.06
442.707	769.06
442.928	747.06
443.149	773.06
443.371	773.06
443.592	762.06
443.813	768.06
444.034	767.06
444.255	809.06
444.476	854.06
444.698	902.06
444.919	929.06
445.14	1016.06
445.361	880.06
445.582	799.06
445.803	773.06
446.024	729.06
446.245	733.06
446.466	740.06
446.687	698.06
446.908	691.06
447.129	662.06
447.35	688.06
447.571	680.06
447.792	650.06
448.013	652.06
448.234	657.06
448.455	658.06
448.675	649.06
448.896	637.06
449.117	650.06
449.338	644.06
449.559	646.06
449.779	639.06
450	606.06
450.221	646.06
450.442	648.06
450.662	650.06
450.883	637.06
451.104	675.06
451.324	661.06
451.545	632.06
451.766	661.06
451.986	629.06
452.207	641.06
452.428	652.06
452.648	638.06
452.869	612.06
453.089	630.06
453.31	627.06
453.53	624.06
453.751	642.06
453.971	622.06
454.192	624.06
454.412	619.06
454.633	620.06
454.853	604.06
455.073	608.06
455.294	617.06
455.514	593.06
455.734	580.06
455.955	588.06
456.175	610.06
456.395	576.06
456.616	604.06
456.836	573.06
457.056	589.06
457.276	577.06
457.497	598.06
457.717	561.06
457.937	596.06
458.157	599.06
458.377	612.06
458.598	620.06
458.818	643.06
459.038	644.06
459.258	659.06
459.478	660.06
459.698	711.06
459.918	738.06
460.138	744.06
460.358	800.06
460.578	818.06
460.798	821.06
461.018	852.06
461.238	806.06
461.458	790.06
461.678	789.06
461.898	831.06
462.118	808.06
462.338	885.06
462.558	890.06
462.777	906.06
462.997	1006.06
463.217	1138.06
463.437	1110.06
463.657	981.06
463.876	972.06
464.096	949.06
464.316	961.06
464.536	961.06
464.755	918.06
464.975	898.06
465.195	829.06
465.414	789.06
465.634	740.06
465.854	725.06
466.073	712.06
466.293	692.06
466.512	676.06
466.732	665.06
466.951	666.06
467.171	661.06
467.391	666.06
467.61	666.06
467.829	657.06
468.049	640.06
468.268	631.06
468.488	637.06
468.707	622.06
468.927	646.06
469.146	647.06
469.365	631.06
469.585	653.06
469.804	666.06
470.023	690.06
470.243	690.06
470.462	686.06
470.681	680.06
470.901	689.06
471.12	666.06
471.339	680.06
471.558	654.06
471.777	629.06
471.997	644.06
472.216	618.06
472.435	608.06
472.654	628.06
472.873	586.06
473.092	616.06
473.311	605.06
473.53	607.06
473.749	625.06
473.968	608.06
474.187	590.06
474.406	593.06
474.625	602.06
474.844	602.06
475.063	610.06
475.282	586.06
475.501	636.06
475.72	626.06
475.939	626.06
476.158	632.06
476.377	626.06
476.596	651.06
476.814	636.06
477.033	655.06
477.252	667.06
477.471	657.06
477.69	673.06
477.908	684.06
478.127	713.06
478.346	730.06
478.564	734.06
478.783	753.06
479.002	793.06
479.22	793.06
479.439	760.06
479.658	764.06
479.876	764.06
480.095	749.06
480.313	777.06
480.532	822.06
480.751	810.06
480.969	802.06
481.188	732.06
481.406	723.06
481.624	714.06
481.843	680.06
482.061	693.06
482.28	704.06
482.498	688.06
482.717	677.06
482.935	671.06
483.153	674.06
483.372	711.06
483.59	715.06
483.808	683.06
484.027	707.06
484.245	709.06
484.463	701.06
484.681	703.06
484.9	698.06
485.118	719.06
485.336	726.06
485.554	744.06
485.772	700.06
485.99	751.06
486.209	750.06
486.427	748.06
486.645	756.06
486.863	735.06
487.081	719.06
487.299	702.06
487.517	729.06
487.735	722.06
487.953	728.06
488.171	758.06
488.389	753.06
488.607	713.06
488.825	727.06
489.043	718.06
489.261	711.06
489.479	714.06
489.696	741.06
489.914	732.06
490.132	715.06
490.35	724.06
490.568	741.06
490.786	750.06
491.003	727.06
491.221	729.06
491.439	722.06
491.657	737.06
491.874	738.06
492.092	726.06
492.31	727.06
492.527	744.06
492.745	729.06
492.963	752.06
493.18	724.06
493.398	753.06
493.615	752.06
493.833	763.06
494.05	764.06
494.268	761.06
494.485	763.06
494.703	781.06
494.92	786.06
495.138	768.06
495.355	760.06
495.573	780.06
495.79	777.06
496.008	758.06
496.225	785.06
496.442	769.06
496.66	790.06
496.877	817.06
497.094	838.06
497.312	836.06
497.529	859.06
497.746	868.06
497.963	896.06
498.181	935.06
498.398	950.06
498.615	1021.06
498.832	1045.06
499.049	1162.06
499.267	1262.06
499.484	1417.06
499.701	1558.06
499.918	1719.06
500.135	1981.06
500.352	2328.06
500.569	2452.06
500.786	2436.06
501.003	2208.06
501.22	1942.06
501.437	1685.06
501.654	1441.06
501.871	1321.06
502.088	1232.06
502.305	1149.06
502.522	1113.06
502.739	1039.06
502.956	993.06
503.172	965.06
503.389	900.06
503.606	882.06
503.823	846.06
504.04	851.06
504.256	886.06
504.473	911.06
504.69	972.06
504.907	909.06
505.123	845.06
505.34	802.06
505.557	754.06
505.773	742.06
505.99	707.06
506.207	724.06
506.423	697.06
506.64	723.06
506.856	680.06
507.073	690.06
507.289	685.06
507.506	683.06
507.722	686.06
507.939	670.06
508.155	697.06
508.372	649.06
508.588	665.06
508.805	646.06
509.021	667.06
509.238	660.06
509.454	661.06
509.67	629.06
509.887	662.06
510.103	634.06
510.319	634.06
510.536	645.06
510.752	619.06
510.968	594.06
511.184	611.06
511.401	610.06
511.617	604.06
511.833	609.06
512.049	624.06
512.265	634.06
512.481	632.06
512.698	612.06
512.914	623.06
513.13	603.06
513.346	605.06
513.562	625.06
513.778	615.06
513.994	620.06
514.21	641.06
514.426	634.06
514.642	631.06
514.858	623.06
515.074	641.06
515.29	661.06
515.506	654.06
515.721	632.06
515.937	672.06
516.153	666.06
516.369	676.06
516.585	700.06
516.801	739.06
517.016	782.06
517.232	817.06
517.448	844.06
517.664	906.06
517.879	895.06
518.095	924.06
518.311	888.06
518.527	835.06
518.742	772.06
518.958	737.06
519.173	704.06
519.389	708.06
519.605	698.06
519.82	670.06
520.036	678.06
520.251	650.06
520.467	663.06
520.682	645.06
520.898	610.06
521.113	639.06
521.329	636.06
521.544	615.06
521.76	621.06
521.975	587.06
522.19	611.06
522.406	592.06
522.621	585.06
522.836	582.06
523.052	604.06
523.267	582.06
523.482	570.06
523.698	590.06
523.913	568.06
524.128	564.06
524.343	584.06
524.559	575.06
524.774	588.06
524.989	591.06
525.204	578.06
525.419	578.06
525.634	539.06
525.849	575.06
526.064	572.06
526.28	586.06
526.495	571.06
526.71	595.06
526.925	558.06
527.14	561.06
527.355	562.06
527.57	565.06
527.785	561.06
527.999	570.06
528.214	573.06
528.429	565.06
528.644	580.06
528.859	568.06
529.074	564.06
529.289	581.06
529.503	579.06
529.718	580.06
529.933	549.06
530.148	548.06
530.363	562.06
530.577	560.06
530.792	562.06
531.007	554.06
531.221	577.06
531.436	553.06
531.651	562.06
531.865	554.06
532.08	561.06
532.295	575.06
532.509	574.06
532.724	581.06
532.938	557.06
533.153	562.06
533.367	573.06
533.582	557.06
533.796	568.06
534.011	563.06
534.225	553.06
534.44	539.06
534.654	572.06
534.868	552.06
535.083	539.06
535.297	546.06
535.511	547.06
535.726	555.06
535.94	547.06
536.154	554.06
536.369	524.06
536.583	536.06
536.797	525.06
537.011	542.06
537.225	520.06
537.44	532.06
537.654	553.06
537.868	523.06
538.082	524.06
538.296	491.06
538.51	498.06
538.724	518.06
538.938	529.06
539.153	506.06
539.367	505.06
539.581	519.06
539.795	501.06
540.009	493.06
540.222	526.06
540.436	521.06
540.65	508.06
540.864	494.06
541.078	503.06
541.292	525.06
541.506	513.06
541.72	514.06
541.934	533.06
542.147	496.06
542.361	509.06
542.575	501.06
542.789	511.06
543.002	507.06
543.216	499.06
543.43	493.06
543.644	489.06
543.857	508.06
544.071	509.06
544.285	505.06
544.498	503.06
544.712	504.06
544.925	515.06
545.139	503.06
545.352	530.06
545.566	513.06
545.779	515.06
545.993	508.06
546.206	514.06
546.42	523.06
546.633	532.06
546.847	511.06
547.06	528.06
547.274	517.06
547.487	522.06
547.7	533.06
547.914	534.06
548.127	518.06
548.34	501.06
548.554	533.06
548.767	522.06
548.98	516.06
549.193	529.06
549.407	546.06
549.62	531.06
549.833	546.06
550.046	551.06
550.259	524.06
550.473	530.06
550.686	532.06
550.899	527.06
551.112	494.06
551.325	489.06
551.538	525.06
551.751	487.06
551.964	522.06
552.177	520.06
552.39	519.06
552.603	528.06
552.816	542.06
553.029	560.06
553.242	552.06
553.455	574.06
553.667	570.06
553.88	563.06
554.093	553.06
554.306	554.06
554.519	536.06
554.732	545.06
554.944	499.06
555.157	476.06
555.37	503.06
555.583	485.06
555.795	474.06
556.008	485.06
556.221	484.06
556.433	461.06
556.646	462.06
556.859	455.06
557.071	489.06
557.284	452.06
557.496	448.06
557.709	461.06
557.921	452.06
558.134	445.06
558.346	439.06
558.559	433.06
558.771	423.06
558.984	415.06
559.196	450.06
559.409	435.06
559.621	438.06
559.833	442.06
560.046	421.06
560.258	429.06
560.47	428.06
560.683	421.06
560.895	434.06
561.107	424.06
561.32	438.06
561.532	427.06
561.744	450.06
561.956	438.06
562.168	420.06
562.381	432.06
562.593	435.06
562.805	423.06
563.017	451.06
563.229	426.06
563.441	451.06
563.653	430.06
563.865	432.06
564.077	434.06
564.289	433.06
564.501	450.06
564.713	460.06
564.925	459.06
565.137	466.06
565.349	472.06
565.561	513.06
565.773	532.06
565.985	534.06
566.197	537.06
566.408	603.06
566.62	618.06
566.832	706.06
567.044	709.06
567.255	703.06
567.467	714.06
567.679	754.06
567.891	874.06
568.102	883.06
568.314	826.06
568.526	731.06
568.737	672.06
568.949	597.06
569.161	542.06
569.372	489.06
569.584	496.06
569.795	465.06
570.007	482.06
570.218	465.06
570.43	432.06
570.641	455.06
570.853	443.06
571.064	444.06
571.276	448.06
571.487	441.06
571.698	421.06
571.91	397.06
572.121	395.06
572.333	381.06
572.544	385.06
572.755	372.06
572.966	380.06
573.178	385.06
573.389	381.06
573.6	380.06
573.811	357.06
574.023	365.06
574.234	349.06
574.445	355.06
574.656	373.06
574.867	380.06
575.078	377.06
575.289	371.06
575.501	344.06
575.712	344.06
575.923	331.06
576.134	341.06
576.345	334.06
576.556	368.06
576.767	333.06
576.978	347.06
577.188	333.06
577.399	373.06
577.61	337.06
577.821	344.06
578.032	318.06
578.243	353.06
578.454	335.06
578.665	340.06
578.875	332.06
579.086	334.06
579.297	323.06
579.508	334.06
579.718	312.06
579.929	326.06
580.14	319.06
580.35	305.06
580.561	320.06
580.772	307.06
580.982	325.06
581.193	328.06
581.403	325.06
581.614	303.06
581.825	301.06
582.035	320.06
582.246	321.06
582.456	312.06
582.667	321.06
582.877	315.06
583.087	298.06
583.298	301.06
583.508	299.06
583.719	306.06
583.929	314.06
584.139	304.06
584.35	298.06
584.56	304.06
584.77	308.06
584.981	309.06
585.191	302.06
585.401	310.06
585.611	296.06
585.821	291.06
586.032	314.06
586.242	308.06
586.452	304.06
586.662	285.06
586.872	304.06
587.082	286.06
587.292	293.06
587.502	294.06
587.713	301.06
587.923	280.06
588.133	294.06
588.343	321.06
588.553	313.06
588.762	278.06
588.972	283.06
589.182	296.06
589.392	306.06
589.602	298.06
589.812	295.06
590.022	306.06
590.232	293.06
590.441	289.06
590.651	292.06
590.861	289.06
591.071	306.06
591.281	318.06
591.49	289.06
591.7	317.06
591.91	310.06
592.119	326.06
592.329	321.06
592.539	342.06
592.748	348.06
592.958	325.06
593.167	360.06
593.377	370.06
593.587	361.06
593.796	365.06
594.006	377.06
594.215	378.06
594.424	396.06
594.634	360.06
594.843	363.06
595.053	333.06
595.262	323.06
595.472	333.06
595.681	320.06
595.89	288.06
596.1	287.06
596.309	291.06
596.518	294.06
596.727	290.06
596.937	281.06
597.146	279.06
597.355	253.06
597.564	272.06
597.774	284.06
597.983	264.06
598.192	269.06
598.401	264.06
598.61	274.06
598.819	265.06
599.028	260.06
599.237	269.06
599.446	251.06
599.655	252.06
599.864	261.06
600.073	250.06
600.282	262.06
600.491	233.06
600.7	241.06
600.909	250.06
601.118	260.06
601.327	242.06
601.536	255.06
601.745	245.06
601.953	262.06
602.162	259.06
602.371	261.06
602.58	243.06
602.789	246.06
602.997	242.06
603.206	242.06
603.415	246.06
603.623	233.06
603.832	230.06
604.041	242.06
604.249	242.06
604.458	244.06
604.666	236.06
604.875	221.06
605.084	237.06
605.292	245.06
605.501	224.06
605.709	254.06
605.918	242.06
606.126	218.06
606.334	223.06
606.543	216.06
606.751	254.06
606.96	235.06
607.168	227.06
607.376	233.06
607.585	236.06
607.793	216.06
608.001	235.06
608.21	246.06
608.418	223.06
608.626	236.06
608.834	228.06
609.043	244.06
609.251	216.06
609.459	237.06
609.667	220.06
609.875	231.06
610.083	240.06
610.291	236.06
610.499	245.06
610.707	228.06
610.916	221.06
611.124	218.06
611.332	225.06
611.54	241.06
611.748	240.06
611.955	226.06
612.163	220.06
612.371	222.06
612.579	226.06
612.787	227.06
612.995	232.06
613.203	221.06
613.411	230.06
613.618	219.06
613.826	243.06
614.034	225.06
614.242	244.06
614.449	215.06
614.657	226.06
614.865	211.06
615.072	219.06
615.28	233.06
615.488	221.06
615.695	232.06
615.903	223.06
616.111	231.06
616.318	218.06
616.526	218.06
616.733	229.06
616.941	224.06
617.148	224.06
617.356	245.06
617.563	226.06
617.771	223.06
617.978	219.06
618.185	229.06
618.393	224.06
618.6	218.06
618.807	204.06
619.015	210.06
619.222	217.06
619.429	214.06
619.637	204.06
619.844	208.06
620.051	221.06
620.258	218.06
620.466	210.06
620.673	189.06
620.88	201.06
621.087	205.06
621.294	207.06
621.501	209.06
621.708	198.06
621.915	192.06
622.122	203.06
622.329	211.06
622.536	198.06
622.743	187.06
622.95	205.06
623.157	214.06
623.364	214.06
623.571	191.06
623.778	200.06
623.985	209.06
624.192	195.06
624.399	196.06
624.606	205.06
624.812	206.06
625.019	183.06
625.226	198.06
625.433	193.06
625.639	180.06
625.846	195.06
626.053	198.06
626.259	188.06
626.466	200.06
626.673	189.06
626.879	181.06
627.086	199.06
627.293	180.06
627.499	196.06
627.706	183.06
627.912	201.06
628.119	186.06
628.325	191.06
628.532	172.06
628.738	183.06
628.945	177.06
629.151	190.06
629.357	199.06
629.564	197.06
629.77	177.06
629.976	190.06
630.183	176.06
630.389	190.06
630.595	175.06
630.802	178.06
631.008	173.06
631.214	163.06
631.42	165.06
631.627	170.06
631.833	177.06
632.039	168.06
632.245	162.06
632.451	167.06
632.657	166.06
632.863	168.06
633.069	182.06
633.275	174.06
633.481	171.06
633.688	178.06
633.893	183.06
634.099	166.06
634.305	162.06
634.511	170.06
634.717	174.06
634.923	184.06
635.129	176.06
635.335	169.06
635.541	163.06
635.747	168.06
635.952	167.06
636.158	164.06
636.364	168.06
636.57	154.06
636.775	170.06
636.981	176.06
637.187	175.06
637.392	166.06
637.598	164.06
637.804	166.06
638.009	166.06
638.215	163.06
638.421	164.06
638.626	148.06
638.832	156.06
639.037	161.06
639.243	160.06
639.448	176.06
639.654	176.06
639.859	164.06
640.065	172.06
640.27	171.06
640.475	163.06
640.681	164.06
640.886	168.06
641.091	148.06
641.297	161.06
641.502	159.06
641.707	161.06
641.913	165.06
642.118	157.06
642.323	157.06
642.528	149.06
642.733	157.06
642.939	153.06
643.144	142.06
643.349	163.06
643.554	168.06
643.759	172.06
643.964	147.06
644.169	146.06
644.374	149.06
644.579	149.06
644.784	162.06
644.989	162.06
645.194	153.06
645.399	163.06
645.604	173.06
645.809	154.06
646.014	154.06
646.219	156.06
646.423	149.06
646.628	154.06
646.833	168.06
647.038	163.06
647.243	161.06
647.447	148.06
647.652	163.06
647.857	152.06
648.062	146.06
648.266	162.06
648.471	156.06
648.676	166.06
648.88	158.06
649.085	160.06
649.289	156.06
649.494	142.06
649.698	150.06
649.903	144.06
650.107	156.06
650.312	148.06
650.516	135.06
650.721	141.06
650.925	153.06
651.13	144.06
651.334	129.06
651.539	138.06
651.743	135.06
651.947	136.06
652.152	141.06
652.356	137.06
652.56	125.06
652.764	135.06
652.969	117.06
653.173	132.06
653.377	130.06
653.581	120.06
653.785	121.06
653.99	133.06
654.194	134.06
654.398	130.06
654.602	122.06
654.806	114.06
655.01	117.06
655.214	113.06
655.418	120.06
655.622	122.06
655.826	125.06
656.03	137.06
656.234	129.06
656.438	119.06
656.642	107.06
656.846	112.06
657.049	118.06
657.253	130.06
657.457	116.06
657.661	109.06
657.865	112.06
658.068	111.06
658.272	114.06
658.476	102.06
658.68	96.06
658.883	89.06
659.087	93.06
659.291	106.06
659.494	96.06
659.698	91.06
659.901	96.06
660.105	94.06
660.309	88.06
660.512	83.06
660.716	92.06
660.919	77.06
661.123	93.06
661.326	102.06
661.53	96.06
661.733	83.06
661.936	80.06
662.14	93.06
662.343	83.06
662.546	81.06
662.75	93.06
662.953	91.06
663.156	88.06
663.36	88.06
663.563	86.06
663.766	84.06
663.969	84.06
664.173	77.06
664.376	87.06
664.579	72.06
664.782	84.06
664.985	92.06
665.188	82.06
665.391	87.06
665.594	70.06
665.797	91.06
666	69.06
666.203	79.06
666.406	78.06
666.609	92.06
666.812	89.06
667.015	75.06
667.218	81.06
667.421	78.06
667.624	86.06
667.827	88.06
668.03	80.06
668.232	83.06
668.435	69.06
668.638	86.06
668.841	88.06
669.043	84.06
669.246	85.06
669.449	75.06
669.651	72.06
669.854	80.06
670.057	79.06
670.259	78.06
670.462	78.06
670.665	81.06
670.867	85.06
671.07	92.06
671.272	94.06
671.475	81.06
671.677	80.06
671.88	59.06
672.082	80.06
672.284	78.06
672.487	83.06
672.689	84.06
672.892	78.06
