Data from Ni(NO3)2@0.5M.TitratingCurve.Agarose3%dH2O.NegLispCup.LampEnergy10.LIBS07252019_HRD10591_18-00-08-565.txt Node
Date: Thu Jul 25 18:00:08 EDT 2019
User: cochatt
Spectrometer: HR+D1059
Trigger mode: 1
Integration Time (sec): 1.000000E-1
Scans to average: 1
Electric dark correction enabled: true
Nonlinearity correction enabled: false
Boxcar width: 0
XAxis mode: Wavelengths
Number of Pixels in Spectrum: 2048
>>>>>Begin Spectral Data<<<<<
223.165	-12.06
223.4	-12.06
223.635	-12.06
223.869	-22.06
224.104	-7.06
224.338	-23.06
224.573	-19.06
224.808	-11.06
225.042	-6.06
225.277	-13.06
225.511	-6.06
225.746	3.94
225.98	5.94
226.215	14.94
226.449	20.94
226.683	10.94
226.918	32.94
227.152	29.94
227.387	35.94
227.621	40.94
227.856	54.94
228.09	45.94
228.324	49.94
228.559	47.94
228.793	69.94
229.027	133.94
229.262	153.94
229.496	164.94
229.73	148.94
229.964	186.94
230.199	225.94
230.433	231.94
230.667	215.94
230.901	209.94
231.136	179.94
231.37	188.94
231.604	200.94
231.838	203.94
232.072	234.94
232.306	224.94
232.541	202.94
232.775	193.94
233.009	168.94
233.243	178.94
233.477	195.94
233.711	186.94
233.945	180.94
234.179	189.94
234.413	203.94
234.647	185.94
234.881	212.94
235.115	189.94
235.349	191.94
235.583	178.94
235.817	197.94
236.051	202.94
236.285	196.94
236.519	180.94
236.753	193.94
236.987	194.94
237.221	193.94
237.455	199.94
237.689	190.94
237.922	219.94
238.156	216.94
238.39	194.94
238.624	205.94
238.858	216.94
239.091	228.94
239.325	221.94
239.559	226.94
239.793	272.94
240.027	273.94
240.26	235.94
240.494	229.94
240.728	229.94
240.961	214.94
241.195	215.94
241.429	233.94
241.662	251.94
241.896	259.94
242.13	286.94
242.363	246.94
242.597	233.94
242.83	241.94
243.064	250.94
243.298	257.94
243.531	268.94
243.765	252.94
243.998	266.94
244.232	275.94
244.465	272.94
244.699	271.94
244.932	271.94
245.166	248.94
245.399	266.94
245.633	274.94
245.866	265.94
246.099	277.94
246.333	278.94
246.566	269.94
246.8	281.94
247.033	272.94
247.266	289.94
247.5	287.94
247.733	302.94
247.966	295.94
248.2	302.94
248.433	310.94
248.666	334.94
248.899	309.94
249.133	311.94
249.366	324.94
249.599	306.94
249.832	310.94
250.066	329.94
250.299	317.94
250.532	350.94
250.765	350.94
250.998	346.94
251.231	346.94
251.465	359.94
251.698	363.94
251.931	331.94
252.164	310.94
252.397	353.94
252.63	361.94
252.863	347.94
253.096	335.94
253.329	344.94
253.562	365.94
253.795	347.94
254.028	367.94
254.261	375.94
254.494	363.94
254.727	370.94
254.96	371.94
255.193	382.94
255.426	391.94
255.659	354.94
255.892	398.94
256.124	379.94
256.357	376.94
256.59	374.94
256.823	383.94
257.056	410.94
257.289	377.94
257.521	409.94
257.754	404.94
257.987	390.94
258.22	412.94
258.452	409.94
258.685	382.94
258.918	407.94
259.151	414.94
259.383	418.94
259.616	422.94
259.849	429.94
260.081	427.94
260.314	439.94
260.547	410.94
260.779	432.94
261.012	435.94
261.244	446.94
261.477	451.94
261.71	440.94
261.942	434.94
262.175	460.94
262.407	433.94
262.64	438.94
262.872	442.94
263.105	443.94
263.337	455.94
263.57	459.94
263.802	456.94
264.035	453.94
264.267	445.94
264.499	468.94
264.732	454.94
264.964	469.94
265.197	468.94
265.429	458.94
265.661	457.94
265.894	482.94
266.126	474.94
266.358	499.94
266.591	493.94
266.823	506.94
267.055	517.94
267.287	512.94
267.52	493.94
267.752	487.94
267.984	499.94
268.216	510.94
268.448	507.94
268.681	525.94
268.913	492.94
269.145	497.94
269.377	499.94
269.609	492.94
269.841	493.94
270.073	507.94
270.306	517.94
270.538	501.94
270.77	521.94
271.002	533.94
271.234	521.94
271.466	550.94
271.698	526.94
271.93	522.94
272.162	563.94
272.394	552.94
272.626	543.94
272.858	539.94
273.09	553.94
273.322	552.94
273.553	538.94
273.785	537.94
274.017	555.94
274.249	545.94
274.481	532.94
274.713	558.94
274.945	577.94
275.176	556.94
275.408	567.94
275.64	585.94
275.872	568.94
276.104	559.94
276.335	575.94
276.567	571.94
276.799	569.94
277.031	590.94
277.262	596.94
277.494	604.94
277.726	584.94
277.957	590.94
278.189	595.94
278.421	597.94
278.652	593.94
278.884	609.94
279.115	589.94
279.347	621.94
279.579	628.94
279.81	605.94
280.042	620.94
280.273	611.94
280.505	601.94
280.736	622.94
280.968	617.94
281.199	649.94
281.431	654.94
281.662	619.94
281.894	623.94
282.125	632.94
282.356	655.94
282.588	617.94
282.819	633.94
283.051	647.94
283.282	637.94
283.513	644.94
283.745	655.94
283.976	686.94
284.207	652.94
284.439	666.94
284.67	656.94
284.901	662.94
285.132	645.94
285.364	657.94
285.595	678.94
285.826	705.94
286.057	676.94
286.288	662.94
286.52	669.94
286.751	671.94
286.982	666.94
287.213	684.94
287.444	675.94
287.675	683.94
287.906	686.94
288.138	678.94
288.369	685.94
288.6	697.94
288.831	697.94
289.062	691.94
289.293	688.94
289.524	693.94
289.755	702.94
289.986	707.94
290.217	679.94
290.448	689.94
290.679	698.94
290.91	709.94
291.141	705.94
291.371	712.94
291.602	718.94
291.833	705.94
292.064	714.94
292.295	702.94
292.526	701.94
292.757	717.94
292.987	715.94
293.218	702.94
293.449	729.94
293.68	687.94
293.91	698.94
294.141	693.94
294.372	701.94
294.603	713.94
294.833	714.94
295.064	728.94
295.295	727.94
295.525	709.94
295.756	764.94
295.987	722.94
296.217	729.94
296.448	732.94
296.679	752.94
296.909	729.94
297.14	724.94
297.37	753.94
297.601	750.94
297.831	754.94
298.062	755.94
298.292	770.94
298.523	770.94
298.753	766.94
298.984	747.94
299.214	771.94
299.445	777.94
299.675	760.94
299.905	766.94
300.136	785.94
300.366	809.94
300.597	821.94
300.827	826.94
301.057	789.94
301.288	838.94
301.518	853.94
301.748	815.94
301.979	825.94
302.209	825.94
302.439	798.94
302.669	803.94
302.9	794.94
303.13	795.94
303.36	806.94
303.59	830.94
303.82	812.94
304.051	847.94
304.281	819.94
304.511	820.94
304.741	827.94
304.971	843.94
305.201	861.94
305.431	861.94
305.661	863.94
305.891	862.94
306.121	826.94
306.352	823.94
306.582	826.94
306.812	821.94
307.042	818.94
307.272	820.94
307.502	835.94
307.731	813.94
307.961	847.94
308.191	821.94
308.421	800.94
308.651	834.94
308.881	828.94
309.111	830.94
309.341	811.94
309.571	810.94
309.8	842.94
310.03	873.94
310.26	894.94
310.49	885.94
310.72	861.94
310.949	807.94
311.179	838.94
311.409	835.94
311.639	842.94
311.868	830.94
312.098	870.94
312.328	876.94
312.557	870.94
312.787	855.94
313.017	873.94
313.246	903.94
313.476	884.94
313.706	909.94
313.935	898.94
314.165	889.94
314.394	883.94
314.624	897.94
314.853	875.94
315.083	906.94
315.312	907.94
315.542	884.94
315.771	895.94
316.001	903.94
316.23	884.94
316.46	885.94
316.689	909.94
316.919	895.94
317.148	917.94
317.377	906.94
317.607	893.94
317.836	870.94
318.065	901.94
318.295	919.94
318.524	908.94
318.753	899.94
318.983	927.94
319.212	895.94
319.441	919.94
319.67	908.94
319.9	905.94
320.129	907.94
320.358	928.94
320.587	908.94
320.816	968.94
321.046	954.94
321.275	939.94
321.504	944.94
321.733	929.94
321.962	953.94
322.191	941.94
322.42	937.94
322.649	953.94
322.878	939.94
323.108	926.94
323.337	969.94
323.566	968.94
323.795	977.94
324.024	931.94
324.253	958.94
324.482	951.94
324.71	980.94
324.939	964.94
325.168	1010.94
325.397	973.94
325.626	962.94
325.855	965.94
326.084	956.94
326.313	999.94
326.542	1005.94
326.77	1005.94
326.999	990.94
327.228	964.94
327.457	1001.94
327.686	981.94
327.914	1009.94
328.143	1012.94
328.372	1017.94
328.6	984.94
328.829	1010.94
329.058	1019.94
329.287	988.94
329.515	975.94
329.744	1011.94
329.972	1030.94
330.201	1029.94
330.43	1029.94
330.658	1040.94
330.887	1057.94
331.115	1064.94
331.344	1059.94
331.572	1058.94
331.801	1061.94
332.03	1126.94
332.258	1105.94
332.486	1087.94
332.715	1117.94
332.943	1099.94
333.172	1160.94
333.4	1177.94
333.629	1199.94
333.857	1186.94
334.085	1203.94
334.314	1228.94
334.542	1226.94
334.771	1215.94
334.999	1186.94
335.227	1187.94
335.455	1241.94
335.684	1223.94
335.912	1202.94
336.14	1184.94
336.369	1186.94
336.597	1200.94
336.825	1209.94
337.053	1220.94
337.281	1190.94
337.51	1173.94
337.738	1166.94
337.966	1175.94
338.194	1214.94
338.422	1164.94
338.65	1135.94
338.878	1131.94
339.106	1107.94
339.334	1177.94
339.562	1140.94
339.79	1117.94
340.018	1101.94
340.246	1086.94
340.474	1089.94
340.702	1098.94
340.93	1086.94
341.158	1103.94
341.386	1114.94
341.614	1210.94
341.842	1163.94
342.07	1115.94
342.298	1067.94
342.526	1097.94
342.754	1113.94
342.981	1075.94
343.209	1109.94
343.437	1132.94
343.665	1168.94
343.893	1197.94
344.12	1207.94
344.348	1194.94
344.576	1221.94
344.804	1243.94
345.031	1149.94
345.259	1117.94
345.487	1111.94
345.714	1137.94
345.942	1154.94
346.17	1169.94
346.397	1138.94
346.625	1111.94
346.853	1070.94
347.08	1061.94
347.308	1060.94
347.535	1070.94
347.763	1043.94
347.99	1035.94
348.218	1021.94
348.445	1046.94
348.673	1010.94
348.9	1051.94
349.128	1053.94
349.355	1086.94
349.583	1102.94
349.81	1050.94
350.037	1057.94
350.265	1036.94
350.492	1037.94
350.72	1017.94
350.947	1040.94
351.174	1088.94
351.402	1099.94
351.629	1115.94
351.856	1094.94
352.083	1045.94
352.311	1087.94
352.538	1133.94
352.765	1118.94
352.992	1051.94
353.22	1011.94
353.447	992.94
353.674	1023.94
353.901	1005.94
354.128	1027.94
354.355	982.94
354.583	980.94
354.81	1001.94
355.037	1018.94
355.264	992.94
355.491	1003.94
355.718	986.94
355.945	1032.94
356.172	1014.94
356.399	1011.94
356.626	1054.94
356.853	1059.94
357.08	1039.94
357.307	1029.94
357.534	1036.94
357.761	1016.94
357.988	1012.94
358.215	1025.94
358.441	1000.94
358.668	1015.94
358.895	1049.94
359.122	997.94
359.349	1006.94
359.576	1009.94
359.802	1037.94
360.029	1054.94
360.256	1015.94
360.483	1027.94
360.709	1010.94
360.936	1032.94
361.163	1021.94
361.39	1044.94
361.616	1057.94
361.843	1075.94
362.07	1110.94
362.296	1074.94
362.523	1003.94
362.749	1025.94
362.976	1011.94
363.203	1020.94
363.429	1022.94
363.656	1011.94
363.882	1021.94
364.109	1035.94
364.335	990.94
364.562	1015.94
364.788	1031.94
365.015	1007.94
365.241	1015.94
365.468	1042.94
365.694	1045.94
365.92	1001.94
366.147	1027.94
366.373	1025.94
366.599	1014.94
366.826	1010.94
367.052	1018.94
367.278	1055.94
367.505	1038.94
367.731	1046.94
367.957	1025.94
368.184	1057.94
368.41	1060.94
368.636	1054.94
368.862	1015.94
369.089	1029.94
369.315	1066.94
369.541	1059.94
369.767	1075.94
369.993	1062.94
370.219	1061.94
370.445	1072.94
370.672	1083.94
370.898	1066.94
371.124	1081.94
371.35	1081.94
371.576	1083.94
371.802	1070.94
372.028	1101.94
372.254	1140.94
372.48	1125.94
372.706	1124.94
372.932	1121.94
373.158	1083.94
373.384	1107.94
373.61	1115.94
373.835	1141.94
374.061	1130.94
374.287	1114.94
374.513	1126.94
374.739	1149.94
374.965	1149.94
375.191	1167.94
375.416	1117.94
375.642	1127.94
375.868	1133.94
376.094	1141.94
376.319	1097.94
376.545	1102.94
376.771	1114.94
376.997	1126.94
377.222	1086.94
377.448	1079.94
377.674	1095.94
377.899	1087.94
378.125	1104.94
378.35	1104.94
378.576	1107.94
378.802	1110.94
379.027	1063.94
379.253	1073.94
379.478	1086.94
379.704	1067.94
379.929	1090.94
380.155	1099.94
380.38	1093.94
380.606	1092.94
380.831	1079.94
381.057	1081.94
381.282	1089.94
381.507	1107.94
381.733	1076.94
381.958	1118.94
382.184	1109.94
382.409	1120.94
382.634	1165.94
382.86	1102.94
383.085	1155.94
383.31	1132.94
383.535	1171.94
383.761	1157.94
383.986	1161.94
384.211	1190.94
384.436	1168.94
384.662	1194.94
384.887	1196.94
385.112	1231.94
385.337	1222.94
385.562	1241.94
385.787	1251.94
386.013	1285.94
386.238	1255.94
386.463	1263.94
386.688	1245.94
386.913	1260.94
387.138	1262.94
387.363	1282.94
387.588	1270.94
387.813	1269.94
388.038	1262.94
388.263	1251.94
388.488	1289.94
388.713	1291.94
388.938	1274.94
389.163	1261.94
389.387	1269.94
389.612	1247.94
389.837	1267.94
390.062	1281.94
390.287	1267.94
390.512	1258.94
390.736	1251.94
390.961	1294.94
391.186	1306.94
391.411	1305.94
391.636	1341.94
391.86	1341.94
392.085	1369.94
392.31	1359.94
392.534	1310.94
392.759	1318.94
392.984	1326.94
393.208	1345.94
393.433	1304.94
393.658	1345.94
393.882	1307.94
394.107	1313.94
394.331	1341.94
394.556	1305.94
394.78	1332.94
395.005	1340.94
395.229	1349.94
395.454	1343.94
395.678	1397.94
395.903	1335.94
396.127	1370.94
396.352	1351.94
396.576	1380.94
396.801	1393.94
397.025	1396.94
397.249	1387.94
397.474	1405.94
397.698	1435.94
397.922	1445.94
398.147	1423.94
398.371	1471.94
398.595	1541.94
398.82	1509.94
399.044	1570.94
399.268	1702.94
399.492	1749.94
399.717	1841.94
399.941	1893.94
400.165	1798.94
400.389	1745.94
400.613	1666.94
400.837	1619.94
401.062	1568.94
401.286	1547.94
401.51	1527.94
401.734	1501.94
401.958	1537.94
402.182	1529.94
402.406	1493.94
402.63	1497.94
402.854	1564.94
403.078	1535.94
403.302	1556.94
403.526	1572.94
403.75	1556.94
403.974	1562.94
404.198	1545.94
404.422	1592.94
404.645	1576.94
404.869	1571.94
405.093	1598.94
405.317	1577.94
405.541	1612.94
405.765	1588.94
405.988	1639.94
406.212	1651.94
406.436	1619.94
406.66	1660.94
406.883	1655.94
407.107	1721.94
407.331	1765.94
407.555	1846.94
407.778	1837.94
408.002	1805.94
408.226	1793.94
408.449	1791.94
408.673	1744.94
408.896	1707.94
409.12	1701.94
409.344	1702.94
409.567	1661.94
409.791	1689.94
410.014	1651.94
410.238	1636.94
410.461	1620.94
410.685	1625.94
410.908	1574.94
411.132	1616.94
411.355	1581.94
411.578	1592.94
411.802	1565.94
412.025	1572.94
412.249	1588.94
412.472	1610.94
412.695	1549.94
412.919	1540.94
413.142	1542.94
413.365	1560.94
413.589	1579.94
413.812	1525.94
414.035	1546.94
414.258	1531.94
414.482	1523.94
414.705	1542.94
414.928	1512.94
415.151	1560.94
415.374	1524.94
415.597	1496.94
415.821	1434.94
416.044	1444.94
416.267	1464.94
416.49	1477.94
416.713	1482.94
416.936	1491.94
417.159	1470.94
417.382	1483.94
417.605	1451.94
417.828	1436.94
418.051	1469.94
418.274	1485.94
418.497	1465.94
418.72	1507.94
418.943	1490.94
419.166	1564.94
419.389	1626.94
419.611	1602.94
419.834	1569.94
420.057	1514.94
420.28	1497.94
420.503	1479.94
420.726	1477.94
420.948	1438.94
421.171	1471.94
421.394	1447.94
421.617	1441.94
421.839	1464.94
422.062	1465.94
422.285	1436.94
422.507	1477.94
422.73	1459.94
422.953	1475.94
423.175	1434.94
423.398	1429.94
423.621	1432.94
423.843	1487.94
424.066	1474.94
424.288	1456.94
424.511	1449.94
424.733	1464.94
424.956	1462.94
425.178	1433.94
425.401	1417.94
425.623	1494.94
425.846	1430.94
426.068	1472.94
426.291	1463.94
426.513	1408.94
426.735	1467.94
426.958	1424.94
427.18	1401.94
427.402	1398.94
427.625	1409.94
427.847	1401.94
428.069	1370.94
428.292	1409.94
428.514	1413.94
428.736	1378.94
428.958	1401.94
429.181	1363.94
429.403	1347.94
429.625	1385.94
429.847	1370.94
430.069	1334.94
430.292	1366.94
430.514	1346.94
430.736	1374.94
430.958	1358.94
431.18	1352.94
431.402	1385.94
431.624	1355.94
431.846	1359.94
432.068	1378.94
432.29	1418.94
432.512	1380.94
432.734	1385.94
432.956	1371.94
433.178	1399.94
433.4	1451.94
433.622	1418.94
433.844	1438.94
434.066	1450.94
434.287	1433.94
434.509	1427.94
434.731	1469.94
434.953	1474.94
435.175	1494.94
435.397	1523.94
435.618	1432.94
435.84	1407.94
436.062	1418.94
436.284	1392.94
436.505	1387.94
436.727	1375.94
436.949	1382.94
437.17	1357.94
437.392	1365.94
437.614	1358.94
437.835	1321.94
438.057	1341.94
438.278	1331.94
438.5	1332.94
438.721	1340.94
438.943	1308.94
439.165	1286.94
439.386	1359.94
439.608	1357.94
439.829	1324.94
440.05	1348.94
440.272	1383.94
440.493	1383.94
440.715	1385.94
440.936	1378.94
441.158	1419.94
441.379	1442.94
441.6	1506.94
441.822	1444.94
442.043	1446.94
442.264	1454.94
442.486	1414.94
442.707	1424.94
442.928	1438.94
443.149	1457.94
443.371	1481.94
443.592	1566.94
443.813	1543.94
444.034	1461.94
444.255	1509.94
444.476	1550.94
444.698	1561.94
444.919	1611.94
445.14	1652.94
445.361	1589.94
445.582	1544.94
445.803	1485.94
446.024	1427.94
446.245	1423.94
446.466	1379.94
446.687	1346.94
446.908	1394.94
447.129	1329.94
447.35	1313.94
447.571	1325.94
447.792	1266.94
448.013	1267.94
448.234	1290.94
448.455	1274.94
448.675	1244.94
448.896	1258.94
449.117	1283.94
449.338	1261.94
449.559	1230.94
449.779	1218.94
450	1221.94
450.221	1235.94
450.442	1201.94
450.662	1256.94
450.883	1266.94
451.104	1317.94
451.324	1269.94
451.545	1237.94
451.766	1237.94
451.986	1214.94
452.207	1231.94
452.428	1225.94
452.648	1187.94
452.869	1211.94
453.089	1195.94
453.31	1258.94
453.53	1202.94
453.751	1191.94
453.971	1198.94
454.192	1221.94
454.412	1245.94
454.633	1206.94
454.853	1191.94
455.073	1196.94
455.294	1189.94
455.514	1189.94
455.734	1215.94
455.955	1223.94
456.175	1209.94
456.395	1197.94
456.616	1166.94
456.836	1189.94
457.056	1158.94
457.276	1155.94
457.497	1217.94
457.717	1237.94
457.937	1250.94
458.157	1226.94
458.377	1241.94
458.598	1258.94
458.818	1258.94
459.038	1293.94
459.258	1322.94
459.478	1406.94
459.698	1474.94
459.918	1489.94
460.138	1481.94
460.358	1514.94
460.578	1497.94
460.798	1575.94
461.018	1585.94
461.238	1494.94
461.458	1521.94
461.678	1468.94
461.898	1523.94
462.118	1530.94
462.338	1624.94
462.558	1630.94
462.777	1741.94
462.997	1736.94
463.217	1775.94
463.437	1817.94
463.657	1773.94
463.876	1696.94
464.096	1668.94
464.316	1655.94
464.536	1675.94
464.755	1620.94
464.975	1587.94
465.195	1539.94
465.414	1491.94
465.634	1442.94
465.854	1401.94
466.073	1393.94
466.293	1363.94
466.512	1356.94
466.732	1313.94
466.951	1355.94
467.171	1337.94
467.391	1349.94
467.61	1306.94
467.829	1317.94
468.049	1298.94
468.268	1235.94
468.488	1271.94
468.707	1290.94
468.927	1293.94
469.146	1273.94
469.365	1339.94
469.585	1292.94
469.804	1311.94
470.023	1301.94
470.243	1301.94
470.462	1276.94
470.681	1299.94
470.901	1336.94
471.12	1322.94
471.339	1274.94
471.558	1317.94
471.777	1307.94
471.997	1310.94
472.216	1294.94
472.435	1283.94
472.654	1268.94
472.873	1252.94
473.092	1262.94
473.311	1278.94
473.53	1271.94
473.749	1248.94
473.968	1263.94
474.187	1299.94
474.406	1286.94
474.625	1301.94
474.844	1269.94
475.063	1315.94
475.282	1321.94
475.501	1319.94
475.72	1299.94
475.939	1347.94
476.158	1348.94
476.377	1345.94
476.596	1355.94
476.814	1368.94
477.033	1362.94
477.252	1402.94
477.471	1407.94
477.69	1446.94
477.908	1423.94
478.127	1469.94
478.346	1487.94
478.564	1507.94
478.783	1507.94
479.002	1564.94
479.22	1624.94
479.439	1574.94
479.658	1542.94
479.876	1566.94
480.095	1575.94
480.313	1626.94
480.532	1563.94
480.751	1624.94
480.969	1588.94
481.188	1539.94
481.406	1585.94
481.624	1551.94
481.843	1525.94
482.061	1535.94
482.28	1534.94
482.498	1529.94
482.717	1505.94
482.935	1562.94
483.153	1553.94
483.372	1579.94
483.59	1658.94
483.808	1621.94
484.027	1585.94
484.245	1565.94
484.463	1626.94
484.681	1587.94
484.9	1615.94
485.118	1599.94
485.336	1595.94
485.554	1590.94
485.772	1609.94
485.99	1607.94
486.209	1620.94
486.427	1599.94
486.645	1617.94
486.863	1595.94
487.081	1613.94
487.299	1625.94
487.517	1619.94
487.735	1621.94
487.953	1644.94
488.171	1643.94
488.389	1590.94
488.607	1598.94
488.825	1593.94
489.043	1583.94
489.261	1598.94
489.479	1569.94
489.696	1578.94
489.914	1581.94
490.132	1595.94
490.35	1581.94
490.568	1590.94
490.786	1618.94
491.003	1607.94
491.221	1630.94
491.439	1592.94
491.657	1572.94
491.874	1587.94
492.092	1657.94
492.31	1656.94
492.527	1605.94
492.745	1640.94
492.963	1595.94
493.18	1624.94
493.398	1619.94
493.615	1627.94
493.833	1621.94
494.05	1654.94
494.268	1650.94
494.485	1656.94
494.703	1649.94
494.92	1631.94
495.138	1659.94
495.355	1648.94
495.573	1674.94
495.79	1670.94
496.008	1689.94
496.225	1697.94
496.442	1689.94
496.66	1728.94
496.877	1712.94
497.094	1785.94
497.312	1804.94
497.529	1806.94
497.746	1858.94
497.963	1893.94
498.181	1949.94
498.398	2018.94
498.615	2123.94
498.832	2218.94
499.049	2261.94
499.267	2374.94
499.484	2538.94
499.701	2708.94
499.918	2802.94
500.135	2962.94
500.352	3125.94
500.569	3135.94
500.786	3139.94
501.003	3047.94
501.22	2968.94
501.437	2778.94
501.654	2610.94
501.871	2506.94
502.088	2346.94
502.305	2267.94
502.522	2207.94
502.739	2130.94
502.956	2033.94
503.172	1932.94
503.389	1867.94
503.606	1798.94
503.823	1795.94
504.04	1774.94
504.256	1821.94
504.473	1779.94
504.69	1764.94
504.907	1711.94
505.123	1693.94
505.34	1629.94
505.557	1597.94
505.773	1577.94
505.99	1537.94
506.207	1541.94
506.423	1472.94
506.64	1483.94
506.856	1457.94
507.073	1466.94
507.289	1413.94
507.506	1402.94
507.722	1387.94
507.939	1405.94
508.155	1432.94
508.372	1374.94
508.588	1367.94
508.805	1356.94
509.021	1375.94
509.238	1361.94
509.454	1331.94
509.67	1308.94
509.887	1319.94
510.103	1314.94
510.319	1284.94
510.536	1325.94
510.752	1313.94
510.968	1298.94
511.184	1273.94
511.401	1316.94
511.617	1291.94
511.833	1304.94
512.049	1257.94
512.265	1302.94
512.481	1269.94
512.698	1291.94
512.914	1281.94
513.13	1282.94
513.346	1287.94
513.562	1269.94
513.778	1306.94
513.994	1305.94
514.21	1284.94
514.426	1293.94
514.642	1312.94
514.858	1293.94
515.074	1296.94
515.29	1293.94
515.506	1338.94
515.721	1352.94
515.937	1335.94
516.153	1329.94
516.369	1373.94
516.585	1413.94
516.801	1411.94
517.016	1406.94
517.232	1489.94
517.448	1502.94
517.664	1494.94
517.879	1487.94
518.095	1509.94
518.311	1483.94
518.527	1455.94
518.742	1445.94
518.958	1430.94
519.173	1381.94
519.389	1387.94
519.605	1333.94
519.82	1299.94
520.036	1307.94
520.251	1277.94
520.467	1303.94
520.682	1221.94
520.898	1283.94
521.113	1235.94
521.329	1203.94
521.544	1229.94
521.76	1173.94
521.975	1179.94
522.19	1193.94
522.406	1164.94
522.621	1177.94
522.836	1189.94
523.052	1193.94
523.267	1187.94
523.482	1195.94
523.698	1149.94
523.913	1177.94
524.128	1154.94
524.343	1168.94
524.559	1192.94
524.774	1127.94
524.989	1159.94
525.204	1158.94
525.419	1137.94
525.634	1169.94
525.849	1155.94
526.064	1166.94
526.28	1129.94
526.495	1118.94
526.71	1143.94
526.925	1156.94
527.14	1107.94
527.355	1108.94
527.57	1105.94
527.785	1121.94
527.999	1120.94
528.214	1119.94
528.429	1138.94
528.644	1125.94
528.859	1106.94
529.074	1123.94
529.289	1134.94
529.503	1156.94
529.718	1112.94
529.933	1112.94
530.148	1110.94
530.363	1093.94
530.577	1103.94
530.792	1128.94
531.007	1121.94
531.221	1106.94
531.436	1093.94
531.651	1102.94
531.865	1134.94
532.08	1115.94
532.295	1085.94
532.509	1092.94
532.724	1090.94
532.938	1103.94
533.153	1097.94
533.367	1055.94
533.582	1053.94
533.796	1114.94
534.011	1091.94
534.225	1089.94
534.44	1093.94
534.654	1095.94
534.868	1089.94
535.083	1081.94
535.297	1063.94
535.511	1065.94
535.726	1049.94
535.94	1058.94
536.154	1043.94
536.369	1048.94
536.583	1048.94
536.797	1015.94
537.011	1050.94
537.225	1008.94
537.44	1015.94
537.654	1040.94
537.868	1036.94
538.082	1001.94
538.296	1022.94
538.51	1013.94
538.724	1057.94
538.938	1004.94
539.153	1004.94
539.367	996.94
539.581	975.94
539.795	983.94
540.009	998.94
540.222	1010.94
540.436	981.94
540.65	975.94
540.864	974.94
541.078	989.94
541.292	993.94
541.506	975.94
541.72	981.94
541.934	1022.94
542.147	978.94
542.361	1005.94
542.575	979.94
542.789	998.94
543.002	974.94
543.216	986.94
543.43	972.94
543.644	972.94
543.857	983.94
544.071	993.94
544.285	994.94
544.498	996.94
544.712	994.94
544.925	998.94
545.139	969.94
545.352	981.94
545.566	965.94
545.779	977.94
545.993	969.94
546.206	976.94
546.42	987.94
546.633	972.94
546.847	985.94
547.06	971.94
547.274	980.94
547.487	982.94
547.7	974.94
547.914	1006.94
548.127	997.94
548.34	1024.94
548.554	985.94
548.767	1009.94
548.98	979.94
549.193	984.94
549.407	991.94
549.62	992.94
549.833	983.94
550.046	990.94
550.259	1019.94
550.473	971.94
550.686	1001.94
550.899	984.94
551.112	978.94
551.325	992.94
551.538	977.94
551.751	992.94
551.964	996.94
552.177	977.94
552.39	995.94
552.603	982.94
552.816	985.94
553.029	986.94
553.242	995.94
553.455	1031.94
553.667	1017.94
553.88	1021.94
554.093	982.94
554.306	947.94
554.519	963.94
554.732	946.94
554.944	913.94
555.157	905.94
555.37	913.94
555.583	905.94
555.795	895.94
556.008	889.94
556.221	897.94
556.433	864.94
556.646	854.94
556.859	854.94
557.071	877.94
557.284	864.94
557.496	860.94
557.709	868.94
557.921	851.94
558.134	832.94
558.346	821.94
558.559	836.94
558.771	837.94
558.984	858.94
559.196	817.94
559.409	829.94
559.621	844.94
559.833	821.94
560.046	826.94
560.258	821.94
560.47	800.94
560.683	822.94
560.895	806.94
561.107	818.94
561.32	829.94
561.532	841.94
561.744	820.94
561.956	818.94
562.168	809.94
562.381	821.94
562.593	833.94
562.805	820.94
563.017	827.94
563.229	845.94
563.441	828.94
563.653	843.94
563.865	791.94
564.077	847.94
564.289	870.94
564.501	875.94
564.713	866.94
564.925	882.94
565.137	894.94
565.349	888.94
565.561	922.94
565.773	948.94
565.985	979.94
566.197	991.94
566.408	1039.94
566.62	1057.94
566.832	1098.94
567.044	1108.94
567.255	1109.94
567.467	1126.94
567.679	1153.94
567.891	1165.94
568.102	1169.94
568.314	1139.94
568.526	1088.94
568.737	1040.94
568.949	1015.94
569.161	965.94
569.372	916.94
569.584	893.94
569.795	849.94
570.007	869.94
570.218	839.94
570.43	830.94
570.641	799.94
570.853	821.94
571.064	833.94
571.276	822.94
571.487	790.94
571.698	790.94
571.91	750.94
572.121	737.94
572.333	719.94
572.544	719.94
572.755	707.94
572.966	711.94
573.178	692.94
573.389	713.94
573.6	679.94
573.811	683.94
574.023	674.94
574.234	663.94
574.445	644.94
574.656	659.94
574.867	662.94
575.078	654.94
575.289	660.94
575.501	633.94
575.712	633.94
575.923	638.94
576.134	621.94
576.345	629.94
576.556	616.94
576.767	615.94
576.978	635.94
577.188	589.94
577.399	611.94
577.61	590.94
577.821	624.94
578.032	627.94
578.243	601.94
578.454	608.94
578.665	604.94
578.875	598.94
579.086	597.94
579.297	582.94
579.508	587.94
579.718	589.94
579.929	591.94
580.14	584.94
580.35	579.94
580.561	580.94
580.772	591.94
580.982	596.94
581.193	569.94
581.403	576.94
581.614	591.94
581.825	574.94
582.035	562.94
582.246	578.94
582.456	556.94
582.667	537.94
582.877	558.94
583.087	577.94
583.298	559.94
583.508	559.94
583.719	549.94
583.929	588.94
584.139	539.94
584.35	533.94
584.56	537.94
584.77	554.94
584.981	550.94
585.191	559.94
585.401	523.94
585.611	529.94
585.821	537.94
586.032	561.94
586.242	547.94
586.452	548.94
586.662	552.94
586.872	505.94
587.082	545.94
587.292	534.94
587.502	533.94
587.713	550.94
587.923	542.94
588.133	535.94
588.343	539.94
588.553	536.94
588.762	511.94
588.972	548.94
589.182	567.94
589.392	563.94
589.602	540.94
589.812	530.94
590.022	527.94
590.232	517.94
590.441	535.94
590.651	542.94
590.861	530.94
591.071	531.94
591.281	536.94
591.49	551.94
591.7	564.94
591.91	570.94
592.119	578.94
592.329	564.94
592.539	562.94
592.748	571.94
592.958	604.94
593.167	580.94
593.377	578.94
593.587	573.94
593.796	587.94
594.006	587.94
594.215	599.94
594.424	597.94
594.634	568.94
594.843	584.94
595.053	546.94
595.262	551.94
595.472	532.94
595.681	538.94
595.89	527.94
596.1	519.94
596.309	510.94
596.518	516.94
596.727	517.94
596.937	491.94
597.146	479.94
597.355	491.94
597.564	482.94
597.774	465.94
597.983	480.94
598.192	466.94
598.401	468.94
598.61	462.94
598.819	435.94
599.028	438.94
599.237	451.94
599.446	443.94
599.655	470.94
599.864	436.94
600.073	443.94
600.282	435.94
600.491	420.94
600.7	441.94
600.909	452.94
601.118	439.94
601.327	446.94
601.536	431.94
601.745	429.94
601.953	426.94
602.162	440.94
602.371	434.94
602.58	431.94
602.789	445.94
602.997	428.94
603.206	437.94
603.415	409.94
603.623	412.94
603.832	438.94
604.041	434.94
604.249	420.94
604.458	396.94
604.666	429.94
604.875	397.94
605.084	423.94
605.292	419.94
605.501	420.94
605.709	410.94
605.918	401.94
606.126	428.94
606.334	389.94
606.543	430.94
606.751	384.94
606.96	403.94
607.168	396.94
607.376	398.94
607.585	396.94
607.793	392.94
608.001	397.94
608.21	409.94
608.418	409.94
608.626	399.94
608.834	395.94
609.043	417.94
609.251	390.94
609.459	409.94
609.667	377.94
609.875	387.94
610.083	408.94
610.291	376.94
610.499	381.94
610.707	380.94
610.916	390.94
611.124	402.94
611.332	385.94
611.54	403.94
611.748	380.94
611.955	377.94
612.163	379.94
612.371	387.94
612.579	382.94
612.787	393.94
612.995	378.94
613.203	387.94
613.411	362.94
613.618	391.94
613.826	383.94
614.034	373.94
614.242	375.94
614.449	357.94
614.657	372.94
614.865	371.94
615.072	379.94
615.28	393.94
615.488	384.94
615.695	362.94
615.903	353.94
616.111	378.94
616.318	379.94
616.526	353.94
616.733	379.94
616.941	354.94
617.148	372.94
617.356	362.94
617.563	357.94
617.771	389.94
617.978	367.94
618.185	364.94
618.393	354.94
618.6	376.94
618.807	369.94
619.015	372.94
619.222	355.94
619.429	370.94
619.637	360.94
619.844	357.94
620.051	333.94
620.258	357.94
620.466	351.94
620.673	334.94
620.88	342.94
621.087	331.94
621.294	333.94
621.501	349.94
621.708	363.94
621.915	342.94
622.122	346.94
622.329	349.94
622.536	343.94
622.743	353.94
622.95	338.94
623.157	325.94
623.364	332.94
623.571	347.94
623.778	345.94
623.985	342.94
624.192	322.94
624.399	348.94
624.606	355.94
624.812	341.94
625.019	327.94
625.226	337.94
625.433	334.94
625.639	319.94
625.846	330.94
626.053	314.94
626.259	316.94
626.466	317.94
626.673	338.94
626.879	314.94
627.086	327.94
627.293	318.94
627.499	325.94
627.706	317.94
627.912	328.94
628.119	334.94
628.325	337.94
628.532	318.94
628.738	315.94
628.945	322.94
629.151	314.94
629.357	311.94
629.564	295.94
629.77	295.94
629.976	282.94
630.183	290.94
630.389	299.94
630.595	315.94
630.802	291.94
631.008	306.94
631.214	294.94
631.42	295.94
631.627	310.94
631.833	301.94
632.039	289.94
632.245	284.94
632.451	299.94
632.657	294.94
632.863	307.94
633.069	295.94
633.275	295.94
633.481	285.94
633.688	286.94
633.893	298.94
634.099	279.94
634.305	283.94
634.511	288.94
634.717	297.94
634.923	281.94
635.129	302.94
635.335	280.94
635.541	273.94
635.747	276.94
635.952	286.94
636.158	277.94
636.364	302.94
636.57	267.94
636.775	275.94
636.981	280.94
637.187	286.94
637.392	277.94
637.598	266.94
637.804	259.94
638.009	272.94
638.215	279.94
638.421	262.94
638.626	262.94
638.832	277.94
639.037	284.94
639.243	269.94
639.448	277.94
639.654	268.94
639.859	267.94
640.065	268.94
640.27	284.94
640.475	274.94
640.681	280.94
640.886	276.94
641.091	277.94
641.297	277.94
641.502	267.94
641.707	261.94
641.913	249.94
642.118	263.94
642.323	251.94
642.528	274.94
642.733	249.94
642.939	278.94
643.144	257.94
643.349	248.94
643.554	288.94
643.759	281.94
643.964	288.94
644.169	275.94
644.374	260.94
644.579	265.94
644.784	269.94
644.989	266.94
645.194	245.94
645.399	270.94
645.604	265.94
645.809	263.94
646.014	263.94
646.219	266.94
646.423	282.94
646.628	281.94
646.833	275.94
647.038	278.94
647.243	292.94
647.447	281.94
647.652	283.94
647.857	273.94
648.062	290.94
648.266	282.94
648.471	276.94
648.676	297.94
648.88	271.94
649.085	287.94
649.289	297.94
649.494	276.94
649.698	297.94
649.903	276.94
650.107	294.94
650.312	286.94
650.516	284.94
650.721	275.94
650.925	268.94
651.13	271.94
651.334	277.94
651.539	274.94
651.743	274.94
651.947	258.94
652.152	274.94
652.356	286.94
652.56	255.94
652.764	273.94
652.969	272.94
653.173	272.94
653.377	259.94
653.581	264.94
653.785	265.94
653.99	269.94
654.194	276.94
654.398	257.94
654.602	271.94
654.806	280.94
655.01	275.94
655.214	281.94
655.418	261.94
655.622	284.94
655.826	299.94
656.03	282.94
656.234	310.94
656.438	333.94
656.642	306.94
656.846	289.94
657.049	280.94
657.253	281.94
657.457	244.94
657.661	238.94
657.865	212.94
658.068	208.94
658.272	189.94
658.476	183.94
658.68	177.94
658.883	169.94
659.087	156.94
659.291	153.94
659.494	148.94
659.698	146.94
659.901	144.94
660.105	139.94
660.309	134.94
660.512	128.94
660.716	125.94
660.919	107.94
661.123	102.94
661.326	108.94
661.53	108.94
661.733	113.94
661.936	90.94
662.14	89.94
662.343	84.94
662.546	102.94
662.75	94.94
662.953	98.94
663.156	85.94
663.36	77.94
663.563	87.94
663.766	92.94
663.969	100.94
664.173	73.94
664.376	91.94
664.579	83.94
664.782	97.94
664.985	89.94
665.188	85.94
665.391	89.94
665.594	88.94
665.797	68.94
666	83.94
666.203	86.94
666.406	79.94
666.609	92.94
666.812	82.94
667.015	87.94
667.218	79.94
667.421	84.94
667.624	92.94
667.827	86.94
668.03	80.94
668.232	76.94
668.435	66.94
668.638	83.94
668.841	84.94
669.043	79.94
669.246	80.94
669.449	84.94
669.651	75.94
669.854	75.94
670.057	85.94
670.259	70.94
670.462	72.94
670.665	74.94
670.867	82.94
671.07	92.94
671.272	68.94
671.475	81.94
671.677	71.94
671.88	88.94
672.082	72.94
672.284	76.94
672.487	97.94
672.689	70.94
672.892	75.94
