Data from Ni(NO3)2@0.125M.TitratingCurve.Agarose3%dH2O.NegLispCup.LampEnergy10.LIBS07252019_HRD10591_18-09-35-567.txt Node
Date: Thu Jul 25 18:09:35 EDT 2019
User: cochatt
Spectrometer: HR+D1059
Trigger mode: 1
Integration Time (sec): 1.000000E-1
Scans to average: 1
Electric dark correction enabled: true
Nonlinearity correction enabled: false
Boxcar width: 0
XAxis mode: Wavelengths
Number of Pixels in Spectrum: 2048
>>>>>Begin Spectral Data<<<<<
223.165	-7.06
223.4	-7.06
223.635	-7.06
223.869	-0.06
224.104	-15.06
224.338	-7.06
224.573	-21.06
224.808	-8.06
225.042	-8.06
225.277	-5.06
225.511	-7.06
225.746	-4.06
225.98	12.94
226.215	5.94
226.449	7.94
226.683	21.94
226.918	10.94
227.152	22.94
227.387	47.94
227.621	29.94
227.856	37.94
228.09	57.94
228.324	55.94
228.559	47.94
228.793	69.94
229.027	98.94
229.262	107.94
229.496	104.94
229.73	116.94
229.964	125.94
230.199	110.94
230.433	129.94
230.667	135.94
230.901	150.94
231.136	123.94
231.37	145.94
231.604	149.94
231.838	135.94
232.072	147.94
232.306	142.94
232.541	150.94
232.775	166.94
233.009	151.94
233.243	150.94
233.477	147.94
233.711	150.94
233.945	141.94
234.179	157.94
234.413	140.94
234.647	149.94
234.881	160.94
235.115	165.94
235.349	150.94
235.583	159.94
235.817	142.94
236.051	152.94
236.285	153.94
236.519	160.94
236.753	154.94
236.987	164.94
237.221	167.94
237.455	145.94
237.689	174.94
237.922	171.94
238.156	166.94
238.39	153.94
238.624	166.94
238.858	167.94
239.091	168.94
239.325	186.94
239.559	147.94
239.793	172.94
240.027	168.94
240.26	188.94
240.494	169.94
240.728	162.94
240.961	199.94
241.195	209.94
241.429	166.94
241.662	184.94
241.896	193.94
242.13	198.94
242.363	201.94
242.597	208.94
242.83	198.94
243.064	199.94
243.298	197.94
243.531	206.94
243.765	207.94
243.998	218.94
244.232	181.94
244.465	200.94
244.699	198.94
244.932	217.94
245.166	213.94
245.399	217.94
245.633	215.94
245.866	207.94
246.099	214.94
246.333	205.94
246.566	222.94
246.8	214.94
247.033	230.94
247.266	234.94
247.5	223.94
247.733	223.94
247.966	232.94
248.2	225.94
248.433	227.94
248.666	251.94
248.899	252.94
249.133	239.94
249.366	229.94
249.599	236.94
249.832	238.94
250.066	262.94
250.299	244.94
250.532	267.94
250.765	254.94
250.998	243.94
251.231	250.94
251.465	263.94
251.698	264.94
251.931	281.94
252.164	269.94
252.397	271.94
252.63	267.94
252.863	278.94
253.096	283.94
253.329	285.94
253.562	282.94
253.795	293.94
254.028	280.94
254.261	265.94
254.494	279.94
254.727	274.94
254.96	271.94
255.193	277.94
255.426	287.94
255.659	297.94
255.892	292.94
256.124	265.94
256.357	300.94
256.59	292.94
256.823	279.94
257.056	300.94
257.289	297.94
257.521	309.94
257.754	297.94
257.987	290.94
258.22	294.94
258.452	305.94
258.685	322.94
258.918	308.94
259.151	304.94
259.383	300.94
259.616	300.94
259.849	323.94
260.081	325.94
260.314	309.94
260.547	325.94
260.779	328.94
261.012	333.94
261.244	320.94
261.477	321.94
261.71	321.94
261.942	341.94
262.175	326.94
262.407	328.94
262.64	327.94
262.872	340.94
263.105	344.94
263.337	344.94
263.57	332.94
263.802	348.94
264.035	347.94
264.267	346.94
264.499	353.94
264.732	354.94
264.964	361.94
265.197	347.94
265.429	342.94
265.661	363.94
265.894	371.94
266.126	352.94
266.358	367.94
266.591	373.94
266.823	366.94
267.055	366.94
267.287	363.94
267.52	363.94
267.752	365.94
267.984	375.94
268.216	367.94
268.448	347.94
268.681	380.94
268.913	389.94
269.145	372.94
269.377	365.94
269.609	389.94
269.841	385.94
270.073	375.94
270.306	368.94
270.538	381.94
270.77	368.94
271.002	389.94
271.234	385.94
271.466	391.94
271.698	413.94
271.93	411.94
272.162	419.94
272.394	388.94
272.626	389.94
272.858	408.94
273.09	404.94
273.322	383.94
273.553	391.94
273.785	411.94
274.017	412.94
274.249	405.94
274.481	414.94
274.713	420.94
274.945	420.94
275.176	408.94
275.408	427.94
275.64	413.94
275.872	422.94
276.104	433.94
276.335	416.94
276.567	426.94
276.799	425.94
277.031	439.94
277.262	434.94
277.494	420.94
277.726	429.94
277.957	430.94
278.189	434.94
278.421	439.94
278.652	425.94
278.884	448.94
279.115	445.94
279.347	449.94
279.579	440.94
279.81	455.94
280.042	448.94
280.273	450.94
280.505	455.94
280.736	431.94
280.968	457.94
281.199	463.94
281.431	469.94
281.662	475.94
281.894	476.94
282.125	465.94
282.356	465.94
282.588	486.94
282.819	464.94
283.051	455.94
283.282	472.94
283.513	479.94
283.745	492.94
283.976	467.94
284.207	487.94
284.439	474.94
284.67	501.94
284.901	500.94
285.132	475.94
285.364	469.94
285.595	479.94
285.826	499.94
286.057	495.94
286.288	511.94
286.52	495.94
286.751	515.94
286.982	507.94
287.213	489.94
287.444	527.94
287.675	509.94
287.906	514.94
288.138	518.94
288.369	525.94
288.6	542.94
288.831	521.94
289.062	521.94
289.293	524.94
289.524	511.94
289.755	515.94
289.986	529.94
290.217	515.94
290.448	543.94
290.679	528.94
290.91	540.94
291.141	538.94
291.371	531.94
291.602	544.94
291.833	521.94
292.064	547.94
292.295	520.94
292.526	548.94
292.757	540.94
292.987	507.94
293.218	535.94
293.449	551.94
293.68	516.94
293.91	511.94
294.141	536.94
294.372	568.94
294.603	529.94
294.833	566.94
295.064	546.94
295.295	531.94
295.525	544.94
295.756	539.94
295.987	550.94
296.217	563.94
296.448	573.94
296.679	581.94
296.909	571.94
297.14	567.94
297.37	551.94
297.601	553.94
297.831	580.94
298.062	590.94
298.292	569.94
298.523	574.94
298.753	597.94
298.984	585.94
299.214	571.94
299.445	584.94
299.675	578.94
299.905	588.94
300.136	581.94
300.366	599.94
300.597	602.94
300.827	597.94
301.057	609.94
301.288	629.94
301.518	605.94
301.748	621.94
301.979	603.94
302.209	621.94
302.439	631.94
302.669	603.94
302.9	613.94
303.13	607.94
303.36	602.94
303.59	597.94
303.82	595.94
304.051	620.94
304.281	604.94
304.511	591.94
304.741	606.94
304.971	590.94
305.201	614.94
305.431	590.94
305.661	610.94
305.891	597.94
306.121	597.94
306.352	592.94
306.582	599.94
306.812	591.94
307.042	597.94
307.272	596.94
307.502	586.94
307.731	607.94
307.961	601.94
308.191	587.94
308.421	575.94
308.651	593.94
308.881	577.94
309.111	612.94
309.341	603.94
309.571	615.94
309.8	613.94
310.03	601.94
310.26	575.94
310.49	614.94
310.72	579.94
310.949	604.94
311.179	603.94
311.409	613.94
311.639	606.94
311.868	637.94
312.098	622.94
312.328	599.94
312.557	616.94
312.787	613.94
313.017	610.94
313.246	636.94
313.476	629.94
313.706	636.94
313.935	635.94
314.165	640.94
314.394	635.94
314.624	633.94
314.853	643.94
315.083	639.94
315.312	643.94
315.542	642.94
315.771	639.94
316.001	615.94
316.23	643.94
316.46	637.94
316.689	654.94
316.919	626.94
317.148	620.94
317.377	637.94
317.607	630.94
317.836	617.94
318.065	635.94
318.295	622.94
318.524	622.94
318.753	633.94
318.983	629.94
319.212	618.94
319.441	612.94
319.67	632.94
319.9	651.94
320.129	644.94
320.358	644.94
320.587	638.94
320.816	620.94
321.046	636.94
321.275	635.94
321.504	634.94
321.733	637.94
321.962	644.94
322.191	657.94
322.42	659.94
322.649	628.94
322.878	640.94
323.108	654.94
323.337	662.94
323.566	675.94
323.795	684.94
324.024	677.94
324.253	665.94
324.482	658.94
324.71	656.94
324.939	685.94
325.168	683.94
325.397	693.94
325.626	680.94
325.855	709.94
326.084	721.94
326.313	729.94
326.542	713.94
326.77	703.94
326.999	725.94
327.228	714.94
327.457	692.94
327.686	706.94
327.914	698.94
328.143	711.94
328.372	721.94
328.6	711.94
328.829	696.94
329.058	716.94
329.287	701.94
329.515	707.94
329.744	715.94
329.972	718.94
330.201	717.94
330.43	720.94
330.658	747.94
330.887	739.94
331.115	729.94
331.344	744.94
331.572	734.94
331.801	783.94
332.03	808.94
332.258	821.94
332.486	831.94
332.715	873.94
332.943	891.94
333.172	945.94
333.4	990.94
333.629	979.94
333.857	989.94
334.085	957.94
334.314	952.94
334.542	943.94
334.771	919.94
334.999	877.94
335.227	910.94
335.455	913.94
335.684	889.94
335.912	870.94
336.14	853.94
336.369	866.94
336.597	860.94
336.825	862.94
337.053	872.94
337.281	853.94
337.51	826.94
337.738	805.94
337.966	814.94
338.194	808.94
338.422	785.94
338.65	783.94
338.878	806.94
339.106	774.94
339.334	799.94
339.562	747.94
339.79	739.94
340.018	742.94
340.246	738.94
340.474	748.94
340.702	745.94
340.93	726.94
341.158	739.94
341.386	744.94
341.614	739.94
341.842	748.94
342.07	739.94
342.298	758.94
342.526	767.94
342.754	742.94
342.981	741.94
343.209	747.94
343.437	816.94
343.665	832.94
343.893	941.94
344.12	953.94
344.348	897.94
344.576	837.94
344.804	832.94
345.031	770.94
345.259	758.94
345.487	736.94
345.714	758.94
345.942	740.94
346.17	750.94
346.397	741.94
346.625	718.94
346.853	726.94
347.08	725.94
347.308	725.94
347.535	750.94
347.763	773.94
347.99	715.94
348.218	740.94
348.445	727.94
348.673	727.94
348.9	729.94
349.128	720.94
349.355	729.94
349.583	723.94
349.81	726.94
350.037	707.94
350.265	715.94
350.492	722.94
350.72	715.94
350.947	728.94
351.174	703.94
351.402	700.94
351.629	702.94
351.856	695.94
352.083	710.94
352.311	677.94
352.538	697.94
352.765	720.94
352.992	684.94
353.22	668.94
353.447	693.94
353.674	695.94
353.901	696.94
354.128	669.94
354.355	703.94
354.583	697.94
354.81	709.94
355.037	709.94
355.264	712.94
355.491	720.94
355.718	693.94
355.945	703.94
356.172	696.94
356.399	711.94
356.626	684.94
356.853	706.94
357.08	694.94
357.307	724.94
357.534	700.94
357.761	689.94
357.988	720.94
358.215	720.94
358.441	669.94
358.668	686.94
358.895	709.94
359.122	709.94
359.349	715.94
359.576	682.94
359.802	692.94
360.029	702.94
360.256	725.94
360.483	704.94
360.709	698.94
360.936	709.94
361.163	707.94
361.39	719.94
361.616	687.94
361.843	672.94
362.07	722.94
362.296	706.94
362.523	685.94
362.749	701.94
362.976	695.94
363.203	705.94
363.429	685.94
363.656	718.94
363.882	668.94
364.109	688.94
364.335	695.94
364.562	677.94
364.788	675.94
365.015	699.94
365.241	721.94
365.468	675.94
365.694	691.94
365.92	701.94
366.147	672.94
366.373	675.94
366.599	684.94
366.826	679.94
367.052	693.94
367.278	711.94
367.505	696.94
367.731	708.94
367.957	698.94
368.184	722.94
368.41	694.94
368.636	707.94
368.862	732.94
369.089	717.94
369.315	712.94
369.541	728.94
369.767	712.94
369.993	691.94
370.219	721.94
370.445	737.94
370.672	716.94
370.898	731.94
371.124	743.94
371.35	745.94
371.576	774.94
371.802	793.94
372.028	762.94
372.254	740.94
372.48	768.94
372.706	794.94
372.932	821.94
373.158	791.94
373.384	753.94
373.61	748.94
373.835	758.94
374.061	782.94
374.287	765.94
374.513	780.94
374.739	818.94
374.965	847.94
375.191	840.94
375.416	858.94
375.642	819.94
375.868	807.94
376.094	778.94
376.319	796.94
376.545	765.94
376.771	785.94
376.997	769.94
377.222	783.94
377.448	759.94
377.674	751.94
377.899	769.94
378.125	771.94
378.35	747.94
378.576	757.94
378.802	748.94
379.027	745.94
379.253	730.94
379.478	750.94
379.704	738.94
379.929	773.94
380.155	731.94
380.38	736.94
380.606	738.94
380.831	744.94
381.057	758.94
381.282	767.94
381.507	789.94
381.733	775.94
381.958	737.94
382.184	777.94
382.409	783.94
382.634	785.94
382.86	803.94
383.085	799.94
383.31	802.94
383.535	849.94
383.761	863.94
383.986	885.94
384.211	876.94
384.436	898.94
384.662	896.94
384.887	907.94
385.112	921.94
385.337	943.94
385.562	929.94
385.787	923.94
386.013	934.94
386.238	944.94
386.463	938.94
386.688	916.94
386.913	908.94
387.138	935.94
387.363	887.94
387.588	891.94
387.813	911.94
388.038	905.94
388.263	896.94
388.488	881.94
388.713	895.94
388.938	888.94
389.163	884.94
389.387	901.94
389.612	889.94
389.837	910.94
390.062	902.94
390.287	855.94
390.512	879.94
390.736	918.94
390.961	899.94
391.186	935.94
391.411	957.94
391.636	1006.94
391.86	1008.94
392.085	1047.94
392.31	1043.94
392.534	981.94
392.759	995.94
392.984	982.94
393.208	960.94
393.433	970.94
393.658	993.94
393.882	981.94
394.107	991.94
394.331	995.94
394.556	981.94
394.78	1008.94
395.005	1006.94
395.229	970.94
395.454	1005.94
395.678	1037.94
395.903	1028.94
396.127	1025.94
396.352	984.94
396.576	981.94
396.801	943.94
397.025	962.94
397.249	984.94
397.474	999.94
397.698	1002.94
397.922	1013.94
398.147	1014.94
398.371	1060.94
398.595	1079.94
398.82	1140.94
399.044	1209.94
399.268	1336.94
399.492	1627.94
399.717	1829.94
399.941	1779.94
400.165	1548.94
400.389	1389.94
400.613	1256.94
400.837	1173.94
401.062	1151.94
401.286	1143.94
401.51	1154.94
401.734	1132.94
401.958	1169.94
402.182	1187.94
402.406	1196.94
402.63	1237.94
402.854	1249.94
403.078	1271.94
403.302	1295.94
403.526	1329.94
403.75	1357.94
403.974	1416.94
404.198	1343.94
404.422	1363.94
404.645	1350.94
404.869	1345.94
405.093	1295.94
405.317	1274.94
405.541	1299.94
405.765	1272.94
405.988	1235.94
406.212	1271.94
406.436	1256.94
406.66	1297.94
406.883	1319.94
407.107	1364.94
407.331	1479.94
407.555	1515.94
407.778	1526.94
408.002	1460.94
408.226	1440.94
408.449	1379.94
408.673	1355.94
408.896	1310.94
409.12	1316.94
409.344	1321.94
409.567	1285.94
409.791	1318.94
410.014	1291.94
410.238	1285.94
410.461	1308.94
410.685	1257.94
410.908	1257.94
411.132	1199.94
411.355	1180.94
411.578	1210.94
411.802	1232.94
412.025	1175.94
412.249	1222.94
412.472	1268.94
412.695	1212.94
412.919	1138.94
413.142	1161.94
413.365	1147.94
413.589	1198.94
413.812	1133.94
414.035	1138.94
414.258	1130.94
414.482	1175.94
414.705	1170.94
414.928	1164.94
415.151	1191.94
415.374	1181.94
415.597	1150.94
415.821	1142.94
416.044	1118.94
416.267	1127.94
416.49	1110.94
416.713	1142.94
416.936	1139.94
417.159	1130.94
417.382	1120.94
417.605	1160.94
417.828	1151.94
418.051	1125.94
418.274	1159.94
418.497	1134.94
418.72	1201.94
418.943	1176.94
419.166	1248.94
419.389	1323.94
419.611	1307.94
419.834	1236.94
420.057	1208.94
420.28	1169.94
420.503	1159.94
420.726	1136.94
420.948	1145.94
421.171	1151.94
421.394	1150.94
421.617	1151.94
421.839	1154.94
422.062	1149.94
422.285	1124.94
422.507	1183.94
422.73	1178.94
422.953	1222.94
423.175	1237.94
423.398	1230.94
423.621	1217.94
423.843	1247.94
424.066	1225.94
424.288	1207.94
424.511	1204.94
424.733	1197.94
424.956	1179.94
425.178	1157.94
425.401	1120.94
425.623	1143.94
425.846	1072.94
426.068	1116.94
426.291	1098.94
426.513	1100.94
426.735	1056.94
426.958	1072.94
427.18	1051.94
427.402	1036.94
427.625	1024.94
427.847	1022.94
428.069	993.94
428.292	1023.94
428.514	981.94
428.736	1028.94
428.958	1007.94
429.181	985.94
429.403	994.94
429.625	1002.94
429.847	990.94
430.069	999.94
430.292	987.94
430.514	988.94
430.736	957.94
430.958	981.94
431.18	977.94
431.402	1029.94
431.624	962.94
431.846	1018.94
432.068	1021.94
432.29	1053.94
432.512	978.94
432.734	1038.94
432.956	999.94
433.178	1043.94
433.4	1037.94
433.622	1012.94
433.844	1024.94
434.066	1017.94
434.287	1027.94
434.509	1090.94
434.731	1143.94
434.953	1147.94
435.175	1149.94
435.397	1143.94
435.618	1071.94
435.84	1057.94
436.062	1002.94
436.284	1017.94
436.505	998.94
436.727	1006.94
436.949	1038.94
437.17	1026.94
437.392	1008.94
437.614	993.94
437.835	969.94
438.057	977.94
438.278	980.94
438.5	962.94
438.721	967.94
438.943	1020.94
439.165	971.94
439.386	988.94
439.608	1015.94
439.829	1007.94
440.05	1000.94
440.272	1015.94
440.493	975.94
440.715	1039.94
440.936	1043.94
441.158	1075.94
441.379	1093.94
441.6	1136.94
441.822	1197.94
442.043	1170.94
442.264	1145.94
442.486	1117.94
442.707	1133.94
442.928	1127.94
443.149	1144.94
443.371	1150.94
443.592	1147.94
443.813	1158.94
444.034	1179.94
444.255	1203.94
444.476	1249.94
444.698	1401.94
444.919	1442.94
445.14	1464.94
445.361	1274.94
445.582	1171.94
445.803	1106.94
446.024	1053.94
446.245	1046.94
446.466	1054.94
446.687	1021.94
446.908	1040.94
447.129	975.94
447.35	986.94
447.571	997.94
447.792	944.94
448.013	972.94
448.234	940.94
448.455	927.94
448.675	940.94
448.896	934.94
449.117	916.94
449.338	926.94
449.559	931.94
449.779	897.94
450	912.94
450.221	913.94
450.442	934.94
450.662	941.94
450.883	954.94
451.104	991.94
451.324	979.94
451.545	954.94
451.766	954.94
451.986	950.94
452.207	933.94
452.428	940.94
452.648	944.94
452.869	911.94
453.089	908.94
453.31	926.94
453.53	891.94
453.751	895.94
453.971	909.94
454.192	893.94
454.412	879.94
454.633	890.94
454.853	869.94
455.073	879.94
455.294	864.94
455.514	862.94
455.734	861.94
455.955	833.94
456.175	847.94
456.395	857.94
456.616	865.94
456.836	857.94
457.056	877.94
457.276	873.94
457.497	862.94
457.717	829.94
457.937	861.94
458.157	871.94
458.377	873.94
458.598	908.94
458.818	919.94
459.038	956.94
459.258	988.94
459.478	1013.94
459.698	1034.94
459.918	1081.94
460.138	1102.94
460.358	1227.94
460.578	1215.94
460.798	1228.94
461.018	1235.94
461.238	1203.94
461.458	1180.94
461.678	1213.94
461.898	1173.94
462.118	1222.94
462.338	1265.94
462.558	1339.94
462.777	1347.94
462.997	1500.94
463.217	1652.94
463.437	1642.94
463.657	1489.94
463.876	1410.94
464.096	1395.94
464.316	1409.94
464.536	1452.94
464.755	1370.94
464.975	1315.94
465.195	1247.94
465.414	1151.94
465.634	1094.94
465.854	1083.94
466.073	1042.94
466.293	1038.94
466.512	1014.94
466.732	988.94
466.951	987.94
467.171	981.94
467.391	982.94
467.61	996.94
467.829	941.94
468.049	956.94
468.268	938.94
468.488	891.94
468.707	917.94
468.927	956.94
469.146	931.94
469.365	944.94
469.585	937.94
469.804	963.94
470.023	967.94
470.243	975.94
470.462	1027.94
470.681	1050.94
470.901	1007.94
471.12	967.94
471.339	1004.94
471.558	921.94
471.777	955.94
471.997	933.94
472.216	911.94
472.435	943.94
472.654	901.94
472.873	867.94
473.092	897.94
473.311	892.94
473.53	901.94
473.749	914.94
473.968	900.94
474.187	889.94
474.406	925.94
474.625	895.94
474.844	921.94
475.063	912.94
475.282	894.94
475.501	899.94
475.72	914.94
475.939	899.94
476.158	912.94
476.377	923.94
476.596	916.94
476.814	921.94
477.033	960.94
477.252	996.94
477.471	997.94
477.69	1003.94
477.908	1055.94
478.127	1085.94
478.346	1051.94
478.564	1089.94
478.783	1111.94
479.002	1148.94
479.22	1126.94
479.439	1127.94
479.658	1114.94
479.876	1125.94
480.095	1141.94
480.313	1158.94
480.532	1248.94
480.751	1217.94
480.969	1177.94
481.188	1104.94
481.406	1057.94
481.624	1045.94
481.843	1057.94
482.061	1030.94
482.28	1041.94
482.498	1020.94
482.717	1004.94
482.935	998.94
483.153	1011.94
483.372	1015.94
483.59	992.94
483.808	998.94
484.027	994.94
484.245	1013.94
484.463	1020.94
484.681	1071.94
484.9	1046.94
485.118	1048.94
485.336	1036.94
485.554	1114.94
485.772	1079.94
485.99	1091.94
486.209	1098.94
486.427	1089.94
486.645	1082.94
486.863	1089.94
487.081	1076.94
487.299	1086.94
487.517	1043.94
487.735	1077.94
487.953	1086.94
488.171	1064.94
488.389	1061.94
488.607	1063.94
488.825	1059.94
489.043	1027.94
489.261	1048.94
489.479	1062.94
489.696	1067.94
489.914	1083.94
490.132	1079.94
490.35	1095.94
490.568	1109.94
490.786	1054.94
491.003	1082.94
491.221	1084.94
491.439	1070.94
491.657	1079.94
491.874	1098.94
492.092	1094.94
492.31	1110.94
492.527	1093.94
492.745	1084.94
492.963	1109.94
493.18	1146.94
493.398	1102.94
493.615	1115.94
493.833	1113.94
494.05	1164.94
494.268	1123.94
494.485	1125.94
494.703	1136.94
494.92	1147.94
495.138	1129.94
495.355	1141.94
495.573	1147.94
495.79	1151.94
496.008	1148.94
496.225	1161.94
496.442	1171.94
496.66	1205.94
496.877	1154.94
497.094	1177.94
497.312	1219.94
497.529	1257.94
497.746	1289.94
497.963	1358.94
498.181	1404.94
498.398	1430.94
498.615	1553.94
498.832	1658.94
499.049	1809.94
499.267	1914.94
499.484	2102.94
499.701	2341.94
499.918	2651.94
500.135	3077.94
500.352	3548.94
500.569	3710.94
500.786	3672.94
501.003	3381.94
501.22	2980.94
501.437	2592.94
501.654	2261.94
501.871	2030.94
502.088	1860.94
502.305	1713.94
502.522	1667.94
502.739	1605.94
502.956	1461.94
503.172	1438.94
503.389	1378.94
503.606	1323.94
503.823	1296.94
504.04	1303.94
504.256	1276.94
504.473	1401.94
504.69	1409.94
504.907	1355.94
505.123	1251.94
505.34	1192.94
505.557	1132.94
505.773	1110.94
505.99	1084.94
506.207	1057.94
506.423	1063.94
506.64	1062.94
506.856	1027.94
507.073	1020.94
507.289	1018.94
507.506	1000.94
507.722	980.94
507.939	1002.94
508.155	982.94
508.372	956.94
508.588	971.94
508.805	929.94
509.021	978.94
509.238	923.94
509.454	928.94
509.67	940.94
509.887	919.94
510.103	926.94
510.319	920.94
510.536	937.94
510.752	895.94
510.968	940.94
511.184	919.94
511.401	923.94
511.617	914.94
511.833	891.94
512.049	899.94
512.265	922.94
512.481	901.94
512.698	902.94
512.914	889.94
513.13	904.94
513.346	897.94
513.562	904.94
513.778	928.94
513.994	899.94
514.21	920.94
514.426	884.94
514.642	918.94
514.858	949.94
515.074	938.94
515.29	953.94
515.506	925.94
515.721	951.94
515.937	988.94
516.153	990.94
516.369	1048.94
516.585	1047.94
516.801	1075.94
517.016	1113.94
517.232	1216.94
517.448	1267.94
517.664	1325.94
517.879	1315.94
518.095	1313.94
518.311	1293.94
518.527	1210.94
518.742	1147.94
518.958	1091.94
519.173	1081.94
519.389	1048.94
519.605	1026.94
519.82	976.94
520.036	963.94
520.251	926.94
520.467	921.94
520.682	954.94
520.898	896.94
521.113	917.94
521.329	896.94
521.544	879.94
521.76	929.94
521.975	876.94
522.19	873.94
522.406	884.94
522.621	851.94
522.836	853.94
523.052	861.94
523.267	864.94
523.482	852.94
523.698	852.94
523.913	816.94
524.128	811.94
524.343	860.94
524.559	843.94
524.774	821.94
524.989	829.94
525.204	848.94
525.419	828.94
525.634	832.94
525.849	807.94
526.064	819.94
526.28	805.94
526.495	799.94
526.71	807.94
526.925	822.94
527.14	827.94
527.355	819.94
527.57	802.94
527.785	816.94
527.999	813.94
528.214	846.94
528.429	838.94
528.644	841.94
528.859	838.94
529.074	811.94
529.289	829.94
529.503	823.94
529.718	816.94
529.933	821.94
530.148	821.94
530.363	788.94
530.577	839.94
530.792	827.94
531.007	784.94
531.221	850.94
531.436	829.94
531.651	856.94
531.865	831.94
532.08	810.94
532.295	815.94
532.509	824.94
532.724	801.94
532.938	832.94
533.153	846.94
533.367	790.94
533.582	803.94
533.796	844.94
534.011	842.94
534.225	841.94
534.44	788.94
534.654	801.94
534.868	789.94
535.083	814.94
535.297	815.94
535.511	810.94
535.726	798.94
535.94	821.94
536.154	771.94
536.369	761.94
536.583	737.94
536.797	738.94
537.011	759.94
537.225	769.94
537.44	773.94
537.654	768.94
537.868	771.94
538.082	781.94
538.296	755.94
538.51	757.94
538.724	758.94
538.938	762.94
539.153	761.94
539.367	744.94
539.581	732.94
539.795	739.94
540.009	722.94
540.222	747.94
540.436	741.94
540.65	750.94
540.864	724.94
541.078	725.94
541.292	755.94
541.506	741.94
541.72	719.94
541.934	741.94
542.147	755.94
542.361	744.94
542.575	728.94
542.789	725.94
543.002	737.94
543.216	738.94
543.43	713.94
543.644	694.94
543.857	724.94
544.071	739.94
544.285	710.94
544.498	741.94
544.712	733.94
544.925	748.94
545.139	765.94
545.352	759.94
545.566	748.94
545.779	783.94
545.993	774.94
546.206	752.94
546.42	731.94
546.633	767.94
546.847	784.94
547.06	785.94
547.274	773.94
547.487	748.94
547.7	772.94
547.914	745.94
548.127	773.94
548.34	762.94
548.554	751.94
548.767	769.94
548.98	771.94
549.193	771.94
549.407	789.94
549.62	781.94
549.833	795.94
550.046	794.94
550.259	771.94
550.473	753.94
550.686	770.94
550.899	741.94
551.112	716.94
551.325	743.94
551.538	724.94
551.751	730.94
551.964	740.94
552.177	740.94
552.39	768.94
552.603	799.94
552.816	801.94
553.029	806.94
553.242	832.94
553.455	873.94
553.667	877.94
553.88	830.94
554.093	808.94
554.306	783.94
554.519	779.94
554.732	779.94
554.944	748.94
555.157	718.94
555.37	724.94
555.583	723.94
555.795	703.94
556.008	697.94
556.221	678.94
556.433	665.94
556.646	667.94
556.859	671.94
557.071	642.94
557.284	652.94
557.496	652.94
557.709	654.94
557.921	646.94
558.134	620.94
558.346	649.94
558.559	637.94
558.771	631.94
558.984	632.94
559.196	605.94
559.409	637.94
559.621	614.94
559.833	609.94
560.046	614.94
560.258	640.94
560.47	613.94
560.683	611.94
560.895	607.94
561.107	614.94
561.32	637.94
561.532	599.94
561.744	587.94
561.956	624.94
562.168	619.94
562.381	632.94
562.593	629.94
562.805	634.94
563.017	616.94
563.229	619.94
563.441	614.94
563.653	618.94
563.865	637.94
564.077	655.94
564.289	636.94
564.501	615.94
564.713	649.94
564.925	677.94
565.137	679.94
565.349	687.94
565.561	745.94
565.773	736.94
565.985	768.94
566.197	820.94
566.408	886.94
566.62	937.94
566.832	1057.94
567.044	1068.94
567.255	1041.94
567.467	1046.94
567.679	1145.94
567.891	1214.94
568.102	1294.94
568.314	1247.94
568.526	1068.94
568.737	966.94
568.949	880.94
569.161	807.94
569.372	736.94
569.584	701.94
569.795	683.94
570.007	686.94
570.218	649.94
570.43	641.94
570.641	647.94
570.853	638.94
571.064	651.94
571.276	669.94
571.487	613.94
571.698	609.94
571.91	609.94
572.121	573.94
572.333	565.94
572.544	524.94
572.755	521.94
572.966	540.94
573.178	536.94
573.389	548.94
573.6	535.94
573.811	522.94
574.023	512.94
574.234	508.94
574.445	511.94
574.656	522.94
574.867	528.94
575.078	509.94
575.289	535.94
575.501	499.94
575.712	487.94
575.923	491.94
576.134	496.94
576.345	486.94
576.556	471.94
576.767	486.94
576.978	476.94
577.188	471.94
577.399	487.94
577.61	479.94
577.821	468.94
578.032	472.94
578.243	457.94
578.454	449.94
578.665	456.94
578.875	443.94
579.086	453.94
579.297	442.94
579.508	427.94
579.718	458.94
579.929	444.94
580.14	443.94
580.35	431.94
580.561	461.94
580.772	423.94
580.982	431.94
581.193	423.94
581.403	438.94
581.614	437.94
581.825	431.94
582.035	435.94
582.246	426.94
582.456	427.94
582.667	442.94
582.877	421.94
583.087	433.94
583.298	420.94
583.508	410.94
583.719	413.94
583.929	413.94
584.139	440.94
584.35	414.94
584.56	428.94
584.77	427.94
584.981	418.94
585.191	409.94
585.401	436.94
585.611	425.94
585.821	422.94
586.032	428.94
586.242	415.94
586.452	415.94
586.662	396.94
586.872	395.94
587.082	396.94
587.292	408.94
587.502	398.94
587.713	410.94
587.923	398.94
588.133	406.94
588.343	399.94
588.553	402.94
588.762	433.94
588.972	419.94
589.182	412.94
589.392	407.94
589.602	390.94
589.812	411.94
590.022	382.94
590.232	398.94
590.441	414.94
590.651	415.94
590.861	411.94
591.071	404.94
591.281	428.94
591.49	435.94
591.7	422.94
591.91	422.94
592.119	439.94
592.329	452.94
592.539	451.94
592.748	500.94
592.958	516.94
593.167	518.94
593.377	523.94
593.587	524.94
593.796	531.94
594.006	542.94
594.215	548.94
594.424	540.94
594.634	524.94
594.843	517.94
595.053	478.94
595.262	460.94
595.472	447.94
595.681	444.94
595.89	402.94
596.1	427.94
596.309	419.94
596.518	407.94
596.727	388.94
596.937	382.94
597.146	397.94
597.355	381.94
597.564	368.94
597.774	369.94
597.983	368.94
598.192	356.94
598.401	365.94
598.61	343.94
598.819	351.94
599.028	358.94
599.237	352.94
599.446	355.94
599.655	359.94
599.864	364.94
600.073	363.94
600.282	353.94
600.491	347.94
600.7	343.94
600.909	343.94
601.118	356.94
601.327	343.94
601.536	349.94
601.745	336.94
601.953	349.94
602.162	337.94
602.371	341.94
602.58	335.94
602.789	347.94
602.997	357.94
603.206	343.94
603.415	326.94
603.623	335.94
603.832	331.94
604.041	327.94
604.249	316.94
604.458	340.94
604.666	336.94
604.875	301.94
605.084	309.94
605.292	337.94
605.501	311.94
605.709	327.94
605.918	323.94
606.126	311.94
606.334	314.94
606.543	309.94
606.751	323.94
606.96	323.94
607.168	314.94
607.376	318.94
607.585	323.94
607.793	303.94
608.001	318.94
608.21	304.94
608.418	315.94
608.626	307.94
608.834	308.94
609.043	310.94
609.251	308.94
609.459	307.94
609.667	323.94
609.875	303.94
610.083	313.94
610.291	303.94
610.499	300.94
610.707	306.94
610.916	310.94
611.124	303.94
611.332	310.94
611.54	291.94
611.748	313.94
611.955	293.94
612.163	301.94
612.371	319.94
612.579	303.94
612.787	311.94
612.995	301.94
613.203	291.94
613.411	309.94
613.618	294.94
613.826	299.94
614.034	292.94
614.242	310.94
614.449	288.94
614.657	287.94
614.865	295.94
615.072	302.94
615.28	289.94
615.488	293.94
615.695	298.94
615.903	311.94
616.111	302.94
616.318	317.94
616.526	303.94
616.733	297.94
616.941	312.94
617.148	323.94
617.356	310.94
617.563	326.94
617.771	311.94
617.978	296.94
618.185	304.94
618.393	301.94
618.6	293.94
618.807	321.94
619.015	310.94
619.222	296.94
619.429	288.94
619.637	305.94
619.844	299.94
620.051	290.94
620.258	280.94
620.466	270.94
620.673	273.94
620.88	276.94
621.087	283.94
621.294	274.94
621.501	291.94
621.708	280.94
621.915	271.94
622.122	262.94
622.329	278.94
622.536	269.94
622.743	277.94
622.95	271.94
623.157	277.94
623.364	268.94
623.571	266.94
623.778	281.94
623.985	257.94
624.192	266.94
624.399	251.94
624.606	268.94
624.812	267.94
625.019	255.94
625.226	254.94
625.433	256.94
625.639	262.94
625.846	245.94
626.053	257.94
626.259	256.94
626.466	268.94
626.673	258.94
626.879	236.94
627.086	238.94
627.293	240.94
627.499	252.94
627.706	251.94
627.912	240.94
628.119	259.94
628.325	268.94
628.532	259.94
628.738	237.94
628.945	250.94
629.151	243.94
629.357	249.94
629.564	247.94
629.77	249.94
629.976	244.94
630.183	225.94
630.389	238.94
630.595	229.94
630.802	245.94
631.008	240.94
631.214	231.94
631.42	219.94
631.627	236.94
631.833	222.94
632.039	223.94
632.245	232.94
632.451	225.94
632.657	230.94
632.863	227.94
633.069	213.94
633.275	212.94
633.481	224.94
633.688	230.94
633.893	207.94
634.099	217.94
634.305	232.94
634.511	218.94
634.717	219.94
634.923	220.94
635.129	229.94
635.335	209.94
635.541	215.94
635.747	224.94
635.952	209.94
636.158	210.94
636.364	212.94
636.57	225.94
636.775	211.94
636.981	229.94
637.187	220.94
637.392	215.94
637.598	211.94
637.804	218.94
638.009	201.94
638.215	214.94
638.421	200.94
638.626	209.94
638.832	221.94
639.037	202.94
639.243	211.94
639.448	214.94
639.654	196.94
639.859	203.94
640.065	201.94
640.27	191.94
640.475	212.94
640.681	198.94
640.886	199.94
641.091	198.94
641.297	208.94
641.502	207.94
641.707	203.94
641.913	199.94
642.118	189.94
642.323	206.94
642.528	205.94
642.733	194.94
642.939	203.94
643.144	187.94
643.349	186.94
643.554	212.94
643.759	198.94
643.964	203.94
644.169	188.94
644.374	202.94
644.579	207.94
644.784	192.94
644.989	197.94
645.194	209.94
645.399	196.94
645.604	197.94
645.809	201.94
646.014	203.94
646.219	199.94
646.423	204.94
646.628	192.94
646.833	213.94
647.038	202.94
647.243	193.94
647.447	210.94
647.652	208.94
647.857	192.94
648.062	207.94
648.266	206.94
648.471	224.94
648.676	220.94
648.88	202.94
649.085	218.94
649.289	208.94
649.494	184.94
649.698	186.94
649.903	190.94
650.107	184.94
650.312	201.94
650.516	175.94
650.721	177.94
650.925	170.94
651.13	188.94
651.334	191.94
651.539	176.94
651.743	169.94
651.947	163.94
652.152	181.94
652.356	170.94
652.56	168.94
652.764	164.94
652.969	168.94
653.173	168.94
653.377	166.94
653.581	160.94
653.785	147.94
653.99	149.94
654.194	150.94
654.398	149.94
654.602	153.94
654.806	156.94
655.01	135.94
655.214	148.94
655.418	151.94
655.622	149.94
655.826	141.94
656.03	153.94
656.234	137.94
656.438	148.94
656.642	138.94
656.846	144.94
657.049	155.94
657.253	125.94
657.457	135.94
657.661	118.94
657.865	119.94
658.068	120.94
658.272	132.94
658.476	122.94
658.68	115.94
658.883	116.94
659.087	126.94
659.291	105.94
659.494	105.94
659.698	111.94
659.901	117.94
660.105	96.94
660.309	93.94
660.512	98.94
660.716	93.94
660.919	93.94
661.123	109.94
661.326	106.94
661.53	97.94
661.733	99.94
661.936	96.94
662.14	98.94
662.343	86.94
662.546	84.94
662.75	99.94
662.953	92.94
663.156	93.94
663.36	79.94
663.563	101.94
663.766	86.94
663.969	91.94
664.173	83.94
664.376	83.94
664.579	91.94
664.782	79.94
664.985	91.94
665.188	97.94
665.391	87.94
665.594	87.94
665.797	88.94
666	93.94
666.203	80.94
666.406	87.94
666.609	97.94
666.812	67.94
667.015	79.94
667.218	85.94
667.421	89.94
667.624	90.94
667.827	80.94
668.03	95.94
668.232	82.94
668.435	86.94
668.638	87.94
668.841	88.94
669.043	98.94
669.246	80.94
669.449	77.94
669.651	89.94
669.854	101.94
670.057	95.94
670.259	87.94
670.462	77.94
670.665	82.94
670.867	73.94
671.07	83.94
671.272	74.94
671.475	92.94
671.677	77.94
671.88	78.94
672.082	86.94
672.284	87.94
672.487	98.94
672.689	91.94
672.892	74.94
