Data from Ni(NO3)2@0.125M.TitratingCurve.Agarose3%dH2O.NegLispCup.LampEnergy10.LIBS07252019_HRD10591_18-08-41-567.txt Node
Date: Thu Jul 25 18:08:41 EDT 2019
User: cochatt
Spectrometer: HR+D1059
Trigger mode: 1
Integration Time (sec): 1.000000E-1
Scans to average: 1
Electric dark correction enabled: true
Nonlinearity correction enabled: false
Boxcar width: 0
XAxis mode: Wavelengths
Number of Pixels in Spectrum: 2048
>>>>>Begin Spectral Data<<<<<
223.165	-10.44
223.4	-10.44
223.635	-10.44
223.869	-20.44
224.104	-11.44
224.338	-4.44
224.573	-2.44
224.808	-11.44
225.042	-12.44
225.277	-14.44
225.511	-16.44
225.746	8.56
225.98	-0.44
226.215	13.56
226.449	16.56
226.683	20.56
226.918	22.56
227.152	22.56
227.387	27.56
227.621	36.56
227.856	46.56
228.09	35.56
228.324	46.56
228.559	53.56
228.793	79.56
229.027	113.56
229.262	118.56
229.496	125.56
229.73	134.56
229.964	138.56
230.199	130.56
230.433	144.56
230.667	151.56
230.901	146.56
231.136	151.56
231.37	154.56
231.604	166.56
231.838	173.56
232.072	172.56
232.306	176.56
232.541	160.56
232.775	174.56
233.009	171.56
233.243	171.56
233.477	165.56
233.711	169.56
233.945	162.56
234.179	151.56
234.413	169.56
234.647	165.56
234.881	160.56
235.115	173.56
235.349	175.56
235.583	171.56
235.817	170.56
236.051	178.56
236.285	178.56
236.519	184.56
236.753	172.56
236.987	183.56
237.221	192.56
237.455	176.56
237.689	167.56
237.922	181.56
238.156	168.56
238.39	202.56
238.624	192.56
238.858	206.56
239.091	197.56
239.325	209.56
239.559	200.56
239.793	193.56
240.027	202.56
240.26	203.56
240.494	202.56
240.728	203.56
240.961	222.56
241.195	222.56
241.429	232.56
241.662	214.56
241.896	232.56
242.13	225.56
242.363	222.56
242.597	227.56
242.83	224.56
243.064	219.56
243.298	226.56
243.531	248.56
243.765	240.56
243.998	224.56
244.232	233.56
244.465	238.56
244.699	257.56
244.932	271.56
245.166	245.56
245.399	262.56
245.633	262.56
245.866	260.56
246.099	247.56
246.333	263.56
246.566	266.56
246.8	268.56
247.033	268.56
247.266	268.56
247.5	268.56
247.733	283.56
247.966	290.56
248.2	280.56
248.433	284.56
248.666	277.56
248.899	280.56
249.133	277.56
249.366	298.56
249.599	302.56
249.832	298.56
250.066	294.56
250.299	284.56
250.532	294.56
250.765	292.56
250.998	304.56
251.231	301.56
251.465	330.56
251.698	313.56
251.931	319.56
252.164	337.56
252.397	330.56
252.63	323.56
252.863	342.56
253.096	343.56
253.329	350.56
253.562	337.56
253.795	333.56
254.028	329.56
254.261	349.56
254.494	327.56
254.727	348.56
254.96	351.56
255.193	359.56
255.426	341.56
255.659	350.56
255.892	353.56
256.124	360.56
256.357	350.56
256.59	355.56
256.823	376.56
257.056	354.56
257.289	362.56
257.521	363.56
257.754	359.56
257.987	361.56
258.22	384.56
258.452	380.56
258.685	372.56
258.918	381.56
259.151	378.56
259.383	367.56
259.616	385.56
259.849	396.56
260.081	405.56
260.314	389.56
260.547	404.56
260.779	396.56
261.012	417.56
261.244	402.56
261.477	415.56
261.71	396.56
261.942	419.56
262.175	402.56
262.407	381.56
262.64	410.56
262.872	408.56
263.105	406.56
263.337	403.56
263.57	404.56
263.802	414.56
264.035	414.56
264.267	418.56
264.499	432.56
264.732	428.56
264.964	444.56
265.197	442.56
265.429	430.56
265.661	440.56
265.894	445.56
266.126	434.56
266.358	441.56
266.591	429.56
266.823	460.56
267.055	449.56
267.287	435.56
267.52	451.56
267.752	461.56
267.984	464.56
268.216	471.56
268.448	458.56
268.681	450.56
268.913	450.56
269.145	467.56
269.377	463.56
269.609	463.56
269.841	487.56
270.073	498.56
270.306	470.56
270.538	460.56
270.77	447.56
271.002	446.56
271.234	460.56
271.466	483.56
271.698	479.56
271.93	476.56
272.162	470.56
272.394	501.56
272.626	476.56
272.858	477.56
273.09	491.56
273.322	502.56
273.553	498.56
273.785	492.56
274.017	500.56
274.249	508.56
274.481	505.56
274.713	523.56
274.945	504.56
275.176	521.56
275.408	536.56
275.64	506.56
275.872	511.56
276.104	502.56
276.335	512.56
276.567	511.56
276.799	527.56
277.031	505.56
277.262	524.56
277.494	530.56
277.726	539.56
277.957	536.56
278.189	543.56
278.421	530.56
278.652	545.56
278.884	525.56
279.115	530.56
279.347	526.56
279.579	522.56
279.81	550.56
280.042	562.56
280.273	576.56
280.505	570.56
280.736	571.56
280.968	558.56
281.199	543.56
281.431	567.56
281.662	568.56
281.894	573.56
282.125	555.56
282.356	582.56
282.588	568.56
282.819	580.56
283.051	587.56
283.282	596.56
283.513	575.56
283.745	595.56
283.976	585.56
284.207	612.56
284.439	586.56
284.67	598.56
284.901	600.56
285.132	612.56
285.364	600.56
285.595	600.56
285.826	604.56
286.057	613.56
286.288	606.56
286.52	618.56
286.751	612.56
286.982	610.56
287.213	622.56
287.444	615.56
287.675	642.56
287.906	602.56
288.138	618.56
288.369	630.56
288.6	650.56
288.831	631.56
289.062	642.56
289.293	646.56
289.524	636.56
289.755	627.56
289.986	640.56
290.217	641.56
290.448	662.56
290.679	642.56
290.91	627.56
291.141	654.56
291.371	638.56
291.602	622.56
291.833	615.56
292.064	644.56
292.295	659.56
292.526	636.56
292.757	634.56
292.987	648.56
293.218	649.56
293.449	638.56
293.68	632.56
293.91	632.56
294.141	643.56
294.372	656.56
294.603	668.56
294.833	673.56
295.064	648.56
295.295	655.56
295.525	663.56
295.756	657.56
295.987	670.56
296.217	693.56
296.448	683.56
296.679	670.56
296.909	668.56
297.14	679.56
297.37	690.56
297.601	698.56
297.831	705.56
298.062	692.56
298.292	724.56
298.523	759.56
298.753	696.56
298.984	685.56
299.214	693.56
299.445	695.56
299.675	707.56
299.905	726.56
300.136	697.56
300.366	692.56
300.597	700.56
300.827	753.56
301.057	726.56
301.288	714.56
301.518	749.56
301.748	744.56
301.979	758.56
302.209	752.56
302.439	735.56
302.669	718.56
302.9	722.56
303.13	724.56
303.36	718.56
303.59	737.56
303.82	708.56
304.051	721.56
304.281	729.56
304.511	717.56
304.741	720.56
304.971	726.56
305.201	720.56
305.431	733.56
305.661	685.56
305.891	719.56
306.121	716.56
306.352	732.56
306.582	729.56
306.812	693.56
307.042	699.56
307.272	728.56
307.502	707.56
307.731	718.56
307.961	751.56
308.191	703.56
308.421	718.56
308.651	703.56
308.881	698.56
309.111	743.56
309.341	700.56
309.571	723.56
309.8	703.56
310.03	709.56
310.26	729.56
310.49	731.56
310.72	733.56
310.949	727.56
311.179	732.56
311.409	718.56
311.639	736.56
311.868	734.56
312.098	754.56
312.328	731.56
312.557	764.56
312.787	753.56
313.017	758.56
313.246	758.56
313.476	769.56
313.706	761.56
313.935	754.56
314.165	782.56
314.394	782.56
314.624	784.56
314.853	784.56
315.083	758.56
315.312	750.56
315.542	785.56
315.771	759.56
316.001	748.56
316.23	746.56
316.46	749.56
316.689	771.56
316.919	757.56
317.148	726.56
317.377	760.56
317.607	752.56
317.836	742.56
318.065	760.56
318.295	782.56
318.524	748.56
318.753	776.56
318.983	745.56
319.212	758.56
319.441	760.56
319.67	736.56
319.9	774.56
320.129	760.56
320.358	756.56
320.587	747.56
320.816	762.56
321.046	790.56
321.275	770.56
321.504	767.56
321.733	762.56
321.962	746.56
322.191	802.56
322.42	770.56
322.649	801.56
322.878	789.56
323.108	778.56
323.337	802.56
323.566	795.56
323.795	778.56
324.024	784.56
324.253	778.56
324.482	796.56
324.71	796.56
324.939	817.56
325.168	813.56
325.397	808.56
325.626	829.56
325.855	826.56
326.084	827.56
326.313	859.56
326.542	869.56
326.77	870.56
326.999	861.56
327.228	853.56
327.457	844.56
327.686	841.56
327.914	864.56
328.143	871.56
328.372	836.56
328.6	890.56
328.829	880.56
329.058	864.56
329.287	856.56
329.515	898.56
329.744	856.56
329.972	863.56
330.201	871.56
330.43	863.56
330.658	899.56
330.887	894.56
331.115	897.56
331.344	898.56
331.572	918.56
331.801	942.56
332.03	981.56
332.258	960.56
332.486	1030.56
332.715	1052.56
332.943	1067.56
333.172	1145.56
333.4	1157.56
333.629	1204.56
333.857	1226.56
334.085	1180.56
334.314	1170.56
334.542	1139.56
334.771	1119.56
334.999	1091.56
335.227	1102.56
335.455	1094.56
335.684	1126.56
335.912	1095.56
336.14	1068.56
336.369	1065.56
336.597	1051.56
336.825	1050.56
337.053	1018.56
337.281	1048.56
337.51	1026.56
337.738	1026.56
337.966	1003.56
338.194	1002.56
338.422	983.56
338.65	962.56
338.878	971.56
339.106	947.56
339.334	965.56
339.562	947.56
339.79	933.56
340.018	916.56
340.246	906.56
340.474	904.56
340.702	912.56
340.93	940.56
341.158	931.56
341.386	921.56
341.614	924.56
341.842	934.56
342.07	890.56
342.298	894.56
342.526	898.56
342.754	890.56
342.981	896.56
343.209	948.56
343.437	969.56
343.665	1001.56
343.893	1123.56
344.12	1179.56
344.348	1116.56
344.576	1042.56
344.804	1048.56
345.031	948.56
345.259	940.56
345.487	922.56
345.714	930.56
345.942	923.56
346.17	916.56
346.397	911.56
346.625	899.56
346.853	904.56
347.08	891.56
347.308	908.56
347.535	913.56
347.763	901.56
347.99	913.56
348.218	930.56
348.445	908.56
348.673	915.56
348.9	873.56
349.128	908.56
349.355	883.56
349.583	911.56
349.81	887.56
350.037	894.56
350.265	863.56
350.492	857.56
350.72	877.56
350.947	874.56
351.174	854.56
351.402	894.56
351.629	869.56
351.856	861.56
352.083	863.56
352.311	859.56
352.538	854.56
352.765	879.56
352.992	848.56
353.22	837.56
353.447	854.56
353.674	863.56
353.901	872.56
354.128	837.56
354.355	852.56
354.583	817.56
354.81	842.56
355.037	837.56
355.264	862.56
355.491	868.56
355.718	843.56
355.945	852.56
356.172	870.56
356.399	848.56
356.626	857.56
356.853	907.56
357.08	874.56
357.307	871.56
357.534	851.56
357.761	858.56
357.988	834.56
358.215	839.56
358.441	859.56
358.668	834.56
358.895	838.56
359.122	851.56
359.349	878.56
359.576	843.56
359.802	859.56
360.029	838.56
360.256	870.56
360.483	854.56
360.709	854.56
360.936	874.56
361.163	878.56
361.39	867.56
361.616	856.56
361.843	868.56
362.07	887.56
362.296	847.56
362.523	842.56
362.749	846.56
362.976	842.56
363.203	817.56
363.429	851.56
363.656	844.56
363.882	858.56
364.109	839.56
364.335	845.56
364.562	820.56
364.788	813.56
365.015	868.56
365.241	824.56
365.468	844.56
365.694	834.56
365.92	818.56
366.147	834.56
366.373	834.56
366.599	823.56
366.826	847.56
367.052	842.56
367.278	839.56
367.505	848.56
367.731	856.56
367.957	827.56
368.184	864.56
368.41	859.56
368.636	847.56
368.862	846.56
369.089	847.56
369.315	848.56
369.541	867.56
369.767	863.56
369.993	880.56
370.219	878.56
370.445	884.56
370.672	896.56
370.898	900.56
371.124	903.56
371.35	880.56
371.576	928.56
371.802	940.56
372.028	896.56
372.254	921.56
372.48	908.56
372.706	929.56
372.932	961.56
373.158	952.56
373.384	931.56
373.61	911.56
373.835	924.56
374.061	904.56
374.287	924.56
374.513	920.56
374.739	941.56
374.965	994.56
375.191	1008.56
375.416	1014.56
375.642	964.56
375.868	978.56
376.094	960.56
376.319	936.56
376.545	920.56
376.771	912.56
376.997	911.56
377.222	905.56
377.448	915.56
377.674	912.56
377.899	907.56
378.125	905.56
378.35	898.56
378.576	906.56
378.802	906.56
379.027	899.56
379.253	894.56
379.478	876.56
379.704	895.56
379.929	904.56
380.155	890.56
380.38	882.56
380.606	905.56
380.831	919.56
381.057	916.56
381.282	881.56
381.507	899.56
381.733	897.56
381.958	938.56
382.184	943.56
382.409	922.56
382.634	924.56
382.86	935.56
383.085	958.56
383.31	960.56
383.535	974.56
383.761	1016.56
383.986	1019.56
384.211	1052.56
384.436	1064.56
384.662	1101.56
384.887	1085.56
385.112	1097.56
385.337	1102.56
385.562	1104.56
385.787	1084.56
386.013	1119.56
386.238	1120.56
386.463	1100.56
386.688	1099.56
386.913	1091.56
387.138	1084.56
387.363	1058.56
387.588	1071.56
387.813	1051.56
388.038	1028.56
388.263	1084.56
388.488	1095.56
388.713	1080.56
388.938	1075.56
389.163	1025.56
389.387	1039.56
389.612	1074.56
389.837	1050.56
390.062	1034.56
390.287	1057.56
390.512	1076.56
390.736	1048.56
390.961	1087.56
391.186	1097.56
391.411	1113.56
391.636	1174.56
391.86	1210.56
392.085	1244.56
392.31	1239.56
392.534	1211.56
392.759	1179.56
392.984	1168.56
393.208	1175.56
393.433	1139.56
393.658	1144.56
393.882	1133.56
394.107	1182.56
394.331	1149.56
394.556	1188.56
394.78	1156.56
395.005	1153.56
395.229	1178.56
395.454	1176.56
395.678	1248.56
395.903	1243.56
396.127	1209.56
396.352	1163.56
396.576	1116.56
396.801	1122.56
397.025	1142.56
397.249	1150.56
397.474	1193.56
397.698	1204.56
397.922	1248.56
398.147	1211.56
398.371	1232.56
398.595	1287.56
398.82	1333.56
399.044	1424.56
399.268	1583.56
399.492	1865.56
399.717	2159.56
399.941	2131.56
400.165	1870.56
400.389	1654.56
400.613	1531.56
400.837	1414.56
401.062	1369.56
401.286	1362.56
401.51	1374.56
401.734	1344.56
401.958	1382.56
402.182	1406.56
402.406	1402.56
402.63	1448.56
402.854	1438.56
403.078	1502.56
403.302	1550.56
403.526	1555.56
403.75	1621.56
403.974	1632.56
404.198	1608.56
404.422	1634.56
404.645	1604.56
404.869	1563.56
405.093	1591.56
405.317	1531.56
405.541	1522.56
405.765	1488.56
405.988	1482.56
406.212	1500.56
406.436	1494.56
406.66	1504.56
406.883	1549.56
407.107	1632.56
407.331	1709.56
407.555	1779.56
407.778	1808.56
408.002	1749.56
408.226	1681.56
408.449	1673.56
408.673	1566.56
408.896	1564.56
409.12	1567.56
409.344	1581.56
409.567	1552.56
409.791	1552.56
410.014	1559.56
410.238	1552.56
410.461	1549.56
410.685	1517.56
410.908	1478.56
411.132	1442.56
411.355	1452.56
411.578	1432.56
411.802	1430.56
412.025	1456.56
412.249	1460.56
412.472	1423.56
412.695	1368.56
412.919	1375.56
413.142	1369.56
413.365	1360.56
413.589	1391.56
413.812	1359.56
414.035	1366.56
414.258	1374.56
414.482	1364.56
414.705	1407.56
414.928	1394.56
415.151	1364.56
415.374	1386.56
415.597	1351.56
415.821	1351.56
416.044	1329.56
416.267	1343.56
416.49	1372.56
416.713	1363.56
416.936	1355.56
417.159	1362.56
417.382	1349.56
417.605	1367.56
417.828	1349.56
418.051	1347.56
418.274	1376.56
418.497	1384.56
418.72	1414.56
418.943	1387.56
419.166	1550.56
419.389	1606.56
419.611	1593.56
419.834	1500.56
420.057	1458.56
420.28	1419.56
420.503	1354.56
420.726	1350.56
420.948	1368.56
421.171	1378.56
421.394	1389.56
421.617	1374.56
421.839	1389.56
422.062	1408.56
422.285	1350.56
422.507	1433.56
422.73	1391.56
422.953	1414.56
423.175	1451.56
423.398	1465.56
423.621	1488.56
423.843	1490.56
424.066	1510.56
424.288	1472.56
424.511	1445.56
424.733	1428.56
424.956	1442.56
425.178	1374.56
425.401	1370.56
425.623	1360.56
425.846	1370.56
426.068	1347.56
426.291	1315.56
426.513	1328.56
426.735	1314.56
426.958	1278.56
427.18	1218.56
427.402	1236.56
427.625	1276.56
427.847	1218.56
428.069	1231.56
428.292	1270.56
428.514	1224.56
428.736	1223.56
428.958	1209.56
429.181	1199.56
429.403	1183.56
429.625	1224.56
429.847	1188.56
430.069	1210.56
430.292	1229.56
430.514	1167.56
430.736	1176.56
430.958	1192.56
431.18	1201.56
431.402	1222.56
431.624	1205.56
431.846	1222.56
432.068	1216.56
432.29	1273.56
432.512	1208.56
432.734	1249.56
432.956	1219.56
433.178	1261.56
433.4	1239.56
433.622	1259.56
433.844	1275.56
434.066	1241.56
434.287	1256.56
434.509	1308.56
434.731	1346.56
434.953	1422.56
435.175	1430.56
435.397	1413.56
435.618	1338.56
435.84	1296.56
436.062	1227.56
436.284	1226.56
436.505	1253.56
436.727	1243.56
436.949	1259.56
437.17	1221.56
437.392	1197.56
437.614	1190.56
437.835	1172.56
438.057	1186.56
438.278	1200.56
438.5	1164.56
438.721	1159.56
438.943	1191.56
439.165	1193.56
439.386	1202.56
439.608	1249.56
439.829	1255.56
440.05	1259.56
440.272	1258.56
440.493	1219.56
440.715	1276.56
440.936	1302.56
441.158	1323.56
441.379	1341.56
441.6	1427.56
441.822	1436.56
442.043	1458.56
442.264	1399.56
442.486	1360.56
442.707	1374.56
442.928	1366.56
443.149	1406.56
443.371	1396.56
443.592	1400.56
443.813	1423.56
444.034	1439.56
444.255	1475.56
444.476	1589.56
444.698	1635.56
444.919	1739.56
445.14	1802.56
445.361	1606.56
445.582	1488.56
445.803	1350.56
446.024	1313.56
446.245	1315.56
446.466	1299.56
446.687	1226.56
446.908	1291.56
447.129	1225.56
447.35	1194.56
447.571	1219.56
447.792	1194.56
448.013	1174.56
448.234	1180.56
448.455	1180.56
448.675	1155.56
448.896	1178.56
449.117	1128.56
449.338	1154.56
449.559	1116.56
449.779	1102.56
450	1124.56
450.221	1143.56
450.442	1144.56
450.662	1149.56
450.883	1182.56
451.104	1206.56
451.324	1202.56
451.545	1185.56
451.766	1186.56
451.986	1166.56
452.207	1167.56
452.428	1144.56
452.648	1160.56
452.869	1120.56
453.089	1106.56
453.31	1138.56
453.53	1107.56
453.751	1113.56
453.971	1126.56
454.192	1110.56
454.412	1098.56
454.633	1069.56
454.853	1122.56
455.073	1101.56
455.294	1097.56
455.514	1105.56
455.734	1074.56
455.955	1045.56
456.175	1059.56
456.395	1051.56
456.616	1075.56
456.836	1074.56
457.056	1081.56
457.276	1039.56
457.497	1060.56
457.717	1064.56
457.937	1058.56
458.157	1122.56
458.377	1106.56
458.598	1124.56
458.818	1146.56
459.038	1162.56
459.258	1199.56
459.478	1283.56
459.698	1340.56
459.918	1320.56
460.138	1364.56
460.358	1478.56
460.578	1509.56
460.798	1526.56
461.018	1512.56
461.238	1506.56
461.458	1477.56
461.678	1460.56
461.898	1476.56
462.118	1483.56
462.338	1618.56
462.558	1643.56
462.777	1692.56
462.997	1846.56
463.217	2095.56
463.437	2128.56
463.657	1897.56
463.876	1764.56
464.096	1715.56
464.316	1751.56
464.536	1783.56
464.755	1724.56
464.975	1637.56
465.195	1555.56
465.414	1456.56
465.634	1340.56
465.854	1317.56
466.073	1309.56
466.293	1288.56
466.512	1257.56
466.732	1238.56
466.951	1218.56
467.171	1236.56
467.391	1218.56
467.61	1211.56
467.829	1176.56
468.049	1188.56
468.268	1142.56
468.488	1135.56
468.707	1146.56
468.927	1192.56
469.146	1173.56
469.365	1175.56
469.585	1182.56
469.804	1199.56
470.023	1224.56
470.243	1250.56
470.462	1235.56
470.681	1247.56
470.901	1274.56
471.12	1216.56
471.339	1253.56
471.558	1169.56
471.777	1177.56
471.997	1175.56
472.216	1122.56
472.435	1132.56
472.654	1109.56
472.873	1138.56
473.092	1099.56
473.311	1095.56
473.53	1084.56
473.749	1100.56
473.968	1104.56
474.187	1128.56
474.406	1117.56
474.625	1132.56
474.844	1154.56
475.063	1160.56
475.282	1150.56
475.501	1147.56
475.72	1160.56
475.939	1156.56
476.158	1155.56
476.377	1173.56
476.596	1169.56
476.814	1187.56
477.033	1206.56
477.252	1204.56
477.471	1223.56
477.69	1250.56
477.908	1296.56
478.127	1399.56
478.346	1340.56
478.564	1381.56
478.783	1395.56
479.002	1449.56
479.22	1466.56
479.439	1442.56
479.658	1383.56
479.876	1449.56
480.095	1442.56
480.313	1468.56
480.532	1555.56
480.751	1532.56
480.969	1453.56
481.188	1407.56
481.406	1368.56
481.624	1311.56
481.843	1292.56
482.061	1321.56
482.28	1314.56
482.498	1319.56
482.717	1306.56
482.935	1306.56
483.153	1287.56
483.372	1294.56
483.59	1294.56
483.808	1296.56
484.027	1304.56
484.245	1291.56
484.463	1317.56
484.681	1320.56
484.9	1335.56
485.118	1346.56
485.336	1332.56
485.554	1355.56
485.772	1360.56
485.99	1379.56
486.209	1386.56
486.427	1366.56
486.645	1378.56
486.863	1397.56
487.081	1328.56
487.299	1378.56
487.517	1351.56
487.735	1338.56
487.953	1360.56
488.171	1381.56
488.389	1372.56
488.607	1325.56
488.825	1318.56
489.043	1347.56
489.261	1337.56
489.479	1344.56
489.696	1379.56
489.914	1351.56
490.132	1325.56
490.35	1362.56
490.568	1402.56
490.786	1371.56
491.003	1354.56
491.221	1392.56
491.439	1392.56
491.657	1390.56
491.874	1401.56
492.092	1404.56
492.31	1394.56
492.527	1452.56
492.745	1389.56
492.963	1446.56
493.18	1424.56
493.398	1407.56
493.615	1428.56
493.833	1423.56
494.05	1442.56
494.268	1469.56
494.485	1496.56
494.703	1493.56
494.92	1478.56
495.138	1423.56
495.355	1463.56
495.573	1421.56
495.79	1458.56
496.008	1454.56
496.225	1450.56
496.442	1486.56
496.66	1520.56
496.877	1528.56
497.094	1552.56
497.312	1549.56
497.529	1584.56
497.746	1623.56
497.963	1632.56
498.181	1782.56
498.398	1835.56
498.615	1927.56
498.832	2035.56
499.049	2223.56
499.267	2438.56
499.484	2649.56
499.701	2948.56
499.918	3306.56
500.135	3778.56
500.352	4421.56
500.569	4693.56
500.786	4593.56
501.003	4230.56
501.22	3767.56
501.437	3306.56
501.654	2850.56
501.871	2574.56
502.088	2335.56
502.305	2174.56
502.522	2093.56
502.739	2014.56
502.956	1899.56
503.172	1762.56
503.389	1753.56
503.606	1667.56
503.823	1697.56
504.04	1598.56
504.256	1679.56
504.473	1761.56
504.69	1770.56
504.907	1690.56
505.123	1595.56
505.34	1517.56
505.557	1435.56
505.773	1437.56
505.99	1361.56
506.207	1368.56
506.423	1346.56
506.64	1344.56
506.856	1308.56
507.073	1277.56
507.289	1263.56
507.506	1300.56
507.722	1319.56
507.939	1279.56
508.155	1236.56
508.372	1227.56
508.588	1206.56
508.805	1227.56
509.021	1191.56
509.238	1205.56
509.454	1215.56
509.67	1163.56
509.887	1170.56
510.103	1162.56
510.319	1203.56
510.536	1164.56
510.752	1187.56
510.968	1187.56
511.184	1161.56
511.401	1154.56
511.617	1145.56
511.833	1165.56
512.049	1131.56
512.265	1167.56
512.481	1163.56
512.698	1158.56
512.914	1160.56
513.13	1169.56
513.346	1168.56
513.562	1148.56
513.778	1133.56
513.994	1148.56
514.21	1156.56
514.426	1164.56
514.642	1191.56
514.858	1181.56
515.074	1177.56
515.29	1266.56
515.506	1230.56
515.721	1255.56
515.937	1268.56
516.153	1286.56
516.369	1292.56
516.585	1338.56
516.801	1367.56
517.016	1426.56
517.232	1510.56
517.448	1628.56
517.664	1646.56
517.879	1668.56
518.095	1639.56
518.311	1610.56
518.527	1531.56
518.742	1457.56
518.958	1423.56
519.173	1371.56
519.389	1318.56
519.605	1292.56
519.82	1250.56
520.036	1227.56
520.251	1206.56
520.467	1193.56
520.682	1164.56
520.898	1167.56
521.113	1120.56
521.329	1169.56
521.544	1129.56
521.76	1110.56
521.975	1098.56
522.19	1115.56
522.406	1109.56
522.621	1084.56
522.836	1112.56
523.052	1117.56
523.267	1092.56
523.482	1081.56
523.698	1083.56
523.913	1090.56
524.128	1096.56
524.343	1065.56
524.559	1095.56
524.774	1096.56
524.989	1083.56
525.204	1074.56
525.419	1034.56
525.634	1067.56
525.849	1060.56
526.064	1060.56
526.28	1083.56
526.495	1042.56
526.71	1050.56
526.925	1054.56
527.14	1030.56
527.355	1059.56
527.57	1052.56
527.785	1048.56
527.999	1080.56
528.214	1058.56
528.429	1050.56
528.644	1053.56
528.859	1091.56
529.074	1078.56
529.289	1077.56
529.503	1070.56
529.718	1093.56
529.933	1078.56
530.148	1064.56
530.363	1067.56
530.577	1017.56
530.792	1052.56
531.007	1069.56
531.221	1049.56
531.436	1036.56
531.651	1051.56
531.865	1057.56
532.08	1068.56
532.295	1055.56
532.509	1054.56
532.724	1084.56
532.938	1057.56
533.153	1099.56
533.367	1043.56
533.582	1039.56
533.796	1028.56
534.011	1043.56
534.225	1054.56
534.44	1057.56
534.654	1021.56
534.868	1038.56
535.083	1036.56
535.297	1026.56
535.511	1031.56
535.726	1016.56
535.94	1005.56
536.154	988.56
536.369	1018.56
536.583	972.56
536.797	960.56
537.011	1000.56
537.225	970.56
537.44	974.56
537.654	962.56
537.868	986.56
538.082	975.56
538.296	973.56
538.51	936.56
538.724	951.56
538.938	950.56
539.153	963.56
539.367	946.56
539.581	952.56
539.795	973.56
540.009	950.56
540.222	942.56
540.436	954.56
540.65	952.56
540.864	944.56
541.078	931.56
541.292	961.56
541.506	962.56
541.72	951.56
541.934	926.56
542.147	969.56
542.361	953.56
542.575	924.56
542.789	927.56
543.002	925.56
543.216	940.56
543.43	935.56
543.644	922.56
543.857	908.56
544.071	921.56
544.285	929.56
544.498	943.56
544.712	930.56
544.925	958.56
545.139	968.56
545.352	963.56
545.566	981.56
545.779	964.56
545.993	1018.56
546.206	973.56
546.42	952.56
546.633	964.56
546.847	942.56
547.06	955.56
547.274	969.56
547.487	990.56
547.7	980.56
547.914	1010.56
548.127	1006.56
548.34	999.56
548.554	991.56
548.767	964.56
548.98	984.56
549.193	990.56
549.407	994.56
549.62	995.56
549.833	991.56
550.046	998.56
550.259	969.56
550.473	973.56
550.686	980.56
550.899	938.56
551.112	934.56
551.325	958.56
551.538	918.56
551.751	931.56
551.964	951.56
552.177	981.56
552.39	977.56
552.603	990.56
552.816	1036.56
553.029	1040.56
553.242	1058.56
553.455	1087.56
553.667	1070.56
553.88	1086.56
554.093	1042.56
554.306	1014.56
554.519	990.56
554.732	980.56
554.944	928.56
555.157	914.56
555.37	904.56
555.583	891.56
555.795	903.56
556.008	859.56
556.221	856.56
556.433	863.56
556.646	851.56
556.859	860.56
557.071	810.56
557.284	850.56
557.496	818.56
557.709	805.56
557.921	806.56
558.134	831.56
558.346	814.56
558.559	812.56
558.771	801.56
558.984	829.56
559.196	823.56
559.409	781.56
559.621	806.56
559.833	803.56
560.046	831.56
560.258	781.56
560.47	808.56
560.683	798.56
560.895	811.56
561.107	784.56
561.32	773.56
561.532	800.56
561.744	775.56
561.956	768.56
562.168	787.56
562.381	786.56
562.593	815.56
562.805	818.56
563.017	808.56
563.229	799.56
563.441	809.56
563.653	819.56
563.865	822.56
564.077	829.56
564.289	832.56
564.501	843.56
564.713	856.56
564.925	862.56
565.137	876.56
565.349	888.56
565.561	902.56
565.773	962.56
565.985	974.56
566.197	1015.56
566.408	1103.56
566.62	1222.56
566.832	1303.56
567.044	1351.56
567.255	1341.56
567.467	1348.56
567.679	1455.56
567.891	1598.56
568.102	1632.56
568.314	1565.56
568.526	1371.56
568.737	1221.56
568.949	1136.56
569.161	1008.56
569.372	974.56
569.584	908.56
569.795	904.56
570.007	854.56
570.218	837.56
570.43	825.56
570.641	808.56
570.853	799.56
571.064	838.56
571.276	837.56
571.487	787.56
571.698	764.56
571.91	756.56
572.121	716.56
572.333	708.56
572.544	711.56
572.755	711.56
572.966	674.56
573.178	684.56
573.389	688.56
573.6	679.56
573.811	669.56
574.023	675.56
574.234	673.56
574.445	643.56
574.656	655.56
574.867	679.56
575.078	642.56
575.289	658.56
575.501	639.56
575.712	634.56
575.923	612.56
576.134	629.56
576.345	638.56
576.556	618.56
576.767	617.56
576.978	604.56
577.188	628.56
577.399	614.56
577.61	598.56
577.821	581.56
578.032	593.56
578.243	586.56
578.454	574.56
578.665	583.56
578.875	574.56
579.086	604.56
579.297	581.56
579.508	576.56
579.718	576.56
579.929	564.56
580.14	551.56
580.35	566.56
580.561	584.56
580.772	561.56
580.982	559.56
581.193	563.56
581.403	552.56
581.614	550.56
581.825	560.56
582.035	534.56
582.246	536.56
582.456	540.56
582.667	562.56
582.877	549.56
583.087	548.56
583.298	538.56
583.508	523.56
583.719	540.56
583.929	531.56
584.139	527.56
584.35	555.56
584.56	530.56
584.77	501.56
584.981	521.56
585.191	513.56
585.401	534.56
585.611	526.56
585.821	539.56
586.032	523.56
586.242	528.56
586.452	551.56
586.662	512.56
586.872	503.56
587.082	521.56
587.292	499.56
587.502	516.56
587.713	532.56
587.923	538.56
588.133	524.56
588.343	494.56
588.553	531.56
588.762	527.56
588.972	526.56
589.182	546.56
589.392	522.56
589.602	521.56
589.812	517.56
590.022	521.56
590.232	521.56
590.441	554.56
590.651	548.56
590.861	551.56
591.071	526.56
591.281	523.56
591.49	564.56
591.7	544.56
591.91	565.56
592.119	555.56
592.329	570.56
592.539	602.56
592.748	627.56
592.958	629.56
593.167	656.56
593.377	689.56
593.587	649.56
593.796	672.56
594.006	669.56
594.215	698.56
594.424	692.56
594.634	656.56
594.843	654.56
595.053	600.56
595.262	596.56
595.472	590.56
595.681	554.56
595.89	550.56
596.1	538.56
596.309	488.56
596.518	514.56
596.727	501.56
596.937	469.56
597.146	502.56
597.355	468.56
597.564	467.56
597.774	464.56
597.983	470.56
598.192	456.56
598.401	461.56
598.61	453.56
598.819	429.56
599.028	450.56
599.237	454.56
599.446	463.56
599.655	443.56
599.864	462.56
600.073	425.56
600.282	442.56
600.491	438.56
600.7	435.56
600.909	419.56
601.118	424.56
601.327	415.56
601.536	424.56
601.745	425.56
601.953	430.56
602.162	432.56
602.371	401.56
602.58	428.56
602.789	437.56
602.997	408.56
603.206	408.56
603.415	405.56
603.623	412.56
603.832	398.56
604.041	417.56
604.249	419.56
604.458	410.56
604.666	424.56
604.875	397.56
605.084	406.56
605.292	394.56
605.501	405.56
605.709	400.56
605.918	398.56
606.126	404.56
606.334	394.56
606.543	396.56
606.751	392.56
606.96	386.56
607.168	401.56
607.376	390.56
607.585	378.56
607.793	392.56
608.001	403.56
608.21	380.56
608.418	392.56
608.626	375.56
608.834	399.56
609.043	405.56
609.251	389.56
609.459	395.56
609.667	403.56
609.875	397.56
610.083	371.56
610.291	376.56
610.499	397.56
610.707	380.56
610.916	391.56
611.124	388.56
611.332	404.56
611.54	381.56
611.748	382.56
611.955	395.56
612.163	392.56
612.371	380.56
612.579	369.56
612.787	364.56
612.995	372.56
613.203	372.56
613.411	361.56
613.618	384.56
613.826	376.56
614.034	387.56
614.242	390.56
614.449	398.56
614.657	364.56
614.865	375.56
615.072	374.56
615.28	377.56
615.488	374.56
615.695	366.56
615.903	360.56
616.111	370.56
616.318	356.56
616.526	381.56
616.733	356.56
616.941	350.56
617.148	365.56
617.356	360.56
617.563	370.56
617.771	378.56
617.978	365.56
618.185	359.56
618.393	370.56
618.6	364.56
618.807	375.56
619.015	362.56
619.222	384.56
619.429	376.56
619.637	376.56
619.844	354.56
620.051	356.56
620.258	360.56
620.466	337.56
620.673	332.56
620.88	334.56
621.087	366.56
621.294	341.56
621.501	354.56
621.708	346.56
621.915	345.56
622.122	334.56
622.329	348.56
622.536	350.56
622.743	331.56
622.95	348.56
623.157	329.56
623.364	355.56
623.571	335.56
623.778	339.56
623.985	326.56
624.192	331.56
624.399	324.56
624.606	343.56
624.812	335.56
625.019	311.56
625.226	326.56
625.433	322.56
625.639	309.56
625.846	311.56
626.053	302.56
626.259	310.56
626.466	335.56
626.673	314.56
626.879	314.56
627.086	317.56
627.293	311.56
627.499	311.56
627.706	300.56
627.912	328.56
628.119	289.56
628.325	312.56
628.532	295.56
628.738	316.56
628.945	313.56
629.151	303.56
629.357	296.56
629.564	314.56
629.77	300.56
629.976	297.56
630.183	288.56
630.389	302.56
630.595	284.56
630.802	273.56
631.008	289.56
631.214	284.56
631.42	290.56
631.627	293.56
631.833	282.56
632.039	294.56
632.245	282.56
632.451	287.56
632.657	286.56
632.863	275.56
633.069	273.56
633.275	284.56
633.481	265.56
633.688	264.56
633.893	266.56
634.099	268.56
634.305	296.56
634.511	273.56
634.717	280.56
634.923	267.56
635.129	266.56
635.335	271.56
635.541	266.56
635.747	254.56
635.952	277.56
636.158	246.56
636.364	271.56
636.57	259.56
636.775	252.56
636.981	246.56
637.187	258.56
637.392	262.56
637.598	270.56
637.804	264.56
638.009	287.56
638.215	266.56
638.421	253.56
638.626	272.56
638.832	246.56
639.037	246.56
639.243	247.56
639.448	267.56
639.654	243.56
639.859	247.56
640.065	241.56
640.27	237.56
640.475	247.56
640.681	254.56
640.886	246.56
641.091	239.56
641.297	232.56
641.502	258.56
641.707	249.56
641.913	209.56
642.118	242.56
642.323	248.56
642.528	260.56
642.733	251.56
642.939	221.56
643.144	239.56
643.349	236.56
643.554	235.56
643.759	230.56
643.964	240.56
644.169	239.56
644.374	249.56
644.579	212.56
644.784	231.56
644.989	228.56
645.194	226.56
645.399	224.56
645.604	219.56
645.809	228.56
646.014	214.56
646.219	227.56
646.423	223.56
646.628	220.56
646.833	222.56
647.038	229.56
647.243	237.56
647.447	222.56
647.652	218.56
647.857	234.56
648.062	229.56
648.266	251.56
648.471	252.56
648.676	261.56
648.88	244.56
649.085	238.56
649.289	234.56
649.494	228.56
649.698	229.56
649.903	230.56
650.107	227.56
650.312	232.56
650.516	210.56
650.721	199.56
650.925	207.56
651.13	222.56
651.334	197.56
651.539	215.56
651.743	197.56
651.947	206.56
652.152	200.56
652.356	188.56
652.56	191.56
652.764	184.56
652.969	189.56
653.173	191.56
653.377	198.56
653.581	182.56
653.785	161.56
653.99	182.56
654.194	163.56
654.398	158.56
654.602	159.56
654.806	173.56
655.01	166.56
655.214	151.56
655.418	164.56
655.622	165.56
655.826	172.56
656.03	146.56
656.234	161.56
656.438	158.56
656.642	158.56
656.846	154.56
657.049	153.56
657.253	149.56
657.457	135.56
657.661	144.56
657.865	134.56
658.068	145.56
658.272	126.56
658.476	130.56
658.68	127.56
658.883	114.56
659.087	123.56
659.291	107.56
659.494	130.56
659.698	116.56
659.901	112.56
660.105	112.56
660.309	110.56
660.512	120.56
660.716	100.56
660.919	92.56
661.123	111.56
661.326	100.56
661.53	92.56
661.733	96.56
661.936	102.56
662.14	89.56
662.343	84.56
662.546	91.56
662.75	99.56
662.953	96.56
663.156	71.56
663.36	79.56
663.563	84.56
663.766	78.56
663.969	93.56
664.173	91.56
664.376	94.56
664.579	87.56
664.782	80.56
664.985	97.56
665.188	72.56
665.391	79.56
665.594	89.56
665.797	82.56
666	80.56
666.203	82.56
666.406	85.56
666.609	83.56
666.812	82.56
667.015	70.56
667.218	80.56
667.421	99.56
667.624	89.56
667.827	76.56
668.03	75.56
668.232	92.56
668.435	86.56
668.638	92.56
668.841	90.56
669.043	67.56
669.246	94.56
669.449	79.56
669.651	88.56
669.854	86.56
670.057	85.56
670.259	82.56
670.462	72.56
670.665	70.56
670.867	77.56
671.07	71.56
671.272	71.56
671.475	101.56
671.677	86.56
671.88	94.56
672.082	85.56
672.284	95.56
672.487	82.56
672.689	91.56
672.892	71.56
