Data from Ni(NO3)2@0.0625M.TitratingCurve.Agarose3%dH2O.NegLispCup.LampEnergy10.LIBS07252019_HRD10591_18-16-00-570.txt Node
Date: Thu Jul 25 18:16:00 EDT 2019
User: cochatt
Spectrometer: HR+D1059
Trigger mode: 1
Integration Time (sec): 1.000000E-1
Scans to average: 1
Electric dark correction enabled: true
Nonlinearity correction enabled: false
Boxcar width: 0
XAxis mode: Wavelengths
Number of Pixels in Spectrum: 2048
>>>>>Begin Spectral Data<<<<<
223.165	-17.62
223.4	-17.62
223.635	-17.62
223.869	-23.62
224.104	-8.62
224.338	-8.62
224.573	-11.62
224.808	-8.62
225.042	-4.62
225.277	5.38
225.511	7.38
225.746	-0.62
225.98	-2.62
226.215	6.38
226.449	9.38
226.683	10.38
226.918	17.38
227.152	30.38
227.387	34.38
227.621	30.38
227.856	41.38
228.09	44.38
228.324	52.38
228.559	64.38
228.793	61.38
229.027	111.38
229.262	130.38
229.496	124.38
229.73	120.38
229.964	128.38
230.199	127.38
230.433	134.38
230.667	142.38
230.901	138.38
231.136	155.38
231.37	144.38
231.604	153.38
231.838	154.38
232.072	147.38
232.306	161.38
232.541	152.38
232.775	155.38
233.009	143.38
233.243	144.38
233.477	170.38
233.711	162.38
233.945	151.38
234.179	167.38
234.413	164.38
234.647	158.38
234.881	158.38
235.115	171.38
235.349	170.38
235.583	167.38
235.817	159.38
236.051	160.38
236.285	154.38
236.519	176.38
236.753	174.38
236.987	175.38
237.221	169.38
237.455	159.38
237.689	166.38
237.922	183.38
238.156	176.38
238.39	189.38
238.624	184.38
238.858	188.38
239.091	190.38
239.325	174.38
239.559	184.38
239.793	183.38
240.027	185.38
240.26	174.38
240.494	187.38
240.728	200.38
240.961	197.38
241.195	212.38
241.429	216.38
241.662	200.38
241.896	206.38
242.13	202.38
242.363	210.38
242.597	209.38
242.83	219.38
243.064	221.38
243.298	216.38
243.531	215.38
243.765	227.38
243.998	232.38
244.232	229.38
244.465	226.38
244.699	226.38
244.932	224.38
245.166	241.38
245.399	238.38
245.633	224.38
245.866	238.38
246.099	240.38
246.333	251.38
246.566	229.38
246.8	238.38
247.033	239.38
247.266	243.38
247.5	238.38
247.733	241.38
247.966	255.38
248.2	248.38
248.433	246.38
248.666	251.38
248.899	279.38
249.133	260.38
249.366	270.38
249.599	257.38
249.832	281.38
250.066	275.38
250.299	280.38
250.532	272.38
250.765	280.38
250.998	274.38
251.231	291.38
251.465	284.38
251.698	299.38
251.931	292.38
252.164	304.38
252.397	305.38
252.63	299.38
252.863	292.38
253.096	303.38
253.329	306.38
253.562	297.38
253.795	324.38
254.028	306.38
254.261	319.38
254.494	310.38
254.727	300.38
254.96	323.38
255.193	313.38
255.426	302.38
255.659	295.38
255.892	324.38
256.124	316.38
256.357	309.38
256.59	336.38
256.823	339.38
257.056	310.38
257.289	323.38
257.521	334.38
257.754	328.38
257.987	329.38
258.22	341.38
258.452	331.38
258.685	337.38
258.918	351.38
259.151	346.38
259.383	336.38
259.616	331.38
259.849	348.38
260.081	347.38
260.314	358.38
260.547	336.38
260.779	351.38
261.012	349.38
261.244	372.38
261.477	348.38
261.71	355.38
261.942	371.38
262.175	361.38
262.407	390.38
262.64	362.38
262.872	368.38
263.105	360.38
263.337	358.38
263.57	369.38
263.802	372.38
264.035	391.38
264.267	383.38
264.499	373.38
264.732	386.38
264.964	397.38
265.197	383.38
265.429	386.38
265.661	388.38
265.894	382.38
266.126	376.38
266.358	396.38
266.591	388.38
266.823	409.38
267.055	403.38
267.287	410.38
267.52	394.38
267.752	398.38
267.984	401.38
268.216	402.38
268.448	406.38
268.681	407.38
268.913	422.38
269.145	415.38
269.377	411.38
269.609	411.38
269.841	430.38
270.073	412.38
270.306	414.38
270.538	424.38
270.77	437.38
271.002	416.38
271.234	447.38
271.466	427.38
271.698	431.38
271.93	433.38
272.162	437.38
272.394	428.38
272.626	448.38
272.858	434.38
273.09	433.38
273.322	446.38
273.553	441.38
273.785	436.38
274.017	462.38
274.249	453.38
274.481	472.38
274.713	460.38
274.945	467.38
275.176	469.38
275.408	466.38
275.64	462.38
275.872	470.38
276.104	449.38
276.335	473.38
276.567	477.38
276.799	469.38
277.031	466.38
277.262	482.38
277.494	458.38
277.726	479.38
277.957	474.38
278.189	492.38
278.421	491.38
278.652	473.38
278.884	488.38
279.115	503.38
279.347	487.38
279.579	483.38
279.81	496.38
280.042	494.38
280.273	489.38
280.505	503.38
280.736	515.38
280.968	515.38
281.199	537.38
281.431	537.38
281.662	523.38
281.894	534.38
282.125	540.38
282.356	524.38
282.588	512.38
282.819	533.38
283.051	527.38
283.282	524.38
283.513	522.38
283.745	539.38
283.976	548.38
284.207	525.38
284.439	540.38
284.67	546.38
284.901	569.38
285.132	528.38
285.364	550.38
285.595	523.38
285.826	563.38
286.057	548.38
286.288	542.38
286.52	567.38
286.751	559.38
286.982	561.38
287.213	556.38
287.444	559.38
287.675	555.38
287.906	562.38
288.138	571.38
288.369	564.38
288.6	571.38
288.831	562.38
289.062	590.38
289.293	577.38
289.524	585.38
289.755	588.38
289.986	582.38
290.217	592.38
290.448	582.38
290.679	615.38
290.91	594.38
291.141	614.38
291.371	616.38
291.602	597.38
291.833	568.38
292.064	584.38
292.295	593.38
292.526	606.38
292.757	588.38
292.987	600.38
293.218	602.38
293.449	613.38
293.68	619.38
293.91	588.38
294.141	595.38
294.372	622.38
294.603	594.38
294.833	608.38
295.064	600.38
295.295	604.38
295.525	600.38
295.756	619.38
295.987	614.38
296.217	618.38
296.448	636.38
296.679	608.38
296.909	632.38
297.14	648.38
297.37	627.38
297.601	648.38
297.831	637.38
298.062	634.38
298.292	636.38
298.523	651.38
298.753	662.38
298.984	625.38
299.214	641.38
299.445	672.38
299.675	647.38
299.905	653.38
300.136	622.38
300.366	645.38
300.597	656.38
300.827	680.38
301.057	665.38
301.288	691.38
301.518	680.38
301.748	683.38
301.979	675.38
302.209	677.38
302.439	678.38
302.669	683.38
302.9	675.38
303.13	668.38
303.36	679.38
303.59	670.38
303.82	675.38
304.051	668.38
304.281	667.38
304.511	691.38
304.741	670.38
304.971	667.38
305.201	656.38
305.431	678.38
305.661	664.38
305.891	659.38
306.121	648.38
306.352	673.38
306.582	659.38
306.812	664.38
307.042	662.38
307.272	666.38
307.502	676.38
307.731	655.38
307.961	673.38
308.191	658.38
308.421	650.38
308.651	651.38
308.881	668.38
309.111	678.38
309.341	644.38
309.571	646.38
309.8	662.38
310.03	642.38
310.26	643.38
310.49	650.38
310.72	674.38
310.949	670.38
311.179	652.38
311.409	681.38
311.639	666.38
311.868	688.38
312.098	674.38
312.328	695.38
312.557	720.38
312.787	697.38
313.017	713.38
313.246	694.38
313.476	692.38
313.706	732.38
313.935	717.38
314.165	706.38
314.394	716.38
314.624	715.38
314.853	729.38
315.083	726.38
315.312	708.38
315.542	704.38
315.771	704.38
316.001	705.38
316.23	700.38
316.46	722.38
316.689	694.38
316.919	672.38
317.148	702.38
317.377	698.38
317.607	689.38
317.836	681.38
318.065	672.38
318.295	704.38
318.524	695.38
318.753	699.38
318.983	687.38
319.212	669.38
319.441	681.38
319.67	688.38
319.9	697.38
320.129	688.38
320.358	669.38
320.587	709.38
320.816	716.38
321.046	704.38
321.275	700.38
321.504	695.38
321.733	690.38
321.962	695.38
322.191	705.38
322.42	700.38
322.649	710.38
322.878	696.38
323.108	699.38
323.337	722.38
323.566	708.38
323.795	699.38
324.024	683.38
324.253	728.38
324.482	747.38
324.71	702.38
324.939	725.38
325.168	715.38
325.397	747.38
325.626	735.38
325.855	722.38
326.084	766.38
326.313	774.38
326.542	782.38
326.77	798.38
326.999	748.38
327.228	760.38
327.457	774.38
327.686	759.38
327.914	766.38
328.143	759.38
328.372	769.38
328.6	775.38
328.829	779.38
329.058	799.38
329.287	755.38
329.515	765.38
329.744	793.38
329.972	803.38
330.201	767.38
330.43	775.38
330.658	802.38
330.887	797.38
331.115	834.38
331.344	820.38
331.572	819.38
331.801	837.38
332.03	853.38
332.258	867.38
332.486	899.38
332.715	940.38
332.943	964.38
333.172	1023.38
333.4	1047.38
333.629	1068.38
333.857	1097.38
334.085	1068.38
334.314	1052.38
334.542	1033.38
334.771	981.38
334.999	985.38
335.227	974.38
335.455	946.38
335.684	948.38
335.912	950.38
336.14	920.38
336.369	939.38
336.597	921.38
336.825	959.38
337.053	929.38
337.281	928.38
337.51	885.38
337.738	887.38
337.966	870.38
338.194	865.38
338.422	839.38
338.65	852.38
338.878	826.38
339.106	839.38
339.334	845.38
339.562	827.38
339.79	792.38
340.018	810.38
340.246	833.38
340.474	776.38
340.702	806.38
340.93	817.38
341.158	807.38
341.386	791.38
341.614	802.38
341.842	803.38
342.07	830.38
342.298	817.38
342.526	776.38
342.754	801.38
342.981	835.38
343.209	822.38
343.437	863.38
343.665	911.38
343.893	967.38
344.12	1018.38
344.348	987.38
344.576	915.38
344.804	879.38
345.031	840.38
345.259	838.38
345.487	806.38
345.714	818.38
345.942	809.38
346.17	811.38
346.397	783.38
346.625	774.38
346.853	779.38
347.08	778.38
347.308	779.38
347.535	784.38
347.763	806.38
347.99	811.38
348.218	802.38
348.445	823.38
348.673	767.38
348.9	775.38
349.128	786.38
349.355	760.38
349.583	774.38
349.81	771.38
350.037	761.38
350.265	743.38
350.492	767.38
350.72	770.38
350.947	746.38
351.174	756.38
351.402	747.38
351.629	726.38
351.856	735.38
352.083	710.38
352.311	731.38
352.538	734.38
352.765	744.38
352.992	710.38
353.22	732.38
353.447	744.38
353.674	744.38
353.901	752.38
354.128	739.38
354.355	753.38
354.583	740.38
354.81	743.38
355.037	761.38
355.264	769.38
355.491	762.38
355.718	744.38
355.945	770.38
356.172	757.38
356.399	756.38
356.626	781.38
356.853	747.38
357.08	747.38
357.307	752.38
357.534	759.38
357.761	766.38
357.988	770.38
358.215	741.38
358.441	755.38
358.668	728.38
358.895	737.38
359.122	758.38
359.349	769.38
359.576	743.38
359.802	761.38
360.029	727.38
360.256	773.38
360.483	756.38
360.709	730.38
360.936	781.38
361.163	746.38
361.39	762.38
361.616	743.38
361.843	772.38
362.07	753.38
362.296	758.38
362.523	776.38
362.749	742.38
362.976	762.38
363.203	769.38
363.429	741.38
363.656	745.38
363.882	756.38
364.109	735.38
364.335	728.38
364.562	735.38
364.788	723.38
365.015	763.38
365.241	737.38
365.468	730.38
365.694	746.38
365.92	734.38
366.147	759.38
366.373	735.38
366.599	763.38
366.826	716.38
367.052	747.38
367.278	734.38
367.505	780.38
367.731	779.38
367.957	775.38
368.184	729.38
368.41	766.38
368.636	744.38
368.862	768.38
369.089	783.38
369.315	769.38
369.541	770.38
369.767	793.38
369.993	764.38
370.219	780.38
370.445	775.38
370.672	787.38
370.898	842.38
371.124	812.38
371.35	827.38
371.576	803.38
371.802	800.38
372.028	803.38
372.254	803.38
372.48	804.38
372.706	868.38
372.932	851.38
373.158	857.38
373.384	848.38
373.61	816.38
373.835	834.38
374.061	834.38
374.287	818.38
374.513	839.38
374.739	855.38
374.965	913.38
375.191	906.38
375.416	932.38
375.642	895.38
375.868	886.38
376.094	869.38
376.319	851.38
376.545	868.38
376.771	839.38
376.997	837.38
377.222	804.38
377.448	838.38
377.674	824.38
377.899	810.38
378.125	814.38
378.35	792.38
378.576	826.38
378.802	828.38
379.027	810.38
379.253	826.38
379.478	811.38
379.704	804.38
379.929	807.38
380.155	810.38
380.38	816.38
380.606	798.38
380.831	803.38
381.057	803.38
381.282	812.38
381.507	790.38
381.733	825.38
381.958	820.38
382.184	822.38
382.409	840.38
382.634	856.38
382.86	854.38
383.085	862.38
383.31	888.38
383.535	889.38
383.761	907.38
383.986	942.38
384.211	961.38
384.436	970.38
384.662	992.38
384.887	1033.38
385.112	1008.38
385.337	1007.38
385.562	1008.38
385.787	995.38
386.013	1013.38
386.238	1002.38
386.463	1011.38
386.688	1013.38
386.913	984.38
387.138	950.38
387.363	982.38
387.588	939.38
387.813	971.38
388.038	970.38
388.263	969.38
388.488	998.38
388.713	967.38
388.938	994.38
389.163	956.38
389.387	970.38
389.612	972.38
389.837	1002.38
390.062	966.38
390.287	960.38
390.512	961.38
390.736	988.38
390.961	998.38
391.186	990.38
391.411	1038.38
391.636	1076.38
391.86	1095.38
392.085	1130.38
392.31	1106.38
392.534	1100.38
392.759	1078.38
392.984	1033.38
393.208	1029.38
393.433	1039.38
393.658	1064.38
393.882	1082.38
394.107	1064.38
394.331	1083.38
394.556	1068.38
394.78	1060.38
395.005	1046.38
395.229	1034.38
395.454	1094.38
395.678	1170.38
395.903	1132.38
396.127	1112.38
396.352	1045.38
396.576	1046.38
396.801	1031.38
397.025	1051.38
397.249	1083.38
397.474	1072.38
397.698	1079.38
397.922	1097.38
398.147	1104.38
398.371	1119.38
398.595	1151.38
398.82	1223.38
399.044	1260.38
399.268	1454.38
399.492	1696.38
399.717	1963.38
399.941	1926.38
400.165	1661.38
400.389	1467.38
400.613	1380.38
400.837	1318.38
401.062	1267.38
401.286	1218.38
401.51	1217.38
401.734	1239.38
401.958	1260.38
402.182	1237.38
402.406	1271.38
402.63	1276.38
402.854	1364.38
403.078	1375.38
403.302	1406.38
403.526	1426.38
403.75	1448.38
403.974	1487.38
404.198	1497.38
404.422	1503.38
404.645	1493.38
404.869	1433.38
405.093	1460.38
405.317	1414.38
405.541	1406.38
405.765	1368.38
405.988	1337.38
406.212	1367.38
406.436	1375.38
406.66	1401.38
406.883	1424.38
407.107	1521.38
407.331	1592.38
407.555	1640.38
407.778	1630.38
408.002	1591.38
408.226	1552.38
408.449	1496.38
408.673	1410.38
408.896	1446.38
409.12	1403.38
409.344	1410.38
409.567	1409.38
409.791	1438.38
410.014	1407.38
410.238	1387.38
410.461	1364.38
410.685	1405.38
410.908	1362.38
411.132	1332.38
411.355	1310.38
411.578	1327.38
411.802	1286.38
412.025	1283.38
412.249	1302.38
412.472	1297.38
412.695	1249.38
412.919	1247.38
413.142	1219.38
413.365	1225.38
413.589	1218.38
413.812	1253.38
414.035	1209.38
414.258	1211.38
414.482	1258.38
414.705	1275.38
414.928	1236.38
415.151	1256.38
415.374	1247.38
415.597	1236.38
415.821	1207.38
416.044	1218.38
416.267	1206.38
416.49	1173.38
416.713	1183.38
416.936	1198.38
417.159	1215.38
417.382	1233.38
417.605	1205.38
417.828	1243.38
418.051	1239.38
418.274	1234.38
418.497	1250.38
418.72	1281.38
418.943	1240.38
419.166	1346.38
419.389	1431.38
419.611	1410.38
419.834	1315.38
420.057	1291.38
420.28	1237.38
420.503	1198.38
420.726	1220.38
420.948	1185.38
421.171	1211.38
421.394	1218.38
421.617	1201.38
421.839	1241.38
422.062	1247.38
422.285	1227.38
422.507	1271.38
422.73	1241.38
422.953	1291.38
423.175	1275.38
423.398	1293.38
423.621	1303.38
423.843	1344.38
424.066	1364.38
424.288	1321.38
424.511	1342.38
424.733	1300.38
424.956	1246.38
425.178	1244.38
425.401	1210.38
425.623	1211.38
425.846	1179.38
426.068	1183.38
426.291	1191.38
426.513	1105.38
426.735	1165.38
426.958	1144.38
427.18	1093.38
427.402	1119.38
427.625	1107.38
427.847	1089.38
428.069	1103.38
428.292	1100.38
428.514	1063.38
428.736	1082.38
428.958	1098.38
429.181	1053.38
429.403	1054.38
429.625	1041.38
429.847	1018.38
430.069	1024.38
430.292	1054.38
430.514	1052.38
430.736	1048.38
430.958	1078.38
431.18	1061.38
431.402	1065.38
431.624	1041.38
431.846	1065.38
432.068	1110.38
432.29	1072.38
432.512	1060.38
432.734	1066.38
432.956	1078.38
433.178	1074.38
433.4	1095.38
433.622	1096.38
433.844	1141.38
434.066	1115.38
434.287	1082.38
434.509	1122.38
434.731	1192.38
434.953	1216.38
435.175	1270.38
435.397	1235.38
435.618	1154.38
435.84	1095.38
436.062	1072.38
436.284	1090.38
436.505	1076.38
436.727	1088.38
436.949	1072.38
437.17	1072.38
437.392	1052.38
437.614	1057.38
437.835	1040.38
438.057	1028.38
438.278	1017.38
438.5	1033.38
438.721	1025.38
438.943	1056.38
439.165	1041.38
439.386	1033.38
439.608	1057.38
439.829	1076.38
440.05	1054.38
440.272	1072.38
440.493	1094.38
440.715	1110.38
440.936	1109.38
441.158	1177.38
441.379	1167.38
441.6	1206.38
441.822	1263.38
442.043	1236.38
442.264	1208.38
442.486	1176.38
442.707	1206.38
442.928	1183.38
443.149	1201.38
443.371	1206.38
443.592	1190.38
443.813	1216.38
444.034	1240.38
444.255	1282.38
444.476	1326.38
444.698	1400.38
444.919	1502.38
445.14	1492.38
445.361	1369.38
445.582	1270.38
445.803	1168.38
446.024	1155.38
446.245	1134.38
446.466	1094.38
446.687	1088.38
446.908	1089.38
447.129	1057.38
447.35	1096.38
447.571	1051.38
447.792	1027.38
448.013	1022.38
448.234	993.38
448.455	1014.38
448.675	986.38
448.896	985.38
449.117	965.38
449.338	980.38
449.559	959.38
449.779	976.38
450	955.38
450.221	970.38
450.442	1010.38
450.662	962.38
450.883	1022.38
451.104	997.38
451.324	993.38
451.545	1000.38
451.766	1006.38
451.986	990.38
452.207	1008.38
452.428	987.38
452.648	986.38
452.869	972.38
453.089	945.38
453.31	966.38
453.53	960.38
453.751	976.38
453.971	961.38
454.192	942.38
454.412	917.38
454.633	924.38
454.853	926.38
455.073	940.38
455.294	922.38
455.514	939.38
455.734	923.38
455.955	900.38
456.175	932.38
456.395	894.38
456.616	909.38
456.836	920.38
457.056	911.38
457.276	925.38
457.497	920.38
457.717	894.38
457.937	922.38
458.157	938.38
458.377	912.38
458.598	942.38
458.818	960.38
459.038	1027.38
459.258	1037.38
459.478	1073.38
459.698	1111.38
459.918	1148.38
460.138	1210.38
460.358	1284.38
460.578	1290.38
460.798	1300.38
461.018	1307.38
461.238	1274.38
461.458	1292.38
461.678	1270.38
461.898	1288.38
462.118	1289.38
462.338	1358.38
462.558	1390.38
462.777	1462.38
462.997	1605.38
463.217	1768.38
463.437	1786.38
463.657	1592.38
463.876	1494.38
464.096	1476.38
464.316	1508.38
464.536	1549.38
464.755	1485.38
464.975	1401.38
465.195	1330.38
465.414	1229.38
465.634	1172.38
465.854	1141.38
466.073	1082.38
466.293	1100.38
466.512	1060.38
466.732	1036.38
466.951	1024.38
467.171	1027.38
467.391	1039.38
467.61	1042.38
467.829	1014.38
468.049	1028.38
468.268	992.38
468.488	963.38
468.707	959.38
468.927	979.38
469.146	966.38
469.365	993.38
469.585	991.38
469.804	1025.38
470.023	1010.38
470.243	1073.38
470.462	1068.38
470.681	1096.38
470.901	1066.38
471.12	1064.38
471.339	1009.38
471.558	1006.38
471.777	999.38
471.997	996.38
472.216	966.38
472.435	966.38
472.654	962.38
472.873	933.38
473.092	946.38
473.311	932.38
473.53	957.38
473.749	944.38
473.968	956.38
474.187	938.38
474.406	914.38
474.625	930.38
474.844	977.38
475.063	934.38
475.282	951.38
475.501	959.38
475.72	971.38
475.939	983.38
476.158	1010.38
476.377	995.38
476.596	991.38
476.814	1010.38
477.033	1006.38
477.252	1022.38
477.471	1021.38
477.69	1057.38
477.908	1082.38
478.127	1144.38
478.346	1153.38
478.564	1168.38
478.783	1190.38
479.002	1202.38
479.22	1200.38
479.439	1206.38
479.658	1200.38
479.876	1168.38
480.095	1202.38
480.313	1246.38
480.532	1313.38
480.751	1284.38
480.969	1251.38
481.188	1184.38
481.406	1159.38
481.624	1126.38
481.843	1089.38
482.061	1094.38
482.28	1091.38
482.498	1063.38
482.717	1082.38
482.935	1078.38
483.153	1060.38
483.372	1078.38
483.59	1079.38
483.808	1113.38
484.027	1073.38
484.245	1100.38
484.463	1083.38
484.681	1103.38
484.9	1149.38
485.118	1148.38
485.336	1131.38
485.554	1140.38
485.772	1158.38
485.99	1151.38
486.209	1198.38
486.427	1152.38
486.645	1213.38
486.863	1172.38
487.081	1159.38
487.299	1146.38
487.517	1148.38
487.735	1146.38
487.953	1123.38
488.171	1133.38
488.389	1123.38
488.607	1098.38
488.825	1135.38
489.043	1129.38
489.261	1152.38
489.479	1152.38
489.696	1163.38
489.914	1149.38
490.132	1157.38
490.35	1126.38
490.568	1145.38
490.786	1138.38
491.003	1184.38
491.221	1140.38
491.439	1156.38
491.657	1136.38
491.874	1142.38
492.092	1152.38
492.31	1131.38
492.527	1126.38
492.745	1184.38
492.963	1183.38
493.18	1170.38
493.398	1177.38
493.615	1186.38
493.833	1179.38
494.05	1192.38
494.268	1195.38
494.485	1210.38
494.703	1202.38
494.92	1206.38
495.138	1203.38
495.355	1210.38
495.573	1165.38
495.79	1257.38
496.008	1235.38
496.225	1216.38
496.442	1216.38
496.66	1286.38
496.877	1272.38
497.094	1290.38
497.312	1321.38
497.529	1352.38
497.746	1360.38
497.963	1438.38
498.181	1444.38
498.398	1539.38
498.615	1618.38
498.832	1752.38
499.049	1893.38
499.267	2044.38
499.484	2234.38
499.701	2537.38
499.918	2769.38
500.135	3253.38
500.352	3782.38
500.569	4035.38
500.786	3891.38
501.003	3589.38
501.22	3156.38
501.437	2678.38
501.654	2392.38
501.871	2144.38
502.088	1978.38
502.305	1827.38
502.522	1720.38
502.739	1697.38
502.956	1604.38
503.172	1494.38
503.389	1440.38
503.606	1439.38
503.823	1397.38
504.04	1385.38
504.256	1386.38
504.473	1459.38
504.69	1510.38
504.907	1475.38
505.123	1352.38
505.34	1280.38
505.557	1207.38
505.773	1201.38
505.99	1138.38
506.207	1097.38
506.423	1099.38
506.64	1097.38
506.856	1093.38
507.073	1093.38
507.289	1092.38
507.506	1067.38
507.722	1079.38
507.939	1073.38
508.155	1032.38
508.372	1043.38
508.588	1010.38
508.805	994.38
509.021	1012.38
509.238	977.38
509.454	1054.38
509.67	990.38
509.887	980.38
510.103	998.38
510.319	977.38
510.536	948.38
510.752	962.38
510.968	972.38
511.184	972.38
511.401	971.38
511.617	984.38
511.833	940.38
512.049	953.38
512.265	997.38
512.481	984.38
512.698	964.38
512.914	982.38
513.13	1019.38
513.346	968.38
513.562	966.38
513.778	981.38
513.994	982.38
514.21	999.38
514.426	977.38
514.642	982.38
514.858	1008.38
515.074	1022.38
515.29	1007.38
515.506	1017.38
515.721	1019.38
515.937	1063.38
516.153	1072.38
516.369	1096.38
516.585	1127.38
516.801	1146.38
517.016	1187.38
517.232	1267.38
517.448	1334.38
517.664	1415.38
517.879	1402.38
518.095	1406.38
518.311	1389.38
518.527	1298.38
518.742	1272.38
518.958	1215.38
519.173	1127.38
519.389	1104.38
519.605	1087.38
519.82	1067.38
520.036	1039.38
520.251	1011.38
520.467	998.38
520.682	977.38
520.898	990.38
521.113	993.38
521.329	956.38
521.544	942.38
521.76	984.38
521.975	950.38
522.19	953.38
522.406	921.38
522.621	899.38
522.836	930.38
523.052	901.38
523.267	954.38
523.482	942.38
523.698	889.38
523.913	912.38
524.128	879.38
524.343	882.38
524.559	885.38
524.774	894.38
524.989	901.38
525.204	919.38
525.419	889.38
525.634	862.38
525.849	866.38
526.064	901.38
526.28	909.38
526.495	881.38
526.71	873.38
526.925	884.38
527.14	864.38
527.355	863.38
527.57	871.38
527.785	872.38
527.999	891.38
528.214	889.38
528.429	876.38
528.644	906.38
528.859	867.38
529.074	893.38
529.289	850.38
529.503	897.38
529.718	885.38
529.933	884.38
530.148	886.38
530.363	874.38
530.577	848.38
530.792	886.38
531.007	885.38
531.221	890.38
531.436	900.38
531.651	876.38
531.865	892.38
532.08	888.38
532.295	890.38
532.509	889.38
532.724	896.38
532.938	897.38
533.153	890.38
533.367	886.38
533.582	857.38
533.796	890.38
534.011	858.38
534.225	865.38
534.44	864.38
534.654	860.38
534.868	875.38
535.083	866.38
535.297	864.38
535.511	856.38
535.726	859.38
535.94	839.38
536.154	824.38
536.369	832.38
536.583	833.38
536.797	817.38
537.011	823.38
537.225	842.38
537.44	822.38
537.654	836.38
537.868	821.38
538.082	778.38
538.296	776.38
538.51	795.38
538.724	788.38
538.938	790.38
539.153	810.38
539.367	824.38
539.581	782.38
539.795	766.38
540.009	796.38
540.222	796.38
540.436	806.38
540.65	779.38
540.864	788.38
541.078	777.38
541.292	794.38
541.506	780.38
541.72	786.38
541.934	766.38
542.147	790.38
542.361	791.38
542.575	764.38
542.789	771.38
543.002	792.38
543.216	768.38
543.43	796.38
543.644	795.38
543.857	764.38
544.071	768.38
544.285	773.38
544.498	781.38
544.712	768.38
544.925	818.38
545.139	827.38
545.352	779.38
545.566	811.38
545.779	793.38
545.993	801.38
546.206	792.38
546.42	771.38
546.633	798.38
546.847	764.38
547.06	791.38
547.274	787.38
547.487	793.38
547.7	790.38
547.914	806.38
548.127	795.38
548.34	808.38
548.554	826.38
548.767	798.38
548.98	803.38
549.193	804.38
549.407	805.38
549.62	836.38
549.833	847.38
550.046	833.38
550.259	800.38
550.473	780.38
550.686	792.38
550.899	806.38
551.112	771.38
551.325	783.38
551.538	773.38
551.751	780.38
551.964	797.38
552.177	797.38
552.39	810.38
552.603	818.38
552.816	842.38
553.029	845.38
553.242	878.38
553.455	908.38
553.667	895.38
553.88	894.38
554.093	854.38
554.306	850.38
554.519	796.38
554.732	771.38
554.944	770.38
555.157	787.38
555.37	755.38
555.583	740.38
555.795	739.38
556.008	704.38
556.221	736.38
556.433	729.38
556.646	686.38
556.859	711.38
557.071	707.38
557.284	680.38
557.496	689.38
557.709	676.38
557.921	715.38
558.134	678.38
558.346	660.38
558.559	665.38
558.771	675.38
558.984	660.38
559.196	665.38
559.409	674.38
559.621	690.38
559.833	663.38
560.046	640.38
560.258	658.38
560.47	652.38
560.683	678.38
560.895	626.38
561.107	640.38
561.32	676.38
561.532	641.38
561.744	643.38
561.956	649.38
562.168	644.38
562.381	652.38
562.593	674.38
562.805	669.38
563.017	667.38
563.229	671.38
563.441	649.38
563.653	670.38
563.865	669.38
564.077	681.38
564.289	668.38
564.501	702.38
564.713	715.38
564.925	711.38
565.137	729.38
565.349	732.38
565.561	739.38
565.773	767.38
565.985	808.38
566.197	887.38
566.408	934.38
566.62	1020.38
566.832	1131.38
567.044	1142.38
567.255	1112.38
567.467	1144.38
567.679	1209.38
567.891	1342.38
568.102	1407.38
568.314	1284.38
568.526	1165.38
568.737	1057.38
568.949	943.38
569.161	840.38
569.372	792.38
569.584	751.38
569.795	724.38
570.007	721.38
570.218	681.38
570.43	705.38
570.641	653.38
570.853	681.38
571.064	686.38
571.276	699.38
571.487	667.38
571.698	640.38
571.91	635.38
572.121	607.38
572.333	589.38
572.544	585.38
572.755	577.38
572.966	594.38
573.178	550.38
573.389	538.38
573.6	551.38
573.811	562.38
574.023	564.38
574.234	543.38
574.445	547.38
574.656	533.38
574.867	570.38
575.078	557.38
575.289	564.38
575.501	522.38
575.712	528.38
575.923	527.38
576.134	513.38
576.345	519.38
576.556	498.38
576.767	516.38
576.978	530.38
577.188	484.38
577.399	499.38
577.61	494.38
577.821	497.38
578.032	498.38
578.243	465.38
578.454	496.38
578.665	484.38
578.875	496.38
579.086	490.38
579.297	489.38
579.508	489.38
579.718	482.38
579.929	480.38
580.14	465.38
580.35	450.38
580.561	474.38
580.772	469.38
580.982	447.38
581.193	460.38
581.403	439.38
581.614	464.38
581.825	464.38
582.035	455.38
582.246	440.38
582.456	456.38
582.667	455.38
582.877	445.38
583.087	450.38
583.298	448.38
583.508	468.38
583.719	445.38
583.929	443.38
584.139	458.38
584.35	453.38
584.56	452.38
584.77	430.38
584.981	446.38
585.191	441.38
585.401	455.38
585.611	432.38
585.821	432.38
586.032	420.38
586.242	460.38
586.452	453.38
586.662	432.38
586.872	446.38
587.082	442.38
587.292	446.38
587.502	454.38
587.713	415.38
587.923	444.38
588.133	415.38
588.343	423.38
588.553	420.38
588.762	436.38
588.972	438.38
589.182	440.38
589.392	420.38
589.602	423.38
589.812	418.38
590.022	431.38
590.232	426.38
590.441	437.38
590.651	448.38
590.861	410.38
591.071	451.38
591.281	426.38
591.49	454.38
591.7	461.38
591.91	468.38
592.119	475.38
592.329	471.38
592.539	497.38
592.748	522.38
592.958	533.38
593.167	548.38
593.377	571.38
593.587	576.38
593.796	574.38
594.006	554.38
594.215	613.38
594.424	578.38
594.634	558.38
594.843	539.38
595.053	521.38
595.262	501.38
595.472	486.38
595.681	462.38
595.89	445.38
596.1	463.38
596.309	410.38
596.518	420.38
596.727	435.38
596.937	393.38
597.146	405.38
597.355	414.38
597.564	390.38
597.774	402.38
597.983	382.38
598.192	394.38
598.401	377.38
598.61	364.38
598.819	368.38
599.028	369.38
599.237	357.38
599.446	363.38
599.655	373.38
599.864	373.38
600.073	356.38
600.282	390.38
600.491	355.38
600.7	375.38
600.909	368.38
601.118	382.38
601.327	369.38
601.536	344.38
601.745	359.38
601.953	360.38
602.162	358.38
602.371	340.38
602.58	355.38
602.789	333.38
602.997	336.38
603.206	362.38
603.415	346.38
603.623	342.38
603.832	343.38
604.041	351.38
604.249	343.38
604.458	339.38
604.666	336.38
604.875	336.38
605.084	342.38
605.292	334.38
605.501	360.38
605.709	345.38
605.918	346.38
606.126	318.38
606.334	339.38
606.543	340.38
606.751	335.38
606.96	319.38
607.168	314.38
607.376	308.38
607.585	319.38
607.793	342.38
608.001	337.38
608.21	324.38
608.418	325.38
608.626	331.38
608.834	324.38
609.043	334.38
609.251	326.38
609.459	324.38
609.667	328.38
609.875	316.38
610.083	310.38
610.291	331.38
610.499	331.38
610.707	328.38
610.916	314.38
611.124	321.38
611.332	318.38
611.54	318.38
611.748	333.38
611.955	318.38
612.163	324.38
612.371	327.38
612.579	281.38
612.787	325.38
612.995	310.38
613.203	314.38
613.411	315.38
613.618	320.38
613.826	294.38
614.034	328.38
614.242	321.38
614.449	309.38
614.657	313.38
614.865	315.38
615.072	311.38
615.28	327.38
615.488	306.38
615.695	305.38
615.903	316.38
616.111	328.38
616.318	305.38
616.526	326.38
616.733	325.38
616.941	318.38
617.148	328.38
617.356	319.38
617.563	332.38
617.771	332.38
617.978	318.38
618.185	313.38
618.393	311.38
618.6	326.38
618.807	310.38
619.015	331.38
619.222	312.38
619.429	304.38
619.637	319.38
619.844	316.38
620.051	284.38
620.258	288.38
620.466	283.38
620.673	281.38
620.88	269.38
621.087	292.38
621.294	274.38
621.501	272.38
621.708	295.38
621.915	288.38
622.122	288.38
622.329	287.38
622.536	302.38
622.743	262.38
622.95	288.38
623.157	289.38
623.364	272.38
623.571	284.38
623.778	276.38
623.985	290.38
624.192	298.38
624.399	276.38
624.606	293.38
624.812	283.38
625.019	287.38
625.226	263.38
625.433	265.38
625.639	262.38
625.846	278.38
626.053	277.38
626.259	264.38
626.466	264.38
626.673	277.38
626.879	266.38
627.086	284.38
627.293	268.38
627.499	266.38
627.706	257.38
627.912	264.38
628.119	273.38
628.325	273.38
628.532	246.38
628.738	249.38
628.945	260.38
629.151	259.38
629.357	255.38
629.564	246.38
629.77	235.38
629.976	273.38
630.183	237.38
630.389	256.38
630.595	237.38
630.802	240.38
631.008	230.38
631.214	249.38
631.42	253.38
631.627	247.38
631.833	248.38
632.039	231.38
632.245	229.38
632.451	226.38
632.657	246.38
632.863	221.38
633.069	231.38
633.275	238.38
633.481	234.38
633.688	217.38
633.893	236.38
634.099	225.38
634.305	222.38
634.511	247.38
634.717	229.38
634.923	211.38
635.129	226.38
635.335	238.38
635.541	224.38
635.747	227.38
635.952	220.38
636.158	214.38
636.364	212.38
636.57	215.38
636.775	218.38
636.981	220.38
637.187	234.38
637.392	199.38
637.598	208.38
637.804	215.38
638.009	216.38
638.215	231.38
638.421	207.38
638.626	215.38
638.832	198.38
639.037	216.38
639.243	203.38
639.448	211.38
639.654	211.38
639.859	204.38
640.065	212.38
640.27	219.38
640.475	220.38
640.681	213.38
640.886	217.38
641.091	211.38
641.297	215.38
641.502	202.38
641.707	197.38
641.913	200.38
642.118	192.38
642.323	217.38
642.528	201.38
642.733	194.38
642.939	209.38
643.144	188.38
643.349	204.38
643.554	206.38
643.759	204.38
643.964	204.38
644.169	209.38
644.374	195.38
644.579	209.38
644.784	200.38
644.989	194.38
645.194	197.38
645.399	200.38
645.604	194.38
645.809	217.38
646.014	222.38
646.219	186.38
646.423	212.38
646.628	200.38
646.833	212.38
647.038	222.38
647.243	196.38
647.447	192.38
647.652	220.38
647.857	190.38
648.062	217.38
648.266	226.38
648.471	241.38
648.676	210.38
648.88	217.38
649.085	207.38
649.289	224.38
649.494	210.38
649.698	201.38
649.903	204.38
650.107	202.38
650.312	198.38
650.516	187.38
650.721	190.38
650.925	181.38
651.13	185.38
651.334	171.38
651.539	185.38
651.743	188.38
651.947	175.38
652.152	182.38
652.356	162.38
652.56	164.38
652.764	181.38
652.969	166.38
653.173	160.38
653.377	174.38
653.581	139.38
653.785	152.38
653.99	143.38
654.194	152.38
654.398	162.38
654.602	158.38
654.806	152.38
655.01	151.38
655.214	154.38
655.418	144.38
655.622	142.38
655.826	134.38
656.03	143.38
656.234	148.38
656.438	148.38
656.642	162.38
656.846	166.38
657.049	144.38
657.253	143.38
657.457	138.38
657.661	128.38
657.865	138.38
658.068	124.38
658.272	125.38
658.476	112.38
658.68	109.38
658.883	112.38
659.087	113.38
659.291	110.38
659.494	89.38
659.698	108.38
659.901	100.38
660.105	102.38
660.309	102.38
660.512	93.38
660.716	100.38
660.919	87.38
661.123	103.38
661.326	95.38
661.53	80.38
661.733	86.38
661.936	89.38
662.14	90.38
662.343	78.38
662.546	91.38
662.75	89.38
662.953	90.38
663.156	68.38
663.36	87.38
663.563	80.38
663.766	76.38
663.969	73.38
664.173	67.38
664.376	69.38
664.579	71.38
664.782	96.38
664.985	74.38
665.188	74.38
665.391	99.38
665.594	79.38
665.797	82.38
666	75.38
666.203	82.38
666.406	84.38
666.609	87.38
666.812	83.38
667.015	83.38
667.218	64.38
667.421	72.38
667.624	81.38
667.827	86.38
668.03	81.38
668.232	78.38
668.435	75.38
668.638	96.38
668.841	68.38
669.043	73.38
669.246	84.38
669.449	85.38
669.651	95.38
669.854	78.38
670.057	79.38
670.259	83.38
670.462	74.38
670.665	70.38
670.867	74.38
671.07	86.38
671.272	83.38
671.475	94.38
671.677	85.38
671.88	76.38
672.082	70.38
672.284	65.38
672.487	87.38
672.689	85.38
672.892	74.38
