Data from Ni(NO3)2@0.125M.TitratingCurve.Agarose3%dH2O.NegLispCup.LampEnergy10.LIBS07252019_HRD10591_18-08-25-567.txt Node
Date: Thu Jul 25 18:08:25 EDT 2019
User: cochatt
Spectrometer: HR+D1059
Trigger mode: 1
Integration Time (sec): 1.000000E-1
Scans to average: 1
Electric dark correction enabled: true
Nonlinearity correction enabled: false
Boxcar width: 0
XAxis mode: Wavelengths
Number of Pixels in Spectrum: 2048
>>>>>Begin Spectral Data<<<<<
223.165	-14.19
223.4	-14.19
223.635	-14.19
223.869	-22.19
224.104	-5.19
224.338	-21.19
224.573	-14.19
224.808	-26.19
225.042	-4.19
225.277	-0.19
225.511	-9.19
225.746	3.81
225.98	6.81
226.215	18.81
226.449	21.81
226.683	12.81
226.918	26.81
227.152	25.81
227.387	19.81
227.621	42.81
227.856	32.81
228.09	43.81
228.324	50.81
228.559	48.81
228.793	68.81
229.027	110.81
229.262	107.81
229.496	104.81
229.73	107.81
229.964	134.81
230.199	130.81
230.433	139.81
230.667	144.81
230.901	154.81
231.136	145.81
231.37	150.81
231.604	156.81
231.838	152.81
232.072	148.81
232.306	149.81
232.541	138.81
232.775	159.81
233.009	159.81
233.243	145.81
233.477	166.81
233.711	146.81
233.945	161.81
234.179	163.81
234.413	137.81
234.647	159.81
234.881	158.81
235.115	165.81
235.349	148.81
235.583	148.81
235.817	154.81
236.051	146.81
236.285	152.81
236.519	162.81
236.753	165.81
236.987	178.81
237.221	160.81
237.455	168.81
237.689	161.81
237.922	165.81
238.156	166.81
238.39	183.81
238.624	178.81
238.858	178.81
239.091	180.81
239.325	159.81
239.559	178.81
239.793	184.81
240.027	191.81
240.26	184.81
240.494	182.81
240.728	189.81
240.961	201.81
241.195	184.81
241.429	192.81
241.662	190.81
241.896	201.81
242.13	213.81
242.363	207.81
242.597	207.81
242.83	208.81
243.064	196.81
243.298	187.81
243.531	213.81
243.765	213.81
243.998	224.81
244.232	221.81
244.465	215.81
244.699	225.81
244.932	223.81
245.166	229.81
245.399	232.81
245.633	246.81
245.866	221.81
246.099	224.81
246.333	234.81
246.566	215.81
246.8	240.81
247.033	241.81
247.266	240.81
247.5	225.81
247.733	241.81
247.966	247.81
248.2	256.81
248.433	233.81
248.666	271.81
248.899	274.81
249.133	250.81
249.366	263.81
249.599	262.81
249.832	264.81
250.066	276.81
250.299	297.81
250.532	284.81
250.765	274.81
250.998	283.81
251.231	282.81
251.465	289.81
251.698	276.81
251.931	272.81
252.164	281.81
252.397	295.81
252.63	298.81
252.863	286.81
253.096	293.81
253.329	297.81
253.562	308.81
253.795	316.81
254.028	307.81
254.261	323.81
254.494	312.81
254.727	311.81
254.96	320.81
255.193	302.81
255.426	319.81
255.659	312.81
255.892	324.81
256.124	324.81
256.357	322.81
256.59	311.81
256.823	318.81
257.056	324.81
257.289	335.81
257.521	331.81
257.754	333.81
257.987	344.81
258.22	345.81
258.452	332.81
258.685	332.81
258.918	353.81
259.151	336.81
259.383	351.81
259.616	328.81
259.849	346.81
260.081	348.81
260.314	357.81
260.547	348.81
260.779	361.81
261.012	363.81
261.244	358.81
261.477	373.81
261.71	369.81
261.942	369.81
262.175	373.81
262.407	363.81
262.64	369.81
262.872	368.81
263.105	363.81
263.337	369.81
263.57	382.81
263.802	382.81
264.035	382.81
264.267	377.81
264.499	384.81
264.732	378.81
264.964	415.81
265.197	374.81
265.429	396.81
265.661	402.81
265.894	390.81
266.126	387.81
266.358	413.81
266.591	410.81
266.823	406.81
267.055	392.81
267.287	399.81
267.52	387.81
267.752	401.81
267.984	414.81
268.216	412.81
268.448	420.81
268.681	432.81
268.913	410.81
269.145	430.81
269.377	422.81
269.609	416.81
269.841	412.81
270.073	405.81
270.306	414.81
270.538	423.81
270.77	426.81
271.002	431.81
271.234	422.81
271.466	423.81
271.698	432.81
271.93	435.81
272.162	438.81
272.394	460.81
272.626	452.81
272.858	456.81
273.09	436.81
273.322	474.81
273.553	444.81
273.785	462.81
274.017	461.81
274.249	448.81
274.481	443.81
274.713	443.81
274.945	448.81
275.176	458.81
275.408	457.81
275.64	461.81
275.872	471.81
276.104	483.81
276.335	455.81
276.567	485.81
276.799	476.81
277.031	478.81
277.262	474.81
277.494	486.81
277.726	494.81
277.957	463.81
278.189	481.81
278.421	479.81
278.652	461.81
278.884	483.81
279.115	495.81
279.347	502.81
279.579	510.81
279.81	492.81
280.042	486.81
280.273	508.81
280.505	510.81
280.736	492.81
280.968	520.81
281.199	497.81
281.431	514.81
281.662	515.81
281.894	502.81
282.125	512.81
282.356	529.81
282.588	515.81
282.819	525.81
283.051	544.81
283.282	526.81
283.513	542.81
283.745	530.81
283.976	550.81
284.207	536.81
284.439	517.81
284.67	545.81
284.901	539.81
285.132	533.81
285.364	548.81
285.595	546.81
285.826	545.81
286.057	531.81
286.288	535.81
286.52	555.81
286.751	569.81
286.982	570.81
287.213	563.81
287.444	586.81
287.675	564.81
287.906	570.81
288.138	580.81
288.369	582.81
288.6	568.81
288.831	585.81
289.062	572.81
289.293	570.81
289.524	566.81
289.755	567.81
289.986	574.81
290.217	603.81
290.448	593.81
290.679	619.81
290.91	574.81
291.141	582.81
291.371	584.81
291.602	584.81
291.833	587.81
292.064	599.81
292.295	574.81
292.526	593.81
292.757	563.81
292.987	586.81
293.218	604.81
293.449	597.81
293.68	586.81
293.91	617.81
294.141	593.81
294.372	597.81
294.603	589.81
294.833	595.81
295.064	576.81
295.295	609.81
295.525	601.81
295.756	619.81
295.987	598.81
296.217	606.81
296.448	596.81
296.679	622.81
296.909	597.81
297.14	620.81
297.37	614.81
297.601	601.81
297.831	637.81
298.062	610.81
298.292	640.81
298.523	636.81
298.753	666.81
298.984	640.81
299.214	650.81
299.445	656.81
299.675	656.81
299.905	639.81
300.136	653.81
300.366	662.81
300.597	638.81
300.827	674.81
301.057	650.81
301.288	681.81
301.518	672.81
301.748	652.81
301.979	682.81
302.209	666.81
302.439	676.81
302.669	665.81
302.9	668.81
303.13	655.81
303.36	652.81
303.59	669.81
303.82	664.81
304.051	668.81
304.281	693.81
304.511	654.81
304.741	660.81
304.971	662.81
305.201	670.81
305.431	656.81
305.661	683.81
305.891	666.81
306.121	688.81
306.352	639.81
306.582	639.81
306.812	656.81
307.042	677.81
307.272	664.81
307.502	671.81
307.731	676.81
307.961	678.81
308.191	651.81
308.421	654.81
308.651	666.81
308.881	643.81
309.111	666.81
309.341	657.81
309.571	653.81
309.8	661.81
310.03	668.81
310.26	681.81
310.49	668.81
310.72	688.81
310.949	655.81
311.179	697.81
311.409	667.81
311.639	690.81
311.868	674.81
312.098	671.81
312.328	683.81
312.557	693.81
312.787	694.81
313.017	684.81
313.246	707.81
313.476	719.81
313.706	739.81
313.935	738.81
314.165	734.81
314.394	722.81
314.624	709.81
314.853	706.81
315.083	715.81
315.312	726.81
315.542	715.81
315.771	721.81
316.001	706.81
316.23	720.81
316.46	713.81
316.689	724.81
316.919	712.81
317.148	696.81
317.377	699.81
317.607	684.81
317.836	700.81
318.065	732.81
318.295	703.81
318.524	690.81
318.753	702.81
318.983	699.81
319.212	702.81
319.441	700.81
319.67	711.81
319.9	715.81
320.129	710.81
320.358	726.81
320.587	707.81
320.816	735.81
321.046	721.81
321.275	744.81
321.504	709.81
321.733	711.81
321.962	728.81
322.191	720.81
322.42	721.81
322.649	741.81
322.878	715.81
323.108	738.81
323.337	742.81
323.566	723.81
323.795	760.81
324.024	751.81
324.253	743.81
324.482	757.81
324.71	782.81
324.939	776.81
325.168	786.81
325.397	795.81
325.626	775.81
325.855	800.81
326.084	808.81
326.313	812.81
326.542	817.81
326.77	800.81
326.999	805.81
327.228	819.81
327.457	808.81
327.686	788.81
327.914	807.81
328.143	806.81
328.372	801.81
328.6	808.81
328.829	811.81
329.058	791.81
329.287	822.81
329.515	806.81
329.744	814.81
329.972	804.81
330.201	840.81
330.43	838.81
330.658	848.81
330.887	835.81
331.115	831.81
331.344	857.81
331.572	871.81
331.801	874.81
332.03	909.81
332.258	927.81
332.486	939.81
332.715	968.81
332.943	996.81
333.172	1057.81
333.4	1065.81
333.629	1094.81
333.857	1087.81
334.085	1056.81
334.314	1079.81
334.542	1052.81
334.771	1039.81
334.999	1028.81
335.227	1070.81
335.455	1016.81
335.684	971.81
335.912	1015.81
336.14	1033.81
336.369	1001.81
336.597	1000.81
336.825	999.81
337.053	1025.81
337.281	977.81
337.51	997.81
337.738	971.81
337.966	937.81
338.194	948.81
338.422	934.81
338.65	930.81
338.878	908.81
339.106	901.81
339.334	915.81
339.562	894.81
339.79	866.81
340.018	886.81
340.246	850.81
340.474	879.81
340.702	846.81
340.93	889.81
341.158	884.81
341.386	887.81
341.614	911.81
341.842	896.81
342.07	852.81
342.298	852.81
342.526	867.81
342.754	875.81
342.981	880.81
343.209	930.81
343.437	908.81
343.665	1006.81
343.893	1021.81
344.12	1070.81
344.348	1021.81
344.576	985.81
344.804	956.81
345.031	904.81
345.259	891.81
345.487	871.81
345.714	840.81
345.942	894.81
346.17	883.81
346.397	872.81
346.625	876.81
346.853	844.81
347.08	829.81
347.308	848.81
347.535	835.81
347.763	878.81
347.99	834.81
348.218	889.81
348.445	832.81
348.673	838.81
348.9	834.81
349.128	817.81
349.355	848.81
349.583	858.81
349.81	843.81
350.037	814.81
350.265	842.81
350.492	810.81
350.72	798.81
350.947	801.81
351.174	802.81
351.402	820.81
351.629	817.81
351.856	837.81
352.083	823.81
352.311	832.81
352.538	816.81
352.765	855.81
352.992	784.81
353.22	786.81
353.447	770.81
353.674	791.81
353.901	802.81
354.128	803.81
354.355	793.81
354.583	792.81
354.81	800.81
355.037	796.81
355.264	805.81
355.491	816.81
355.718	838.81
355.945	784.81
356.172	832.81
356.399	838.81
356.626	820.81
356.853	844.81
357.08	819.81
357.307	808.81
357.534	798.81
357.761	818.81
357.988	821.81
358.215	813.81
358.441	820.81
358.668	804.81
358.895	802.81
359.122	803.81
359.349	798.81
359.576	811.81
359.802	824.81
360.029	806.81
360.256	812.81
360.483	826.81
360.709	798.81
360.936	832.81
361.163	815.81
361.39	823.81
361.616	809.81
361.843	837.81
362.07	843.81
362.296	836.81
362.523	806.81
362.749	837.81
362.976	806.81
363.203	790.81
363.429	817.81
363.656	798.81
363.882	805.81
364.109	810.81
364.335	802.81
364.562	814.81
364.788	791.81
365.015	779.81
365.241	801.81
365.468	815.81
365.694	794.81
365.92	805.81
366.147	781.81
366.373	780.81
366.599	825.81
366.826	787.81
367.052	793.81
367.278	795.81
367.505	813.81
367.731	811.81
367.957	777.81
368.184	809.81
368.41	805.81
368.636	800.81
368.862	817.81
369.089	834.81
369.315	834.81
369.541	833.81
369.767	835.81
369.993	828.81
370.219	838.81
370.445	853.81
370.672	834.81
370.898	855.81
371.124	871.81
371.35	852.81
371.576	881.81
371.802	892.81
372.028	870.81
372.254	887.81
372.48	881.81
372.706	886.81
372.932	885.81
373.158	874.81
373.384	900.81
373.61	897.81
373.835	867.81
374.061	881.81
374.287	886.81
374.513	901.81
374.739	943.81
374.965	934.81
375.191	929.81
375.416	957.81
375.642	938.81
375.868	894.81
376.094	872.81
376.319	883.81
376.545	870.81
376.771	875.81
376.997	889.81
377.222	878.81
377.448	859.81
377.674	864.81
377.899	868.81
378.125	870.81
378.35	846.81
378.576	850.81
378.802	835.81
379.027	839.81
379.253	844.81
379.478	832.81
379.704	843.81
379.929	842.81
380.155	854.81
380.38	867.81
380.606	851.81
380.831	855.81
381.057	892.81
381.282	870.81
381.507	882.81
381.733	904.81
381.958	875.81
382.184	884.81
382.409	856.81
382.634	894.81
382.86	898.81
383.085	914.81
383.31	879.81
383.535	925.81
383.761	947.81
383.986	942.81
384.211	963.81
384.436	1035.81
384.662	1003.81
384.887	1033.81
385.112	1024.81
385.337	1041.81
385.562	1046.81
385.787	1016.81
386.013	1030.81
386.238	1030.81
386.463	1078.81
386.688	1082.81
386.913	1024.81
387.138	1020.81
387.363	1021.81
387.588	990.81
387.813	1017.81
388.038	1022.81
388.263	1002.81
388.488	1024.81
388.713	1026.81
388.938	1004.81
389.163	941.81
389.387	1022.81
389.612	971.81
389.837	1022.81
390.062	1003.81
390.287	987.81
390.512	1006.81
390.736	1002.81
390.961	1055.81
391.186	1076.81
391.411	1079.81
391.636	1088.81
391.86	1130.81
392.085	1182.81
392.31	1140.81
392.534	1148.81
392.759	1110.81
392.984	1099.81
393.208	1088.81
393.433	1111.81
393.658	1080.81
393.882	1085.81
394.107	1091.81
394.331	1105.81
394.556	1104.81
394.78	1107.81
395.005	1099.81
395.229	1102.81
395.454	1121.81
395.678	1184.81
395.903	1178.81
396.127	1137.81
396.352	1112.81
396.576	1107.81
396.801	1101.81
397.025	1135.81
397.249	1157.81
397.474	1183.81
397.698	1140.81
397.922	1148.81
398.147	1184.81
398.371	1185.81
398.595	1224.81
398.82	1272.81
399.044	1377.81
399.268	1492.81
399.492	1729.81
399.717	1898.81
399.941	1900.81
400.165	1741.81
400.389	1554.81
400.613	1422.81
400.837	1347.81
401.062	1296.81
401.286	1301.81
401.51	1296.81
401.734	1268.81
401.958	1316.81
402.182	1310.81
402.406	1310.81
402.63	1360.81
402.854	1351.81
403.078	1421.81
403.302	1440.81
403.526	1436.81
403.75	1478.81
403.974	1467.81
404.198	1496.81
404.422	1504.81
404.645	1485.81
404.869	1470.81
405.093	1487.81
405.317	1431.81
405.541	1430.81
405.765	1434.81
405.988	1414.81
406.212	1434.81
406.436	1430.81
406.66	1475.81
406.883	1489.81
407.107	1588.81
407.331	1598.81
407.555	1695.81
407.778	1636.81
408.002	1631.81
408.226	1595.81
408.449	1569.81
408.673	1488.81
408.896	1471.81
409.12	1476.81
409.344	1489.81
409.567	1467.81
409.791	1520.81
410.014	1500.81
410.238	1440.81
410.461	1450.81
410.685	1466.81
410.908	1380.81
411.132	1378.81
411.355	1348.81
411.578	1328.81
411.802	1368.81
412.025	1362.81
412.249	1419.81
412.472	1402.81
412.695	1332.81
412.919	1333.81
413.142	1339.81
413.365	1327.81
413.589	1321.81
413.812	1298.81
414.035	1308.81
414.258	1318.81
414.482	1283.81
414.705	1316.81
414.928	1347.81
415.151	1305.81
415.374	1319.81
415.597	1319.81
415.821	1281.81
416.044	1249.81
416.267	1268.81
416.49	1291.81
416.713	1292.81
416.936	1289.81
417.159	1286.81
417.382	1270.81
417.605	1263.81
417.828	1296.81
418.051	1291.81
418.274	1327.81
418.497	1291.81
418.72	1314.81
418.943	1298.81
419.166	1400.81
419.389	1504.81
419.611	1418.81
419.834	1402.81
420.057	1394.81
420.28	1327.81
420.503	1282.81
420.726	1258.81
420.948	1274.81
421.171	1308.81
421.394	1270.81
421.617	1285.81
421.839	1282.81
422.062	1298.81
422.285	1308.81
422.507	1326.81
422.73	1335.81
422.953	1339.81
423.175	1349.81
423.398	1372.81
423.621	1384.81
423.843	1360.81
424.066	1371.81
424.288	1384.81
424.511	1367.81
424.733	1344.81
424.956	1289.81
425.178	1326.81
425.401	1293.81
425.623	1312.81
425.846	1256.81
426.068	1255.81
426.291	1218.81
426.513	1254.81
426.735	1198.81
426.958	1220.81
427.18	1177.81
427.402	1235.81
427.625	1178.81
427.847	1152.81
428.069	1167.81
428.292	1162.81
428.514	1154.81
428.736	1172.81
428.958	1183.81
429.181	1160.81
429.403	1140.81
429.625	1172.81
429.847	1135.81
430.069	1129.81
430.292	1139.81
430.514	1126.81
430.736	1154.81
430.958	1147.81
431.18	1172.81
431.402	1169.81
431.624	1124.81
431.846	1189.81
432.068	1161.81
432.29	1189.81
432.512	1123.81
432.734	1176.81
432.956	1142.81
433.178	1191.81
433.4	1201.81
433.622	1207.81
433.844	1208.81
434.066	1209.81
434.287	1208.81
434.509	1235.81
434.731	1274.81
434.953	1310.81
435.175	1337.81
435.397	1335.81
435.618	1272.81
435.84	1209.81
436.062	1161.81
436.284	1209.81
436.505	1170.81
436.727	1166.81
436.949	1205.81
437.17	1177.81
437.392	1150.81
437.614	1126.81
437.835	1136.81
438.057	1115.81
438.278	1121.81
438.5	1110.81
438.721	1119.81
438.943	1127.81
439.165	1135.81
439.386	1143.81
439.608	1163.81
439.829	1187.81
440.05	1206.81
440.272	1174.81
440.493	1171.81
440.715	1195.81
440.936	1200.81
441.158	1230.81
441.379	1283.81
441.6	1314.81
441.822	1350.81
442.043	1300.81
442.264	1254.81
442.486	1263.81
442.707	1287.81
442.928	1318.81
443.149	1298.81
443.371	1296.81
443.592	1362.81
443.813	1346.81
444.034	1331.81
444.255	1367.81
444.476	1416.81
444.698	1474.81
444.919	1531.81
445.14	1635.81
445.361	1504.81
445.582	1373.81
445.803	1270.81
446.024	1255.81
446.245	1265.81
446.466	1240.81
446.687	1175.81
446.908	1210.81
447.129	1148.81
447.35	1166.81
447.571	1151.81
447.792	1088.81
448.013	1113.81
448.234	1100.81
448.455	1078.81
448.675	1091.81
448.896	1095.81
449.117	1056.81
449.338	1088.81
449.559	1070.81
449.779	1075.81
450	1041.81
450.221	1063.81
450.442	1079.81
450.662	1091.81
450.883	1073.81
451.104	1104.81
451.324	1118.81
451.545	1113.81
451.766	1090.81
451.986	1084.81
452.207	1089.81
452.428	1076.81
452.648	1053.81
452.869	1045.81
453.089	1050.81
453.31	1070.81
453.53	1037.81
453.751	1048.81
453.971	1007.81
454.192	1051.81
454.412	981.81
454.633	1034.81
454.853	1019.81
455.073	999.81
455.294	1012.81
455.514	1030.81
455.734	1011.81
455.955	1014.81
456.175	990.81
456.395	990.81
456.616	963.81
456.836	1006.81
457.056	1012.81
457.276	987.81
457.497	1000.81
457.717	1008.81
457.937	1018.81
458.157	1034.81
458.377	1036.81
458.598	1080.81
458.818	1086.81
459.038	1096.81
459.258	1140.81
459.478	1184.81
459.698	1215.81
459.918	1268.81
460.138	1296.81
460.358	1323.81
460.578	1384.81
460.798	1419.81
461.018	1403.81
461.238	1386.81
461.458	1384.81
461.678	1354.81
461.898	1415.81
462.118	1390.81
462.338	1449.81
462.558	1494.81
462.777	1578.81
462.997	1686.81
463.217	1833.81
463.437	1854.81
463.657	1694.81
463.876	1628.81
464.096	1598.81
464.316	1627.81
464.536	1606.81
464.755	1566.81
464.975	1484.81
465.195	1428.81
465.414	1317.81
465.634	1251.81
465.854	1260.81
466.073	1176.81
466.293	1184.81
466.512	1179.81
466.732	1135.81
466.951	1139.81
467.171	1136.81
467.391	1161.81
467.61	1145.81
467.829	1109.81
468.049	1129.81
468.268	1075.81
468.488	1091.81
468.707	1084.81
468.927	1081.81
469.146	1055.81
469.365	1100.81
469.585	1112.81
469.804	1122.81
470.023	1127.81
470.243	1126.81
470.462	1164.81
470.681	1214.81
470.901	1134.81
471.12	1168.81
471.339	1147.81
471.558	1087.81
471.777	1104.81
471.997	1086.81
472.216	1082.81
472.435	1077.81
472.654	1050.81
472.873	1046.81
473.092	1048.81
473.311	1028.81
473.53	1038.81
473.749	1044.81
473.968	1055.81
474.187	1028.81
474.406	1036.81
474.625	1060.81
474.844	1077.81
475.063	1072.81
475.282	1048.81
475.501	1080.81
475.72	1078.81
475.939	1095.81
476.158	1094.81
476.377	1086.81
476.596	1109.81
476.814	1103.81
477.033	1104.81
477.252	1137.81
477.471	1160.81
477.69	1167.81
477.908	1219.81
478.127	1246.81
478.346	1258.81
478.564	1300.81
478.783	1299.81
479.002	1314.81
479.22	1332.81
479.439	1330.81
479.658	1315.81
479.876	1320.81
480.095	1348.81
480.313	1404.81
480.532	1442.81
480.751	1420.81
480.969	1375.81
481.188	1289.81
481.406	1276.81
481.624	1234.81
481.843	1213.81
482.061	1232.81
482.28	1215.81
482.498	1211.81
482.717	1184.81
482.935	1187.81
483.153	1203.81
483.372	1205.81
483.59	1248.81
483.808	1216.81
484.027	1184.81
484.245	1228.81
484.463	1271.81
484.681	1252.81
484.9	1254.81
485.118	1269.81
485.336	1270.81
485.554	1258.81
485.772	1257.81
485.99	1296.81
486.209	1266.81
486.427	1263.81
486.645	1293.81
486.863	1288.81
487.081	1267.81
487.299	1243.81
487.517	1279.81
487.735	1304.81
487.953	1296.81
488.171	1273.81
488.389	1296.81
488.607	1270.81
488.825	1242.81
489.043	1222.81
489.261	1228.81
489.479	1268.81
489.696	1263.81
489.914	1271.81
490.132	1246.81
490.35	1242.81
490.568	1246.81
490.786	1291.81
491.003	1299.81
491.221	1330.81
491.439	1296.81
491.657	1306.81
491.874	1292.81
492.092	1316.81
492.31	1284.81
492.527	1317.81
492.745	1310.81
492.963	1328.81
493.18	1327.81
493.398	1334.81
493.615	1340.81
493.833	1324.81
494.05	1340.81
494.268	1366.81
494.485	1388.81
494.703	1351.81
494.92	1357.81
495.138	1370.81
495.355	1377.81
495.573	1368.81
495.79	1371.81
496.008	1375.81
496.225	1392.81
496.442	1406.81
496.66	1425.81
496.877	1416.81
497.094	1466.81
497.312	1499.81
497.529	1534.81
497.746	1566.81
497.963	1639.81
498.181	1686.81
498.398	1715.81
498.615	1818.81
498.832	1966.81
499.049	2052.81
499.267	2240.81
499.484	2452.81
499.701	2699.81
499.918	2973.81
500.135	3379.81
500.352	3813.81
500.569	4011.81
500.786	3939.81
501.003	3699.81
501.22	3326.81
501.437	2942.81
501.654	2580.81
501.871	2360.81
502.088	2174.81
502.305	2046.81
502.522	1991.81
502.739	1872.81
502.956	1755.81
503.172	1685.81
503.389	1616.81
503.606	1565.81
503.823	1534.81
504.04	1531.81
504.256	1608.81
504.473	1578.81
504.69	1660.81
504.907	1580.81
505.123	1521.81
505.34	1408.81
505.557	1356.81
505.773	1334.81
505.99	1293.81
506.207	1282.81
506.423	1218.81
506.64	1248.81
506.856	1196.81
507.073	1200.81
507.289	1201.81
507.506	1192.81
507.722	1196.81
507.939	1198.81
508.155	1191.81
508.372	1182.81
508.588	1158.81
508.805	1151.81
509.021	1153.81
509.238	1135.81
509.454	1126.81
509.67	1114.81
509.887	1139.81
510.103	1108.81
510.319	1095.81
510.536	1070.81
510.752	1080.81
510.968	1073.81
511.184	1076.81
511.401	1087.81
511.617	1075.81
511.833	1111.81
512.049	1079.81
512.265	1093.81
512.481	1068.81
512.698	1082.81
512.914	1081.81
513.13	1062.81
513.346	1078.81
513.562	1079.81
513.778	1075.81
513.994	1079.81
514.21	1095.81
514.426	1119.81
514.642	1110.81
514.858	1120.81
515.074	1139.81
515.29	1141.81
515.506	1138.81
515.721	1142.81
515.937	1175.81
516.153	1210.81
516.369	1200.81
516.585	1266.81
516.801	1279.81
517.016	1314.81
517.232	1416.81
517.448	1449.81
517.664	1511.81
517.879	1491.81
518.095	1512.81
518.311	1469.81
518.527	1418.81
518.742	1317.81
518.958	1294.81
519.173	1259.81
519.389	1243.81
519.605	1193.81
519.82	1185.81
520.036	1136.81
520.251	1131.81
520.467	1113.81
520.682	1105.81
520.898	1060.81
521.113	1094.81
521.329	1074.81
521.544	1048.81
521.76	1064.81
521.975	1051.81
522.19	1049.81
522.406	1019.81
522.621	1025.81
522.836	1035.81
523.052	1044.81
523.267	1012.81
523.482	1023.81
523.698	994.81
523.913	994.81
524.128	999.81
524.343	981.81
524.559	983.81
524.774	973.81
524.989	1010.81
525.204	985.81
525.419	959.81
525.634	975.81
525.849	998.81
526.064	986.81
526.28	986.81
526.495	967.81
526.71	1017.81
526.925	960.81
527.14	966.81
527.355	960.81
527.57	984.81
527.785	967.81
527.999	994.81
528.214	957.81
528.429	984.81
528.644	996.81
528.859	999.81
529.074	975.81
529.289	959.81
529.503	985.81
529.718	987.81
529.933	958.81
530.148	968.81
530.363	983.81
530.577	951.81
530.792	972.81
531.007	986.81
531.221	980.81
531.436	995.81
531.651	970.81
531.865	960.81
532.08	950.81
532.295	976.81
532.509	955.81
532.724	962.81
532.938	974.81
533.153	948.81
533.367	985.81
533.582	982.81
533.796	963.81
534.011	956.81
534.225	946.81
534.44	933.81
534.654	963.81
534.868	964.81
535.083	953.81
535.297	920.81
535.511	945.81
535.726	929.81
535.94	923.81
536.154	933.81
536.369	906.81
536.583	927.81
536.797	912.81
537.011	898.81
537.225	882.81
537.44	921.81
537.654	911.81
537.868	889.81
538.082	882.81
538.296	912.81
538.51	881.81
538.724	890.81
538.938	879.81
539.153	881.81
539.367	879.81
539.581	879.81
539.795	888.81
540.009	862.81
540.222	857.81
540.436	876.81
540.65	888.81
540.864	874.81
541.078	866.81
541.292	879.81
541.506	879.81
541.72	898.81
541.934	885.81
542.147	884.81
542.361	860.81
542.575	859.81
542.789	870.81
543.002	881.81
543.216	870.81
543.43	851.81
543.644	871.81
543.857	861.81
544.071	883.81
544.285	879.81
544.498	897.81
544.712	883.81
544.925	892.81
545.139	867.81
545.352	893.81
545.566	889.81
545.779	919.81
545.993	919.81
546.206	889.81
546.42	904.81
546.633	905.81
546.847	884.81
547.06	898.81
547.274	928.81
547.487	910.81
547.7	919.81
547.914	896.81
548.127	907.81
548.34	921.81
548.554	878.81
548.767	894.81
548.98	889.81
549.193	879.81
549.407	894.81
549.62	937.81
549.833	937.81
550.046	918.81
550.259	913.81
550.473	890.81
550.686	891.81
550.899	879.81
551.112	861.81
551.325	841.81
551.538	860.81
551.751	887.81
551.964	874.81
552.177	880.81
552.39	889.81
552.603	900.81
552.816	948.81
553.029	970.81
553.242	971.81
553.455	953.81
553.667	983.81
553.88	970.81
554.093	944.81
554.306	920.81
554.519	891.81
554.732	914.81
554.944	867.81
555.157	839.81
555.37	856.81
555.583	845.81
555.795	794.81
556.008	770.81
556.221	807.81
556.433	784.81
556.646	782.81
556.859	777.81
557.071	746.81
557.284	757.81
557.496	746.81
557.709	742.81
557.921	775.81
558.134	795.81
558.346	750.81
558.559	718.81
558.771	776.81
558.984	751.81
559.196	752.81
559.409	724.81
559.621	742.81
559.833	743.81
560.046	764.81
560.258	750.81
560.47	742.81
560.683	729.81
560.895	765.81
561.107	743.81
561.32	723.81
561.532	722.81
561.744	734.81
561.956	731.81
562.168	720.81
562.381	741.81
562.593	722.81
562.805	750.81
563.017	724.81
563.229	778.81
563.441	734.81
563.653	750.81
563.865	714.81
564.077	737.81
564.289	773.81
564.501	745.81
564.713	763.81
564.925	799.81
565.137	819.81
565.349	832.81
565.561	850.81
565.773	878.81
565.985	916.81
566.197	978.81
566.408	1019.81
566.62	1093.81
566.832	1197.81
567.044	1200.81
567.255	1177.81
567.467	1218.81
567.679	1284.81
567.891	1401.81
568.102	1412.81
568.314	1338.81
568.526	1206.81
568.737	1081.81
568.949	1030.81
569.161	929.81
569.372	838.81
569.584	816.81
569.795	804.81
570.007	773.81
570.218	754.81
570.43	737.81
570.641	725.81
570.853	747.81
571.064	775.81
571.276	756.81
571.487	728.81
571.698	694.81
571.91	677.81
572.121	683.81
572.333	670.81
572.544	607.81
572.755	644.81
572.966	630.81
573.178	620.81
573.389	633.81
573.6	606.81
573.811	589.81
574.023	600.81
574.234	594.81
574.445	600.81
574.656	622.81
574.867	608.81
575.078	576.81
575.289	604.81
575.501	603.81
575.712	599.81
575.923	591.81
576.134	568.81
576.345	565.81
576.556	568.81
576.767	544.81
576.978	549.81
577.188	560.81
577.399	568.81
577.61	559.81
577.821	553.81
578.032	562.81
578.243	546.81
578.454	556.81
578.665	546.81
578.875	517.81
579.086	542.81
579.297	534.81
579.508	529.81
579.718	526.81
579.929	520.81
580.14	517.81
580.35	520.81
580.561	549.81
580.772	555.81
580.982	513.81
581.193	515.81
581.403	513.81
581.614	502.81
581.825	499.81
582.035	492.81
582.246	508.81
582.456	494.81
582.667	517.81
582.877	512.81
583.087	485.81
583.298	497.81
583.508	476.81
583.719	487.81
583.929	498.81
584.139	499.81
584.35	483.81
584.56	474.81
584.77	464.81
584.981	471.81
585.191	485.81
585.401	479.81
585.611	460.81
585.821	487.81
586.032	483.81
586.242	466.81
586.452	469.81
586.662	478.81
586.872	478.81
587.082	487.81
587.292	476.81
587.502	483.81
587.713	481.81
587.923	492.81
588.133	469.81
588.343	485.81
588.553	467.81
588.762	477.81
588.972	482.81
589.182	479.81
589.392	510.81
589.602	462.81
589.812	485.81
590.022	477.81
590.232	489.81
590.441	481.81
590.651	499.81
590.861	486.81
591.071	486.81
591.281	472.81
591.49	486.81
591.7	491.81
591.91	530.81
592.119	490.81
592.329	515.81
592.539	550.81
592.748	537.81
592.958	554.81
593.167	581.81
593.377	587.81
593.587	595.81
593.796	608.81
594.006	594.81
594.215	610.81
594.424	583.81
594.634	586.81
594.843	579.81
595.053	541.81
595.262	534.81
595.472	538.81
595.681	497.81
595.89	488.81
596.1	475.81
596.309	464.81
596.518	462.81
596.727	435.81
596.937	436.81
597.146	442.81
597.355	448.81
597.564	440.81
597.774	454.81
597.983	427.81
598.192	421.81
598.401	435.81
598.61	403.81
598.819	419.81
599.028	421.81
599.237	426.81
599.446	423.81
599.655	414.81
599.864	413.81
600.073	391.81
600.282	385.81
600.491	394.81
600.7	391.81
600.909	415.81
601.118	403.81
601.327	400.81
601.536	388.81
601.745	401.81
601.953	391.81
602.162	384.81
602.371	393.81
602.58	377.81
602.789	377.81
602.997	383.81
603.206	375.81
603.415	388.81
603.623	377.81
603.832	373.81
604.041	364.81
604.249	361.81
604.458	364.81
604.666	366.81
604.875	361.81
605.084	364.81
605.292	374.81
605.501	392.81
605.709	371.81
605.918	363.81
606.126	374.81
606.334	376.81
606.543	358.81
606.751	379.81
606.96	379.81
607.168	372.81
607.376	374.81
607.585	362.81
607.793	360.81
608.001	367.81
608.21	349.81
608.418	358.81
608.626	355.81
608.834	354.81
609.043	352.81
609.251	345.81
609.459	339.81
609.667	344.81
609.875	342.81
610.083	361.81
610.291	361.81
610.499	342.81
610.707	348.81
610.916	348.81
611.124	330.81
611.332	330.81
611.54	352.81
611.748	352.81
611.955	353.81
612.163	345.81
612.371	330.81
612.579	329.81
612.787	346.81
612.995	322.81
613.203	350.81
613.411	350.81
613.618	354.81
613.826	354.81
614.034	344.81
614.242	342.81
614.449	345.81
614.657	332.81
614.865	343.81
615.072	331.81
615.28	342.81
615.488	334.81
615.695	341.81
615.903	345.81
616.111	346.81
616.318	342.81
616.526	340.81
616.733	338.81
616.941	345.81
617.148	365.81
617.356	359.81
617.563	355.81
617.771	337.81
617.978	342.81
618.185	339.81
618.393	348.81
618.6	322.81
618.807	346.81
619.015	324.81
619.222	341.81
619.429	354.81
619.637	323.81
619.844	328.81
620.051	316.81
620.258	313.81
620.466	302.81
620.673	291.81
620.88	305.81
621.087	306.81
621.294	310.81
621.501	316.81
621.708	324.81
621.915	316.81
622.122	314.81
622.329	318.81
622.536	312.81
622.743	304.81
622.95	336.81
623.157	318.81
623.364	300.81
623.571	285.81
623.778	303.81
623.985	311.81
624.192	299.81
624.399	286.81
624.606	289.81
624.812	295.81
625.019	287.81
625.226	297.81
625.433	299.81
625.639	289.81
625.846	288.81
626.053	290.81
626.259	280.81
626.466	298.81
626.673	291.81
626.879	276.81
627.086	271.81
627.293	286.81
627.499	295.81
627.706	276.81
627.912	281.81
628.119	281.81
628.325	290.81
628.532	304.81
628.738	280.81
628.945	262.81
629.151	291.81
629.357	266.81
629.564	261.81
629.77	266.81
629.976	272.81
630.183	274.81
630.389	260.81
630.595	278.81
630.802	267.81
631.008	267.81
631.214	279.81
631.42	274.81
631.627	271.81
631.833	254.81
632.039	275.81
632.245	268.81
632.451	264.81
632.657	259.81
632.863	255.81
633.069	244.81
633.275	248.81
633.481	244.81
633.688	254.81
633.893	252.81
634.099	254.81
634.305	243.81
634.511	267.81
634.717	247.81
634.923	253.81
635.129	242.81
635.335	248.81
635.541	247.81
635.747	243.81
635.952	224.81
636.158	246.81
636.364	239.81
636.57	257.81
636.775	240.81
636.981	235.81
637.187	254.81
637.392	229.81
637.598	251.81
637.804	230.81
638.009	226.81
638.215	235.81
638.421	249.81
638.626	236.81
638.832	259.81
639.037	229.81
639.243	240.81
639.448	217.81
639.654	224.81
639.859	240.81
640.065	234.81
640.27	223.81
640.475	222.81
640.681	211.81
640.886	216.81
641.091	227.81
641.297	236.81
641.502	211.81
641.707	230.81
641.913	239.81
642.118	209.81
642.323	214.81
642.528	242.81
642.733	233.81
642.939	242.81
643.144	214.81
643.349	241.81
643.554	222.81
643.759	234.81
643.964	228.81
644.169	212.81
644.374	227.81
644.579	216.81
644.784	214.81
644.989	216.81
645.194	220.81
645.399	202.81
645.604	203.81
645.809	210.81
646.014	213.81
646.219	219.81
646.423	204.81
646.628	230.81
646.833	219.81
647.038	215.81
647.243	222.81
647.447	226.81
647.652	217.81
647.857	226.81
648.062	222.81
648.266	233.81
648.471	229.81
648.676	218.81
648.88	232.81
649.085	225.81
649.289	214.81
649.494	206.81
649.698	201.81
649.903	227.81
650.107	222.81
650.312	201.81
650.516	209.81
650.721	230.81
650.925	207.81
651.13	181.81
651.334	175.81
651.539	205.81
651.743	197.81
651.947	192.81
652.152	188.81
652.356	203.81
652.56	198.81
652.764	201.81
652.969	172.81
653.173	181.81
653.377	186.81
653.581	178.81
653.785	182.81
653.99	174.81
654.194	166.81
654.398	168.81
654.602	155.81
654.806	153.81
655.01	166.81
655.214	155.81
655.418	148.81
655.622	173.81
655.826	151.81
656.03	151.81
656.234	148.81
656.438	169.81
656.642	140.81
656.846	166.81
657.049	149.81
657.253	148.81
657.457	146.81
657.661	148.81
657.865	137.81
658.068	120.81
658.272	115.81
658.476	122.81
658.68	123.81
658.883	118.81
659.087	130.81
659.291	127.81
659.494	114.81
659.698	111.81
659.901	118.81
660.105	108.81
660.309	97.81
660.512	104.81
660.716	100.81
660.919	90.81
661.123	100.81
661.326	114.81
661.53	91.81
661.733	88.81
661.936	98.81
662.14	103.81
662.343	83.81
662.546	82.81
662.75	93.81
662.953	96.81
663.156	88.81
663.36	85.81
663.563	81.81
663.766	90.81
663.969	92.81
664.173	79.81
664.376	94.81
664.579	65.81
664.782	70.81
664.985	90.81
665.188	82.81
665.391	85.81
665.594	81.81
665.797	90.81
666	70.81
666.203	86.81
666.406	70.81
666.609	72.81
666.812	67.81
667.015	84.81
667.218	79.81
667.421	85.81
667.624	89.81
667.827	66.81
668.03	75.81
668.232	80.81
668.435	84.81
668.638	87.81
668.841	90.81
669.043	68.81
669.246	88.81
669.449	81.81
669.651	80.81
669.854	88.81
670.057	59.81
670.259	72.81
670.462	80.81
670.665	99.81
670.867	93.81
671.07	90.81
671.272	85.81
671.475	75.81
671.677	75.81
671.88	75.81
672.082	72.81
672.284	79.81
672.487	89.81
672.689	68.81
672.892	82.81
