Data from Ni(NO3)2@0.25M.TitratingCurve.Agarose3%dH2O.NegLispCup.LampEnergy10.LIBS07252019_HRD10591_18-03-49-566.txt Node
Date: Thu Jul 25 18:03:49 EDT 2019
User: cochatt
Spectrometer: HR+D1059
Trigger mode: 1
Integration Time (sec): 1.000000E-1
Scans to average: 1
Electric dark correction enabled: true
Nonlinearity correction enabled: false
Boxcar width: 0
XAxis mode: Wavelengths
Number of Pixels in Spectrum: 2048
>>>>>Begin Spectral Data<<<<<
223.165	-20.62
223.4	-20.62
223.635	-20.62
223.869	-17.62
224.104	-24.62
224.338	-16.62
224.573	-29.62
224.808	-22.62
225.042	2.38
225.277	-6.62
225.511	5.38
225.746	2.38
225.98	5.38
226.215	9.38
226.449	14.38
226.683	24.38
226.918	43.38
227.152	31.38
227.387	36.38
227.621	33.38
227.856	40.38
228.09	41.38
228.324	56.38
228.559	41.38
228.793	65.38
229.027	93.38
229.262	107.38
229.496	98.38
229.73	92.38
229.964	108.38
230.199	126.38
230.433	102.38
230.667	113.38
230.901	109.38
231.136	118.38
231.37	120.38
231.604	132.38
231.838	116.38
232.072	140.38
232.306	130.38
232.541	115.38
232.775	124.38
233.009	139.38
233.243	109.38
233.477	120.38
233.711	126.38
233.945	142.38
234.179	136.38
234.413	133.38
234.647	128.38
234.881	137.38
235.115	121.38
235.349	137.38
235.583	127.38
235.817	134.38
236.051	126.38
236.285	137.38
236.519	140.38
236.753	127.38
236.987	141.38
237.221	124.38
237.455	130.38
237.689	141.38
237.922	140.38
238.156	141.38
238.39	165.38
238.624	138.38
238.858	133.38
239.091	127.38
239.325	145.38
239.559	146.38
239.793	159.38
240.027	146.38
240.26	145.38
240.494	152.38
240.728	146.38
240.961	152.38
241.195	138.38
241.429	169.38
241.662	154.38
241.896	158.38
242.13	154.38
242.363	146.38
242.597	143.38
242.83	159.38
243.064	143.38
243.298	144.38
243.531	170.38
243.765	171.38
243.998	169.38
244.232	163.38
244.465	168.38
244.699	171.38
244.932	180.38
245.166	165.38
245.399	190.38
245.633	187.38
245.866	168.38
246.099	179.38
246.333	196.38
246.566	191.38
246.8	190.38
247.033	181.38
247.266	181.38
247.5	193.38
247.733	193.38
247.966	198.38
248.2	191.38
248.433	200.38
248.666	184.38
248.899	186.38
249.133	200.38
249.366	209.38
249.599	190.38
249.832	205.38
250.066	229.38
250.299	221.38
250.532	212.38
250.765	212.38
250.998	229.38
251.231	220.38
251.465	225.38
251.698	236.38
251.931	229.38
252.164	230.38
252.397	222.38
252.63	244.38
252.863	232.38
253.096	235.38
253.329	251.38
253.562	248.38
253.795	246.38
254.028	245.38
254.261	244.38
254.494	256.38
254.727	264.38
254.96	253.38
255.193	240.38
255.426	264.38
255.659	256.38
255.892	233.38
256.124	266.38
256.357	284.38
256.59	270.38
256.823	290.38
257.056	276.38
257.289	269.38
257.521	264.38
257.754	292.38
257.987	278.38
258.22	284.38
258.452	280.38
258.685	286.38
258.918	286.38
259.151	288.38
259.383	299.38
259.616	283.38
259.849	302.38
260.081	297.38
260.314	318.38
260.547	292.38
260.779	305.38
261.012	290.38
261.244	310.38
261.477	304.38
261.71	295.38
261.942	311.38
262.175	284.38
262.407	329.38
262.64	306.38
262.872	322.38
263.105	314.38
263.337	333.38
263.57	340.38
263.802	314.38
264.035	322.38
264.267	328.38
264.499	343.38
264.732	316.38
264.964	331.38
265.197	342.38
265.429	352.38
265.661	338.38
265.894	334.38
266.126	328.38
266.358	352.38
266.591	346.38
266.823	363.38
267.055	334.38
267.287	340.38
267.52	342.38
267.752	354.38
267.984	355.38
268.216	296.38
268.448	358.38
268.681	345.38
268.913	343.38
269.145	352.38
269.377	351.38
269.609	354.38
269.841	356.38
270.073	355.38
270.306	373.38
270.538	348.38
270.77	352.38
271.002	373.38
271.234	382.38
271.466	354.38
271.698	355.38
271.93	384.38
272.162	368.38
272.394	360.38
272.626	349.38
272.858	359.38
273.09	358.38
273.322	368.38
273.553	372.38
273.785	382.38
274.017	386.38
274.249	356.38
274.481	365.38
274.713	393.38
274.945	387.38
275.176	398.38
275.408	388.38
275.64	365.38
275.872	378.38
276.104	382.38
276.335	393.38
276.567	388.38
276.799	396.38
277.031	392.38
277.262	390.38
277.494	402.38
277.726	400.38
277.957	410.38
278.189	406.38
278.421	383.38
278.652	394.38
278.884	386.38
279.115	408.38
279.347	413.38
279.579	395.38
279.81	402.38
280.042	405.38
280.273	399.38
280.505	429.38
280.736	412.38
280.968	414.38
281.199	410.38
281.431	406.38
281.662	406.38
281.894	416.38
282.125	391.38
282.356	416.38
282.588	416.38
282.819	413.38
283.051	430.38
283.282	421.38
283.513	412.38
283.745	424.38
283.976	402.38
284.207	437.38
284.439	430.38
284.67	438.38
284.901	429.38
285.132	423.38
285.364	417.38
285.595	424.38
285.826	448.38
286.057	423.38
286.288	421.38
286.52	462.38
286.751	432.38
286.982	424.38
287.213	441.38
287.444	452.38
287.675	446.38
287.906	458.38
288.138	423.38
288.369	420.38
288.6	444.38
288.831	461.38
289.062	444.38
289.293	448.38
289.524	450.38
289.755	405.38
289.986	438.38
290.217	415.38
290.448	431.38
290.679	426.38
290.91	441.38
291.141	430.38
291.371	460.38
291.602	440.38
291.833	459.38
292.064	432.38
292.295	466.38
292.526	454.38
292.757	419.38
292.987	432.38
293.218	436.38
293.449	461.38
293.68	447.38
293.91	438.38
294.141	456.38
294.372	434.38
294.603	441.38
294.833	441.38
295.064	434.38
295.295	453.38
295.525	455.38
295.756	456.38
295.987	466.38
296.217	434.38
296.448	460.38
296.679	458.38
296.909	444.38
297.14	460.38
297.37	445.38
297.601	472.38
297.831	480.38
298.062	496.38
298.292	482.38
298.523	485.38
298.753	465.38
298.984	483.38
299.214	499.38
299.445	512.38
299.675	490.38
299.905	477.38
300.136	477.38
300.366	487.38
300.597	509.38
300.827	484.38
301.057	503.38
301.288	514.38
301.518	502.38
301.748	528.38
301.979	500.38
302.209	507.38
302.439	512.38
302.669	484.38
302.9	500.38
303.13	493.38
303.36	521.38
303.59	512.38
303.82	517.38
304.051	512.38
304.281	531.38
304.511	515.38
304.741	500.38
304.971	512.38
305.201	528.38
305.431	549.38
305.661	541.38
305.891	537.38
306.121	515.38
306.352	521.38
306.582	509.38
306.812	489.38
307.042	484.38
307.272	509.38
307.502	502.38
307.731	504.38
307.961	484.38
308.191	524.38
308.421	529.38
308.651	516.38
308.881	514.38
309.111	522.38
309.341	523.38
309.571	524.38
309.8	515.38
310.03	528.38
310.26	542.38
310.49	540.38
310.72	531.38
310.949	527.38
311.179	508.38
311.409	530.38
311.639	553.38
311.868	533.38
312.098	521.38
312.328	540.38
312.557	548.38
312.787	554.38
313.017	556.38
313.246	551.38
313.476	558.38
313.706	572.38
313.935	599.38
314.165	571.38
314.394	569.38
314.624	589.38
314.853	587.38
315.083	613.38
315.312	590.38
315.542	580.38
315.771	581.38
316.001	574.38
316.23	567.38
316.46	617.38
316.689	588.38
316.919	598.38
317.148	594.38
317.377	614.38
317.607	603.38
317.836	590.38
318.065	584.38
318.295	600.38
318.524	597.38
318.753	594.38
318.983	629.38
319.212	596.38
319.441	611.38
319.67	613.38
319.9	591.38
320.129	618.38
320.358	615.38
320.587	628.38
320.816	632.38
321.046	617.38
321.275	621.38
321.504	627.38
321.733	629.38
321.962	650.38
322.191	646.38
322.42	648.38
322.649	660.38
322.878	648.38
323.108	654.38
323.337	643.38
323.566	647.38
323.795	674.38
324.024	692.38
324.253	637.38
324.482	675.38
324.71	706.38
324.939	694.38
325.168	688.38
325.397	693.38
325.626	683.38
325.855	680.38
326.084	690.38
326.313	731.38
326.542	708.38
326.77	721.38
326.999	707.38
327.228	689.38
327.457	732.38
327.686	723.38
327.914	722.38
328.143	746.38
328.372	747.38
328.6	740.38
328.829	745.38
329.058	717.38
329.287	732.38
329.515	749.38
329.744	759.38
329.972	754.38
330.201	760.38
330.43	765.38
330.658	773.38
330.887	780.38
331.115	790.38
331.344	788.38
331.572	808.38
331.801	799.38
332.03	814.38
332.258	813.38
332.486	816.38
332.715	832.38
332.943	870.38
333.172	853.38
333.4	889.38
333.629	898.38
333.857	930.38
334.085	926.38
334.314	944.38
334.542	926.38
334.771	953.38
334.999	925.38
335.227	929.38
335.455	947.38
335.684	979.38
335.912	963.38
336.14	965.38
336.369	940.38
336.597	960.38
336.825	970.38
337.053	934.38
337.281	915.38
337.51	914.38
337.738	908.38
337.966	901.38
338.194	889.38
338.422	875.38
338.65	870.38
338.878	869.38
339.106	862.38
339.334	888.38
339.562	877.38
339.79	844.38
340.018	823.38
340.246	820.38
340.474	845.38
340.702	842.38
340.93	826.38
341.158	839.38
341.386	863.38
341.614	868.38
341.842	840.38
342.07	848.38
342.298	835.38
342.526	850.38
342.754	851.38
342.981	849.38
343.209	851.38
343.437	905.38
343.665	887.38
343.893	923.38
344.12	920.38
344.348	923.38
344.576	938.38
344.804	936.38
345.031	889.38
345.259	877.38
345.487	848.38
345.714	877.38
345.942	864.38
346.17	886.38
346.397	844.38
346.625	841.38
346.853	811.38
347.08	828.38
347.308	809.38
347.535	828.38
347.763	836.38
347.99	820.38
348.218	791.38
348.445	801.38
348.673	792.38
348.9	803.38
349.128	820.38
349.355	811.38
349.583	830.38
349.81	768.38
350.037	772.38
350.265	779.38
350.492	790.38
350.72	789.38
350.947	800.38
351.174	783.38
351.402	795.38
351.629	813.38
351.856	809.38
352.083	818.38
352.311	818.38
352.538	798.38
352.765	825.38
352.992	800.38
353.22	755.38
353.447	760.38
353.674	772.38
353.901	786.38
354.128	752.38
354.355	773.38
354.583	784.38
354.81	772.38
355.037	763.38
355.264	776.38
355.491	782.38
355.718	761.38
355.945	785.38
356.172	770.38
356.399	776.38
356.626	779.38
356.853	797.38
357.08	778.38
357.307	780.38
357.534	775.38
357.761	775.38
357.988	761.38
358.215	785.38
358.441	776.38
358.668	774.38
358.895	772.38
359.122	753.38
359.349	749.38
359.576	762.38
359.802	772.38
360.029	794.38
360.256	763.38
360.483	772.38
360.709	764.38
360.936	785.38
361.163	804.38
361.39	770.38
361.616	780.38
361.843	787.38
362.07	817.38
362.296	778.38
362.523	784.38
362.749	781.38
362.976	766.38
363.203	752.38
363.429	765.38
363.656	779.38
363.882	773.38
364.109	781.38
364.335	762.38
364.562	770.38
364.788	776.38
365.015	754.38
365.241	750.38
365.468	756.38
365.694	758.38
365.92	767.38
366.147	741.38
366.373	760.38
366.599	745.38
366.826	770.38
367.052	771.38
367.278	755.38
367.505	776.38
367.731	789.38
367.957	760.38
368.184	756.38
368.41	756.38
368.636	757.38
368.862	803.38
369.089	798.38
369.315	759.38
369.541	817.38
369.767	792.38
369.993	777.38
370.219	770.38
370.445	809.38
370.672	786.38
370.898	796.38
371.124	807.38
371.35	805.38
371.576	821.38
371.802	811.38
372.028	822.38
372.254	813.38
372.48	822.38
372.706	810.38
372.932	833.38
373.158	832.38
373.384	797.38
373.61	804.38
373.835	821.38
374.061	783.38
374.287	816.38
374.513	818.38
374.739	835.38
374.965	834.38
375.191	836.38
375.416	845.38
375.642	847.38
375.868	838.38
376.094	819.38
376.319	819.38
376.545	799.38
376.771	788.38
376.997	794.38
377.222	788.38
377.448	782.38
377.674	802.38
377.899	794.38
378.125	769.38
378.35	786.38
378.576	774.38
378.802	780.38
379.027	778.38
379.253	781.38
379.478	793.38
379.704	784.38
379.929	776.38
380.155	748.38
380.38	772.38
380.606	770.38
380.831	766.38
381.057	774.38
381.282	752.38
381.507	788.38
381.733	759.38
381.958	800.38
382.184	774.38
382.409	791.38
382.634	814.38
382.86	808.38
383.085	816.38
383.31	838.38
383.535	824.38
383.761	829.38
383.986	844.38
384.211	828.38
384.436	840.38
384.662	856.38
384.887	866.38
385.112	856.38
385.337	892.38
385.562	876.38
385.787	876.38
386.013	870.38
386.238	908.38
386.463	875.38
386.688	896.38
386.913	889.38
387.138	905.38
387.363	897.38
387.588	886.38
387.813	900.38
388.038	884.38
388.263	906.38
388.488	909.38
388.713	891.38
388.938	897.38
389.163	880.38
389.387	888.38
389.612	904.38
389.837	894.38
390.062	888.38
390.287	906.38
390.512	909.38
390.736	896.38
390.961	896.38
391.186	905.38
391.411	942.38
391.636	938.38
391.86	960.38
392.085	969.38
392.31	989.38
392.534	989.38
392.759	968.38
392.984	950.38
393.208	960.38
393.433	975.38
393.658	945.38
393.882	914.38
394.107	946.38
394.331	952.38
394.556	969.38
394.78	937.38
395.005	975.38
395.229	932.38
395.454	944.38
395.678	983.38
395.903	970.38
396.127	970.38
396.352	974.38
396.576	962.38
396.801	955.38
397.025	988.38
397.249	1001.38
397.474	1021.38
397.698	1045.38
397.922	1038.38
398.147	1027.38
398.371	1062.38
398.595	1044.38
398.82	1080.38
399.044	1152.38
399.268	1187.38
399.492	1288.38
399.717	1369.38
399.941	1381.38
400.165	1306.38
400.389	1272.38
400.613	1194.38
400.837	1155.38
401.062	1148.38
401.286	1140.38
401.51	1150.38
401.734	1134.38
401.958	1132.38
402.182	1096.38
402.406	1134.38
402.63	1134.38
402.854	1137.38
403.078	1113.38
403.302	1139.38
403.526	1148.38
403.75	1168.38
403.974	1178.38
404.198	1158.38
404.422	1176.38
404.645	1199.38
404.869	1170.38
405.093	1180.38
405.317	1163.38
405.541	1176.38
405.765	1202.38
405.988	1196.38
406.212	1194.38
406.436	1186.38
406.66	1226.38
406.883	1217.38
407.107	1251.38
407.331	1302.38
407.555	1360.38
407.778	1322.38
408.002	1322.38
408.226	1323.38
408.449	1336.38
408.673	1311.38
408.896	1273.38
409.12	1267.38
409.344	1250.38
409.567	1235.38
409.791	1281.38
410.014	1258.38
410.238	1231.38
410.461	1228.38
410.685	1239.38
410.908	1212.38
411.132	1217.38
411.355	1165.38
411.578	1187.38
411.802	1166.38
412.025	1160.38
412.249	1183.38
412.472	1184.38
412.695	1162.38
412.919	1188.38
413.142	1180.38
413.365	1169.38
413.589	1147.38
413.812	1176.38
414.035	1129.38
414.258	1140.38
414.482	1161.38
414.705	1180.38
414.928	1152.38
415.151	1112.38
415.374	1132.38
415.597	1137.38
415.821	1132.38
416.044	1133.38
416.267	1147.38
416.49	1137.38
416.713	1139.38
416.936	1147.38
417.159	1124.38
417.382	1114.38
417.605	1105.38
417.828	1123.38
418.051	1126.38
418.274	1151.38
418.497	1147.38
418.72	1167.38
418.943	1151.38
419.166	1198.38
419.389	1286.38
419.611	1237.38
419.834	1239.38
420.057	1181.38
420.28	1166.38
420.503	1168.38
420.726	1125.38
420.948	1124.38
421.171	1160.38
421.394	1133.38
421.617	1129.38
421.839	1126.38
422.062	1145.38
422.285	1148.38
422.507	1140.38
422.73	1145.38
422.953	1152.38
423.175	1149.38
423.398	1130.38
423.621	1142.38
423.843	1167.38
424.066	1183.38
424.288	1176.38
424.511	1150.38
424.733	1143.38
424.956	1152.38
425.178	1179.38
425.401	1150.38
425.623	1140.38
425.846	1140.38
426.068	1129.38
426.291	1120.38
426.513	1118.38
426.735	1152.38
426.958	1146.38
427.18	1124.38
427.402	1076.38
427.625	1117.38
427.847	1107.38
428.069	1116.38
428.292	1098.38
428.514	1102.38
428.736	1104.38
428.958	1107.38
429.181	1081.38
429.403	1100.38
429.625	1115.38
429.847	1076.38
430.069	1089.38
430.292	1090.38
430.514	1084.38
430.736	1091.38
430.958	1094.38
431.18	1096.38
431.402	1113.38
431.624	1086.38
431.846	1067.38
432.068	1119.38
432.29	1114.38
432.512	1063.38
432.734	1082.38
432.956	1087.38
433.178	1118.38
433.4	1117.38
433.622	1127.38
433.844	1143.38
434.066	1135.38
434.287	1126.38
434.509	1113.38
434.731	1172.38
434.953	1144.38
435.175	1158.38
435.397	1193.38
435.618	1177.38
435.84	1109.38
436.062	1109.38
436.284	1141.38
436.505	1114.38
436.727	1092.38
436.949	1108.38
437.17	1077.38
437.392	1084.38
437.614	1081.38
437.835	1047.38
438.057	1068.38
438.278	1060.38
438.5	1067.38
438.721	1074.38
438.943	1108.38
439.165	1072.38
439.386	1058.38
439.608	1102.38
439.829	1102.38
440.05	1098.38
440.272	1114.38
440.493	1114.38
440.715	1118.38
440.936	1131.38
441.158	1130.38
441.379	1145.38
441.6	1193.38
441.822	1192.38
442.043	1208.38
442.264	1172.38
442.486	1145.38
442.707	1175.38
442.928	1144.38
443.149	1180.38
443.371	1165.38
443.592	1176.38
443.813	1188.38
444.034	1225.38
444.255	1233.38
444.476	1222.38
444.698	1306.38
444.919	1294.38
445.14	1356.38
445.361	1272.38
445.582	1212.38
445.803	1211.38
446.024	1139.38
446.245	1182.38
446.466	1180.38
446.687	1138.38
446.908	1115.38
447.129	1110.38
447.35	1113.38
447.571	1081.38
447.792	1068.38
448.013	1052.38
448.234	1034.38
448.455	1036.38
448.675	1012.38
448.896	1033.38
449.117	1047.38
449.338	1018.38
449.559	1017.38
449.779	1045.38
450	1028.38
450.221	1048.38
450.442	1042.38
450.662	992.38
450.883	1022.38
451.104	1044.38
451.324	1018.38
451.545	1012.38
451.766	1024.38
451.986	1026.38
452.207	1000.38
452.428	1008.38
452.648	1004.38
452.869	992.38
453.089	987.38
453.31	985.38
453.53	968.38
453.751	959.38
453.971	952.38
454.192	969.38
454.412	969.38
454.633	956.38
454.853	978.38
455.073	988.38
455.294	985.38
455.514	955.38
455.734	967.38
455.955	917.38
456.175	936.38
456.395	968.38
456.616	939.38
456.836	948.38
457.056	966.38
457.276	954.38
457.497	971.38
457.717	976.38
457.937	985.38
458.157	988.38
458.377	1008.38
458.598	1018.38
458.818	1036.38
459.038	1031.38
459.258	1031.38
459.478	1109.38
459.698	1105.38
459.918	1156.38
460.138	1188.38
460.358	1175.38
460.578	1188.38
460.798	1226.38
461.018	1268.38
461.238	1229.38
461.458	1224.38
461.678	1209.38
461.898	1236.38
462.118	1316.38
462.338	1328.38
462.558	1313.38
462.777	1400.38
462.997	1444.38
463.217	1449.38
463.437	1461.38
463.657	1422.38
463.876	1399.38
464.096	1391.38
464.316	1433.38
464.536	1342.38
464.755	1337.38
464.975	1280.38
465.195	1257.38
465.414	1242.38
465.634	1161.38
465.854	1164.38
466.073	1136.38
466.293	1103.38
466.512	1086.38
466.732	1081.38
466.951	1099.38
467.171	1068.38
467.391	1072.38
467.61	1072.38
467.829	1043.38
468.049	1030.38
468.268	1035.38
468.488	1052.38
468.707	1052.38
468.927	1045.38
469.146	1044.38
469.365	1039.38
469.585	1043.38
469.804	1068.38
470.023	1075.38
470.243	1050.38
470.462	1104.38
470.681	1085.38
470.901	1060.38
471.12	1076.38
471.339	1084.38
471.558	1077.38
471.777	1063.38
471.997	1070.38
472.216	1066.38
472.435	1037.38
472.654	1013.38
472.873	1036.38
473.092	1024.38
473.311	1015.38
473.53	1006.38
473.749	1036.38
473.968	1043.38
474.187	1012.38
474.406	1037.38
474.625	1030.38
474.844	1035.38
475.063	1068.38
475.282	1041.38
475.501	1034.38
475.72	1046.38
475.939	1034.38
476.158	1080.38
476.377	1089.38
476.596	1071.38
476.814	1095.38
477.033	1104.38
477.252	1106.38
477.471	1126.38
477.69	1149.38
477.908	1136.38
478.127	1194.38
478.346	1181.38
478.564	1199.38
478.783	1225.38
479.002	1226.38
479.22	1218.38
479.439	1241.38
479.658	1262.38
479.876	1277.38
480.095	1242.38
480.313	1285.38
480.532	1272.38
480.751	1256.38
480.969	1225.38
481.188	1198.38
481.406	1211.38
481.624	1194.38
481.843	1188.38
482.061	1180.38
482.28	1205.38
482.498	1186.38
482.717	1178.38
482.935	1160.38
483.153	1185.38
483.372	1173.38
483.59	1209.38
483.808	1210.38
484.027	1204.38
484.245	1204.38
484.463	1192.38
484.681	1218.38
484.9	1204.38
485.118	1204.38
485.336	1189.38
485.554	1218.38
485.772	1259.38
485.99	1212.38
486.209	1216.38
486.427	1226.38
486.645	1212.38
486.863	1244.38
487.081	1228.38
487.299	1201.38
487.517	1220.38
487.735	1240.38
487.953	1274.38
488.171	1223.38
488.389	1240.38
488.607	1223.38
488.825	1204.38
489.043	1193.38
489.261	1232.38
489.479	1224.38
489.696	1246.38
489.914	1240.38
490.132	1234.38
490.35	1233.38
490.568	1274.38
490.786	1258.38
491.003	1257.38
491.221	1272.38
491.439	1280.38
491.657	1294.38
491.874	1297.38
492.092	1260.38
492.31	1330.38
492.527	1316.38
492.745	1303.38
492.963	1289.38
493.18	1307.38
493.398	1321.38
493.615	1330.38
493.833	1322.38
494.05	1326.38
494.268	1324.38
494.485	1356.38
494.703	1343.38
494.92	1351.38
495.138	1325.38
495.355	1344.38
495.573	1381.38
495.79	1369.38
496.008	1394.38
496.225	1380.38
496.442	1408.38
496.66	1408.38
496.877	1410.38
497.094	1493.38
497.312	1506.38
497.529	1537.38
497.746	1564.38
497.963	1578.38
498.181	1641.38
498.398	1699.38
498.615	1778.38
498.832	1838.38
499.049	1919.38
499.267	2035.38
499.484	2140.38
499.701	2274.38
499.918	2377.38
500.135	2514.38
500.352	2703.38
500.569	2703.38
500.786	2717.38
501.003	2651.38
501.22	2555.38
501.437	2366.38
501.654	2254.38
501.871	2108.38
502.088	2052.38
502.305	1927.38
502.522	1881.38
502.739	1808.38
502.956	1736.38
503.172	1672.38
503.389	1618.38
503.606	1568.38
503.823	1562.38
504.04	1539.38
504.256	1528.38
504.473	1488.38
504.69	1473.38
504.907	1462.38
505.123	1418.38
505.34	1368.38
505.557	1347.38
505.773	1293.38
505.99	1273.38
506.207	1345.38
506.423	1264.38
506.64	1242.38
506.856	1208.38
507.073	1178.38
507.289	1194.38
507.506	1178.38
507.722	1178.38
507.939	1163.38
508.155	1134.38
508.372	1149.38
508.588	1122.38
508.805	1151.38
509.021	1099.38
509.238	1140.38
509.454	1088.38
509.67	1097.38
509.887	1100.38
510.103	1097.38
510.319	1095.38
510.536	1086.38
510.752	1098.38
510.968	1083.38
511.184	1053.38
511.401	1084.38
511.617	1055.38
511.833	1069.38
512.049	1052.38
512.265	1038.38
512.481	1100.38
512.698	1047.38
512.914	1077.38
513.13	1070.38
513.346	1040.38
513.562	1077.38
513.778	1045.38
513.994	1076.38
514.21	1096.38
514.426	1092.38
514.642	1090.38
514.858	1107.38
515.074	1087.38
515.29	1100.38
515.506	1130.38
515.721	1129.38
515.937	1156.38
516.153	1160.38
516.369	1145.38
516.585	1226.38
516.801	1217.38
517.016	1244.38
517.232	1294.38
517.448	1286.38
517.664	1297.38
517.879	1328.38
518.095	1292.38
518.311	1317.38
518.527	1267.38
518.742	1220.38
518.958	1200.38
519.173	1214.38
519.389	1179.38
519.605	1126.38
519.82	1142.38
520.036	1147.38
520.251	1085.38
520.467	1142.38
520.682	1053.38
520.898	1067.38
521.113	1088.38
521.329	1032.38
521.544	1029.38
521.76	1022.38
521.975	1035.38
522.19	1038.38
522.406	1011.38
522.621	994.38
522.836	1006.38
523.052	985.38
523.267	1003.38
523.482	983.38
523.698	1001.38
523.913	955.38
524.128	988.38
524.343	986.38
524.559	966.38
524.774	993.38
524.989	982.38
525.204	960.38
525.419	986.38
525.634	995.38
525.849	987.38
526.064	963.38
526.28	942.38
526.495	948.38
526.71	938.38
526.925	925.38
527.14	940.38
527.355	939.38
527.57	932.38
527.785	942.38
527.999	945.38
528.214	974.38
528.429	957.38
528.644	938.38
528.859	969.38
529.074	950.38
529.289	977.38
529.503	972.38
529.718	958.38
529.933	969.38
530.148	924.38
530.363	938.38
530.577	935.38
530.792	916.38
531.007	914.38
531.221	940.38
531.436	920.38
531.651	949.38
531.865	928.38
532.08	930.38
532.295	957.38
532.509	937.38
532.724	925.38
532.938	934.38
533.153	902.38
533.367	949.38
533.582	941.38
533.796	908.38
534.011	937.38
534.225	909.38
534.44	906.38
534.654	923.38
534.868	927.38
535.083	900.38
535.297	896.38
535.511	881.38
535.726	913.38
535.94	871.38
536.154	904.38
536.369	886.38
536.583	888.38
536.797	867.38
537.011	878.38
537.225	840.38
537.44	849.38
537.654	863.38
537.868	871.38
538.082	859.38
538.296	848.38
538.51	865.38
538.724	890.38
538.938	868.38
539.153	830.38
539.367	864.38
539.581	838.38
539.795	841.38
540.009	861.38
540.222	820.38
540.436	841.38
540.65	824.38
540.864	845.38
541.078	862.38
541.292	899.38
541.506	880.38
541.72	842.38
541.934	887.38
542.147	882.38
542.361	864.38
542.575	864.38
542.789	864.38
543.002	844.38
543.216	843.38
543.43	827.38
543.644	842.38
543.857	847.38
544.071	828.38
544.285	880.38
544.498	844.38
544.712	883.38
544.925	859.38
545.139	877.38
545.352	853.38
545.566	884.38
545.779	848.38
545.993	892.38
546.206	870.38
546.42	895.38
546.633	875.38
546.847	871.38
547.06	857.38
547.274	862.38
547.487	885.38
547.7	873.38
547.914	868.38
548.127	883.38
548.34	867.38
548.554	884.38
548.767	883.38
548.98	872.38
549.193	866.38
549.407	851.38
549.62	886.38
549.833	874.38
550.046	854.38
550.259	860.38
550.473	858.38
550.686	852.38
550.899	859.38
551.112	879.38
551.325	868.38
551.538	845.38
551.751	858.38
551.964	870.38
552.177	872.38
552.39	854.38
552.603	908.38
552.816	873.38
553.029	881.38
553.242	892.38
553.455	906.38
553.667	914.38
553.88	910.38
554.093	880.38
554.306	829.38
554.519	838.38
554.732	832.38
554.944	834.38
555.157	843.38
555.37	810.38
555.583	804.38
555.795	789.38
556.008	785.38
556.221	780.38
556.433	771.38
556.646	782.38
556.859	792.38
557.071	747.38
557.284	765.38
557.496	772.38
557.709	785.38
557.921	755.38
558.134	718.38
558.346	739.38
558.559	732.38
558.771	701.38
558.984	745.38
559.196	722.38
559.409	722.38
559.621	712.38
559.833	732.38
560.046	698.38
560.258	739.38
560.47	708.38
560.683	706.38
560.895	717.38
561.107	736.38
561.32	741.38
561.532	724.38
561.744	737.38
561.956	701.38
562.168	735.38
562.381	712.38
562.593	709.38
562.805	716.38
563.017	708.38
563.229	743.38
563.441	744.38
563.653	758.38
563.865	752.38
564.077	730.38
564.289	756.38
564.501	772.38
564.713	781.38
564.925	785.38
565.137	808.38
565.349	794.38
565.561	812.38
565.773	845.38
565.985	838.38
566.197	865.38
566.408	904.38
566.62	920.38
566.832	969.38
567.044	992.38
567.255	1021.38
567.467	1023.38
567.679	1004.38
567.891	1012.38
568.102	1026.38
568.314	977.38
568.526	944.38
568.737	925.38
568.949	865.38
569.161	857.38
569.372	816.38
569.584	768.38
569.795	788.38
570.007	742.38
570.218	740.38
570.43	720.38
570.641	725.38
570.853	683.38
571.064	702.38
571.276	694.38
571.487	684.38
571.698	660.38
571.91	669.38
572.121	665.38
572.333	630.38
572.544	624.38
572.755	594.38
572.966	607.38
573.178	610.38
573.389	612.38
573.6	603.38
573.811	579.38
574.023	604.38
574.234	571.38
574.445	564.38
574.656	579.38
574.867	571.38
575.078	580.38
575.289	562.38
575.501	600.38
575.712	568.38
575.923	563.38
576.134	565.38
576.345	581.38
576.556	546.38
576.767	546.38
576.978	542.38
577.188	526.38
577.399	540.38
577.61	523.38
577.821	517.38
578.032	524.38
578.243	516.38
578.454	508.38
578.665	525.38
578.875	510.38
579.086	503.38
579.297	505.38
579.508	510.38
579.718	503.38
579.929	500.38
580.14	477.38
580.35	490.38
580.561	491.38
580.772	499.38
580.982	473.38
581.193	478.38
581.403	503.38
581.614	498.38
581.825	496.38
582.035	491.38
582.246	484.38
582.456	468.38
582.667	469.38
582.877	494.38
583.087	477.38
583.298	474.38
583.508	476.38
583.719	473.38
583.929	494.38
584.139	470.38
584.35	449.38
584.56	474.38
584.77	457.38
584.981	461.38
585.191	483.38
585.401	468.38
585.611	456.38
585.821	471.38
586.032	457.38
586.242	455.38
586.452	470.38
586.662	468.38
586.872	467.38
587.082	475.38
587.292	464.38
587.502	472.38
587.713	483.38
587.923	468.38
588.133	458.38
588.343	460.38
588.553	429.38
588.762	460.38
588.972	459.38
589.182	480.38
589.392	477.38
589.602	448.38
589.812	484.38
590.022	440.38
590.232	459.38
590.441	477.38
590.651	471.38
590.861	459.38
591.071	448.38
591.281	470.38
591.49	461.38
591.7	468.38
591.91	463.38
592.119	478.38
592.329	467.38
592.539	471.38
592.748	490.38
592.958	494.38
593.167	508.38
593.377	515.38
593.587	524.38
593.796	487.38
594.006	513.38
594.215	492.38
594.424	499.38
594.634	471.38
594.843	508.38
595.053	478.38
595.262	459.38
595.472	468.38
595.681	448.38
595.89	457.38
596.1	446.38
596.309	422.38
596.518	423.38
596.727	437.38
596.937	427.38
597.146	426.38
597.355	446.38
597.564	424.38
597.774	409.38
597.983	413.38
598.192	402.38
598.401	386.38
598.61	397.38
598.819	414.38
599.028	386.38
599.237	405.38
599.446	382.38
599.655	384.38
599.864	383.38
600.073	369.38
600.282	358.38
600.491	388.38
600.7	397.38
600.909	382.38
601.118	362.38
601.327	383.38
601.536	372.38
601.745	373.38
601.953	369.38
602.162	371.38
602.371	372.38
602.58	381.38
602.789	361.38
602.997	362.38
603.206	364.38
603.415	363.38
603.623	339.38
603.832	363.38
604.041	370.38
604.249	352.38
604.458	350.38
604.666	352.38
604.875	347.38
605.084	319.38
605.292	353.38
605.501	366.38
605.709	368.38
605.918	354.38
606.126	363.38
606.334	355.38
606.543	345.38
606.751	344.38
606.96	345.38
607.168	356.38
607.376	351.38
607.585	366.38
607.793	350.38
608.001	356.38
608.21	354.38
608.418	318.38
608.626	349.38
608.834	334.38
609.043	355.38
609.251	357.38
609.459	341.38
609.667	342.38
609.875	333.38
610.083	343.38
610.291	319.38
610.499	331.38
610.707	326.38
610.916	337.38
611.124	322.38
611.332	331.38
611.54	328.38
611.748	355.38
611.955	335.38
612.163	312.38
612.371	337.38
612.579	327.38
612.787	331.38
612.995	309.38
613.203	327.38
613.411	320.38
613.618	312.38
613.826	324.38
614.034	347.38
614.242	321.38
614.449	311.38
614.657	340.38
614.865	329.38
615.072	342.38
615.28	331.38
615.488	312.38
615.695	309.38
615.903	329.38
616.111	324.38
616.318	324.38
616.526	307.38
616.733	320.38
616.941	304.38
617.148	300.38
617.356	304.38
617.563	328.38
617.771	306.38
617.978	329.38
618.185	334.38
618.393	299.38
618.6	302.38
618.807	307.38
619.015	308.38
619.222	291.38
619.429	292.38
619.637	286.38
619.844	301.38
620.051	296.38
620.258	292.38
620.466	288.38
620.673	313.38
620.88	294.38
621.087	300.38
621.294	299.38
621.501	285.38
621.708	297.38
621.915	304.38
622.122	296.38
622.329	302.38
622.536	297.38
622.743	276.38
622.95	281.38
623.157	285.38
623.364	281.38
623.571	283.38
623.778	296.38
623.985	297.38
624.192	268.38
624.399	293.38
624.606	293.38
624.812	285.38
625.019	292.38
625.226	285.38
625.433	282.38
625.639	267.38
625.846	279.38
626.053	291.38
626.259	262.38
626.466	275.38
626.673	286.38
626.879	263.38
627.086	265.38
627.293	279.38
627.499	282.38
627.706	271.38
627.912	259.38
628.119	269.38
628.325	269.38
628.532	259.38
628.738	268.38
628.945	278.38
629.151	279.38
629.357	275.38
629.564	268.38
629.77	258.38
629.976	258.38
630.183	228.38
630.389	235.38
630.595	241.38
630.802	254.38
631.008	256.38
631.214	242.38
631.42	259.38
631.627	253.38
631.833	218.38
632.039	262.38
632.245	244.38
632.451	240.38
632.657	255.38
632.863	244.38
633.069	230.38
633.275	241.38
633.481	235.38
633.688	239.38
633.893	260.38
634.099	245.38
634.305	241.38
634.511	237.38
634.717	254.38
634.923	247.38
635.129	236.38
635.335	227.38
635.541	232.38
635.747	240.38
635.952	245.38
636.158	220.38
636.364	234.38
636.57	230.38
636.775	230.38
636.981	228.38
637.187	223.38
637.392	209.38
637.598	231.38
637.804	228.38
638.009	212.38
638.215	241.38
638.421	225.38
638.626	211.38
638.832	219.38
639.037	231.38
639.243	218.38
639.448	222.38
639.654	226.38
639.859	209.38
640.065	220.38
640.27	216.38
640.475	213.38
640.681	217.38
640.886	218.38
641.091	206.38
641.297	218.38
641.502	209.38
641.707	204.38
641.913	206.38
642.118	229.38
642.323	212.38
642.528	220.38
642.733	207.38
642.939	217.38
643.144	214.38
643.349	214.38
643.554	212.38
643.759	214.38
643.964	201.38
644.169	205.38
644.374	202.38
644.579	213.38
644.784	200.38
644.989	224.38
645.194	197.38
645.399	216.38
645.604	212.38
645.809	214.38
646.014	205.38
646.219	202.38
646.423	206.38
646.628	192.38
646.833	204.38
647.038	218.38
647.243	203.38
647.447	213.38
647.652	222.38
647.857	210.38
648.062	218.38
648.266	205.38
648.471	212.38
648.676	218.38
648.88	211.38
649.085	200.38
649.289	202.38
649.494	197.38
649.698	196.38
649.903	190.38
650.107	214.38
650.312	197.38
650.516	204.38
650.721	195.38
650.925	210.38
651.13	192.38
651.334	177.38
651.539	188.38
651.743	161.38
651.947	184.38
652.152	184.38
652.356	165.38
652.56	180.38
652.764	167.38
652.969	182.38
653.173	164.38
653.377	159.38
653.581	154.38
653.785	168.38
653.99	177.38
654.194	156.38
654.398	157.38
654.602	152.38
654.806	154.38
655.01	159.38
655.214	163.38
655.418	128.38
655.622	136.38
655.826	146.38
656.03	143.38
656.234	148.38
656.438	148.38
656.642	150.38
656.846	130.38
657.049	150.38
657.253	132.38
657.457	131.38
657.661	121.38
657.865	119.38
658.068	117.38
658.272	115.38
658.476	114.38
658.68	112.38
658.883	117.38
659.087	115.38
659.291	112.38
659.494	119.38
659.698	114.38
659.901	117.38
660.105	109.38
660.309	112.38
660.512	85.38
660.716	100.38
660.919	100.38
661.123	96.38
661.326	95.38
661.53	89.38
661.733	92.38
661.936	84.38
662.14	101.38
662.343	92.38
662.546	83.38
662.75	93.38
662.953	92.38
663.156	86.38
663.36	89.38
663.563	90.38
663.766	93.38
663.969	90.38
664.173	86.38
664.376	73.38
664.579	84.38
664.782	76.38
664.985	86.38
665.188	72.38
665.391	95.38
665.594	99.38
665.797	85.38
666	79.38
666.203	82.38
666.406	86.38
666.609	76.38
666.812	90.38
667.015	99.38
667.218	82.38
667.421	98.38
667.624	87.38
667.827	86.38
668.03	80.38
668.232	75.38
668.435	78.38
668.638	89.38
668.841	85.38
669.043	93.38
669.246	85.38
669.449	82.38
669.651	81.38
669.854	75.38
670.057	82.38
670.259	86.38
670.462	72.38
670.665	82.38
670.867	87.38
671.07	86.38
671.272	85.38
671.475	68.38
671.677	72.38
671.88	74.38
672.082	80.38
672.284	87.38
672.487	76.38
672.689	78.38
672.892	84.38
