Data from Ni(NO3)2@0.25M.TitratingCurve.Agarose3%dH2O.NegLispCup.LampEnergy10.LIBS07252019_HRD10591_18-05-44-566.txt Node
Date: Thu Jul 25 18:05:44 EDT 2019
User: cochatt
Spectrometer: HR+D1059
Trigger mode: 1
Integration Time (sec): 1.000000E-1
Scans to average: 1
Electric dark correction enabled: true
Nonlinearity correction enabled: false
Boxcar width: 0
XAxis mode: Wavelengths
Number of Pixels in Spectrum: 2048
>>>>>Begin Spectral Data<<<<<
223.165	-17.25
223.4	-17.25
223.635	-17.25
223.869	-21.25
224.104	-24.25
224.338	-9.25
224.573	-14.25
224.808	-5.25
225.042	-16.25
225.277	-8.25
225.511	5.75
225.746	4.75
225.98	6.75
226.215	9.75
226.449	24.75
226.683	16.75
226.918	17.75
227.152	29.75
227.387	40.75
227.621	29.75
227.856	36.75
228.09	41.75
228.324	48.75
228.559	48.75
228.793	76.75
229.027	91.75
229.262	93.75
229.496	106.75
229.73	119.75
229.964	110.75
230.199	101.75
230.433	120.75
230.667	126.75
230.901	107.75
231.136	112.75
231.37	132.75
231.604	131.75
231.838	139.75
232.072	147.75
232.306	116.75
232.541	136.75
232.775	144.75
233.009	144.75
233.243	130.75
233.477	146.75
233.711	137.75
233.945	144.75
234.179	130.75
234.413	126.75
234.647	138.75
234.881	135.75
235.115	135.75
235.349	124.75
235.583	150.75
235.817	138.75
236.051	135.75
236.285	136.75
236.519	124.75
236.753	135.75
236.987	138.75
237.221	138.75
237.455	138.75
237.689	149.75
237.922	144.75
238.156	147.75
238.39	148.75
238.624	134.75
238.858	139.75
239.091	153.75
239.325	152.75
239.559	158.75
239.793	150.75
240.027	155.75
240.26	158.75
240.494	150.75
240.728	169.75
240.961	174.75
241.195	175.75
241.429	169.75
241.662	162.75
241.896	168.75
242.13	181.75
242.363	185.75
242.597	175.75
242.83	176.75
243.064	168.75
243.298	184.75
243.531	166.75
243.765	166.75
243.998	180.75
244.232	187.75
244.465	176.75
244.699	184.75
244.932	198.75
245.166	198.75
245.399	198.75
245.633	195.75
245.866	189.75
246.099	185.75
246.333	188.75
246.566	203.75
246.8	200.75
247.033	207.75
247.266	186.75
247.5	173.75
247.733	207.75
247.966	209.75
248.2	214.75
248.433	213.75
248.666	205.75
248.899	221.75
249.133	196.75
249.366	226.75
249.599	213.75
249.832	212.75
250.066	218.75
250.299	240.75
250.532	226.75
250.765	212.75
250.998	228.75
251.231	239.75
251.465	231.75
251.698	223.75
251.931	228.75
252.164	247.75
252.397	222.75
252.63	240.75
252.863	235.75
253.096	243.75
253.329	222.75
253.562	245.75
253.795	262.75
254.028	253.75
254.261	251.75
254.494	257.75
254.727	252.75
254.96	251.75
255.193	274.75
255.426	247.75
255.659	262.75
255.892	268.75
256.124	272.75
256.357	263.75
256.59	259.75
256.823	273.75
257.056	253.75
257.289	254.75
257.521	289.75
257.754	271.75
257.987	260.75
258.22	279.75
258.452	276.75
258.685	266.75
258.918	277.75
259.151	282.75
259.383	300.75
259.616	280.75
259.849	294.75
260.081	284.75
260.314	277.75
260.547	285.75
260.779	290.75
261.012	289.75
261.244	305.75
261.477	307.75
261.71	298.75
261.942	306.75
262.175	300.75
262.407	314.75
262.64	303.75
262.872	310.75
263.105	304.75
263.337	290.75
263.57	309.75
263.802	330.75
264.035	320.75
264.267	315.75
264.499	291.75
264.732	308.75
264.964	332.75
265.197	307.75
265.429	335.75
265.661	325.75
265.894	325.75
266.126	336.75
266.358	336.75
266.591	316.75
266.823	343.75
267.055	325.75
267.287	338.75
267.52	348.75
267.752	327.75
267.984	314.75
268.216	341.75
268.448	348.75
268.681	338.75
268.913	344.75
269.145	328.75
269.377	359.75
269.609	335.75
269.841	366.75
270.073	358.75
270.306	358.75
270.538	354.75
270.77	358.75
271.002	341.75
271.234	338.75
271.466	348.75
271.698	359.75
271.93	361.75
272.162	352.75
272.394	359.75
272.626	372.75
272.858	366.75
273.09	361.75
273.322	362.75
273.553	361.75
273.785	369.75
274.017	348.75
274.249	376.75
274.481	362.75
274.713	352.75
274.945	381.75
275.176	391.75
275.408	384.75
275.64	377.75
275.872	393.75
276.104	382.75
276.335	386.75
276.567	370.75
276.799	384.75
277.031	377.75
277.262	386.75
277.494	408.75
277.726	406.75
277.957	388.75
278.189	390.75
278.421	404.75
278.652	395.75
278.884	398.75
279.115	381.75
279.347	404.75
279.579	409.75
279.81	399.75
280.042	430.75
280.273	403.75
280.505	422.75
280.736	418.75
280.968	392.75
281.199	398.75
281.431	410.75
281.662	425.75
281.894	417.75
282.125	423.75
282.356	446.75
282.588	426.75
282.819	416.75
283.051	434.75
283.282	436.75
283.513	434.75
283.745	430.75
283.976	438.75
284.207	453.75
284.439	430.75
284.67	439.75
284.901	458.75
285.132	457.75
285.364	440.75
285.595	460.75
285.826	450.75
286.057	449.75
286.288	433.75
286.52	440.75
286.751	453.75
286.982	459.75
287.213	440.75
287.444	450.75
287.675	445.75
287.906	468.75
288.138	443.75
288.369	460.75
288.6	446.75
288.831	463.75
289.062	451.75
289.293	465.75
289.524	473.75
289.755	468.75
289.986	462.75
290.217	479.75
290.448	487.75
290.679	482.75
290.91	438.75
291.141	471.75
291.371	473.75
291.602	483.75
291.833	471.75
292.064	456.75
292.295	481.75
292.526	475.75
292.757	463.75
292.987	465.75
293.218	467.75
293.449	468.75
293.68	499.75
293.91	491.75
294.141	471.75
294.372	455.75
294.603	471.75
294.833	483.75
295.064	476.75
295.295	495.75
295.525	498.75
295.756	480.75
295.987	474.75
296.217	473.75
296.448	486.75
296.679	482.75
296.909	487.75
297.14	488.75
297.37	504.75
297.601	517.75
297.831	490.75
298.062	510.75
298.292	523.75
298.523	525.75
298.753	532.75
298.984	501.75
299.214	518.75
299.445	508.75
299.675	514.75
299.905	516.75
300.136	515.75
300.366	504.75
300.597	526.75
300.827	514.75
301.057	535.75
301.288	530.75
301.518	536.75
301.748	551.75
301.979	544.75
302.209	548.75
302.439	543.75
302.669	546.75
302.9	533.75
303.13	515.75
303.36	549.75
303.59	532.75
303.82	548.75
304.051	550.75
304.281	551.75
304.511	524.75
304.741	531.75
304.971	543.75
305.201	536.75
305.431	537.75
305.661	548.75
305.891	532.75
306.121	511.75
306.352	531.75
306.582	532.75
306.812	517.75
307.042	526.75
307.272	532.75
307.502	538.75
307.731	537.75
307.961	523.75
308.191	539.75
308.421	539.75
308.651	517.75
308.881	545.75
309.111	524.75
309.341	523.75
309.571	530.75
309.8	518.75
310.03	554.75
310.26	550.75
310.49	538.75
310.72	555.75
310.949	551.75
311.179	519.75
311.409	548.75
311.639	540.75
311.868	538.75
312.098	522.75
312.328	552.75
312.557	571.75
312.787	558.75
313.017	559.75
313.246	557.75
313.476	581.75
313.706	583.75
313.935	574.75
314.165	588.75
314.394	598.75
314.624	591.75
314.853	572.75
315.083	600.75
315.312	577.75
315.542	601.75
315.771	574.75
316.001	582.75
316.23	562.75
316.46	584.75
316.689	576.75
316.919	579.75
317.148	582.75
317.377	593.75
317.607	569.75
317.836	562.75
318.065	567.75
318.295	578.75
318.524	568.75
318.753	585.75
318.983	554.75
319.212	567.75
319.441	559.75
319.67	588.75
319.9	588.75
320.129	591.75
320.358	594.75
320.587	584.75
320.816	572.75
321.046	592.75
321.275	587.75
321.504	607.75
321.733	585.75
321.962	607.75
322.191	598.75
322.42	588.75
322.649	624.75
322.878	607.75
323.108	587.75
323.337	591.75
323.566	602.75
323.795	621.75
324.024	632.75
324.253	639.75
324.482	602.75
324.71	627.75
324.939	626.75
325.168	630.75
325.397	629.75
325.626	633.75
325.855	651.75
326.084	673.75
326.313	671.75
326.542	673.75
326.77	676.75
326.999	664.75
327.228	651.75
327.457	659.75
327.686	644.75
327.914	658.75
328.143	654.75
328.372	660.75
328.6	667.75
328.829	664.75
329.058	665.75
329.287	686.75
329.515	670.75
329.744	682.75
329.972	679.75
330.201	688.75
330.43	715.75
330.658	682.75
330.887	701.75
331.115	692.75
331.344	702.75
331.572	726.75
331.801	722.75
332.03	728.75
332.258	748.75
332.486	775.75
332.715	799.75
332.943	819.75
333.172	831.75
333.4	882.75
333.629	887.75
333.857	872.75
334.085	882.75
334.314	908.75
334.542	872.75
334.771	853.75
334.999	873.75
335.227	873.75
335.455	849.75
335.684	884.75
335.912	885.75
336.14	854.75
336.369	799.75
336.597	828.75
336.825	821.75
337.053	807.75
337.281	816.75
337.51	800.75
337.738	784.75
337.966	778.75
338.194	794.75
338.422	770.75
338.65	736.75
338.878	739.75
339.106	750.75
339.334	759.75
339.562	746.75
339.79	690.75
340.018	705.75
340.246	729.75
340.474	721.75
340.702	741.75
340.93	722.75
341.158	736.75
341.386	714.75
341.614	748.75
341.842	718.75
342.07	724.75
342.298	699.75
342.526	706.75
342.754	724.75
342.981	715.75
343.209	743.75
343.437	790.75
343.665	798.75
343.893	856.75
344.12	889.75
344.348	851.75
344.576	824.75
344.804	816.75
345.031	751.75
345.259	747.75
345.487	746.75
345.714	727.75
345.942	715.75
346.17	724.75
346.397	702.75
346.625	709.75
346.853	682.75
347.08	702.75
347.308	679.75
347.535	697.75
347.763	705.75
347.99	704.75
348.218	712.75
348.445	690.75
348.673	686.75
348.9	696.75
349.128	699.75
349.355	672.75
349.583	707.75
349.81	687.75
350.037	680.75
350.265	689.75
350.492	672.75
350.72	686.75
350.947	659.75
351.174	682.75
351.402	670.75
351.629	664.75
351.856	690.75
352.083	686.75
352.311	668.75
352.538	674.75
352.765	681.75
352.992	658.75
353.22	680.75
353.447	663.75
353.674	682.75
353.901	660.75
354.128	645.75
354.355	662.75
354.583	642.75
354.81	669.75
355.037	645.75
355.264	680.75
355.491	656.75
355.718	652.75
355.945	675.75
356.172	698.75
356.399	692.75
356.626	681.75
356.853	687.75
357.08	683.75
357.307	667.75
357.534	667.75
357.761	676.75
357.988	672.75
358.215	690.75
358.441	666.75
358.668	658.75
358.895	682.75
359.122	672.75
359.349	659.75
359.576	644.75
359.802	659.75
360.029	666.75
360.256	678.75
360.483	652.75
360.709	673.75
360.936	661.75
361.163	644.75
361.39	671.75
361.616	634.75
361.843	658.75
362.07	680.75
362.296	675.75
362.523	640.75
362.749	688.75
362.976	674.75
363.203	674.75
363.429	655.75
363.656	673.75
363.882	671.75
364.109	668.75
364.335	668.75
364.562	651.75
364.788	669.75
365.015	647.75
365.241	652.75
365.468	663.75
365.694	649.75
365.92	634.75
366.147	646.75
366.373	663.75
366.599	650.75
366.826	656.75
367.052	662.75
367.278	656.75
367.505	652.75
367.731	658.75
367.957	658.75
368.184	651.75
368.41	663.75
368.636	668.75
368.862	684.75
369.089	667.75
369.315	673.75
369.541	670.75
369.767	671.75
369.993	681.75
370.219	688.75
370.445	707.75
370.672	692.75
370.898	694.75
371.124	705.75
371.35	701.75
371.576	701.75
371.802	718.75
372.028	731.75
372.254	704.75
372.48	723.75
372.706	741.75
372.932	746.75
373.158	750.75
373.384	742.75
373.61	724.75
373.835	751.75
374.061	694.75
374.287	746.75
374.513	733.75
374.739	775.75
374.965	778.75
375.191	764.75
375.416	786.75
375.642	744.75
375.868	746.75
376.094	751.75
376.319	745.75
376.545	729.75
376.771	740.75
376.997	715.75
377.222	715.75
377.448	710.75
377.674	708.75
377.899	713.75
378.125	697.75
378.35	695.75
378.576	717.75
378.802	693.75
379.027	706.75
379.253	667.75
379.478	695.75
379.704	711.75
379.929	702.75
380.155	711.75
380.38	707.75
380.606	714.75
380.831	706.75
381.057	700.75
381.282	724.75
381.507	703.75
381.733	703.75
381.958	730.75
382.184	740.75
382.409	725.75
382.634	720.75
382.86	748.75
383.085	724.75
383.31	756.75
383.535	747.75
383.761	778.75
383.986	772.75
384.211	812.75
384.436	814.75
384.662	807.75
384.887	843.75
385.112	840.75
385.337	866.75
385.562	851.75
385.787	864.75
386.013	889.75
386.238	860.75
386.463	856.75
386.688	865.75
386.913	857.75
387.138	866.75
387.363	874.75
387.588	859.75
387.813	848.75
388.038	857.75
388.263	858.75
388.488	862.75
388.713	849.75
388.938	845.75
389.163	824.75
389.387	859.75
389.612	842.75
389.837	844.75
390.062	835.75
390.287	835.75
390.512	836.75
390.736	862.75
390.961	862.75
391.186	908.75
391.411	915.75
391.636	922.75
391.86	928.75
392.085	972.75
392.31	987.75
392.534	947.75
392.759	967.75
392.984	902.75
393.208	922.75
393.433	917.75
393.658	930.75
393.882	920.75
394.107	922.75
394.331	922.75
394.556	949.75
394.78	922.75
395.005	939.75
395.229	951.75
395.454	957.75
395.678	973.75
395.903	965.75
396.127	962.75
396.352	947.75
396.576	919.75
396.801	932.75
397.025	933.75
397.249	958.75
397.474	992.75
397.698	999.75
397.922	1003.75
398.147	992.75
398.371	1008.75
398.595	1071.75
398.82	1085.75
399.044	1193.75
399.268	1260.75
399.492	1447.75
399.717	1503.75
399.941	1573.75
400.165	1481.75
400.389	1338.75
400.613	1234.75
400.837	1201.75
401.062	1162.75
401.286	1122.75
401.51	1119.75
401.734	1106.75
401.958	1120.75
402.182	1110.75
402.406	1089.75
402.63	1140.75
402.854	1163.75
403.078	1160.75
403.302	1164.75
403.526	1218.75
403.75	1225.75
403.974	1220.75
404.198	1196.75
404.422	1238.75
404.645	1214.75
404.869	1195.75
405.093	1209.75
405.317	1195.75
405.541	1170.75
405.765	1206.75
405.988	1194.75
406.212	1208.75
406.436	1202.75
406.66	1262.75
406.883	1269.75
407.107	1326.75
407.331	1392.75
407.555	1422.75
407.778	1432.75
408.002	1374.75
408.226	1324.75
408.449	1306.75
408.673	1283.75
408.896	1279.75
409.12	1235.75
409.344	1256.75
409.567	1259.75
409.791	1228.75
410.014	1247.75
410.238	1219.75
410.461	1212.75
410.685	1201.75
410.908	1186.75
411.132	1151.75
411.355	1113.75
411.578	1134.75
411.802	1125.75
412.025	1153.75
412.249	1177.75
412.472	1185.75
412.695	1110.75
412.919	1127.75
413.142	1110.75
413.365	1139.75
413.589	1098.75
413.812	1088.75
414.035	1108.75
414.258	1102.75
414.482	1102.75
414.705	1120.75
414.928	1125.75
415.151	1108.75
415.374	1104.75
415.597	1106.75
415.821	1073.75
416.044	1064.75
416.267	1050.75
416.49	1077.75
416.713	1080.75
416.936	1075.75
417.159	1086.75
417.382	1051.75
417.605	1067.75
417.828	1076.75
418.051	1107.75
418.274	1095.75
418.497	1094.75
418.72	1109.75
418.943	1139.75
419.166	1177.75
419.389	1248.75
419.611	1266.75
419.834	1184.75
420.057	1146.75
420.28	1127.75
420.503	1099.75
420.726	1083.75
420.948	1094.75
421.171	1097.75
421.394	1105.75
421.617	1093.75
421.839	1100.75
422.062	1110.75
422.285	1095.75
422.507	1111.75
422.73	1123.75
422.953	1112.75
423.175	1129.75
423.398	1136.75
423.621	1104.75
423.843	1121.75
424.066	1170.75
424.288	1122.75
424.511	1127.75
424.733	1118.75
424.956	1122.75
425.178	1068.75
425.401	1077.75
425.623	1102.75
425.846	1069.75
426.068	1080.75
426.291	1048.75
426.513	1041.75
426.735	1041.75
426.958	1043.75
427.18	1010.75
427.402	1010.75
427.625	994.75
427.847	984.75
428.069	1000.75
428.292	987.75
428.514	1001.75
428.736	986.75
428.958	992.75
429.181	942.75
429.403	967.75
429.625	964.75
429.847	956.75
430.069	978.75
430.292	972.75
430.514	967.75
430.736	935.75
430.958	971.75
431.18	954.75
431.402	978.75
431.624	966.75
431.846	1001.75
432.068	980.75
432.29	987.75
432.512	993.75
432.734	1004.75
432.956	977.75
433.178	985.75
433.4	1009.75
433.622	996.75
433.844	1022.75
434.066	1001.75
434.287	1012.75
434.509	1050.75
434.731	1058.75
434.953	1085.75
435.175	1087.75
435.397	1061.75
435.618	1050.75
435.84	1045.75
436.062	1025.75
436.284	1015.75
436.505	983.75
436.727	993.75
436.949	988.75
437.17	964.75
437.392	941.75
437.614	963.75
437.835	950.75
438.057	964.75
438.278	952.75
438.5	973.75
438.721	955.75
438.943	976.75
439.165	968.75
439.386	979.75
439.608	968.75
439.829	981.75
440.05	982.75
440.272	995.75
440.493	1022.75
440.715	1035.75
440.936	1022.75
441.158	1050.75
441.379	1062.75
441.6	1093.75
441.822	1119.75
442.043	1088.75
442.264	1091.75
442.486	1100.75
442.707	1078.75
442.928	1082.75
443.149	1117.75
443.371	1078.75
443.592	1123.75
443.813	1118.75
444.034	1102.75
444.255	1142.75
444.476	1223.75
444.698	1254.75
444.919	1272.75
445.14	1380.75
445.361	1271.75
445.582	1191.75
445.803	1123.75
446.024	1046.75
446.245	1038.75
446.466	1099.75
446.687	1034.75
446.908	989.75
447.129	987.75
447.35	989.75
447.571	981.75
447.792	937.75
448.013	909.75
448.234	938.75
448.455	946.75
448.675	914.75
448.896	883.75
449.117	888.75
449.338	901.75
449.559	903.75
449.779	908.75
450	903.75
450.221	922.75
450.442	930.75
450.662	914.75
450.883	908.75
451.104	916.75
451.324	937.75
451.545	934.75
451.766	936.75
451.986	916.75
452.207	925.75
452.428	914.75
452.648	875.75
452.869	878.75
453.089	865.75
453.31	881.75
453.53	854.75
453.751	855.75
453.971	860.75
454.192	862.75
454.412	867.75
454.633	867.75
454.853	859.75
455.073	846.75
455.294	874.75
455.514	848.75
455.734	872.75
455.955	862.75
456.175	832.75
456.395	826.75
456.616	853.75
456.836	855.75
457.056	845.75
457.276	816.75
457.497	852.75
457.717	864.75
457.937	882.75
458.157	860.75
458.377	866.75
458.598	897.75
458.818	923.75
459.038	938.75
459.258	952.75
459.478	1018.75
459.698	1022.75
459.918	1048.75
460.138	1084.75
460.358	1126.75
460.578	1144.75
460.798	1184.75
461.018	1183.75
461.238	1143.75
461.458	1181.75
461.678	1128.75
461.898	1206.75
462.118	1193.75
462.338	1216.75
462.558	1286.75
462.777	1329.75
462.997	1392.75
463.217	1489.75
463.437	1508.75
463.657	1444.75
463.876	1393.75
464.096	1354.75
464.316	1376.75
464.536	1355.75
464.755	1311.75
464.975	1285.75
465.195	1214.75
465.414	1158.75
465.634	1086.75
465.854	1052.75
466.073	1039.75
466.293	974.75
466.512	988.75
466.732	948.75
466.951	936.75
467.171	991.75
467.391	959.75
467.61	956.75
467.829	969.75
468.049	913.75
468.268	896.75
468.488	887.75
468.707	922.75
468.927	885.75
469.146	918.75
469.365	935.75
469.585	888.75
469.804	947.75
470.023	972.75
470.243	971.75
470.462	998.75
470.681	973.75
470.901	974.75
471.12	958.75
471.339	963.75
471.558	949.75
471.777	932.75
471.997	951.75
472.216	887.75
472.435	898.75
472.654	875.75
472.873	875.75
473.092	894.75
473.311	904.75
473.53	870.75
473.749	870.75
473.968	883.75
474.187	872.75
474.406	870.75
474.625	885.75
474.844	884.75
475.063	871.75
475.282	895.75
475.501	894.75
475.72	888.75
475.939	883.75
476.158	920.75
476.377	921.75
476.596	916.75
476.814	918.75
477.033	934.75
477.252	959.75
477.471	996.75
477.69	1001.75
477.908	1016.75
478.127	1059.75
478.346	1073.75
478.564	1085.75
478.783	1068.75
479.002	1080.75
479.22	1110.75
479.439	1099.75
479.658	1112.75
479.876	1099.75
480.095	1145.75
480.313	1126.75
480.532	1146.75
480.751	1126.75
480.969	1115.75
481.188	1071.75
481.406	1040.75
481.624	1043.75
481.843	1013.75
482.061	1015.75
482.28	972.75
482.498	1012.75
482.717	985.75
482.935	989.75
483.153	995.75
483.372	991.75
483.59	1031.75
483.808	1011.75
484.027	961.75
484.245	1026.75
484.463	1004.75
484.681	997.75
484.9	1033.75
485.118	1011.75
485.336	1024.75
485.554	1049.75
485.772	1035.75
485.99	1042.75
486.209	1048.75
486.427	1044.75
486.645	1030.75
486.863	1049.75
487.081	1058.75
487.299	1055.75
487.517	1060.75
487.735	1030.75
487.953	1070.75
488.171	1073.75
488.389	1052.75
488.607	1033.75
488.825	1029.75
489.043	989.75
489.261	1010.75
489.479	1037.75
489.696	1002.75
489.914	1055.75
490.132	1055.75
490.35	1048.75
490.568	1025.75
490.786	1100.75
491.003	1073.75
491.221	1062.75
491.439	1081.75
491.657	1065.75
491.874	1091.75
492.092	1092.75
492.31	1092.75
492.527	1081.75
492.745	1104.75
492.963	1099.75
493.18	1106.75
493.398	1122.75
493.615	1087.75
493.833	1118.75
494.05	1128.75
494.268	1124.75
494.485	1115.75
494.703	1140.75
494.92	1104.75
495.138	1125.75
495.355	1123.75
495.573	1140.75
495.79	1131.75
496.008	1182.75
496.225	1158.75
496.442	1172.75
496.66	1203.75
496.877	1233.75
497.094	1257.75
497.312	1252.75
497.529	1264.75
497.746	1309.75
497.963	1334.75
498.181	1434.75
498.398	1505.75
498.615	1617.75
498.832	1699.75
499.049	1827.75
499.267	1972.75
499.484	2133.75
499.701	2344.75
499.918	2584.75
500.135	2843.75
500.352	3153.75
500.569	3230.75
500.786	3221.75
501.003	2996.75
501.22	2756.75
501.437	2497.75
501.654	2258.75
501.871	2074.75
502.088	1899.75
502.305	1798.75
502.522	1682.75
502.739	1638.75
502.956	1525.75
503.172	1496.75
503.389	1391.75
503.606	1355.75
503.823	1343.75
504.04	1326.75
504.256	1323.75
504.473	1343.75
504.69	1339.75
504.907	1338.75
505.123	1267.75
505.34	1170.75
505.557	1125.75
505.773	1124.75
505.99	1085.75
506.207	1051.75
506.423	1034.75
506.64	1053.75
506.856	1009.75
507.073	998.75
507.289	1000.75
507.506	998.75
507.722	985.75
507.939	990.75
508.155	970.75
508.372	943.75
508.588	946.75
508.805	950.75
509.021	947.75
509.238	944.75
509.454	923.75
509.67	915.75
509.887	945.75
510.103	905.75
510.319	892.75
510.536	891.75
510.752	903.75
510.968	914.75
511.184	904.75
511.401	897.75
511.617	890.75
511.833	889.75
512.049	874.75
512.265	879.75
512.481	894.75
512.698	887.75
512.914	909.75
513.13	916.75
513.346	885.75
513.562	898.75
513.778	890.75
513.994	907.75
514.21	923.75
514.426	880.75
514.642	920.75
514.858	912.75
515.074	983.75
515.29	943.75
515.506	940.75
515.721	982.75
515.937	993.75
516.153	1018.75
516.369	1026.75
516.585	1050.75
516.801	1100.75
517.016	1101.75
517.232	1166.75
517.448	1235.75
517.664	1270.75
517.879	1234.75
518.095	1220.75
518.311	1210.75
518.527	1191.75
518.742	1148.75
518.958	1072.75
519.173	1046.75
519.389	1038.75
519.605	995.75
519.82	952.75
520.036	950.75
520.251	957.75
520.467	947.75
520.682	903.75
520.898	918.75
521.113	898.75
521.329	894.75
521.544	863.75
521.76	872.75
521.975	879.75
522.19	862.75
522.406	859.75
522.621	850.75
522.836	825.75
523.052	817.75
523.267	821.75
523.482	828.75
523.698	843.75
523.913	808.75
524.128	824.75
524.343	835.75
524.559	835.75
524.774	844.75
524.989	836.75
525.204	807.75
525.419	822.75
525.634	809.75
525.849	806.75
526.064	792.75
526.28	830.75
526.495	798.75
526.71	811.75
526.925	798.75
527.14	800.75
527.355	789.75
527.57	802.75
527.785	810.75
527.999	811.75
528.214	810.75
528.429	825.75
528.644	802.75
528.859	811.75
529.074	814.75
529.289	839.75
529.503	821.75
529.718	809.75
529.933	798.75
530.148	797.75
530.363	790.75
530.577	815.75
530.792	780.75
531.007	768.75
531.221	811.75
531.436	801.75
531.651	827.75
531.865	793.75
532.08	805.75
532.295	810.75
532.509	806.75
532.724	833.75
532.938	818.75
533.153	801.75
533.367	793.75
533.582	809.75
533.796	803.75
534.011	807.75
534.225	791.75
534.44	791.75
534.654	794.75
534.868	806.75
535.083	798.75
535.297	783.75
535.511	779.75
535.726	816.75
535.94	786.75
536.154	754.75
536.369	763.75
536.583	770.75
536.797	751.75
537.011	750.75
537.225	762.75
537.44	716.75
537.654	726.75
537.868	735.75
538.082	716.75
538.296	722.75
538.51	735.75
538.724	744.75
538.938	739.75
539.153	726.75
539.367	717.75
539.581	720.75
539.795	753.75
540.009	691.75
540.222	731.75
540.436	705.75
540.65	716.75
540.864	738.75
541.078	729.75
541.292	720.75
541.506	727.75
541.72	722.75
541.934	738.75
542.147	736.75
542.361	739.75
542.575	698.75
542.789	718.75
543.002	716.75
543.216	700.75
543.43	715.75
543.644	735.75
543.857	724.75
544.071	721.75
544.285	722.75
544.498	734.75
544.712	737.75
544.925	767.75
545.139	756.75
545.352	736.75
545.566	752.75
545.779	768.75
545.993	757.75
546.206	791.75
546.42	716.75
546.633	742.75
546.847	741.75
547.06	751.75
547.274	763.75
547.487	734.75
547.7	768.75
547.914	758.75
548.127	740.75
548.34	766.75
548.554	800.75
548.767	772.75
548.98	767.75
549.193	766.75
549.407	741.75
549.62	768.75
549.833	772.75
550.046	762.75
550.259	750.75
550.473	738.75
550.686	748.75
550.899	761.75
551.112	758.75
551.325	734.75
551.538	742.75
551.751	738.75
551.964	768.75
552.177	736.75
552.39	785.75
552.603	792.75
552.816	781.75
553.029	792.75
553.242	797.75
553.455	826.75
553.667	791.75
553.88	821.75
554.093	786.75
554.306	786.75
554.519	747.75
554.732	757.75
554.944	748.75
555.157	705.75
555.37	714.75
555.583	710.75
555.795	691.75
556.008	697.75
556.221	683.75
556.433	692.75
556.646	680.75
556.859	646.75
557.071	638.75
557.284	657.75
557.496	632.75
557.709	647.75
557.921	619.75
558.134	640.75
558.346	624.75
558.559	644.75
558.771	602.75
558.984	607.75
559.196	636.75
559.409	608.75
559.621	602.75
559.833	611.75
560.046	603.75
560.258	616.75
560.47	593.75
560.683	588.75
560.895	630.75
561.107	617.75
561.32	592.75
561.532	606.75
561.744	615.75
561.956	625.75
562.168	624.75
562.381	631.75
562.593	627.75
562.805	627.75
563.017	600.75
563.229	612.75
563.441	630.75
563.653	612.75
563.865	642.75
564.077	646.75
564.289	652.75
564.501	636.75
564.713	659.75
564.925	693.75
565.137	700.75
565.349	710.75
565.561	715.75
565.773	731.75
565.985	786.75
566.197	802.75
566.408	861.75
566.62	898.75
566.832	966.75
567.044	1001.75
567.255	1018.75
567.467	1036.75
567.679	1071.75
567.891	1106.75
568.102	1103.75
568.314	1057.75
568.526	966.75
568.737	915.75
568.949	845.75
569.161	818.75
569.372	752.75
569.584	708.75
569.795	688.75
570.007	698.75
570.218	658.75
570.43	653.75
570.641	639.75
570.853	638.75
571.064	644.75
571.276	630.75
571.487	618.75
571.698	606.75
571.91	572.75
572.121	580.75
572.333	577.75
572.544	555.75
572.755	530.75
572.966	545.75
573.178	524.75
573.389	494.75
573.6	514.75
573.811	516.75
574.023	507.75
574.234	530.75
574.445	520.75
574.656	514.75
574.867	505.75
575.078	514.75
575.289	520.75
575.501	476.75
575.712	488.75
575.923	475.75
576.134	470.75
576.345	477.75
576.556	495.75
576.767	485.75
576.978	469.75
577.188	485.75
577.399	481.75
577.61	462.75
577.821	451.75
578.032	453.75
578.243	460.75
578.454	430.75
578.665	455.75
578.875	448.75
579.086	435.75
579.297	453.75
579.508	462.75
579.718	440.75
579.929	432.75
580.14	430.75
580.35	443.75
580.561	437.75
580.772	444.75
580.982	422.75
581.193	446.75
581.403	430.75
581.614	409.75
581.825	417.75
582.035	430.75
582.246	418.75
582.456	399.75
582.667	420.75
582.877	416.75
583.087	406.75
583.298	435.75
583.508	396.75
583.719	426.75
583.929	405.75
584.139	408.75
584.35	444.75
584.56	406.75
584.77	420.75
584.981	410.75
585.191	393.75
585.401	408.75
585.611	406.75
585.821	386.75
586.032	396.75
586.242	420.75
586.452	410.75
586.662	417.75
586.872	411.75
587.082	405.75
587.292	407.75
587.502	396.75
587.713	405.75
587.923	404.75
588.133	423.75
588.343	412.75
588.553	402.75
588.762	406.75
588.972	406.75
589.182	403.75
589.392	424.75
589.602	411.75
589.812	415.75
590.022	422.75
590.232	415.75
590.441	400.75
590.651	413.75
590.861	404.75
591.071	426.75
591.281	410.75
591.49	428.75
591.7	422.75
591.91	446.75
592.119	432.75
592.329	457.75
592.539	477.75
592.748	479.75
592.958	477.75
593.167	491.75
593.377	520.75
593.587	536.75
593.796	490.75
594.006	521.75
594.215	537.75
594.424	483.75
594.634	494.75
594.843	460.75
595.053	460.75
595.262	474.75
595.472	455.75
595.681	422.75
595.89	428.75
596.1	395.75
596.309	391.75
596.518	386.75
596.727	395.75
596.937	387.75
597.146	370.75
597.355	410.75
597.564	383.75
597.774	363.75
597.983	371.75
598.192	350.75
598.401	350.75
598.61	367.75
598.819	344.75
599.028	348.75
599.237	353.75
599.446	358.75
599.655	338.75
599.864	340.75
600.073	325.75
600.282	342.75
600.491	347.75
600.7	324.75
600.909	324.75
601.118	359.75
601.327	338.75
601.536	324.75
601.745	332.75
601.953	343.75
602.162	328.75
602.371	341.75
602.58	336.75
602.789	327.75
602.997	325.75
603.206	332.75
603.415	337.75
603.623	326.75
603.832	326.75
604.041	319.75
604.249	317.75
604.458	308.75
604.666	298.75
604.875	321.75
605.084	326.75
605.292	311.75
605.501	307.75
605.709	308.75
605.918	314.75
606.126	308.75
606.334	319.75
606.543	303.75
606.751	309.75
606.96	322.75
607.168	313.75
607.376	322.75
607.585	300.75
607.793	299.75
608.001	311.75
608.21	290.75
608.418	280.75
608.626	311.75
608.834	290.75
609.043	289.75
609.251	298.75
609.459	302.75
609.667	300.75
609.875	300.75
610.083	312.75
610.291	302.75
610.499	294.75
610.707	294.75
610.916	295.75
611.124	289.75
611.332	282.75
611.54	314.75
611.748	306.75
611.955	293.75
612.163	310.75
612.371	278.75
612.579	287.75
612.787	306.75
612.995	284.75
613.203	310.75
613.411	297.75
613.618	306.75
613.826	290.75
614.034	294.75
614.242	283.75
614.449	289.75
614.657	288.75
614.865	297.75
615.072	300.75
615.28	279.75
615.488	277.75
615.695	296.75
615.903	279.75
616.111	297.75
616.318	280.75
616.526	292.75
616.733	294.75
616.941	284.75
617.148	303.75
617.356	298.75
617.563	280.75
617.771	289.75
617.978	282.75
618.185	289.75
618.393	291.75
618.6	279.75
618.807	290.75
619.015	283.75
619.222	278.75
619.429	270.75
619.637	294.75
619.844	268.75
620.051	275.75
620.258	246.75
620.466	265.75
620.673	262.75
620.88	270.75
621.087	267.75
621.294	279.75
621.501	269.75
621.708	271.75
621.915	276.75
622.122	279.75
622.329	273.75
622.536	274.75
622.743	268.75
622.95	271.75
623.157	256.75
623.364	253.75
623.571	262.75
623.778	271.75
623.985	267.75
624.192	255.75
624.399	244.75
624.606	259.75
624.812	247.75
625.019	263.75
625.226	256.75
625.433	268.75
625.639	269.75
625.846	242.75
626.053	232.75
626.259	260.75
626.466	262.75
626.673	255.75
626.879	258.75
627.086	231.75
627.293	244.75
627.499	259.75
627.706	223.75
627.912	258.75
628.119	243.75
628.325	246.75
628.532	237.75
628.738	248.75
628.945	254.75
629.151	230.75
629.357	238.75
629.564	251.75
629.77	234.75
629.976	233.75
630.183	215.75
630.389	216.75
630.595	250.75
630.802	240.75
631.008	233.75
631.214	224.75
631.42	229.75
631.627	219.75
631.833	235.75
632.039	224.75
632.245	217.75
632.451	222.75
632.657	218.75
632.863	206.75
633.069	225.75
633.275	232.75
633.481	210.75
633.688	215.75
633.893	219.75
634.099	216.75
634.305	219.75
634.511	221.75
634.717	221.75
634.923	208.75
635.129	195.75
635.335	212.75
635.541	194.75
635.747	210.75
635.952	213.75
636.158	206.75
636.364	218.75
636.57	179.75
636.775	196.75
636.981	202.75
637.187	219.75
637.392	208.75
637.598	213.75
637.804	204.75
638.009	207.75
638.215	206.75
638.421	205.75
638.626	200.75
638.832	199.75
639.037	203.75
639.243	195.75
639.448	212.75
639.654	205.75
639.859	197.75
640.065	196.75
640.27	207.75
640.475	193.75
640.681	196.75
640.886	201.75
641.091	202.75
641.297	198.75
641.502	182.75
641.707	203.75
641.913	203.75
642.118	193.75
642.323	201.75
642.528	190.75
642.733	176.75
642.939	196.75
643.144	181.75
643.349	192.75
643.554	192.75
643.759	190.75
643.964	197.75
644.169	194.75
644.374	182.75
644.579	178.75
644.784	177.75
644.989	212.75
645.194	181.75
645.399	198.75
645.604	190.75
645.809	191.75
646.014	174.75
646.219	196.75
646.423	191.75
646.628	201.75
646.833	182.75
647.038	203.75
647.243	192.75
647.447	185.75
647.652	174.75
647.857	201.75
648.062	206.75
648.266	187.75
648.471	170.75
648.676	190.75
648.88	186.75
649.085	185.75
649.289	185.75
649.494	167.75
649.698	177.75
649.903	193.75
650.107	186.75
650.312	166.75
650.516	174.75
650.721	187.75
650.925	179.75
651.13	173.75
651.334	186.75
651.539	181.75
651.743	152.75
651.947	162.75
652.152	157.75
652.356	154.75
652.56	151.75
652.764	164.75
652.969	166.75
653.173	171.75
653.377	149.75
653.581	132.75
653.785	145.75
653.99	152.75
654.194	134.75
654.398	140.75
654.602	159.75
654.806	144.75
655.01	140.75
655.214	138.75
655.418	130.75
655.622	133.75
655.826	124.75
656.03	146.75
656.234	130.75
656.438	140.75
656.642	131.75
656.846	136.75
657.049	142.75
657.253	135.75
657.457	112.75
657.661	117.75
657.865	123.75
658.068	120.75
658.272	115.75
658.476	118.75
658.68	101.75
658.883	96.75
659.087	112.75
659.291	103.75
659.494	116.75
659.698	103.75
659.901	92.75
660.105	112.75
660.309	95.75
660.512	97.75
660.716	96.75
660.919	100.75
661.123	98.75
661.326	90.75
661.53	97.75
661.733	87.75
661.936	88.75
662.14	96.75
662.343	71.75
662.546	74.75
662.75	66.75
662.953	86.75
663.156	98.75
663.36	82.75
663.563	98.75
663.766	82.75
663.969	83.75
664.173	76.75
664.376	65.75
664.579	78.75
664.782	86.75
664.985	89.75
665.188	91.75
665.391	83.75
665.594	91.75
665.797	87.75
666	80.75
666.203	82.75
666.406	88.75
666.609	84.75
666.812	75.75
667.015	87.75
667.218	81.75
667.421	80.75
667.624	84.75
667.827	75.75
668.03	69.75
668.232	90.75
668.435	82.75
668.638	82.75
668.841	85.75
669.043	86.75
669.246	71.75
669.449	83.75
669.651	97.75
669.854	89.75
670.057	71.75
670.259	80.75
670.462	87.75
670.665	85.75
670.867	85.75
671.07	101.75
671.272	72.75
671.475	94.75
671.677	83.75
671.88	75.75
672.082	80.75
672.284	71.75
672.487	72.75
672.689	86.75
672.892	85.75
