Data from Ni(NO3)2@0.125M.TitratingCurve.Agarose3%dH2O.NegLispCup.LampEnergy10.LIBS07252019_HRD10591_18-09-40-568.txt Node
Date: Thu Jul 25 18:09:40 EDT 2019
User: cochatt
Spectrometer: HR+D1059
Trigger mode: 1
Integration Time (sec): 1.000000E-1
Scans to average: 1
Electric dark correction enabled: true
Nonlinearity correction enabled: false
Boxcar width: 0
XAxis mode: Wavelengths
Number of Pixels in Spectrum: 2048
>>>>>Begin Spectral Data<<<<<
223.165	-20.5
223.4	-20.5
223.635	-20.5
223.869	-5.5
224.104	-18.5
224.338	-13.5
224.573	-21.5
224.808	-18.5
225.042	0.5
225.277	4.5
225.511	-4.5
225.746	-5.5
225.98	8.5
226.215	4.5
226.449	26.5
226.683	2.5
226.918	25.5
227.152	35.5
227.387	22.5
227.621	39.5
227.856	51.5
228.09	46.5
228.324	46.5
228.559	41.5
228.793	61.5
229.027	89.5
229.262	91.5
229.496	97.5
229.73	77.5
229.964	108.5
230.199	97.5
230.433	105.5
230.667	92.5
230.901	83.5
231.136	116.5
231.37	120.5
231.604	129.5
231.838	122.5
232.072	102.5
232.306	118.5
232.541	131.5
232.775	133.5
233.009	133.5
233.243	116.5
233.477	120.5
233.711	123.5
233.945	104.5
234.179	135.5
234.413	105.5
234.647	121.5
234.881	119.5
235.115	136.5
235.349	97.5
235.583	107.5
235.817	124.5
236.051	125.5
236.285	120.5
236.519	113.5
236.753	125.5
236.987	117.5
237.221	122.5
237.455	121.5
237.689	130.5
237.922	137.5
238.156	129.5
238.39	148.5
238.624	147.5
238.858	129.5
239.091	128.5
239.325	129.5
239.559	122.5
239.793	136.5
240.027	116.5
240.26	133.5
240.494	131.5
240.728	136.5
240.961	153.5
241.195	148.5
241.429	141.5
241.662	149.5
241.896	138.5
242.13	141.5
242.363	149.5
242.597	148.5
242.83	134.5
243.064	154.5
243.298	134.5
243.531	135.5
243.765	148.5
243.998	162.5
244.232	155.5
244.465	145.5
244.699	151.5
244.932	162.5
245.166	168.5
245.399	143.5
245.633	162.5
245.866	167.5
246.099	167.5
246.333	145.5
246.566	154.5
246.8	169.5
247.033	177.5
247.266	156.5
247.5	154.5
247.733	170.5
247.966	172.5
248.2	160.5
248.433	180.5
248.666	180.5
248.899	174.5
249.133	168.5
249.366	184.5
249.599	182.5
249.832	180.5
250.066	200.5
250.299	166.5
250.532	186.5
250.765	185.5
250.998	185.5
251.231	177.5
251.465	190.5
251.698	194.5
251.931	186.5
252.164	215.5
252.397	198.5
252.63	200.5
252.863	197.5
253.096	200.5
253.329	194.5
253.562	179.5
253.795	186.5
254.028	206.5
254.261	198.5
254.494	198.5
254.727	220.5
254.96	184.5
255.193	207.5
255.426	194.5
255.659	196.5
255.892	222.5
256.124	217.5
256.357	206.5
256.59	218.5
256.823	219.5
257.056	217.5
257.289	227.5
257.521	233.5
257.754	226.5
257.987	224.5
258.22	232.5
258.452	208.5
258.685	221.5
258.918	219.5
259.151	243.5
259.383	223.5
259.616	222.5
259.849	227.5
260.081	230.5
260.314	229.5
260.547	231.5
260.779	234.5
261.012	225.5
261.244	231.5
261.477	231.5
261.71	230.5
261.942	221.5
262.175	225.5
262.407	241.5
262.64	227.5
262.872	256.5
263.105	233.5
263.337	247.5
263.57	227.5
263.802	252.5
264.035	245.5
264.267	245.5
264.499	238.5
264.732	250.5
264.964	244.5
265.197	258.5
265.429	233.5
265.661	259.5
265.894	258.5
266.126	260.5
266.358	251.5
266.591	243.5
266.823	256.5
267.055	244.5
267.287	261.5
267.52	263.5
267.752	252.5
267.984	252.5
268.216	257.5
268.448	275.5
268.681	260.5
268.913	272.5
269.145	281.5
269.377	258.5
269.609	250.5
269.841	268.5
270.073	264.5
270.306	266.5
270.538	272.5
270.77	282.5
271.002	262.5
271.234	267.5
271.466	282.5
271.698	281.5
271.93	275.5
272.162	282.5
272.394	285.5
272.626	252.5
272.858	281.5
273.09	280.5
273.322	276.5
273.553	273.5
273.785	275.5
274.017	276.5
274.249	296.5
274.481	277.5
274.713	285.5
274.945	282.5
275.176	268.5
275.408	283.5
275.64	282.5
275.872	291.5
276.104	289.5
276.335	277.5
276.567	290.5
276.799	291.5
277.031	306.5
277.262	291.5
277.494	282.5
277.726	306.5
277.957	296.5
278.189	285.5
278.421	302.5
278.652	296.5
278.884	298.5
279.115	293.5
279.347	302.5
279.579	308.5
279.81	312.5
280.042	295.5
280.273	282.5
280.505	281.5
280.736	300.5
280.968	324.5
281.199	301.5
281.431	324.5
281.662	319.5
281.894	320.5
282.125	325.5
282.356	328.5
282.588	331.5
282.819	327.5
283.051	320.5
283.282	309.5
283.513	336.5
283.745	343.5
283.976	317.5
284.207	326.5
284.439	344.5
284.67	323.5
284.901	326.5
285.132	333.5
285.364	326.5
285.595	343.5
285.826	347.5
286.057	339.5
286.288	333.5
286.52	329.5
286.751	343.5
286.982	347.5
287.213	344.5
287.444	375.5
287.675	347.5
287.906	361.5
288.138	349.5
288.369	353.5
288.6	356.5
288.831	355.5
289.062	360.5
289.293	350.5
289.524	341.5
289.755	356.5
289.986	372.5
290.217	353.5
290.448	349.5
290.679	362.5
290.91	380.5
291.141	368.5
291.371	357.5
291.602	368.5
291.833	368.5
292.064	373.5
292.295	381.5
292.526	328.5
292.757	353.5
292.987	359.5
293.218	362.5
293.449	349.5
293.68	364.5
293.91	360.5
294.141	355.5
294.372	340.5
294.603	359.5
294.833	352.5
295.064	378.5
295.295	374.5
295.525	370.5
295.756	365.5
295.987	364.5
296.217	375.5
296.448	375.5
296.679	377.5
296.909	369.5
297.14	397.5
297.37	396.5
297.601	390.5
297.831	376.5
298.062	402.5
298.292	390.5
298.523	429.5
298.753	404.5
298.984	405.5
299.214	402.5
299.445	385.5
299.675	385.5
299.905	400.5
300.136	422.5
300.366	424.5
300.597	408.5
300.827	405.5
301.057	402.5
301.288	422.5
301.518	399.5
301.748	415.5
301.979	419.5
302.209	405.5
302.439	440.5
302.669	412.5
302.9	400.5
303.13	392.5
303.36	397.5
303.59	388.5
303.82	398.5
304.051	415.5
304.281	382.5
304.511	416.5
304.741	410.5
304.971	386.5
305.201	397.5
305.431	399.5
305.661	394.5
305.891	401.5
306.121	392.5
306.352	420.5
306.582	385.5
306.812	381.5
307.042	395.5
307.272	391.5
307.502	381.5
307.731	394.5
307.961	391.5
308.191	395.5
308.421	402.5
308.651	377.5
308.881	381.5
309.111	382.5
309.341	386.5
309.571	381.5
309.8	408.5
310.03	408.5
310.26	393.5
310.49	386.5
310.72	380.5
310.949	379.5
311.179	377.5
311.409	396.5
311.639	396.5
311.868	401.5
312.098	398.5
312.328	404.5
312.557	427.5
312.787	401.5
313.017	408.5
313.246	417.5
313.476	436.5
313.706	424.5
313.935	428.5
314.165	412.5
314.394	402.5
314.624	418.5
314.853	408.5
315.083	418.5
315.312	417.5
315.542	412.5
315.771	407.5
316.001	425.5
316.23	417.5
316.46	428.5
316.689	426.5
316.919	425.5
317.148	409.5
317.377	415.5
317.607	409.5
317.836	410.5
318.065	407.5
318.295	409.5
318.524	402.5
318.753	419.5
318.983	412.5
319.212	418.5
319.441	435.5
319.67	410.5
319.9	402.5
320.129	418.5
320.358	420.5
320.587	409.5
320.816	414.5
321.046	404.5
321.275	415.5
321.504	408.5
321.733	409.5
321.962	429.5
322.191	412.5
322.42	412.5
322.649	435.5
322.878	394.5
323.108	410.5
323.337	429.5
323.566	443.5
323.795	424.5
324.024	460.5
324.253	434.5
324.482	427.5
324.71	429.5
324.939	426.5
325.168	432.5
325.397	434.5
325.626	426.5
325.855	470.5
326.084	448.5
326.313	475.5
326.542	476.5
326.77	452.5
326.999	480.5
327.228	451.5
327.457	450.5
327.686	486.5
327.914	472.5
328.143	462.5
328.372	466.5
328.6	460.5
328.829	472.5
329.058	477.5
329.287	468.5
329.515	465.5
329.744	470.5
329.972	484.5
330.201	458.5
330.43	465.5
330.658	476.5
330.887	472.5
331.115	480.5
331.344	460.5
331.572	496.5
331.801	522.5
332.03	509.5
332.258	532.5
332.486	554.5
332.715	574.5
332.943	598.5
333.172	613.5
333.4	643.5
333.629	667.5
333.857	638.5
334.085	627.5
334.314	633.5
334.542	588.5
334.771	598.5
334.999	579.5
335.227	575.5
335.455	585.5
335.684	579.5
335.912	581.5
336.14	556.5
336.369	552.5
336.597	580.5
336.825	560.5
337.053	578.5
337.281	556.5
337.51	527.5
337.738	510.5
337.966	525.5
338.194	506.5
338.422	503.5
338.65	499.5
338.878	522.5
339.106	535.5
339.334	497.5
339.562	510.5
339.79	490.5
340.018	500.5
340.246	475.5
340.474	485.5
340.702	497.5
340.93	492.5
341.158	486.5
341.386	496.5
341.614	512.5
341.842	479.5
342.07	490.5
342.298	496.5
342.526	486.5
342.754	497.5
342.981	492.5
343.209	489.5
343.437	522.5
343.665	548.5
343.893	610.5
344.12	619.5
344.348	604.5
344.576	551.5
344.804	540.5
345.031	521.5
345.259	529.5
345.487	498.5
345.714	501.5
345.942	484.5
346.17	512.5
346.397	499.5
346.625	486.5
346.853	460.5
347.08	488.5
347.308	482.5
347.535	495.5
347.763	494.5
347.99	489.5
348.218	492.5
348.445	497.5
348.673	469.5
348.9	493.5
349.128	483.5
349.355	459.5
349.583	475.5
349.81	482.5
350.037	487.5
350.265	460.5
350.492	472.5
350.72	453.5
350.947	476.5
351.174	464.5
351.402	471.5
351.629	470.5
351.856	474.5
352.083	478.5
352.311	461.5
352.538	472.5
352.765	470.5
352.992	467.5
353.22	445.5
353.447	454.5
353.674	449.5
353.901	465.5
354.128	475.5
354.355	452.5
354.583	473.5
354.81	461.5
355.037	467.5
355.264	461.5
355.491	466.5
355.718	461.5
355.945	458.5
356.172	479.5
356.399	475.5
356.626	461.5
356.853	481.5
357.08	462.5
357.307	466.5
357.534	458.5
357.761	484.5
357.988	467.5
358.215	473.5
358.441	453.5
358.668	450.5
358.895	449.5
359.122	475.5
359.349	469.5
359.576	446.5
359.802	469.5
360.029	449.5
360.256	451.5
360.483	448.5
360.709	480.5
360.936	467.5
361.163	478.5
361.39	448.5
361.616	441.5
361.843	470.5
362.07	459.5
362.296	470.5
362.523	448.5
362.749	454.5
362.976	461.5
363.203	476.5
363.429	437.5
363.656	468.5
363.882	468.5
364.109	466.5
364.335	457.5
364.562	449.5
364.788	460.5
365.015	472.5
365.241	448.5
365.468	453.5
365.694	448.5
365.92	459.5
366.147	458.5
366.373	458.5
366.599	474.5
366.826	438.5
367.052	461.5
367.278	462.5
367.505	477.5
367.731	468.5
367.957	453.5
368.184	463.5
368.41	477.5
368.636	454.5
368.862	449.5
369.089	473.5
369.315	459.5
369.541	466.5
369.767	466.5
369.993	473.5
370.219	487.5
370.445	495.5
370.672	488.5
370.898	485.5
371.124	472.5
371.35	520.5
371.576	505.5
371.802	509.5
372.028	481.5
372.254	486.5
372.48	499.5
372.706	520.5
372.932	534.5
373.158	518.5
373.384	502.5
373.61	500.5
373.835	489.5
374.061	508.5
374.287	526.5
374.513	529.5
374.739	524.5
374.965	553.5
375.191	566.5
375.416	556.5
375.642	539.5
375.868	539.5
376.094	514.5
376.319	522.5
376.545	501.5
376.771	499.5
376.997	481.5
377.222	528.5
377.448	506.5
377.674	507.5
377.899	500.5
378.125	480.5
378.35	491.5
378.576	496.5
378.802	458.5
379.027	487.5
379.253	497.5
379.478	468.5
379.704	455.5
379.929	485.5
380.155	486.5
380.38	462.5
380.606	496.5
380.831	480.5
381.057	503.5
381.282	492.5
381.507	512.5
381.733	522.5
381.958	525.5
382.184	523.5
382.409	520.5
382.634	517.5
382.86	512.5
383.085	519.5
383.31	528.5
383.535	534.5
383.761	557.5
383.986	546.5
384.211	580.5
384.436	585.5
384.662	606.5
384.887	609.5
385.112	597.5
385.337	610.5
385.562	581.5
385.787	588.5
386.013	598.5
386.238	605.5
386.463	595.5
386.688	577.5
386.913	582.5
387.138	576.5
387.363	597.5
387.588	578.5
387.813	594.5
388.038	562.5
388.263	593.5
388.488	589.5
388.713	574.5
388.938	548.5
389.163	590.5
389.387	550.5
389.612	558.5
389.837	564.5
390.062	544.5
390.287	564.5
390.512	562.5
390.736	591.5
390.961	626.5
391.186	596.5
391.411	621.5
391.636	658.5
391.86	658.5
392.085	689.5
392.31	664.5
392.534	646.5
392.759	624.5
392.984	628.5
393.208	636.5
393.433	605.5
393.658	617.5
393.882	636.5
394.107	636.5
394.331	640.5
394.556	633.5
394.78	633.5
395.005	633.5
395.229	617.5
395.454	642.5
395.678	671.5
395.903	684.5
396.127	676.5
396.352	637.5
396.576	621.5
396.801	628.5
397.025	620.5
397.249	645.5
397.474	638.5
397.698	672.5
397.922	655.5
398.147	635.5
398.371	665.5
398.595	667.5
398.82	737.5
399.044	765.5
399.268	840.5
399.492	999.5
399.717	1133.5
399.941	1141.5
400.165	983.5
400.389	877.5
400.613	808.5
400.837	728.5
401.062	732.5
401.286	744.5
401.51	749.5
401.734	727.5
401.958	739.5
402.182	726.5
402.406	734.5
402.63	777.5
402.854	787.5
403.078	813.5
403.302	841.5
403.526	844.5
403.75	896.5
403.974	886.5
404.198	879.5
404.422	881.5
404.645	847.5
404.869	862.5
405.093	861.5
405.317	850.5
405.541	822.5
405.765	803.5
405.988	796.5
406.212	806.5
406.436	822.5
406.66	818.5
406.883	853.5
407.107	908.5
407.331	937.5
407.555	973.5
407.778	942.5
408.002	917.5
408.226	926.5
408.449	896.5
408.673	854.5
408.896	854.5
409.12	845.5
409.344	845.5
409.567	839.5
409.791	885.5
410.014	859.5
410.238	865.5
410.461	835.5
410.685	837.5
410.908	821.5
411.132	801.5
411.355	786.5
411.578	781.5
411.802	784.5
412.025	782.5
412.249	766.5
412.472	768.5
412.695	744.5
412.919	737.5
413.142	733.5
413.365	728.5
413.589	764.5
413.812	745.5
414.035	722.5
414.258	717.5
414.482	758.5
414.705	772.5
414.928	747.5
415.151	781.5
415.374	749.5
415.597	741.5
415.821	723.5
416.044	745.5
416.267	718.5
416.49	698.5
416.713	744.5
416.936	724.5
417.159	750.5
417.382	731.5
417.605	733.5
417.828	746.5
418.051	740.5
418.274	716.5
418.497	746.5
418.72	744.5
418.943	769.5
419.166	797.5
419.389	870.5
419.611	844.5
419.834	809.5
420.057	788.5
420.28	762.5
420.503	733.5
420.726	733.5
420.948	748.5
421.171	748.5
421.394	755.5
421.617	717.5
421.839	741.5
422.062	745.5
422.285	740.5
422.507	728.5
422.73	749.5
422.953	788.5
423.175	811.5
423.398	792.5
423.621	791.5
423.843	809.5
424.066	816.5
424.288	816.5
424.511	808.5
424.733	782.5
424.956	760.5
425.178	768.5
425.401	744.5
425.623	758.5
425.846	706.5
426.068	704.5
426.291	695.5
426.513	730.5
426.735	730.5
426.958	716.5
427.18	698.5
427.402	681.5
427.625	694.5
427.847	695.5
428.069	680.5
428.292	683.5
428.514	659.5
428.736	678.5
428.958	672.5
429.181	647.5
429.403	662.5
429.625	645.5
429.847	659.5
430.069	648.5
430.292	644.5
430.514	608.5
430.736	640.5
430.958	649.5
431.18	669.5
431.402	658.5
431.624	674.5
431.846	643.5
432.068	671.5
432.29	688.5
432.512	660.5
432.734	688.5
432.956	678.5
433.178	679.5
433.4	674.5
433.622	672.5
433.844	698.5
434.066	681.5
434.287	714.5
434.509	737.5
434.731	741.5
434.953	778.5
435.175	778.5
435.397	776.5
435.618	705.5
435.84	679.5
436.062	688.5
436.284	678.5
436.505	653.5
436.727	681.5
436.949	683.5
437.17	688.5
437.392	664.5
437.614	669.5
437.835	660.5
438.057	634.5
438.278	662.5
438.5	686.5
438.721	643.5
438.943	670.5
439.165	644.5
439.386	680.5
439.608	714.5
439.829	719.5
440.05	686.5
440.272	688.5
440.493	680.5
440.715	679.5
440.936	708.5
441.158	742.5
441.379	754.5
441.6	802.5
441.822	814.5
442.043	774.5
442.264	756.5
442.486	749.5
442.707	756.5
442.928	747.5
443.149	777.5
443.371	753.5
443.592	781.5
443.813	781.5
444.034	768.5
444.255	806.5
444.476	843.5
444.698	896.5
444.919	934.5
445.14	966.5
445.361	881.5
445.582	795.5
445.803	752.5
446.024	732.5
446.245	725.5
446.466	729.5
446.687	695.5
446.908	716.5
447.129	668.5
447.35	654.5
447.571	646.5
447.792	682.5
448.013	644.5
448.234	653.5
448.455	615.5
448.675	656.5
448.896	645.5
449.117	627.5
449.338	604.5
449.559	636.5
449.779	639.5
450	640.5
450.221	655.5
450.442	640.5
450.662	660.5
450.883	682.5
451.104	660.5
451.324	661.5
451.545	664.5
451.766	646.5
451.986	619.5
452.207	636.5
452.428	637.5
452.648	645.5
452.869	633.5
453.089	620.5
453.31	627.5
453.53	602.5
453.751	632.5
453.971	609.5
454.192	608.5
454.412	600.5
454.633	596.5
454.853	600.5
455.073	613.5
455.294	595.5
455.514	581.5
455.734	580.5
455.955	586.5
456.175	567.5
456.395	587.5
456.616	586.5
456.836	576.5
457.056	581.5
457.276	600.5
457.497	594.5
457.717	566.5
457.937	579.5
458.157	605.5
458.377	609.5
458.598	612.5
458.818	632.5
459.038	636.5
459.258	672.5
459.478	693.5
459.698	698.5
459.918	742.5
460.138	767.5
460.358	816.5
460.578	809.5
460.798	824.5
461.018	824.5
461.238	800.5
461.458	784.5
461.678	790.5
461.898	789.5
462.118	828.5
462.338	874.5
462.558	891.5
462.777	909.5
462.997	999.5
463.217	1125.5
463.437	1118.5
463.657	1003.5
463.876	976.5
464.096	985.5
464.316	976.5
464.536	940.5
464.755	922.5
464.975	912.5
465.195	851.5
465.414	796.5
465.634	752.5
465.854	724.5
466.073	705.5
466.293	708.5
466.512	683.5
466.732	693.5
466.951	655.5
467.171	652.5
467.391	683.5
467.61	658.5
467.829	668.5
468.049	658.5
468.268	634.5
468.488	630.5
468.707	630.5
468.927	635.5
469.146	637.5
469.365	637.5
469.585	643.5
469.804	677.5
470.023	674.5
470.243	688.5
470.462	684.5
470.681	725.5
470.901	674.5
471.12	688.5
471.339	656.5
471.558	639.5
471.777	661.5
471.997	636.5
472.216	627.5
472.435	615.5
472.654	598.5
472.873	596.5
473.092	604.5
473.311	613.5
473.53	612.5
473.749	614.5
473.968	619.5
474.187	608.5
474.406	605.5
474.625	610.5
474.844	620.5
475.063	593.5
475.282	625.5
475.501	626.5
475.72	622.5
475.939	638.5
476.158	638.5
476.377	620.5
476.596	624.5
476.814	631.5
477.033	637.5
477.252	640.5
477.471	660.5
477.69	690.5
477.908	706.5
478.127	751.5
478.346	740.5
478.564	752.5
478.783	723.5
479.002	777.5
479.22	768.5
479.439	781.5
479.658	771.5
479.876	787.5
480.095	787.5
480.313	807.5
480.532	834.5
480.751	833.5
480.969	766.5
481.188	747.5
481.406	730.5
481.624	733.5
481.843	711.5
482.061	681.5
482.28	715.5
482.498	694.5
482.717	690.5
482.935	695.5
483.153	730.5
483.372	691.5
483.59	710.5
483.808	708.5
484.027	723.5
484.245	717.5
484.463	700.5
484.681	699.5
484.9	726.5
485.118	735.5
485.336	760.5
485.554	761.5
485.772	761.5
485.99	730.5
486.209	735.5
486.427	739.5
486.645	756.5
486.863	772.5
487.081	738.5
487.299	731.5
487.517	747.5
487.735	741.5
487.953	752.5
488.171	761.5
488.389	734.5
488.607	734.5
488.825	730.5
489.043	731.5
489.261	745.5
489.479	713.5
489.696	724.5
489.914	747.5
490.132	743.5
490.35	745.5
490.568	726.5
490.786	732.5
491.003	738.5
491.221	746.5
491.439	772.5
491.657	749.5
491.874	749.5
492.092	765.5
492.31	791.5
492.527	748.5
492.745	778.5
492.963	764.5
493.18	771.5
493.398	760.5
493.615	784.5
493.833	763.5
494.05	788.5
494.268	791.5
494.485	778.5
494.703	792.5
494.92	775.5
495.138	777.5
495.355	776.5
495.573	809.5
495.79	783.5
496.008	804.5
496.225	792.5
496.442	797.5
496.66	841.5
496.877	821.5
497.094	829.5
497.312	846.5
497.529	870.5
497.746	896.5
497.963	900.5
498.181	925.5
498.398	952.5
498.615	1035.5
498.832	1107.5
499.049	1178.5
499.267	1275.5
499.484	1435.5
499.701	1551.5
499.918	1762.5
500.135	2017.5
500.352	2352.5
500.569	2477.5
500.786	2431.5
501.003	2278.5
501.22	1940.5
501.437	1712.5
501.654	1480.5
501.871	1322.5
502.088	1257.5
502.305	1164.5
502.522	1088.5
502.739	1098.5
502.956	1002.5
503.172	947.5
503.389	901.5
503.606	898.5
503.823	874.5
504.04	885.5
504.256	895.5
504.473	900.5
504.69	949.5
504.907	896.5
505.123	854.5
505.34	824.5
505.557	787.5
505.773	770.5
505.99	729.5
506.207	752.5
506.423	727.5
506.64	699.5
506.856	710.5
507.073	707.5
507.289	676.5
507.506	685.5
507.722	679.5
507.939	664.5
508.155	693.5
508.372	647.5
508.588	668.5
508.805	661.5
509.021	644.5
509.238	674.5
509.454	621.5
509.67	639.5
509.887	637.5
510.103	646.5
510.319	643.5
510.536	635.5
510.752	645.5
510.968	635.5
511.184	636.5
511.401	651.5
511.617	636.5
511.833	614.5
512.049	617.5
512.265	637.5
512.481	638.5
512.698	628.5
512.914	633.5
513.13	642.5
513.346	624.5
513.562	658.5
513.778	637.5
513.994	652.5
514.21	639.5
514.426	640.5
514.642	651.5
514.858	663.5
515.074	671.5
515.29	680.5
515.506	672.5
515.721	663.5
515.937	650.5
516.153	669.5
516.369	690.5
516.585	724.5
516.801	750.5
517.016	769.5
517.232	827.5
517.448	866.5
517.664	873.5
517.879	900.5
518.095	917.5
518.311	891.5
518.527	844.5
518.742	830.5
518.958	763.5
519.173	733.5
519.389	713.5
519.605	693.5
519.82	690.5
520.036	685.5
520.251	662.5
520.467	658.5
520.682	619.5
520.898	644.5
521.113	620.5
521.329	634.5
521.544	642.5
521.76	614.5
521.975	623.5
522.19	614.5
522.406	614.5
522.621	620.5
522.836	601.5
523.052	613.5
523.267	603.5
523.482	601.5
523.698	606.5
523.913	603.5
524.128	610.5
524.343	616.5
524.559	629.5
524.774	573.5
524.989	589.5
525.204	617.5
525.419	608.5
525.634	603.5
525.849	592.5
526.064	584.5
526.28	574.5
526.495	568.5
526.71	573.5
526.925	584.5
527.14	591.5
527.355	576.5
527.57	581.5
527.785	592.5
527.999	587.5
528.214	604.5
528.429	594.5
528.644	555.5
528.859	602.5
529.074	607.5
529.289	598.5
529.503	597.5
529.718	609.5
529.933	591.5
530.148	589.5
530.363	588.5
530.577	587.5
530.792	568.5
531.007	599.5
531.221	609.5
531.436	584.5
531.651	617.5
531.865	585.5
532.08	597.5
532.295	620.5
532.509	562.5
532.724	575.5
532.938	585.5
533.153	594.5
533.367	595.5
533.582	585.5
533.796	590.5
534.011	583.5
534.225	575.5
534.44	579.5
534.654	574.5
534.868	569.5
535.083	569.5
535.297	565.5
535.511	571.5
535.726	574.5
535.94	567.5
536.154	548.5
536.369	549.5
536.583	548.5
536.797	554.5
537.011	554.5
537.225	525.5
537.44	566.5
537.654	550.5
537.868	542.5
538.082	518.5
538.296	506.5
538.51	550.5
538.724	544.5
538.938	549.5
539.153	542.5
539.367	537.5
539.581	537.5
539.795	537.5
540.009	534.5
540.222	532.5
540.436	535.5
540.65	535.5
540.864	529.5
541.078	534.5
541.292	556.5
541.506	549.5
541.72	551.5
541.934	538.5
542.147	547.5
542.361	538.5
542.575	522.5
542.789	522.5
543.002	541.5
543.216	545.5
543.43	514.5
543.644	515.5
543.857	533.5
544.071	515.5
544.285	534.5
544.498	535.5
544.712	526.5
544.925	544.5
545.139	556.5
545.352	533.5
545.566	550.5
545.779	551.5
545.993	564.5
546.206	573.5
546.42	545.5
546.633	547.5
546.847	544.5
547.06	560.5
547.274	553.5
547.487	515.5
547.7	550.5
547.914	546.5
548.127	564.5
548.34	544.5
548.554	538.5
548.767	555.5
548.98	560.5
549.193	540.5
549.407	541.5
549.62	566.5
549.833	586.5
550.046	571.5
550.259	555.5
550.473	535.5
550.686	540.5
550.899	536.5
551.112	546.5
551.325	518.5
551.538	530.5
551.751	508.5
551.964	522.5
552.177	536.5
552.39	548.5
552.603	537.5
552.816	576.5
553.029	577.5
553.242	608.5
553.455	618.5
553.667	593.5
553.88	585.5
554.093	574.5
554.306	552.5
554.519	546.5
554.732	552.5
554.944	520.5
555.157	537.5
555.37	539.5
555.583	497.5
555.795	497.5
556.008	513.5
556.221	502.5
556.433	469.5
556.646	489.5
556.859	472.5
557.071	472.5
557.284	487.5
557.496	478.5
557.709	478.5
557.921	477.5
558.134	456.5
558.346	487.5
558.559	485.5
558.771	467.5
558.984	465.5
559.196	470.5
559.409	475.5
559.621	452.5
559.833	457.5
560.046	474.5
560.258	457.5
560.47	438.5
560.683	450.5
560.895	443.5
561.107	440.5
561.32	434.5
561.532	461.5
561.744	449.5
561.956	464.5
562.168	451.5
562.381	460.5
562.593	450.5
562.805	442.5
563.017	455.5
563.229	444.5
563.441	445.5
563.653	467.5
563.865	462.5
564.077	480.5
564.289	447.5
564.501	468.5
564.713	477.5
564.925	483.5
565.137	488.5
565.349	498.5
565.561	526.5
565.773	523.5
565.985	537.5
566.197	572.5
566.408	616.5
566.62	666.5
566.832	719.5
567.044	714.5
567.255	734.5
567.467	752.5
567.679	796.5
567.891	872.5
568.102	881.5
568.314	850.5
568.526	736.5
568.737	684.5
568.949	628.5
569.161	562.5
569.372	522.5
569.584	519.5
569.795	493.5
570.007	465.5
570.218	451.5
570.43	461.5
570.641	454.5
570.853	477.5
571.064	474.5
571.276	485.5
571.487	477.5
571.698	441.5
571.91	418.5
572.121	419.5
572.333	396.5
572.544	406.5
572.755	386.5
572.966	399.5
573.178	383.5
573.389	415.5
573.6	378.5
573.811	396.5
574.023	386.5
574.234	395.5
574.445	375.5
574.656	376.5
574.867	380.5
575.078	377.5
575.289	380.5
575.501	371.5
575.712	345.5
575.923	347.5
576.134	365.5
576.345	369.5
576.556	358.5
576.767	340.5
576.978	374.5
577.188	348.5
577.399	346.5
577.61	338.5
577.821	347.5
578.032	357.5
578.243	337.5
578.454	345.5
578.665	344.5
578.875	345.5
579.086	329.5
579.297	336.5
579.508	340.5
579.718	339.5
579.929	345.5
580.14	334.5
580.35	336.5
580.561	331.5
580.772	325.5
580.982	332.5
581.193	334.5
581.403	309.5
581.614	334.5
581.825	317.5
582.035	328.5
582.246	322.5
582.456	336.5
582.667	330.5
582.877	333.5
583.087	318.5
583.298	321.5
583.508	314.5
583.719	323.5
583.929	322.5
584.139	339.5
584.35	307.5
584.56	304.5
584.77	316.5
584.981	304.5
585.191	291.5
585.401	323.5
585.611	331.5
585.821	316.5
586.032	309.5
586.242	322.5
586.452	318.5
586.662	312.5
586.872	300.5
587.082	306.5
587.292	312.5
587.502	310.5
587.713	301.5
587.923	295.5
588.133	309.5
588.343	316.5
588.553	297.5
588.762	306.5
588.972	321.5
589.182	341.5
589.392	302.5
589.602	323.5
589.812	306.5
590.022	304.5
590.232	308.5
590.441	287.5
590.651	313.5
590.861	302.5
591.071	319.5
591.281	332.5
591.49	328.5
591.7	322.5
591.91	304.5
592.119	342.5
592.329	334.5
592.539	350.5
592.748	356.5
592.958	373.5
593.167	380.5
593.377	376.5
593.587	398.5
593.796	371.5
594.006	398.5
594.215	410.5
594.424	384.5
594.634	414.5
594.843	356.5
595.053	344.5
595.262	340.5
595.472	325.5
595.681	324.5
595.89	329.5
596.1	324.5
596.309	316.5
596.518	304.5
596.727	289.5
596.937	302.5
597.146	301.5
597.355	288.5
597.564	278.5
597.774	294.5
597.983	267.5
598.192	264.5
598.401	273.5
598.61	276.5
598.819	269.5
599.028	275.5
599.237	273.5
599.446	289.5
599.655	271.5
599.864	270.5
600.073	278.5
600.282	270.5
600.491	267.5
600.7	251.5
600.909	249.5
601.118	247.5
601.327	262.5
601.536	258.5
601.745	265.5
601.953	268.5
602.162	247.5
602.371	272.5
602.58	262.5
602.789	277.5
602.997	261.5
603.206	270.5
603.415	252.5
603.623	260.5
603.832	269.5
604.041	265.5
604.249	244.5
604.458	258.5
604.666	242.5
604.875	268.5
605.084	253.5
605.292	249.5
605.501	252.5
605.709	256.5
605.918	246.5
606.126	243.5
606.334	254.5
606.543	261.5
606.751	236.5
606.96	248.5
607.168	255.5
607.376	254.5
607.585	269.5
607.793	232.5
608.001	256.5
608.21	228.5
608.418	259.5
608.626	228.5
608.834	236.5
609.043	238.5
609.251	245.5
609.459	234.5
609.667	238.5
609.875	249.5
610.083	246.5
610.291	233.5
610.499	241.5
610.707	233.5
610.916	231.5
611.124	246.5
611.332	258.5
611.54	243.5
611.748	241.5
611.955	230.5
612.163	218.5
612.371	227.5
612.579	237.5
612.787	244.5
612.995	231.5
613.203	237.5
613.411	223.5
613.618	226.5
613.826	231.5
614.034	223.5
614.242	250.5
614.449	221.5
614.657	246.5
614.865	228.5
615.072	231.5
615.28	214.5
615.488	242.5
615.695	226.5
615.903	237.5
616.111	240.5
616.318	244.5
616.526	234.5
616.733	235.5
616.941	240.5
617.148	236.5
617.356	238.5
617.563	241.5
617.771	240.5
617.978	234.5
618.185	243.5
618.393	233.5
618.6	235.5
618.807	233.5
619.015	227.5
619.222	222.5
619.429	222.5
619.637	251.5
619.844	234.5
620.051	237.5
620.258	221.5
620.466	234.5
620.673	228.5
620.88	215.5
621.087	213.5
621.294	210.5
621.501	205.5
621.708	214.5
621.915	222.5
622.122	220.5
622.329	218.5
622.536	220.5
622.743	213.5
622.95	219.5
623.157	214.5
623.364	196.5
623.571	220.5
623.778	200.5
623.985	213.5
624.192	206.5
624.399	209.5
624.606	209.5
624.812	197.5
625.019	204.5
625.226	194.5
625.433	203.5
625.639	196.5
625.846	201.5
626.053	203.5
626.259	188.5
626.466	192.5
626.673	200.5
626.879	179.5
627.086	180.5
627.293	193.5
627.499	176.5
627.706	197.5
627.912	193.5
628.119	205.5
628.325	190.5
628.532	192.5
628.738	191.5
628.945	184.5
629.151	195.5
629.357	196.5
629.564	194.5
629.77	199.5
629.976	190.5
630.183	177.5
630.389	188.5
630.595	183.5
630.802	173.5
631.008	188.5
631.214	190.5
631.42	176.5
631.627	192.5
631.833	189.5
632.039	175.5
632.245	164.5
632.451	167.5
632.657	187.5
632.863	173.5
633.069	194.5
633.275	179.5
633.481	174.5
633.688	187.5
633.893	176.5
634.099	180.5
634.305	186.5
634.511	173.5
634.717	162.5
634.923	184.5
635.129	176.5
635.335	171.5
635.541	183.5
635.747	180.5
635.952	173.5
636.158	176.5
636.364	169.5
636.57	185.5
636.775	163.5
636.981	188.5
637.187	182.5
637.392	164.5
637.598	170.5
637.804	163.5
638.009	182.5
638.215	174.5
638.421	171.5
638.626	176.5
638.832	174.5
639.037	172.5
639.243	173.5
639.448	174.5
639.654	171.5
639.859	171.5
640.065	159.5
640.27	174.5
640.475	158.5
640.681	176.5
640.886	158.5
641.091	162.5
641.297	171.5
641.502	156.5
641.707	166.5
641.913	150.5
642.118	153.5
642.323	157.5
642.528	161.5
642.733	162.5
642.939	145.5
643.144	156.5
643.349	152.5
643.554	163.5
643.759	155.5
643.964	164.5
644.169	145.5
644.374	161.5
644.579	156.5
644.784	155.5
644.989	165.5
645.194	150.5
645.399	168.5
645.604	158.5
645.809	154.5
646.014	157.5
646.219	161.5
646.423	152.5
646.628	160.5
646.833	168.5
647.038	144.5
647.243	165.5
647.447	162.5
647.652	181.5
647.857	155.5
648.062	181.5
648.266	169.5
648.471	170.5
648.676	175.5
648.88	178.5
649.085	167.5
649.289	158.5
649.494	149.5
649.698	155.5
649.903	154.5
650.107	158.5
650.312	155.5
650.516	149.5
650.721	164.5
650.925	151.5
651.13	148.5
651.334	149.5
651.539	152.5
651.743	146.5
651.947	132.5
652.152	138.5
652.356	142.5
652.56	142.5
652.764	140.5
652.969	151.5
653.173	126.5
653.377	146.5
653.581	135.5
653.785	137.5
653.99	122.5
654.194	137.5
654.398	134.5
654.602	128.5
654.806	114.5
655.01	132.5
655.214	134.5
655.418	120.5
655.622	114.5
655.826	116.5
656.03	133.5
656.234	124.5
656.438	121.5
656.642	117.5
656.846	127.5
657.049	116.5
657.253	105.5
657.457	120.5
657.661	107.5
657.865	117.5
658.068	112.5
658.272	98.5
658.476	101.5
658.68	99.5
658.883	111.5
659.087	91.5
659.291	90.5
659.494	98.5
659.698	100.5
659.901	110.5
660.105	88.5
660.309	88.5
660.512	85.5
660.716	88.5
660.919	89.5
661.123	101.5
661.326	101.5
661.53	92.5
661.733	82.5
661.936	89.5
662.14	89.5
662.343	88.5
662.546	80.5
662.75	82.5
662.953	83.5
663.156	70.5
663.36	84.5
663.563	80.5
663.766	70.5
663.969	79.5
664.173	87.5
664.376	93.5
664.579	82.5
664.782	83.5
664.985	84.5
665.188	79.5
665.391	90.5
665.594	91.5
665.797	78.5
666	77.5
666.203	86.5
666.406	83.5
666.609	83.5
666.812	68.5
667.015	92.5
667.218	76.5
667.421	79.5
667.624	70.5
667.827	91.5
668.03	63.5
668.232	92.5
668.435	75.5
668.638	74.5
668.841	85.5
669.043	83.5
669.246	86.5
669.449	73.5
669.651	69.5
669.854	74.5
670.057	74.5
670.259	82.5
670.462	84.5
670.665	70.5
670.867	75.5
671.07	89.5
671.272	82.5
671.475	81.5
671.677	77.5
671.88	79.5
672.082	94.5
672.284	84.5
672.487	80.5
672.689	91.5
672.892	71.5
