Data from Ni(NO3)2@0.25M.TitratingCurve.Agarose3%dH2O.NegLispCup.LampEnergy10.LIBS07252019_HRD10591_18-02-35-565.txt Node
Date: Thu Jul 25 18:02:35 EDT 2019
User: cochatt
Spectrometer: HR+D1059
Trigger mode: 1
Integration Time (sec): 1.000000E-1
Scans to average: 1
Electric dark correction enabled: true
Nonlinearity correction enabled: false
Boxcar width: 0
XAxis mode: Wavelengths
Number of Pixels in Spectrum: 2048
>>>>>Begin Spectral Data<<<<<
223.165	-17.94
223.4	-17.94
223.635	-17.94
223.869	-16.94
224.104	-39.94
224.338	-8.94
224.573	-23.94
224.808	-9.94
225.042	-6.94
225.277	4.06
225.511	11.06
225.746	20.06
225.98	-6.94
226.215	12.06
226.449	6.06
226.683	19.06
226.918	33.06
227.152	26.06
227.387	42.06
227.621	44.06
227.856	52.06
228.09	56.06
228.324	50.06
228.559	81.06
228.793	63.06
229.027	118.06
229.262	116.06
229.496	109.06
229.73	125.06
229.964	139.06
230.199	153.06
230.433	152.06
230.667	152.06
230.901	151.06
231.136	140.06
231.37	162.06
231.604	138.06
231.838	159.06
232.072	152.06
232.306	146.06
232.541	153.06
232.775	149.06
233.009	165.06
233.243	145.06
233.477	162.06
233.711	145.06
233.945	152.06
234.179	173.06
234.413	147.06
234.647	164.06
234.881	181.06
235.115	158.06
235.349	157.06
235.583	157.06
235.817	145.06
236.051	157.06
236.285	147.06
236.519	167.06
236.753	165.06
236.987	155.06
237.221	168.06
237.455	150.06
237.689	154.06
237.922	187.06
238.156	169.06
238.39	168.06
238.624	168.06
238.858	170.06
239.091	160.06
239.325	179.06
239.559	185.06
239.793	190.06
240.027	201.06
240.26	178.06
240.494	174.06
240.728	177.06
240.961	188.06
241.195	190.06
241.429	204.06
241.662	169.06
241.896	193.06
242.13	209.06
242.363	200.06
242.597	199.06
242.83	211.06
243.064	189.06
243.298	186.06
243.531	205.06
243.765	214.06
243.998	182.06
244.232	207.06
244.465	210.06
244.699	208.06
244.932	222.06
245.166	197.06
245.399	216.06
245.633	229.06
245.866	202.06
246.099	212.06
246.333	231.06
246.566	224.06
246.8	222.06
247.033	243.06
247.266	233.06
247.5	231.06
247.733	229.06
247.966	242.06
248.2	242.06
248.433	237.06
248.666	240.06
248.899	237.06
249.133	253.06
249.366	248.06
249.599	244.06
249.832	253.06
250.066	248.06
250.299	250.06
250.532	282.06
250.765	259.06
250.998	271.06
251.231	290.06
251.465	286.06
251.698	301.06
251.931	275.06
252.164	293.06
252.397	290.06
252.63	292.06
252.863	309.06
253.096	319.06
253.329	314.06
253.562	301.06
253.795	299.06
254.028	306.06
254.261	284.06
254.494	317.06
254.727	314.06
254.96	315.06
255.193	327.06
255.426	320.06
255.659	335.06
255.892	346.06
256.124	338.06
256.357	346.06
256.59	330.06
256.823	356.06
257.056	352.06
257.289	353.06
257.521	358.06
257.754	379.06
257.987	357.06
258.22	370.06
258.452	368.06
258.685	345.06
258.918	371.06
259.151	370.06
259.383	376.06
259.616	369.06
259.849	357.06
260.081	368.06
260.314	375.06
260.547	370.06
260.779	373.06
261.012	385.06
261.244	391.06
261.477	393.06
261.71	393.06
261.942	385.06
262.175	389.06
262.407	389.06
262.64	414.06
262.872	392.06
263.105	401.06
263.337	422.06
263.57	410.06
263.802	392.06
264.035	405.06
264.267	418.06
264.499	405.06
264.732	414.06
264.964	429.06
265.197	418.06
265.429	424.06
265.661	414.06
265.894	426.06
266.126	412.06
266.358	426.06
266.591	420.06
266.823	437.06
267.055	421.06
267.287	434.06
267.52	449.06
267.752	439.06
267.984	425.06
268.216	450.06
268.448	446.06
268.681	449.06
268.913	448.06
269.145	455.06
269.377	467.06
269.609	447.06
269.841	440.06
270.073	448.06
270.306	462.06
270.538	450.06
270.77	468.06
271.002	463.06
271.234	475.06
271.466	463.06
271.698	464.06
271.93	473.06
272.162	458.06
272.394	454.06
272.626	460.06
272.858	480.06
273.09	460.06
273.322	453.06
273.553	470.06
273.785	493.06
274.017	490.06
274.249	498.06
274.481	488.06
274.713	479.06
274.945	473.06
275.176	485.06
275.408	501.06
275.64	478.06
275.872	487.06
276.104	507.06
276.335	499.06
276.567	525.06
276.799	513.06
277.031	527.06
277.262	509.06
277.494	498.06
277.726	500.06
277.957	501.06
278.189	524.06
278.421	500.06
278.652	510.06
278.884	494.06
279.115	539.06
279.347	518.06
279.579	516.06
279.81	528.06
280.042	516.06
280.273	508.06
280.505	530.06
280.736	533.06
280.968	537.06
281.199	564.06
281.431	538.06
281.662	540.06
281.894	529.06
282.125	545.06
282.356	555.06
282.588	536.06
282.819	522.06
283.051	526.06
283.282	532.06
283.513	530.06
283.745	551.06
283.976	535.06
284.207	547.06
284.439	556.06
284.67	552.06
284.901	555.06
285.132	564.06
285.364	544.06
285.595	572.06
285.826	582.06
286.057	588.06
286.288	553.06
286.52	570.06
286.751	566.06
286.982	573.06
287.213	567.06
287.444	566.06
287.675	552.06
287.906	554.06
288.138	570.06
288.369	571.06
288.6	565.06
288.831	579.06
289.062	575.06
289.293	595.06
289.524	573.06
289.755	576.06
289.986	584.06
290.217	594.06
290.448	580.06
290.679	573.06
290.91	576.06
291.141	576.06
291.371	570.06
291.602	587.06
291.833	574.06
292.064	578.06
292.295	586.06
292.526	596.06
292.757	576.06
292.987	583.06
293.218	566.06
293.449	593.06
293.68	569.06
293.91	584.06
294.141	599.06
294.372	574.06
294.603	573.06
294.833	586.06
295.064	602.06
295.295	603.06
295.525	609.06
295.756	596.06
295.987	590.06
296.217	577.06
296.448	608.06
296.679	604.06
296.909	599.06
297.14	598.06
297.37	602.06
297.601	614.06
297.831	628.06
298.062	613.06
298.292	621.06
298.523	640.06
298.753	606.06
298.984	612.06
299.214	609.06
299.445	633.06
299.675	632.06
299.905	634.06
300.136	641.06
300.366	644.06
300.597	666.06
300.827	637.06
301.057	653.06
301.288	640.06
301.518	637.06
301.748	628.06
301.979	652.06
302.209	658.06
302.439	647.06
302.669	677.06
302.9	675.06
303.13	661.06
303.36	648.06
303.59	653.06
303.82	654.06
304.051	707.06
304.281	674.06
304.511	673.06
304.741	662.06
304.971	674.06
305.201	696.06
305.431	694.06
305.661	665.06
305.891	674.06
306.121	664.06
306.352	654.06
306.582	685.06
306.812	671.06
307.042	684.06
307.272	681.06
307.502	672.06
307.731	678.06
307.961	705.06
308.191	678.06
308.421	693.06
308.651	688.06
308.881	676.06
309.111	674.06
309.341	677.06
309.571	676.06
309.8	692.06
310.03	710.06
310.26	735.06
310.49	722.06
310.72	702.06
310.949	702.06
311.179	690.06
311.409	718.06
311.639	715.06
311.868	739.06
312.098	714.06
312.328	721.06
312.557	745.06
312.787	717.06
313.017	758.06
313.246	746.06
313.476	757.06
313.706	755.06
313.935	737.06
314.165	762.06
314.394	746.06
314.624	756.06
314.853	768.06
315.083	765.06
315.312	796.06
315.542	773.06
315.771	777.06
316.001	773.06
316.23	800.06
316.46	763.06
316.689	778.06
316.919	769.06
317.148	783.06
317.377	770.06
317.607	766.06
317.836	780.06
318.065	796.06
318.295	803.06
318.524	814.06
318.753	786.06
318.983	805.06
319.212	790.06
319.441	800.06
319.67	797.06
319.9	813.06
320.129	789.06
320.358	820.06
320.587	836.06
320.816	831.06
321.046	850.06
321.275	842.06
321.504	845.06
321.733	860.06
321.962	828.06
322.191	860.06
322.42	881.06
322.649	875.06
322.878	877.06
323.108	851.06
323.337	892.06
323.566	888.06
323.795	894.06
324.024	886.06
324.253	902.06
324.482	893.06
324.71	902.06
324.939	917.06
325.168	934.06
325.397	948.06
325.626	925.06
325.855	933.06
326.084	935.06
326.313	930.06
326.542	916.06
326.77	954.06
326.999	956.06
327.228	927.06
327.457	928.06
327.686	926.06
327.914	936.06
328.143	930.06
328.372	961.06
328.6	967.06
328.829	955.06
329.058	956.06
329.287	970.06
329.515	969.06
329.744	1002.06
329.972	974.06
330.201	973.06
330.43	995.06
330.658	1009.06
330.887	997.06
331.115	1001.06
331.344	1016.06
331.572	1000.06
331.801	1006.06
332.03	991.06
332.258	1017.06
332.486	1064.06
332.715	1045.06
332.943	1070.06
333.172	1067.06
333.4	1063.06
333.629	1080.06
333.857	1101.06
334.085	1117.06
334.314	1110.06
334.542	1107.06
334.771	1114.06
334.999	1111.06
335.227	1118.06
335.455	1133.06
335.684	1144.06
335.912	1170.06
336.14	1168.06
336.369	1156.06
336.597	1163.06
336.825	1139.06
337.053	1172.06
337.281	1137.06
337.51	1129.06
337.738	1148.06
337.966	1114.06
338.194	1133.06
338.422	1165.06
338.65	1160.06
338.878	1131.06
339.106	1107.06
339.334	1099.06
339.562	1104.06
339.79	1082.06
340.018	1088.06
340.246	1080.06
340.474	1069.06
340.702	1091.06
340.93	1054.06
341.158	1105.06
341.386	1110.06
341.614	1155.06
341.842	1110.06
342.07	1087.06
342.298	1110.06
342.526	1064.06
342.754	1085.06
342.981	1084.06
343.209	1112.06
343.437	1117.06
343.665	1099.06
343.893	1149.06
344.12	1140.06
344.348	1125.06
344.576	1146.06
344.804	1141.06
345.031	1122.06
345.259	1129.06
345.487	1114.06
345.714	1115.06
345.942	1093.06
346.17	1124.06
346.397	1099.06
346.625	1082.06
346.853	1086.06
347.08	1040.06
347.308	1076.06
347.535	1089.06
347.763	1041.06
347.99	1089.06
348.218	1063.06
348.445	1080.06
348.673	1042.06
348.9	1039.06
349.128	1064.06
349.355	1057.06
349.583	1059.06
349.81	1059.06
350.037	1016.06
350.265	1053.06
350.492	1026.06
350.72	1022.06
350.947	1054.06
351.174	1027.06
351.402	1061.06
351.629	1058.06
351.856	1052.06
352.083	1031.06
352.311	1055.06
352.538	1093.06
352.765	1092.06
352.992	1040.06
353.22	1011.06
353.447	1011.06
353.674	996.06
353.901	1029.06
354.128	970.06
354.355	999.06
354.583	1014.06
354.81	1012.06
355.037	1014.06
355.264	1013.06
355.491	1034.06
355.718	1005.06
355.945	1029.06
356.172	1032.06
356.399	1020.06
356.626	1046.06
356.853	1036.06
357.08	1034.06
357.307	1029.06
357.534	1037.06
357.761	990.06
357.988	1026.06
358.215	1007.06
358.441	1001.06
358.668	1011.06
358.895	1014.06
359.122	1013.06
359.349	1026.06
359.576	992.06
359.802	1005.06
360.029	1022.06
360.256	1012.06
360.483	990.06
360.709	1001.06
360.936	1047.06
361.163	1018.06
361.39	1018.06
361.616	1008.06
361.843	1044.06
362.07	1045.06
362.296	1059.06
362.523	997.06
362.749	1008.06
362.976	1009.06
363.203	984.06
363.429	999.06
363.656	1025.06
363.882	976.06
364.109	982.06
364.335	1008.06
364.562	1008.06
364.788	1004.06
365.015	1032.06
365.241	1043.06
365.468	1026.06
365.694	1060.06
365.92	1011.06
366.147	1003.06
366.373	1008.06
366.599	1009.06
366.826	1009.06
367.052	1028.06
367.278	1005.06
367.505	1006.06
367.731	1026.06
367.957	1028.06
368.184	1019.06
368.41	997.06
368.636	1016.06
368.862	1027.06
369.089	1026.06
369.315	1045.06
369.541	994.06
369.767	1050.06
369.993	1047.06
370.219	1046.06
370.445	1037.06
370.672	1035.06
370.898	1033.06
371.124	1040.06
371.35	1050.06
371.576	1053.06
371.802	1072.06
372.028	1066.06
372.254	1068.06
372.48	1043.06
372.706	1036.06
372.932	1039.06
373.158	1053.06
373.384	1077.06
373.61	1017.06
373.835	1070.06
374.061	1066.06
374.287	1053.06
374.513	1084.06
374.739	1084.06
374.965	1078.06
375.191	1082.06
375.416	1057.06
375.642	1041.06
375.868	1024.06
376.094	1049.06
376.319	1032.06
376.545	1035.06
376.771	1020.06
376.997	1042.06
377.222	1040.06
377.448	1060.06
377.674	1022.06
377.899	1013.06
378.125	1038.06
378.35	980.06
378.576	992.06
378.802	976.06
379.027	1015.06
379.253	1003.06
379.478	1004.06
379.704	1001.06
379.929	1012.06
380.155	1026.06
380.38	1021.06
380.606	996.06
380.831	1024.06
381.057	1016.06
381.282	1002.06
381.507	1014.06
381.733	1035.06
381.958	1045.06
382.184	1034.06
382.409	1046.06
382.634	1036.06
382.86	1024.06
383.085	1065.06
383.31	1064.06
383.535	1047.06
383.761	1054.06
383.986	1061.06
384.211	1036.06
384.436	1042.06
384.662	1076.06
384.887	1073.06
385.112	1060.06
385.337	1064.06
385.562	1083.06
385.787	1089.06
386.013	1119.06
386.238	1141.06
386.463	1116.06
386.688	1111.06
386.913	1085.06
387.138	1124.06
387.363	1131.06
387.588	1124.06
387.813	1111.06
388.038	1134.06
388.263	1129.06
388.488	1117.06
388.713	1117.06
388.938	1141.06
389.163	1106.06
389.387	1154.06
389.612	1104.06
389.837	1138.06
390.062	1124.06
390.287	1158.06
390.512	1108.06
390.736	1159.06
390.961	1152.06
391.186	1126.06
391.411	1167.06
391.636	1156.06
391.86	1156.06
392.085	1142.06
392.31	1181.06
392.534	1172.06
392.759	1172.06
392.984	1170.06
393.208	1169.06
393.433	1168.06
393.658	1150.06
393.882	1177.06
394.107	1133.06
394.331	1150.06
394.556	1193.06
394.78	1159.06
395.005	1184.06
395.229	1178.06
395.454	1164.06
395.678	1178.06
395.903	1200.06
396.127	1205.06
396.352	1217.06
396.576	1208.06
396.801	1210.06
397.025	1200.06
397.249	1197.06
397.474	1244.06
397.698	1223.06
397.922	1240.06
398.147	1213.06
398.371	1248.06
398.595	1298.06
398.82	1270.06
399.044	1320.06
399.268	1304.06
399.492	1361.06
399.717	1405.06
399.941	1411.06
400.165	1389.06
400.389	1401.06
400.613	1390.06
400.837	1346.06
401.062	1318.06
401.286	1330.06
401.51	1309.06
401.734	1305.06
401.958	1336.06
402.182	1339.06
402.406	1304.06
402.63	1316.06
402.854	1299.06
403.078	1318.06
403.302	1305.06
403.526	1266.06
403.75	1325.06
403.974	1314.06
404.198	1289.06
404.422	1317.06
404.645	1284.06
404.869	1296.06
405.093	1313.06
405.317	1328.06
405.541	1344.06
405.765	1370.06
405.988	1315.06
406.212	1364.06
406.436	1357.06
406.66	1415.06
406.883	1360.06
407.107	1404.06
407.331	1401.06
407.555	1438.06
407.778	1415.06
408.002	1444.06
408.226	1445.06
408.449	1454.06
408.673	1438.06
408.896	1403.06
409.12	1403.06
409.344	1418.06
409.567	1377.06
409.791	1367.06
410.014	1412.06
410.238	1387.06
410.461	1391.06
410.685	1338.06
410.908	1410.06
411.132	1365.06
411.355	1334.06
411.578	1331.06
411.802	1363.06
412.025	1365.06
412.249	1370.06
412.472	1383.06
412.695	1335.06
412.919	1316.06
413.142	1369.06
413.365	1326.06
413.589	1365.06
413.812	1334.06
414.035	1292.06
414.258	1314.06
414.482	1336.06
414.705	1330.06
414.928	1352.06
415.151	1312.06
415.374	1322.06
415.597	1323.06
415.821	1300.06
416.044	1277.06
416.267	1298.06
416.49	1288.06
416.713	1272.06
416.936	1299.06
417.159	1302.06
417.382	1268.06
417.605	1267.06
417.828	1266.06
418.051	1280.06
418.274	1286.06
418.497	1255.06
418.72	1258.06
418.943	1284.06
419.166	1332.06
419.389	1413.06
419.611	1385.06
419.834	1353.06
420.057	1342.06
420.28	1292.06
420.503	1282.06
420.726	1262.06
420.948	1256.06
421.171	1326.06
421.394	1277.06
421.617	1257.06
421.839	1299.06
422.062	1310.06
422.285	1274.06
422.507	1286.06
422.73	1276.06
422.953	1271.06
423.175	1282.06
423.398	1287.06
423.621	1260.06
423.843	1240.06
424.066	1300.06
424.288	1291.06
424.511	1324.06
424.733	1281.06
424.956	1304.06
425.178	1288.06
425.401	1274.06
425.623	1330.06
425.846	1258.06
426.068	1264.06
426.291	1277.06
426.513	1271.06
426.735	1279.06
426.958	1284.06
427.18	1245.06
427.402	1264.06
427.625	1259.06
427.847	1242.06
428.069	1275.06
428.292	1279.06
428.514	1248.06
428.736	1266.06
428.958	1337.06
429.181	1300.06
429.403	1244.06
429.625	1248.06
429.847	1286.06
430.069	1293.06
430.292	1265.06
430.514	1253.06
430.736	1260.06
430.958	1303.06
431.18	1255.06
431.402	1270.06
431.624	1266.06
431.846	1266.06
432.068	1271.06
432.29	1264.06
432.512	1254.06
432.734	1298.06
432.956	1294.06
433.178	1275.06
433.4	1291.06
433.622	1288.06
433.844	1314.06
434.066	1298.06
434.287	1307.06
434.509	1313.06
434.731	1304.06
434.953	1312.06
435.175	1272.06
435.397	1334.06
435.618	1274.06
435.84	1305.06
436.062	1264.06
436.284	1266.06
436.505	1253.06
436.727	1261.06
436.949	1267.06
437.17	1272.06
437.392	1259.06
437.614	1288.06
437.835	1205.06
438.057	1219.06
438.278	1233.06
438.5	1221.06
438.721	1222.06
438.943	1283.06
439.165	1240.06
439.386	1227.06
439.608	1285.06
439.829	1287.06
440.05	1249.06
440.272	1251.06
440.493	1267.06
440.715	1275.06
440.936	1272.06
441.158	1298.06
441.379	1314.06
441.6	1305.06
441.822	1325.06
442.043	1330.06
442.264	1312.06
442.486	1315.06
442.707	1302.06
442.928	1292.06
443.149	1334.06
443.371	1321.06
443.592	1352.06
443.813	1332.06
444.034	1341.06
444.255	1340.06
444.476	1352.06
444.698	1346.06
444.919	1356.06
445.14	1466.06
445.361	1359.06
445.582	1329.06
445.803	1315.06
446.024	1303.06
446.245	1293.06
446.466	1304.06
446.687	1254.06
446.908	1302.06
447.129	1266.06
447.35	1233.06
447.571	1248.06
447.792	1225.06
448.013	1195.06
448.234	1198.06
448.455	1209.06
448.675	1204.06
448.896	1187.06
449.117	1166.06
449.338	1188.06
449.559	1180.06
449.779	1147.06
450	1197.06
450.221	1180.06
450.442	1197.06
450.662	1168.06
450.883	1212.06
451.104	1222.06
451.324	1211.06
451.545	1170.06
451.766	1175.06
451.986	1191.06
452.207	1159.06
452.428	1123.06
452.648	1162.06
452.869	1132.06
453.089	1121.06
453.31	1148.06
453.53	1148.06
453.751	1157.06
453.971	1133.06
454.192	1149.06
454.412	1137.06
454.633	1132.06
454.853	1162.06
455.073	1127.06
455.294	1152.06
455.514	1126.06
455.734	1152.06
455.955	1142.06
456.175	1145.06
456.395	1117.06
456.616	1102.06
456.836	1124.06
457.056	1130.06
457.276	1128.06
457.497	1155.06
457.717	1184.06
457.937	1122.06
458.157	1208.06
458.377	1157.06
458.598	1177.06
458.818	1180.06
459.038	1196.06
459.258	1191.06
459.478	1236.06
459.698	1277.06
459.918	1273.06
460.138	1256.06
460.358	1294.06
460.578	1287.06
460.798	1317.06
461.018	1312.06
461.238	1325.06
461.458	1341.06
461.678	1319.06
461.898	1323.06
462.118	1331.06
462.338	1367.06
462.558	1350.06
462.777	1412.06
462.997	1425.06
463.217	1442.06
463.437	1443.06
463.657	1451.06
463.876	1421.06
464.096	1418.06
464.316	1356.06
464.536	1410.06
464.755	1399.06
464.975	1372.06
465.195	1356.06
465.414	1354.06
465.634	1312.06
465.854	1304.06
466.073	1277.06
466.293	1257.06
466.512	1197.06
466.732	1235.06
466.951	1222.06
467.171	1241.06
467.391	1254.06
467.61	1250.06
467.829	1222.06
468.049	1213.06
468.268	1201.06
468.488	1196.06
468.707	1208.06
468.927	1212.06
469.146	1205.06
469.365	1250.06
469.585	1259.06
469.804	1236.06
470.023	1259.06
470.243	1207.06
470.462	1238.06
470.681	1242.06
470.901	1210.06
471.12	1260.06
471.339	1245.06
471.558	1260.06
471.777	1249.06
471.997	1218.06
472.216	1232.06
472.435	1217.06
472.654	1232.06
472.873	1197.06
473.092	1204.06
473.311	1206.06
473.53	1241.06
473.749	1205.06
473.968	1243.06
474.187	1222.06
474.406	1247.06
474.625	1277.06
474.844	1233.06
475.063	1270.06
475.282	1264.06
475.501	1281.06
475.72	1250.06
475.939	1281.06
476.158	1255.06
476.377	1284.06
476.596	1270.06
476.814	1299.06
477.033	1280.06
477.252	1351.06
477.471	1309.06
477.69	1368.06
477.908	1365.06
478.127	1377.06
478.346	1337.06
478.564	1393.06
478.783	1400.06
479.002	1439.06
479.22	1460.06
479.439	1452.06
479.658	1445.06
479.876	1443.06
480.095	1415.06
480.313	1444.06
480.532	1456.06
480.751	1452.06
480.969	1412.06
481.188	1422.06
481.406	1412.06
481.624	1390.06
481.843	1422.06
482.061	1434.06
482.28	1419.06
482.498	1426.06
482.717	1409.06
482.935	1450.06
483.153	1452.06
483.372	1457.06
483.59	1466.06
483.808	1478.06
484.027	1425.06
484.245	1432.06
484.463	1461.06
484.681	1464.06
484.9	1458.06
485.118	1493.06
485.336	1457.06
485.554	1462.06
485.772	1455.06
485.99	1472.06
486.209	1461.06
486.427	1429.06
486.645	1484.06
486.863	1466.06
487.081	1453.06
487.299	1472.06
487.517	1498.06
487.735	1510.06
487.953	1521.06
488.171	1542.06
488.389	1529.06
488.607	1477.06
488.825	1468.06
489.043	1502.06
489.261	1478.06
489.479	1508.06
489.696	1441.06
489.914	1492.06
490.132	1507.06
490.35	1488.06
490.568	1507.06
490.786	1532.06
491.003	1560.06
491.221	1510.06
491.439	1544.06
491.657	1539.06
491.874	1563.06
492.092	1598.06
492.31	1570.06
492.527	1578.06
492.745	1561.06
492.963	1564.06
493.18	1592.06
493.398	1573.06
493.615	1616.06
493.833	1610.06
494.05	1598.06
494.268	1577.06
494.485	1589.06
494.703	1604.06
494.92	1643.06
495.138	1630.06
495.355	1632.06
495.573	1621.06
495.79	1652.06
496.008	1640.06
496.225	1664.06
496.442	1684.06
496.66	1696.06
496.877	1671.06
497.094	1735.06
497.312	1759.06
497.529	1754.06
497.746	1738.06
497.963	1778.06
498.181	1808.06
498.398	1868.06
498.615	1884.06
498.832	1908.06
499.049	1926.06
499.267	1997.06
499.484	2031.06
499.701	2104.06
499.918	2149.06
500.135	2202.06
500.352	2248.06
500.569	2289.06
500.786	2261.06
501.003	2221.06
501.22	2172.06
501.437	2184.06
501.654	2054.06
501.871	2055.06
502.088	2002.06
502.305	1982.06
502.522	1903.06
502.739	1910.06
502.956	1833.06
503.172	1821.06
503.389	1735.06
503.606	1701.06
503.823	1752.06
504.04	1728.06
504.256	1664.06
504.473	1642.06
504.69	1616.06
504.907	1600.06
505.123	1580.06
505.34	1604.06
505.557	1544.06
505.773	1549.06
505.99	1495.06
506.207	1507.06
506.423	1490.06
506.64	1474.06
506.856	1456.06
507.073	1465.06
507.289	1438.06
507.506	1426.06
507.722	1431.06
507.939	1435.06
508.155	1417.06
508.372	1387.06
508.588	1395.06
508.805	1368.06
509.021	1374.06
509.238	1353.06
509.454	1345.06
509.67	1345.06
509.887	1307.06
510.103	1339.06
510.319	1336.06
510.536	1283.06
510.752	1300.06
510.968	1294.06
511.184	1290.06
511.401	1278.06
511.617	1293.06
511.833	1321.06
512.049	1265.06
512.265	1285.06
512.481	1299.06
512.698	1325.06
512.914	1254.06
513.13	1293.06
513.346	1292.06
513.562	1296.06
513.778	1307.06
513.994	1284.06
514.21	1280.06
514.426	1295.06
514.642	1280.06
514.858	1296.06
515.074	1326.06
515.29	1314.06
515.506	1285.06
515.721	1335.06
515.937	1309.06
516.153	1328.06
516.369	1362.06
516.585	1329.06
516.801	1364.06
517.016	1319.06
517.232	1380.06
517.448	1365.06
517.664	1392.06
517.879	1393.06
518.095	1380.06
518.311	1383.06
518.527	1370.06
518.742	1366.06
518.958	1337.06
519.173	1339.06
519.389	1313.06
519.605	1297.06
519.82	1306.06
520.036	1286.06
520.251	1280.06
520.467	1297.06
520.682	1288.06
520.898	1204.06
521.113	1246.06
521.329	1243.06
521.544	1226.06
521.76	1215.06
521.975	1233.06
522.19	1211.06
522.406	1226.06
522.621	1216.06
522.836	1155.06
523.052	1206.06
523.267	1204.06
523.482	1183.06
523.698	1183.06
523.913	1179.06
524.128	1175.06
524.343	1200.06
524.559	1165.06
524.774	1191.06
524.989	1197.06
525.204	1178.06
525.419	1189.06
525.634	1182.06
525.849	1172.06
526.064	1170.06
526.28	1154.06
526.495	1136.06
526.71	1140.06
526.925	1153.06
527.14	1152.06
527.355	1116.06
527.57	1122.06
527.785	1112.06
527.999	1142.06
528.214	1129.06
528.429	1117.06
528.644	1133.06
528.859	1142.06
529.074	1108.06
529.289	1154.06
529.503	1150.06
529.718	1131.06
529.933	1102.06
530.148	1133.06
530.363	1114.06
530.577	1090.06
530.792	1127.06
531.007	1055.06
531.221	1091.06
531.436	1093.06
531.651	1116.06
531.865	1072.06
532.08	1088.06
532.295	1103.06
532.509	1064.06
532.724	1080.06
532.938	1067.06
533.153	1101.06
533.367	1087.06
533.582	1108.06
533.796	1097.06
534.011	1097.06
534.225	1076.06
534.44	1046.06
534.654	1075.06
534.868	1063.06
535.083	1050.06
535.297	1038.06
535.511	1071.06
535.726	1040.06
535.94	1022.06
536.154	1038.06
536.369	1054.06
536.583	1032.06
536.797	1049.06
537.011	1014.06
537.225	1029.06
537.44	1051.06
537.654	1019.06
537.868	998.06
538.082	1012.06
538.296	1019.06
538.51	982.06
538.724	1013.06
538.938	1018.06
539.153	1021.06
539.367	1014.06
539.581	1018.06
539.795	994.06
540.009	1014.06
540.222	993.06
540.436	992.06
540.65	1003.06
540.864	1009.06
541.078	1001.06
541.292	1000.06
541.506	1007.06
541.72	1013.06
541.934	1049.06
542.147	1048.06
542.361	1042.06
542.575	1027.06
542.789	1020.06
543.002	973.06
543.216	1008.06
543.43	1020.06
543.644	999.06
543.857	988.06
544.071	1011.06
544.285	1003.06
544.498	986.06
544.712	1038.06
544.925	990.06
545.139	1005.06
545.352	1010.06
545.566	994.06
545.779	1017.06
545.993	989.06
546.206	1015.06
546.42	1061.06
546.633	1012.06
546.847	995.06
547.06	994.06
547.274	1001.06
547.487	1031.06
547.7	1017.06
547.914	985.06
548.127	1005.06
548.34	995.06
548.554	993.06
548.767	1012.06
548.98	1000.06
549.193	1001.06
549.407	988.06
549.62	988.06
549.833	974.06
550.046	979.06
550.259	978.06
550.473	990.06
550.686	972.06
550.899	995.06
551.112	997.06
551.325	979.06
551.538	967.06
551.751	975.06
551.964	942.06
552.177	969.06
552.39	956.06
552.603	978.06
552.816	984.06
553.029	952.06
553.242	996.06
553.455	1003.06
553.667	972.06
553.88	971.06
554.093	966.06
554.306	935.06
554.519	931.06
554.732	941.06
554.944	929.06
555.157	955.06
555.37	944.06
555.583	892.06
555.795	934.06
556.008	916.06
556.221	899.06
556.433	902.06
556.646	894.06
556.859	906.06
557.071	880.06
557.284	855.06
557.496	875.06
557.709	855.06
557.921	860.06
558.134	841.06
558.346	873.06
558.559	848.06
558.771	831.06
558.984	846.06
559.196	859.06
559.409	849.06
559.621	823.06
559.833	826.06
560.046	863.06
560.258	830.06
560.47	820.06
560.683	823.06
560.895	808.06
561.107	827.06
561.32	817.06
561.532	842.06
561.744	826.06
561.956	829.06
562.168	840.06
562.381	830.06
562.593	847.06
562.805	847.06
563.017	846.06
563.229	851.06
563.441	836.06
563.653	818.06
563.865	831.06
564.077	846.06
564.289	845.06
564.501	851.06
564.713	884.06
564.925	858.06
565.137	886.06
565.349	869.06
565.561	875.06
565.773	894.06
565.985	886.06
566.197	926.06
566.408	932.06
566.62	947.06
566.832	909.06
567.044	946.06
567.255	954.06
567.467	930.06
567.679	915.06
567.891	914.06
568.102	895.06
568.314	891.06
568.526	883.06
568.737	884.06
568.949	845.06
569.161	824.06
569.372	818.06
569.584	819.06
569.795	772.06
570.007	774.06
570.218	770.06
570.43	757.06
570.641	729.06
570.853	766.06
571.064	752.06
571.276	747.06
571.487	729.06
571.698	731.06
571.91	707.06
572.121	704.06
572.333	691.06
572.544	714.06
572.755	715.06
572.966	691.06
573.178	671.06
573.389	674.06
573.6	643.06
573.811	654.06
574.023	658.06
574.234	646.06
574.445	658.06
574.656	652.06
574.867	630.06
575.078	637.06
575.289	626.06
575.501	608.06
575.712	621.06
575.923	637.06
576.134	626.06
576.345	638.06
576.556	622.06
576.767	610.06
576.978	595.06
577.188	620.06
577.399	596.06
577.61	606.06
577.821	591.06
578.032	580.06
578.243	604.06
578.454	592.06
578.665	579.06
578.875	584.06
579.086	580.06
579.297	569.06
579.508	568.06
579.718	598.06
579.929	593.06
580.14	552.06
580.35	580.06
580.561	581.06
580.772	583.06
580.982	554.06
581.193	550.06
581.403	579.06
581.614	577.06
581.825	552.06
582.035	544.06
582.246	555.06
582.456	574.06
582.667	548.06
582.877	534.06
583.087	553.06
583.298	557.06
583.508	537.06
583.719	518.06
583.929	546.06
584.139	553.06
584.35	558.06
584.56	542.06
584.77	532.06
584.981	544.06
585.191	529.06
585.401	539.06
585.611	517.06
585.821	542.06
586.032	540.06
586.242	532.06
586.452	501.06
586.662	512.06
586.872	529.06
587.082	526.06
587.292	544.06
587.502	531.06
587.713	513.06
587.923	526.06
588.133	538.06
588.343	518.06
588.553	538.06
588.762	515.06
588.972	524.06
589.182	547.06
589.392	525.06
589.602	522.06
589.812	550.06
590.022	523.06
590.232	506.06
590.441	514.06
590.651	508.06
590.861	513.06
591.071	520.06
591.281	499.06
591.49	526.06
591.7	499.06
591.91	538.06
592.119	522.06
592.329	514.06
592.539	520.06
592.748	544.06
592.958	503.06
593.167	477.06
593.377	500.06
593.587	501.06
593.796	513.06
594.006	504.06
594.215	512.06
594.424	513.06
594.634	508.06
594.843	510.06
595.053	498.06
595.262	496.06
595.472	486.06
595.681	490.06
595.89	501.06
596.1	474.06
596.309	474.06
596.518	467.06
596.727	493.06
596.937	458.06
597.146	475.06
597.355	463.06
597.564	476.06
597.774	451.06
597.983	438.06
598.192	444.06
598.401	457.06
598.61	433.06
598.819	456.06
599.028	436.06
599.237	420.06
599.446	421.06
599.655	425.06
599.864	434.06
600.073	436.06
600.282	437.06
600.491	432.06
600.7	430.06
600.909	402.06
601.118	420.06
601.327	427.06
601.536	417.06
601.745	406.06
601.953	419.06
602.162	405.06
602.371	412.06
602.58	420.06
602.789	412.06
602.997	408.06
603.206	437.06
603.415	410.06
603.623	412.06
603.832	416.06
604.041	406.06
604.249	388.06
604.458	397.06
604.666	399.06
604.875	397.06
605.084	399.06
605.292	379.06
605.501	395.06
605.709	401.06
605.918	416.06
606.126	403.06
606.334	406.06
606.543	394.06
606.751	389.06
606.96	381.06
607.168	403.06
607.376	367.06
607.585	391.06
607.793	398.06
608.001	398.06
608.21	397.06
608.418	377.06
608.626	369.06
608.834	372.06
609.043	382.06
609.251	375.06
609.459	380.06
609.667	378.06
609.875	380.06
610.083	403.06
610.291	381.06
610.499	373.06
610.707	388.06
610.916	379.06
611.124	382.06
611.332	368.06
611.54	363.06
611.748	362.06
611.955	372.06
612.163	365.06
612.371	358.06
612.579	369.06
612.787	362.06
612.995	378.06
613.203	380.06
613.411	362.06
613.618	346.06
613.826	347.06
614.034	377.06
614.242	355.06
614.449	360.06
614.657	363.06
614.865	364.06
615.072	349.06
615.28	373.06
615.488	344.06
615.695	361.06
615.903	343.06
616.111	360.06
616.318	361.06
616.526	338.06
616.733	358.06
616.941	354.06
617.148	380.06
617.356	368.06
617.563	351.06
617.771	372.06
617.978	355.06
618.185	352.06
618.393	334.06
618.6	348.06
618.807	337.06
619.015	346.06
619.222	342.06
619.429	343.06
619.637	342.06
619.844	347.06
620.051	336.06
620.258	345.06
620.466	325.06
620.673	330.06
620.88	331.06
621.087	349.06
621.294	320.06
621.501	320.06
621.708	317.06
621.915	328.06
622.122	323.06
622.329	330.06
622.536	354.06
622.743	323.06
622.95	313.06
623.157	317.06
623.364	310.06
623.571	327.06
623.778	312.06
623.985	328.06
624.192	321.06
624.399	308.06
624.606	304.06
624.812	310.06
625.019	305.06
625.226	308.06
625.433	308.06
625.639	290.06
625.846	306.06
626.053	305.06
626.259	305.06
626.466	317.06
626.673	286.06
626.879	297.06
627.086	300.06
627.293	296.06
627.499	289.06
627.706	294.06
627.912	300.06
628.119	294.06
628.325	305.06
628.532	286.06
628.738	311.06
628.945	273.06
629.151	292.06
629.357	309.06
629.564	301.06
629.77	290.06
629.976	290.06
630.183	297.06
630.389	299.06
630.595	274.06
630.802	270.06
631.008	276.06
631.214	259.06
631.42	301.06
631.627	292.06
631.833	278.06
632.039	284.06
632.245	285.06
632.451	292.06
632.657	260.06
632.863	290.06
633.069	297.06
633.275	283.06
633.481	278.06
633.688	262.06
633.893	277.06
634.099	256.06
634.305	275.06
634.511	274.06
634.717	252.06
634.923	252.06
635.129	270.06
635.335	249.06
635.541	271.06
635.747	272.06
635.952	265.06
636.158	264.06
636.364	260.06
636.57	251.06
636.775	270.06
636.981	270.06
637.187	254.06
637.392	268.06
637.598	257.06
637.804	249.06
638.009	248.06
638.215	252.06
638.421	267.06
638.626	240.06
638.832	257.06
639.037	256.06
639.243	246.06
639.448	265.06
639.654	260.06
639.859	253.06
640.065	245.06
640.27	270.06
640.475	253.06
640.681	277.06
640.886	249.06
641.091	250.06
641.297	249.06
641.502	264.06
641.707	246.06
641.913	252.06
642.118	260.06
642.323	246.06
642.528	243.06
642.733	239.06
642.939	235.06
643.144	249.06
643.349	244.06
643.554	244.06
643.759	241.06
643.964	238.06
644.169	245.06
644.374	264.06
644.579	245.06
644.784	257.06
644.989	256.06
645.194	231.06
645.399	237.06
645.604	240.06
645.809	244.06
646.014	243.06
646.219	249.06
646.423	243.06
646.628	244.06
646.833	228.06
647.038	232.06
647.243	225.06
647.447	239.06
647.652	220.06
647.857	229.06
648.062	238.06
648.266	245.06
648.471	244.06
648.676	230.06
648.88	239.06
649.085	225.06
649.289	235.06
649.494	246.06
649.698	233.06
649.903	234.06
650.107	237.06
650.312	230.06
650.516	229.06
650.721	242.06
650.925	220.06
651.13	219.06
651.334	243.06
651.539	210.06
651.743	221.06
651.947	228.06
652.152	227.06
652.356	212.06
652.56	208.06
652.764	196.06
652.969	190.06
653.173	214.06
653.377	204.06
653.581	212.06
653.785	200.06
653.99	206.06
654.194	194.06
654.398	203.06
654.602	187.06
654.806	194.06
655.01	190.06
655.214	196.06
655.418	190.06
655.622	197.06
655.826	186.06
656.03	192.06
656.234	182.06
656.438	184.06
656.642	171.06
656.846	186.06
657.049	183.06
657.253	179.06
657.457	174.06
657.661	156.06
657.865	156.06
658.068	154.06
658.272	149.06
658.476	141.06
658.68	137.06
658.883	122.06
659.087	124.06
659.291	130.06
659.494	122.06
659.698	131.06
659.901	132.06
660.105	123.06
660.309	113.06
660.512	102.06
660.716	104.06
660.919	96.06
661.123	116.06
661.326	102.06
661.53	80.06
661.733	124.06
661.936	106.06
662.14	100.06
662.343	94.06
662.546	97.06
662.75	85.06
662.953	85.06
663.156	89.06
663.36	86.06
663.563	90.06
663.766	97.06
663.969	85.06
664.173	84.06
664.376	74.06
664.579	73.06
664.782	71.06
664.985	90.06
665.188	75.06
665.391	87.06
665.594	85.06
665.797	84.06
666	84.06
666.203	73.06
666.406	78.06
666.609	82.06
666.812	93.06
667.015	89.06
667.218	72.06
667.421	74.06
667.624	87.06
667.827	73.06
668.03	76.06
668.232	82.06
668.435	87.06
668.638	94.06
668.841	74.06
669.043	94.06
669.246	79.06
669.449	78.06
669.651	81.06
669.854	80.06
670.057	75.06
670.259	77.06
670.462	70.06
670.665	88.06
670.867	83.06
671.07	65.06
671.272	78.06
671.475	68.06
671.677	89.06
671.88	84.06
672.082	89.06
672.284	82.06
672.487	81.06
672.689	78.06
672.892	74.06
