Data from Ni(NO3)2@0.25M.TitratingCurve.Agarose3%dH2O.NegLispCup.LampEnergy10.LIBS07252019_HRD10591_18-04-32-566.txt Node
Date: Thu Jul 25 18:04:32 EDT 2019
User: cochatt
Spectrometer: HR+D1059
Trigger mode: 1
Integration Time (sec): 1.000000E-1
Scans to average: 1
Electric dark correction enabled: true
Nonlinearity correction enabled: false
Boxcar width: 0
XAxis mode: Wavelengths
Number of Pixels in Spectrum: 2048
>>>>>Begin Spectral Data<<<<<
223.165	-12.56
223.4	-12.56
223.635	-12.56
223.869	-17.56
224.104	-38.56
224.338	-15.56
224.573	-3.56
224.808	-19.56
225.042	-5.56
225.277	4.44
225.511	-9.56
225.746	3.44
225.98	13.44
226.215	23.44
226.449	12.44
226.683	28.44
226.918	8.44
227.152	28.44
227.387	47.44
227.621	23.44
227.856	47.44
228.09	49.44
228.324	45.44
228.559	47.44
228.793	66.44
229.027	92.44
229.262	107.44
229.496	98.44
229.73	95.44
229.964	101.44
230.199	103.44
230.433	106.44
230.667	92.44
230.901	127.44
231.136	100.44
231.37	125.44
231.604	122.44
231.838	138.44
232.072	125.44
232.306	115.44
232.541	109.44
232.775	114.44
233.009	120.44
233.243	118.44
233.477	123.44
233.711	126.44
233.945	138.44
234.179	115.44
234.413	134.44
234.647	118.44
234.881	118.44
235.115	125.44
235.349	119.44
235.583	122.44
235.817	123.44
236.051	127.44
236.285	124.44
236.519	130.44
236.753	124.44
236.987	126.44
237.221	132.44
237.455	124.44
237.689	136.44
237.922	130.44
238.156	140.44
238.39	140.44
238.624	121.44
238.858	123.44
239.091	123.44
239.325	136.44
239.559	128.44
239.793	137.44
240.027	144.44
240.26	142.44
240.494	136.44
240.728	148.44
240.961	142.44
241.195	152.44
241.429	145.44
241.662	132.44
241.896	146.44
242.13	160.44
242.363	144.44
242.597	152.44
242.83	141.44
243.064	161.44
243.298	147.44
243.531	152.44
243.765	152.44
243.998	159.44
244.232	175.44
244.465	159.44
244.699	159.44
244.932	168.44
245.166	168.44
245.399	152.44
245.633	144.44
245.866	162.44
246.099	156.44
246.333	160.44
246.566	170.44
246.8	190.44
247.033	189.44
247.266	178.44
247.5	162.44
247.733	172.44
247.966	176.44
248.2	178.44
248.433	173.44
248.666	184.44
248.899	184.44
249.133	162.44
249.366	203.44
249.599	180.44
249.832	196.44
250.066	169.44
250.299	202.44
250.532	196.44
250.765	205.44
250.998	188.44
251.231	199.44
251.465	203.44
251.698	205.44
251.931	211.44
252.164	205.44
252.397	207.44
252.63	211.44
252.863	217.44
253.096	222.44
253.329	223.44
253.562	219.44
253.795	209.44
254.028	214.44
254.261	222.44
254.494	219.44
254.727	244.44
254.96	217.44
255.193	219.44
255.426	251.44
255.659	238.44
255.892	259.44
256.124	229.44
256.357	235.44
256.59	243.44
256.823	256.44
257.056	242.44
257.289	231.44
257.521	243.44
257.754	248.44
257.987	230.44
258.22	266.44
258.452	257.44
258.685	265.44
258.918	250.44
259.151	253.44
259.383	246.44
259.616	263.44
259.849	260.44
260.081	270.44
260.314	268.44
260.547	285.44
260.779	262.44
261.012	279.44
261.244	283.44
261.477	274.44
261.71	277.44
261.942	267.44
262.175	278.44
262.407	298.44
262.64	287.44
262.872	276.44
263.105	271.44
263.337	261.44
263.57	265.44
263.802	280.44
264.035	286.44
264.267	278.44
264.499	287.44
264.732	287.44
264.964	272.44
265.197	293.44
265.429	299.44
265.661	288.44
265.894	297.44
266.126	309.44
266.358	311.44
266.591	283.44
266.823	298.44
267.055	308.44
267.287	311.44
267.52	297.44
267.752	308.44
267.984	316.44
268.216	304.44
268.448	312.44
268.681	307.44
268.913	324.44
269.145	282.44
269.377	320.44
269.609	309.44
269.841	302.44
270.073	316.44
270.306	325.44
270.538	298.44
270.77	326.44
271.002	313.44
271.234	290.44
271.466	312.44
271.698	306.44
271.93	325.44
272.162	322.44
272.394	318.44
272.626	326.44
272.858	318.44
273.09	328.44
273.322	346.44
273.553	335.44
273.785	338.44
274.017	326.44
274.249	341.44
274.481	340.44
274.713	337.44
274.945	316.44
275.176	341.44
275.408	336.44
275.64	328.44
275.872	327.44
276.104	341.44
276.335	339.44
276.567	330.44
276.799	359.44
277.031	336.44
277.262	342.44
277.494	331.44
277.726	334.44
277.957	362.44
278.189	347.44
278.421	356.44
278.652	356.44
278.884	344.44
279.115	348.44
279.347	332.44
279.579	349.44
279.81	340.44
280.042	360.44
280.273	361.44
280.505	360.44
280.736	369.44
280.968	374.44
281.199	367.44
281.431	368.44
281.662	364.44
281.894	362.44
282.125	356.44
282.356	375.44
282.588	366.44
282.819	364.44
283.051	373.44
283.282	383.44
283.513	389.44
283.745	357.44
283.976	365.44
284.207	377.44
284.439	346.44
284.67	382.44
284.901	372.44
285.132	365.44
285.364	374.44
285.595	375.44
285.826	367.44
286.057	366.44
286.288	387.44
286.52	378.44
286.751	359.44
286.982	380.44
287.213	373.44
287.444	396.44
287.675	392.44
287.906	405.44
288.138	396.44
288.369	385.44
288.6	395.44
288.831	378.44
289.062	398.44
289.293	371.44
289.524	384.44
289.755	382.44
289.986	395.44
290.217	386.44
290.448	395.44
290.679	394.44
290.91	399.44
291.141	389.44
291.371	418.44
291.602	406.44
291.833	378.44
292.064	379.44
292.295	397.44
292.526	404.44
292.757	408.44
292.987	393.44
293.218	380.44
293.449	408.44
293.68	386.44
293.91	413.44
294.141	389.44
294.372	392.44
294.603	386.44
294.833	404.44
295.064	408.44
295.295	398.44
295.525	403.44
295.756	407.44
295.987	409.44
296.217	413.44
296.448	415.44
296.679	389.44
296.909	406.44
297.14	392.44
297.37	428.44
297.601	408.44
297.831	413.44
298.062	396.44
298.292	418.44
298.523	446.44
298.753	400.44
298.984	432.44
299.214	442.44
299.445	444.44
299.675	424.44
299.905	414.44
300.136	420.44
300.366	436.44
300.597	439.44
300.827	429.44
301.057	446.44
301.288	448.44
301.518	450.44
301.748	438.44
301.979	438.44
302.209	458.44
302.439	448.44
302.669	453.44
302.9	447.44
303.13	417.44
303.36	444.44
303.59	457.44
303.82	467.44
304.051	458.44
304.281	461.44
304.511	438.44
304.741	458.44
304.971	457.44
305.201	467.44
305.431	462.44
305.661	458.44
305.891	468.44
306.121	460.44
306.352	450.44
306.582	434.44
306.812	439.44
307.042	453.44
307.272	443.44
307.502	440.44
307.731	448.44
307.961	461.44
308.191	448.44
308.421	456.44
308.651	452.44
308.881	453.44
309.111	428.44
309.341	452.44
309.571	450.44
309.8	453.44
310.03	466.44
310.26	479.44
310.49	462.44
310.72	464.44
310.949	441.44
311.179	468.44
311.409	477.44
311.639	456.44
311.868	494.44
312.098	464.44
312.328	501.44
312.557	468.44
312.787	500.44
313.017	474.44
313.246	501.44
313.476	478.44
313.706	503.44
313.935	476.44
314.165	499.44
314.394	512.44
314.624	513.44
314.853	490.44
315.083	498.44
315.312	517.44
315.542	508.44
315.771	511.44
316.001	511.44
316.23	515.44
316.46	524.44
316.689	503.44
316.919	514.44
317.148	515.44
317.377	504.44
317.607	511.44
317.836	515.44
318.065	510.44
318.295	496.44
318.524	516.44
318.753	495.44
318.983	504.44
319.212	520.44
319.441	516.44
319.67	536.44
319.9	511.44
320.129	524.44
320.358	528.44
320.587	529.44
320.816	538.44
321.046	534.44
321.275	552.44
321.504	537.44
321.733	533.44
321.962	541.44
322.191	541.44
322.42	537.44
322.649	552.44
322.878	551.44
323.108	558.44
323.337	564.44
323.566	541.44
323.795	578.44
324.024	568.44
324.253	564.44
324.482	554.44
324.71	583.44
324.939	582.44
325.168	577.44
325.397	584.44
325.626	581.44
325.855	597.44
326.084	595.44
326.313	618.44
326.542	611.44
326.77	600.44
326.999	634.44
327.228	619.44
327.457	603.44
327.686	611.44
327.914	586.44
328.143	603.44
328.372	623.44
328.6	611.44
328.829	605.44
329.058	624.44
329.287	624.44
329.515	630.44
329.744	626.44
329.972	630.44
330.201	618.44
330.43	620.44
330.658	633.44
330.887	647.44
331.115	679.44
331.344	668.44
331.572	674.44
331.801	687.44
332.03	677.44
332.258	736.44
332.486	716.44
332.715	699.44
332.943	740.44
333.172	750.44
333.4	794.44
333.629	791.44
333.857	802.44
334.085	776.44
334.314	802.44
334.542	779.44
334.771	776.44
334.999	767.44
335.227	809.44
335.455	795.44
335.684	809.44
335.912	794.44
336.14	777.44
336.369	767.44
336.597	794.44
336.825	808.44
337.053	804.44
337.281	789.44
337.51	780.44
337.738	747.44
337.966	749.44
338.194	774.44
338.422	727.44
338.65	711.44
338.878	715.44
339.106	710.44
339.334	731.44
339.562	720.44
339.79	714.44
340.018	701.44
340.246	695.44
340.474	716.44
340.702	708.44
340.93	690.44
341.158	719.44
341.386	728.44
341.614	718.44
341.842	714.44
342.07	676.44
342.298	725.44
342.526	683.44
342.754	728.44
342.981	704.44
343.209	726.44
343.437	748.44
343.665	745.44
343.893	782.44
344.12	798.44
344.348	810.44
344.576	784.44
344.804	769.44
345.031	740.44
345.259	714.44
345.487	723.44
345.714	723.44
345.942	701.44
346.17	738.44
346.397	703.44
346.625	701.44
346.853	684.44
347.08	674.44
347.308	694.44
347.535	688.44
347.763	668.44
347.99	686.44
348.218	685.44
348.445	668.44
348.673	671.44
348.9	676.44
349.128	675.44
349.355	677.44
349.583	666.44
349.81	659.44
350.037	665.44
350.265	667.44
350.492	681.44
350.72	676.44
350.947	671.44
351.174	676.44
351.402	702.44
351.629	671.44
351.856	665.44
352.083	660.44
352.311	681.44
352.538	684.44
352.765	699.44
352.992	684.44
353.22	657.44
353.447	645.44
353.674	654.44
353.901	644.44
354.128	644.44
354.355	646.44
354.583	640.44
354.81	634.44
355.037	647.44
355.264	663.44
355.491	669.44
355.718	646.44
355.945	655.44
356.172	643.44
356.399	648.44
356.626	644.44
356.853	674.44
357.08	663.44
357.307	652.44
357.534	648.44
357.761	661.44
357.988	655.44
358.215	641.44
358.441	652.44
358.668	653.44
358.895	655.44
359.122	624.44
359.349	651.44
359.576	655.44
359.802	667.44
360.029	645.44
360.256	655.44
360.483	643.44
360.709	640.44
360.936	671.44
361.163	655.44
361.39	635.44
361.616	667.44
361.843	657.44
362.07	684.44
362.296	670.44
362.523	640.44
362.749	653.44
362.976	652.44
363.203	644.44
363.429	648.44
363.656	648.44
363.882	655.44
364.109	639.44
364.335	656.44
364.562	645.44
364.788	643.44
365.015	640.44
365.241	639.44
365.468	616.44
365.694	633.44
365.92	644.44
366.147	642.44
366.373	636.44
366.599	644.44
366.826	634.44
367.052	651.44
367.278	644.44
367.505	642.44
367.731	669.44
367.957	629.44
368.184	665.44
368.41	643.44
368.636	654.44
368.862	646.44
369.089	634.44
369.315	663.44
369.541	660.44
369.767	678.44
369.993	647.44
370.219	677.44
370.445	685.44
370.672	651.44
370.898	664.44
371.124	695.44
371.35	678.44
371.576	666.44
371.802	702.44
372.028	704.44
372.254	664.44
372.48	696.44
372.706	677.44
372.932	702.44
373.158	698.44
373.384	709.44
373.61	670.44
373.835	669.44
374.061	705.44
374.287	685.44
374.513	691.44
374.739	708.44
374.965	706.44
375.191	718.44
375.416	754.44
375.642	724.44
375.868	706.44
376.094	693.44
376.319	682.44
376.545	668.44
376.771	678.44
376.997	671.44
377.222	669.44
377.448	703.44
377.674	690.44
377.899	648.44
378.125	650.44
378.35	633.44
378.576	658.44
378.802	654.44
379.027	634.44
379.253	670.44
379.478	650.44
379.704	660.44
379.929	641.44
380.155	657.44
380.38	652.44
380.606	662.44
380.831	678.44
381.057	671.44
381.282	651.44
381.507	676.44
381.733	675.44
381.958	660.44
382.184	656.44
382.409	679.44
382.634	711.44
382.86	672.44
383.085	702.44
383.31	706.44
383.535	699.44
383.761	709.44
383.986	713.44
384.211	720.44
384.436	706.44
384.662	762.44
384.887	743.44
385.112	743.44
385.337	755.44
385.562	743.44
385.787	772.44
386.013	774.44
386.238	773.44
386.463	784.44
386.688	774.44
386.913	760.44
387.138	757.44
387.363	782.44
387.588	798.44
387.813	780.44
388.038	763.44
388.263	794.44
388.488	755.44
388.713	774.44
388.938	801.44
389.163	780.44
389.387	768.44
389.612	755.44
389.837	771.44
390.062	769.44
390.287	723.44
390.512	770.44
390.736	780.44
390.961	779.44
391.186	815.44
391.411	810.44
391.636	818.44
391.86	817.44
392.085	821.44
392.31	816.44
392.534	823.44
392.759	838.44
392.984	826.44
393.208	827.44
393.433	828.44
393.658	824.44
393.882	809.44
394.107	810.44
394.331	813.44
394.556	830.44
394.78	813.44
395.005	824.44
395.229	838.44
395.454	833.44
395.678	859.44
395.903	863.44
396.127	870.44
396.352	824.44
396.576	823.44
396.801	832.44
397.025	813.44
397.249	859.44
397.474	868.44
397.698	895.44
397.922	890.44
398.147	885.44
398.371	936.44
398.595	916.44
398.82	957.44
399.044	1018.44
399.268	1062.44
399.492	1136.44
399.717	1220.44
399.941	1244.44
400.165	1162.44
400.389	1117.44
400.613	1093.44
400.837	1055.44
401.062	992.44
401.286	965.44
401.51	964.44
401.734	958.44
401.958	980.44
402.182	970.44
402.406	974.44
402.63	957.44
402.854	963.44
403.078	966.44
403.302	1004.44
403.526	1018.44
403.75	992.44
403.974	1042.44
404.198	988.44
404.422	1006.44
404.645	1010.44
404.869	997.44
405.093	1044.44
405.317	1008.44
405.541	1032.44
405.765	1037.44
405.988	1034.44
406.212	1044.44
406.436	1007.44
406.66	1069.44
406.883	1052.44
407.107	1102.44
407.331	1136.44
407.555	1178.44
407.778	1178.44
408.002	1179.44
408.226	1136.44
408.449	1146.44
408.673	1120.44
408.896	1111.44
409.12	1080.44
409.344	1108.44
409.567	1051.44
409.791	1098.44
410.014	1070.44
410.238	1083.44
410.461	1078.44
410.685	1033.44
410.908	1055.44
411.132	1055.44
411.355	1022.44
411.578	1040.44
411.802	986.44
412.025	989.44
412.249	1030.44
412.472	1017.44
412.695	1038.44
412.919	1023.44
413.142	1011.44
413.365	1000.44
413.589	1005.44
413.812	991.44
414.035	965.44
414.258	1028.44
414.482	997.44
414.705	984.44
414.928	982.44
415.151	996.44
415.374	1001.44
415.597	975.44
415.821	984.44
416.044	977.44
416.267	961.44
416.49	938.44
416.713	961.44
416.936	991.44
417.159	961.44
417.382	973.44
417.605	976.44
417.828	999.44
418.051	957.44
418.274	950.44
418.497	967.44
418.72	1003.44
418.943	987.44
419.166	1043.44
419.389	1096.44
419.611	1077.44
419.834	1046.44
420.057	1048.44
420.28	1005.44
420.503	972.44
420.726	1026.44
420.948	955.44
421.171	976.44
421.394	996.44
421.617	986.44
421.839	967.44
422.062	1001.44
422.285	965.44
422.507	968.44
422.73	991.44
422.953	992.44
423.175	947.44
423.398	1023.44
423.621	991.44
423.843	1016.44
424.066	985.44
424.288	1012.44
424.511	1006.44
424.733	1012.44
424.956	1004.44
425.178	976.44
425.401	989.44
425.623	1004.44
425.846	950.44
426.068	967.44
426.291	954.44
426.513	974.44
426.735	978.44
426.958	955.44
427.18	956.44
427.402	950.44
427.625	946.44
427.847	927.44
428.069	916.44
428.292	950.44
428.514	935.44
428.736	915.44
428.958	910.44
429.181	931.44
429.403	896.44
429.625	946.44
429.847	921.44
430.069	906.44
430.292	944.44
430.514	913.44
430.736	954.44
430.958	944.44
431.18	911.44
431.402	926.44
431.624	908.44
431.846	935.44
432.068	933.44
432.29	951.44
432.512	932.44
432.734	941.44
432.956	924.44
433.178	969.44
433.4	954.44
433.622	962.44
433.844	931.44
434.066	949.44
434.287	946.44
434.509	962.44
434.731	990.44
434.953	1011.44
435.175	995.44
435.397	1002.44
435.618	970.44
435.84	964.44
436.062	973.44
436.284	920.44
436.505	943.44
436.727	949.44
436.949	940.44
437.17	932.44
437.392	894.44
437.614	938.44
437.835	913.44
438.057	921.44
438.278	892.44
438.5	908.44
438.721	902.44
438.943	961.44
439.165	923.44
439.386	917.44
439.608	966.44
439.829	948.44
440.05	959.44
440.272	950.44
440.493	966.44
440.715	969.44
440.936	962.44
441.158	970.44
441.379	996.44
441.6	1019.44
441.822	990.44
442.043	1006.44
442.264	1031.44
442.486	976.44
442.707	1008.44
442.928	1025.44
443.149	1024.44
443.371	991.44
443.592	1028.44
443.813	1003.44
444.034	1011.44
444.255	1060.44
444.476	1054.44
444.698	1069.44
444.919	1115.44
445.14	1190.44
445.361	1109.44
445.582	1055.44
445.803	1022.44
446.024	1002.44
446.245	1003.44
446.466	990.44
446.687	964.44
446.908	990.44
447.129	952.44
447.35	950.44
447.571	921.44
447.792	886.44
448.013	916.44
448.234	904.44
448.455	910.44
448.675	894.44
448.896	894.44
449.117	894.44
449.338	886.44
449.559	854.44
449.779	866.44
450	851.44
450.221	878.44
450.442	862.44
450.662	863.44
450.883	895.44
451.104	852.44
451.324	876.44
451.545	879.44
451.766	885.44
451.986	875.44
452.207	860.44
452.428	861.44
452.648	876.44
452.869	880.44
453.089	849.44
453.31	848.44
453.53	836.44
453.751	843.44
453.971	824.44
454.192	847.44
454.412	834.44
454.633	824.44
454.853	818.44
455.073	817.44
455.294	829.44
455.514	830.44
455.734	819.44
455.955	804.44
456.175	802.44
456.395	829.44
456.616	807.44
456.836	815.44
457.056	833.44
457.276	807.44
457.497	849.44
457.717	863.44
457.937	807.44
458.157	851.44
458.377	855.44
458.598	872.44
458.818	895.44
459.038	882.44
459.258	908.44
459.478	952.44
459.698	955.44
459.918	969.44
460.138	991.44
460.358	1019.44
460.578	1039.44
460.798	1056.44
461.018	1084.44
461.238	1052.44
461.458	1076.44
461.678	1085.44
461.898	1106.44
462.118	1077.44
462.338	1147.44
462.558	1174.44
462.777	1190.44
462.997	1247.44
463.217	1301.44
463.437	1295.44
463.657	1262.44
463.876	1207.44
464.096	1221.44
464.316	1194.44
464.536	1209.44
464.755	1198.44
464.975	1105.44
465.195	1097.44
465.414	1042.44
465.634	1013.44
465.854	1034.44
466.073	957.44
466.293	964.44
466.512	937.44
466.732	940.44
466.951	914.44
467.171	909.44
467.391	927.44
467.61	898.44
467.829	935.44
468.049	908.44
468.268	888.44
468.488	908.44
468.707	905.44
468.927	863.44
469.146	898.44
469.365	926.44
469.585	898.44
469.804	945.44
470.023	922.44
470.243	918.44
470.462	934.44
470.681	908.44
470.901	933.44
471.12	907.44
471.339	910.44
471.558	902.44
471.777	894.44
471.997	878.44
472.216	904.44
472.435	885.44
472.654	874.44
472.873	878.44
473.092	856.44
473.311	875.44
473.53	894.44
473.749	880.44
473.968	905.44
474.187	879.44
474.406	874.44
474.625	870.44
474.844	857.44
475.063	870.44
475.282	892.44
475.501	893.44
475.72	878.44
475.939	888.44
476.158	913.44
476.377	911.44
476.596	897.44
476.814	910.44
477.033	928.44
477.252	951.44
477.471	955.44
477.69	979.44
477.908	991.44
478.127	1032.44
478.346	1034.44
478.564	1050.44
478.783	1052.44
479.002	1085.44
479.22	1102.44
479.439	1058.44
479.658	1072.44
479.876	1050.44
480.095	1058.44
480.313	1064.44
480.532	1086.44
480.751	1078.44
480.969	1069.44
481.188	1028.44
481.406	1038.44
481.624	1005.44
481.843	1010.44
482.061	1028.44
482.28	1007.44
482.498	985.44
482.717	1010.44
482.935	1000.44
483.153	1024.44
483.372	1002.44
483.59	1032.44
483.808	1002.44
484.027	1018.44
484.245	1020.44
484.463	985.44
484.681	1015.44
484.9	1034.44
485.118	1046.44
485.336	1037.44
485.554	1047.44
485.772	1050.44
485.99	1047.44
486.209	1051.44
486.427	1047.44
486.645	1040.44
486.863	1073.44
487.081	1048.44
487.299	1038.44
487.517	1046.44
487.735	1068.44
487.953	1043.44
488.171	1099.44
488.389	1062.44
488.607	1036.44
488.825	1068.44
489.043	1077.44
489.261	1032.44
489.479	1034.44
489.696	1040.44
489.914	1037.44
490.132	1040.44
490.35	1044.44
490.568	1084.44
490.786	1102.44
491.003	1084.44
491.221	1090.44
491.439	1086.44
491.657	1099.44
491.874	1101.44
492.092	1117.44
492.31	1108.44
492.527	1100.44
492.745	1116.44
492.963	1135.44
493.18	1122.44
493.398	1142.44
493.615	1135.44
493.833	1120.44
494.05	1116.44
494.268	1134.44
494.485	1122.44
494.703	1168.44
494.92	1160.44
495.138	1122.44
495.355	1150.44
495.573	1141.44
495.79	1140.44
496.008	1188.44
496.225	1181.44
496.442	1180.44
496.66	1219.44
496.877	1234.44
497.094	1224.44
497.312	1255.44
497.529	1275.44
497.746	1324.44
497.963	1355.44
498.181	1372.44
498.398	1402.44
498.615	1550.44
498.832	1575.44
499.049	1669.44
499.267	1738.44
499.484	1883.44
499.701	1995.44
499.918	2122.44
500.135	2273.44
500.352	2402.44
500.569	2494.44
500.786	2485.44
501.003	2448.44
501.22	2294.44
501.437	2168.44
501.654	1929.44
501.871	1825.44
502.088	1742.44
502.305	1630.44
502.522	1576.44
502.739	1528.44
502.956	1428.44
503.172	1470.44
503.389	1355.44
503.606	1336.44
503.823	1319.44
504.04	1302.44
504.256	1295.44
504.473	1266.44
504.69	1259.44
504.907	1253.44
505.123	1199.44
505.34	1185.44
505.557	1166.44
505.773	1151.44
505.99	1096.44
506.207	1094.44
506.423	1092.44
506.64	1037.44
506.856	1032.44
507.073	1025.44
507.289	1006.44
507.506	1027.44
507.722	994.44
507.939	997.44
508.155	994.44
508.372	1001.44
508.588	963.44
508.805	971.44
509.021	972.44
509.238	956.44
509.454	944.44
509.67	937.44
509.887	938.44
510.103	952.44
510.319	987.44
510.536	908.44
510.752	891.44
510.968	941.44
511.184	927.44
511.401	910.44
511.617	925.44
511.833	902.44
512.049	933.44
512.265	903.44
512.481	933.44
512.698	941.44
512.914	915.44
513.13	928.44
513.346	930.44
513.562	932.44
513.778	908.44
513.994	919.44
514.21	942.44
514.426	901.44
514.642	899.44
514.858	928.44
515.074	956.44
515.29	975.44
515.506	956.44
515.721	957.44
515.937	998.44
516.153	998.44
516.369	1006.44
516.585	992.44
516.801	1036.44
517.016	1061.44
517.232	1086.44
517.448	1106.44
517.664	1102.44
517.879	1140.44
518.095	1103.44
518.311	1128.44
518.527	1061.44
518.742	1064.44
518.958	1038.44
519.173	993.44
519.389	1018.44
519.605	1015.44
519.82	962.44
520.036	976.44
520.251	944.44
520.467	941.44
520.682	913.44
520.898	888.44
521.113	904.44
521.329	889.44
521.544	910.44
521.76	873.44
521.975	867.44
522.19	856.44
522.406	880.44
522.621	864.44
522.836	892.44
523.052	860.44
523.267	854.44
523.482	879.44
523.698	878.44
523.913	859.44
524.128	837.44
524.343	846.44
524.559	832.44
524.774	843.44
524.989	834.44
525.204	846.44
525.419	833.44
525.634	823.44
525.849	831.44
526.064	851.44
526.28	826.44
526.495	828.44
526.71	857.44
526.925	828.44
527.14	821.44
527.355	829.44
527.57	807.44
527.785	823.44
527.999	829.44
528.214	828.44
528.429	811.44
528.644	829.44
528.859	838.44
529.074	843.44
529.289	820.44
529.503	809.44
529.718	835.44
529.933	815.44
530.148	793.44
530.363	832.44
530.577	797.44
530.792	795.44
531.007	774.44
531.221	819.44
531.436	804.44
531.651	801.44
531.865	798.44
532.08	810.44
532.295	784.44
532.509	808.44
532.724	827.44
532.938	772.44
533.153	790.44
533.367	808.44
533.582	802.44
533.796	829.44
534.011	825.44
534.225	809.44
534.44	796.44
534.654	784.44
534.868	800.44
535.083	795.44
535.297	799.44
535.511	800.44
535.726	805.44
535.94	797.44
536.154	800.44
536.369	796.44
536.583	764.44
536.797	766.44
537.011	743.44
537.225	760.44
537.44	763.44
537.654	725.44
537.868	774.44
538.082	756.44
538.296	750.44
538.51	725.44
538.724	747.44
538.938	762.44
539.153	750.44
539.367	749.44
539.581	765.44
539.795	732.44
540.009	731.44
540.222	751.44
540.436	743.44
540.65	743.44
540.864	768.44
541.078	748.44
541.292	762.44
541.506	778.44
541.72	749.44
541.934	740.44
542.147	766.44
542.361	768.44
542.575	755.44
542.789	739.44
543.002	724.44
543.216	730.44
543.43	737.44
543.644	709.44
543.857	736.44
544.071	782.44
544.285	740.44
544.498	746.44
544.712	742.44
544.925	780.44
545.139	770.44
545.352	787.44
545.566	749.44
545.779	745.44
545.993	759.44
546.206	787.44
546.42	779.44
546.633	792.44
546.847	788.44
547.06	765.44
547.274	760.44
547.487	748.44
547.7	746.44
547.914	742.44
548.127	795.44
548.34	762.44
548.554	760.44
548.767	770.44
548.98	764.44
549.193	774.44
549.407	775.44
549.62	757.44
549.833	765.44
550.046	768.44
550.259	797.44
550.473	739.44
550.686	731.44
550.899	740.44
551.112	748.44
551.325	732.44
551.538	749.44
551.751	728.44
551.964	730.44
552.177	754.44
552.39	772.44
552.603	790.44
552.816	757.44
553.029	807.44
553.242	791.44
553.455	788.44
553.667	784.44
553.88	775.44
554.093	767.44
554.306	759.44
554.519	758.44
554.732	746.44
554.944	732.44
555.157	731.44
555.37	701.44
555.583	707.44
555.795	705.44
556.008	683.44
556.221	683.44
556.433	683.44
556.646	672.44
556.859	681.44
557.071	677.44
557.284	655.44
557.496	643.44
557.709	653.44
557.921	644.44
558.134	652.44
558.346	652.44
558.559	645.44
558.771	646.44
558.984	632.44
559.196	644.44
559.409	645.44
559.621	654.44
559.833	648.44
560.046	636.44
560.258	628.44
560.47	634.44
560.683	637.44
560.895	610.44
561.107	624.44
561.32	625.44
561.532	642.44
561.744	633.44
561.956	624.44
562.168	666.44
562.381	623.44
562.593	644.44
562.805	636.44
563.017	626.44
563.229	639.44
563.441	629.44
563.653	643.44
563.865	640.44
564.077	677.44
564.289	630.44
564.501	649.44
564.713	684.44
564.925	702.44
565.137	676.44
565.349	704.44
565.561	724.44
565.773	742.44
565.985	748.44
566.197	768.44
566.408	811.44
566.62	835.44
566.832	855.44
567.044	876.44
567.255	859.44
567.467	922.44
567.679	914.44
567.891	948.44
568.102	926.44
568.314	873.44
568.526	844.44
568.737	818.44
568.949	794.44
569.161	762.44
569.372	691.44
569.584	685.44
569.795	671.44
570.007	644.44
570.218	621.44
570.43	596.44
570.641	642.44
570.853	621.44
571.064	622.44
571.276	636.44
571.487	604.44
571.698	566.44
571.91	596.44
572.121	575.44
572.333	558.44
572.544	561.44
572.755	544.44
572.966	546.44
573.178	530.44
573.389	536.44
573.6	518.44
573.811	520.44
574.023	478.44
574.234	534.44
574.445	537.44
574.656	518.44
574.867	512.44
575.078	514.44
575.289	496.44
575.501	523.44
575.712	500.44
575.923	486.44
576.134	495.44
576.345	491.44
576.556	487.44
576.767	495.44
576.978	491.44
577.188	487.44
577.399	489.44
577.61	488.44
577.821	469.44
578.032	467.44
578.243	486.44
578.454	482.44
578.665	450.44
578.875	443.44
579.086	463.44
579.297	438.44
579.508	469.44
579.718	450.44
579.929	470.44
580.14	460.44
580.35	458.44
580.561	464.44
580.772	446.44
580.982	443.44
581.193	426.44
581.403	451.44
581.614	447.44
581.825	456.44
582.035	443.44
582.246	412.44
582.456	436.44
582.667	471.44
582.877	422.44
583.087	423.44
583.298	423.44
583.508	428.44
583.719	432.44
583.929	439.44
584.139	443.44
584.35	422.44
584.56	416.44
584.77	415.44
584.981	415.44
585.191	424.44
585.401	426.44
585.611	410.44
585.821	421.44
586.032	411.44
586.242	396.44
586.452	410.44
586.662	414.44
586.872	415.44
587.082	419.44
587.292	410.44
587.502	432.44
587.713	431.44
587.923	425.44
588.133	393.44
588.343	407.44
588.553	416.44
588.762	410.44
588.972	412.44
589.182	440.44
589.392	462.44
589.602	426.44
589.812	434.44
590.022	422.44
590.232	423.44
590.441	411.44
590.651	398.44
590.861	420.44
591.071	413.44
591.281	416.44
591.49	427.44
591.7	431.44
591.91	419.44
592.119	445.44
592.329	427.44
592.539	432.44
592.748	456.44
592.958	459.44
593.167	444.44
593.377	456.44
593.587	464.44
593.796	439.44
594.006	488.44
594.215	469.44
594.424	452.44
594.634	444.44
594.843	448.44
595.053	444.44
595.262	459.44
595.472	427.44
595.681	418.44
595.89	398.44
596.1	404.44
596.309	416.44
596.518	383.44
596.727	380.44
596.937	381.44
597.146	384.44
597.355	383.44
597.564	386.44
597.774	366.44
597.983	362.44
598.192	358.44
598.401	374.44
598.61	371.44
598.819	370.44
599.028	366.44
599.237	350.44
599.446	339.44
599.655	364.44
599.864	349.44
600.073	326.44
600.282	335.44
600.491	342.44
600.7	364.44
600.909	334.44
601.118	341.44
601.327	337.44
601.536	350.44
601.745	335.44
601.953	343.44
602.162	335.44
602.371	324.44
602.58	341.44
602.789	319.44
602.997	346.44
603.206	323.44
603.415	332.44
603.623	339.44
603.832	314.44
604.041	332.44
604.249	346.44
604.458	342.44
604.666	338.44
604.875	321.44
605.084	319.44
605.292	328.44
605.501	322.44
605.709	319.44
605.918	315.44
606.126	320.44
606.334	332.44
606.543	326.44
606.751	308.44
606.96	327.44
607.168	308.44
607.376	313.44
607.585	317.44
607.793	333.44
608.001	322.44
608.21	305.44
608.418	321.44
608.626	334.44
608.834	313.44
609.043	313.44
609.251	311.44
609.459	288.44
609.667	306.44
609.875	316.44
610.083	318.44
610.291	333.44
610.499	311.44
610.707	300.44
610.916	306.44
611.124	309.44
611.332	317.44
611.54	327.44
611.748	310.44
611.955	318.44
612.163	312.44
612.371	307.44
612.579	299.44
612.787	308.44
612.995	294.44
613.203	293.44
613.411	299.44
613.618	309.44
613.826	298.44
614.034	316.44
614.242	298.44
614.449	298.44
614.657	291.44
614.865	295.44
615.072	295.44
615.28	289.44
615.488	289.44
615.695	294.44
615.903	303.44
616.111	279.44
616.318	307.44
616.526	288.44
616.733	300.44
616.941	270.44
617.148	298.44
617.356	296.44
617.563	293.44
617.771	275.44
617.978	295.44
618.185	279.44
618.393	292.44
618.6	298.44
618.807	296.44
619.015	293.44
619.222	294.44
619.429	276.44
619.637	265.44
619.844	278.44
620.051	274.44
620.258	267.44
620.466	264.44
620.673	274.44
620.88	265.44
621.087	266.44
621.294	268.44
621.501	271.44
621.708	278.44
621.915	268.44
622.122	268.44
622.329	278.44
622.536	281.44
622.743	270.44
622.95	273.44
623.157	271.44
623.364	270.44
623.571	284.44
623.778	279.44
623.985	278.44
624.192	264.44
624.399	261.44
624.606	271.44
624.812	248.44
625.019	253.44
625.226	258.44
625.433	253.44
625.639	249.44
625.846	262.44
626.053	247.44
626.259	268.44
626.466	253.44
626.673	266.44
626.879	231.44
627.086	233.44
627.293	244.44
627.499	280.44
627.706	250.44
627.912	244.44
628.119	247.44
628.325	236.44
628.532	244.44
628.738	262.44
628.945	249.44
629.151	247.44
629.357	233.44
629.564	226.44
629.77	244.44
629.976	224.44
630.183	221.44
630.389	240.44
630.595	224.44
630.802	236.44
631.008	213.44
631.214	229.44
631.42	239.44
631.627	239.44
631.833	231.44
632.039	208.44
632.245	234.44
632.451	230.44
632.657	227.44
632.863	206.44
633.069	223.44
633.275	213.44
633.481	219.44
633.688	232.44
633.893	238.44
634.099	236.44
634.305	227.44
634.511	223.44
634.717	220.44
634.923	221.44
635.129	206.44
635.335	218.44
635.541	206.44
635.747	219.44
635.952	244.44
636.158	210.44
636.364	224.44
636.57	237.44
636.775	211.44
636.981	210.44
637.187	225.44
637.392	228.44
637.598	228.44
637.804	221.44
638.009	209.44
638.215	218.44
638.421	215.44
638.626	214.44
638.832	194.44
639.037	212.44
639.243	215.44
639.448	197.44
639.654	213.44
639.859	214.44
640.065	204.44
640.27	214.44
640.475	190.44
640.681	191.44
640.886	213.44
641.091	210.44
641.297	206.44
641.502	200.44
641.707	202.44
641.913	186.44
642.118	199.44
642.323	206.44
642.528	216.44
642.733	213.44
642.939	195.44
643.144	196.44
643.349	204.44
643.554	192.44
643.759	211.44
643.964	200.44
644.169	186.44
644.374	188.44
644.579	221.44
644.784	215.44
644.989	192.44
645.194	194.44
645.399	196.44
645.604	182.44
645.809	204.44
646.014	196.44
646.219	198.44
646.423	189.44
646.628	203.44
646.833	197.44
647.038	204.44
647.243	197.44
647.447	215.44
647.652	199.44
647.857	201.44
648.062	175.44
648.266	189.44
648.471	199.44
648.676	211.44
648.88	202.44
649.085	209.44
649.289	202.44
649.494	188.44
649.698	200.44
649.903	180.44
650.107	196.44
650.312	180.44
650.516	186.44
650.721	186.44
650.925	193.44
651.13	190.44
651.334	174.44
651.539	171.44
651.743	171.44
651.947	174.44
652.152	187.44
652.356	158.44
652.56	169.44
652.764	166.44
652.969	176.44
653.173	167.44
653.377	167.44
653.581	163.44
653.785	151.44
653.99	158.44
654.194	153.44
654.398	144.44
654.602	151.44
654.806	157.44
655.01	152.44
655.214	154.44
655.418	149.44
655.622	139.44
655.826	158.44
656.03	148.44
656.234	151.44
656.438	147.44
656.642	139.44
656.846	142.44
657.049	144.44
657.253	144.44
657.457	128.44
657.661	117.44
657.865	120.44
658.068	124.44
658.272	118.44
658.476	117.44
658.68	120.44
658.883	108.44
659.087	110.44
659.291	97.44
659.494	114.44
659.698	102.44
659.901	99.44
660.105	118.44
660.309	94.44
660.512	91.44
660.716	75.44
660.919	102.44
661.123	108.44
661.326	96.44
661.53	92.44
661.733	86.44
661.936	101.44
662.14	100.44
662.343	86.44
662.546	93.44
662.75	92.44
662.953	92.44
663.156	84.44
663.36	101.44
663.563	86.44
663.766	84.44
663.969	84.44
664.173	81.44
664.376	87.44
664.579	71.44
664.782	64.44
664.985	83.44
665.188	73.44
665.391	79.44
665.594	91.44
665.797	91.44
666	92.44
666.203	72.44
666.406	76.44
666.609	76.44
666.812	96.44
667.015	74.44
667.218	78.44
667.421	73.44
667.624	79.44
667.827	73.44
668.03	77.44
668.232	94.44
668.435	82.44
668.638	89.44
668.841	88.44
669.043	81.44
669.246	86.44
669.449	83.44
669.651	78.44
669.854	67.44
670.057	78.44
670.259	87.44
670.462	85.44
670.665	87.44
670.867	86.44
671.07	81.44
671.272	88.44
671.475	68.44
671.677	82.44
671.88	78.44
672.082	86.44
672.284	84.44
672.487	88.44
672.689	86.44
672.892	87.44
