Data from Ni(NO3)2@0.0625M.TitratingCurve.Agarose3%dH2O.NegLispCup.LampEnergy10.LIBS07252019_HRD10591_18-13-06-568.txt Node
Date: Thu Jul 25 18:13:06 EDT 2019
User: cochatt
Spectrometer: HR+D1059
Trigger mode: 1
Integration Time (sec): 1.000000E-1
Scans to average: 1
Electric dark correction enabled: true
Nonlinearity correction enabled: false
Boxcar width: 0
XAxis mode: Wavelengths
Number of Pixels in Spectrum: 2048
>>>>>Begin Spectral Data<<<<<
223.165	-24.62
223.4	-24.62
223.635	-24.62
223.869	-29.62
224.104	-12.62
224.338	-18.62
224.573	-20.62
224.808	0.38
225.042	-10.62
225.277	-11.62
225.511	-9.62
225.746	-0.62
225.98	12.38
226.215	13.38
226.449	19.38
226.683	22.38
226.918	39.38
227.152	31.38
227.387	29.38
227.621	37.38
227.856	31.38
228.09	41.38
228.324	41.38
228.559	71.38
228.793	77.38
229.027	104.38
229.262	107.38
229.496	125.38
229.73	127.38
229.964	111.38
230.199	130.38
230.433	126.38
230.667	137.38
230.901	132.38
231.136	130.38
231.37	143.38
231.604	137.38
231.838	151.38
232.072	133.38
232.306	148.38
232.541	142.38
232.775	146.38
233.009	156.38
233.243	144.38
233.477	143.38
233.711	142.38
233.945	141.38
234.179	138.38
234.413	148.38
234.647	143.38
234.881	138.38
235.115	144.38
235.349	147.38
235.583	143.38
235.817	133.38
236.051	138.38
236.285	162.38
236.519	160.38
236.753	153.38
236.987	157.38
237.221	152.38
237.455	144.38
237.689	172.38
237.922	166.38
238.156	157.38
238.39	148.38
238.624	154.38
238.858	167.38
239.091	162.38
239.325	155.38
239.559	171.38
239.793	158.38
240.027	172.38
240.26	159.38
240.494	164.38
240.728	177.38
240.961	175.38
241.195	180.38
241.429	169.38
241.662	174.38
241.896	169.38
242.13	189.38
242.363	190.38
242.597	188.38
242.83	184.38
243.064	190.38
243.298	190.38
243.531	170.38
243.765	199.38
243.998	189.38
244.232	185.38
244.465	205.38
244.699	203.38
244.932	199.38
245.166	215.38
245.399	208.38
245.633	194.38
245.866	197.38
246.099	199.38
246.333	199.38
246.566	212.38
246.8	218.38
247.033	210.38
247.266	223.38
247.5	209.38
247.733	232.38
247.966	205.38
248.2	220.38
248.433	209.38
248.666	218.38
248.899	229.38
249.133	215.38
249.366	220.38
249.599	214.38
249.832	231.38
250.066	248.38
250.299	237.38
250.532	233.38
250.765	219.38
250.998	220.38
251.231	239.38
251.465	243.38
251.698	243.38
251.931	253.38
252.164	232.38
252.397	271.38
252.63	264.38
252.863	270.38
253.096	255.38
253.329	250.38
253.562	248.38
253.795	242.38
254.028	245.38
254.261	260.38
254.494	255.38
254.727	252.38
254.96	248.38
255.193	260.38
255.426	280.38
255.659	276.38
255.892	262.38
256.124	265.38
256.357	276.38
256.59	278.38
256.823	265.38
257.056	277.38
257.289	279.38
257.521	279.38
257.754	284.38
257.987	286.38
258.22	276.38
258.452	279.38
258.685	290.38
258.918	278.38
259.151	300.38
259.383	312.38
259.616	285.38
259.849	295.38
260.081	307.38
260.314	299.38
260.547	270.38
260.779	294.38
261.012	281.38
261.244	303.38
261.477	297.38
261.71	311.38
261.942	295.38
262.175	296.38
262.407	290.38
262.64	306.38
262.872	311.38
263.105	323.38
263.337	304.38
263.57	322.38
263.802	309.38
264.035	315.38
264.267	313.38
264.499	309.38
264.732	320.38
264.964	311.38
265.197	321.38
265.429	319.38
265.661	338.38
265.894	322.38
266.126	323.38
266.358	309.38
266.591	338.38
266.823	353.38
267.055	338.38
267.287	339.38
267.52	363.38
267.752	346.38
267.984	342.38
268.216	347.38
268.448	322.38
268.681	332.38
268.913	363.38
269.145	357.38
269.377	357.38
269.609	349.38
269.841	339.38
270.073	351.38
270.306	352.38
270.538	349.38
270.77	343.38
271.002	356.38
271.234	362.38
271.466	354.38
271.698	367.38
271.93	359.38
272.162	357.38
272.394	372.38
272.626	358.38
272.858	380.38
273.09	390.38
273.322	376.38
273.553	372.38
273.785	362.38
274.017	366.38
274.249	393.38
274.481	374.38
274.713	390.38
274.945	401.38
275.176	365.38
275.408	404.38
275.64	395.38
275.872	408.38
276.104	387.38
276.335	372.38
276.567	379.38
276.799	401.38
277.031	404.38
277.262	414.38
277.494	410.38
277.726	393.38
277.957	403.38
278.189	401.38
278.421	410.38
278.652	426.38
278.884	436.38
279.115	404.38
279.347	406.38
279.579	416.38
279.81	434.38
280.042	412.38
280.273	409.38
280.505	424.38
280.736	413.38
280.968	420.38
281.199	456.38
281.431	440.38
281.662	437.38
281.894	438.38
282.125	431.38
282.356	451.38
282.588	441.38
282.819	439.38
283.051	464.38
283.282	460.38
283.513	456.38
283.745	461.38
283.976	454.38
284.207	458.38
284.439	464.38
284.67	463.38
284.901	458.38
285.132	473.38
285.364	466.38
285.595	458.38
285.826	465.38
286.057	474.38
286.288	487.38
286.52	464.38
286.751	461.38
286.982	471.38
287.213	463.38
287.444	474.38
287.675	482.38
287.906	477.38
288.138	479.38
288.369	470.38
288.6	495.38
288.831	483.38
289.062	480.38
289.293	495.38
289.524	486.38
289.755	495.38
289.986	470.38
290.217	495.38
290.448	484.38
290.679	503.38
290.91	490.38
291.141	492.38
291.371	513.38
291.602	522.38
291.833	483.38
292.064	474.38
292.295	504.38
292.526	496.38
292.757	512.38
292.987	494.38
293.218	499.38
293.449	527.38
293.68	506.38
293.91	498.38
294.141	490.38
294.372	504.38
294.603	514.38
294.833	502.38
295.064	507.38
295.295	510.38
295.525	513.38
295.756	514.38
295.987	493.38
296.217	521.38
296.448	522.38
296.679	519.38
296.909	538.38
297.14	531.38
297.37	538.38
297.601	566.38
297.831	535.38
298.062	533.38
298.292	534.38
298.523	537.38
298.753	558.38
298.984	543.38
299.214	525.38
299.445	568.38
299.675	539.38
299.905	576.38
300.136	530.38
300.366	545.38
300.597	550.38
300.827	565.38
301.057	582.38
301.288	565.38
301.518	571.38
301.748	588.38
301.979	593.38
302.209	581.38
302.439	596.38
302.669	562.38
302.9	560.38
303.13	569.38
303.36	590.38
303.59	562.38
303.82	568.38
304.051	566.38
304.281	551.38
304.511	570.38
304.741	589.38
304.971	556.38
305.201	560.38
305.431	558.38
305.661	567.38
305.891	560.38
306.121	578.38
306.352	569.38
306.582	571.38
306.812	563.38
307.042	581.38
307.272	554.38
307.502	569.38
307.731	588.38
307.961	575.38
308.191	565.38
308.421	554.38
308.651	546.38
308.881	538.38
309.111	567.38
309.341	526.38
309.571	557.38
309.8	573.38
310.03	606.38
310.26	575.38
310.49	567.38
310.72	542.38
310.949	583.38
311.179	577.38
311.409	589.38
311.639	580.38
311.868	597.38
312.098	600.38
312.328	601.38
312.557	592.38
312.787	580.38
313.017	603.38
313.246	605.38
313.476	627.38
313.706	612.38
313.935	606.38
314.165	620.38
314.394	619.38
314.624	601.38
314.853	611.38
315.083	590.38
315.312	617.38
315.542	583.38
315.771	613.38
316.001	610.38
316.23	604.38
316.46	599.38
316.689	600.38
316.919	612.38
317.148	576.38
317.377	606.38
317.607	587.38
317.836	617.38
318.065	592.38
318.295	599.38
318.524	600.38
318.753	613.38
318.983	596.38
319.212	589.38
319.441	597.38
319.67	580.38
319.9	611.38
320.129	605.38
320.358	611.38
320.587	612.38
320.816	594.38
321.046	598.38
321.275	614.38
321.504	587.38
321.733	596.38
321.962	620.38
322.191	614.38
322.42	612.38
322.649	622.38
322.878	629.38
323.108	611.38
323.337	634.38
323.566	590.38
323.795	626.38
324.024	620.38
324.253	650.38
324.482	623.38
324.71	631.38
324.939	654.38
325.168	659.38
325.397	645.38
325.626	660.38
325.855	646.38
326.084	669.38
326.313	654.38
326.542	676.38
326.77	677.38
326.999	665.38
327.228	648.38
327.457	666.38
327.686	650.38
327.914	670.38
328.143	689.38
328.372	683.38
328.6	682.38
328.829	680.38
329.058	676.38
329.287	695.38
329.515	683.38
329.744	696.38
329.972	679.38
330.201	675.38
330.43	706.38
330.658	673.38
330.887	695.38
331.115	708.38
331.344	703.38
331.572	719.38
331.801	726.38
332.03	755.38
332.258	775.38
332.486	768.38
332.715	810.38
332.943	862.38
333.172	867.38
333.4	923.38
333.629	926.38
333.857	925.38
334.085	904.38
334.314	895.38
334.542	872.38
334.771	866.38
334.999	856.38
335.227	845.38
335.455	840.38
335.684	836.38
335.912	801.38
336.14	834.38
336.369	793.38
336.597	815.38
336.825	807.38
337.053	818.38
337.281	816.38
337.51	782.38
337.738	775.38
337.966	754.38
338.194	761.38
338.422	762.38
338.65	734.38
338.878	720.38
339.106	750.38
339.334	750.38
339.562	728.38
339.79	705.38
340.018	719.38
340.246	692.38
340.474	703.38
340.702	703.38
340.93	704.38
341.158	714.38
341.386	716.38
341.614	712.38
341.842	710.38
342.07	715.38
342.298	715.38
342.526	709.38
342.754	715.38
342.981	685.38
343.209	739.38
343.437	784.38
343.665	805.38
343.893	861.38
344.12	871.38
344.348	819.38
344.576	799.38
344.804	767.38
345.031	717.38
345.259	715.38
345.487	736.38
345.714	720.38
345.942	693.38
346.17	722.38
346.397	707.38
346.625	691.38
346.853	702.38
347.08	671.38
347.308	704.38
347.535	694.38
347.763	688.38
347.99	686.38
348.218	716.38
348.445	686.38
348.673	674.38
348.9	714.38
349.128	677.38
349.355	669.38
349.583	691.38
349.81	664.38
350.037	659.38
350.265	670.38
350.492	676.38
350.72	651.38
350.947	656.38
351.174	651.38
351.402	662.38
351.629	665.38
351.856	655.38
352.083	668.38
352.311	670.38
352.538	674.38
352.765	658.38
352.992	639.38
353.22	635.38
353.447	666.38
353.674	660.38
353.901	658.38
354.128	640.38
354.355	640.38
354.583	663.38
354.81	655.38
355.037	669.38
355.264	692.38
355.491	676.38
355.718	705.38
355.945	671.38
356.172	686.38
356.399	685.38
356.626	703.38
356.853	673.38
357.08	672.38
357.307	660.38
357.534	667.38
357.761	675.38
357.988	672.38
358.215	656.38
358.441	679.38
358.668	676.38
358.895	679.38
359.122	670.38
359.349	660.38
359.576	650.38
359.802	655.38
360.029	666.38
360.256	682.38
360.483	672.38
360.709	670.38
360.936	674.38
361.163	682.38
361.39	678.38
361.616	671.38
361.843	652.38
362.07	696.38
362.296	706.38
362.523	661.38
362.749	672.38
362.976	706.38
363.203	653.38
363.429	628.38
363.656	658.38
363.882	666.38
364.109	669.38
364.335	662.38
364.562	663.38
364.788	648.38
365.015	666.38
365.241	662.38
365.468	691.38
365.694	664.38
365.92	674.38
366.147	642.38
366.373	679.38
366.599	668.38
366.826	698.38
367.052	658.38
367.278	659.38
367.505	679.38
367.731	678.38
367.957	678.38
368.184	671.38
368.41	658.38
368.636	686.38
368.862	667.38
369.089	708.38
369.315	677.38
369.541	714.38
369.767	707.38
369.993	691.38
370.219	703.38
370.445	708.38
370.672	690.38
370.898	713.38
371.124	738.38
371.35	731.38
371.576	710.38
371.802	739.38
372.028	700.38
372.254	719.38
372.48	749.38
372.706	768.38
372.932	760.38
373.158	751.38
373.384	742.38
373.61	748.38
373.835	743.38
374.061	719.38
374.287	712.38
374.513	767.38
374.739	767.38
374.965	796.38
375.191	813.38
375.416	800.38
375.642	781.38
375.868	765.38
376.094	746.38
376.319	762.38
376.545	724.38
376.771	721.38
376.997	722.38
377.222	718.38
377.448	721.38
377.674	745.38
377.899	727.38
378.125	707.38
378.35	713.38
378.576	715.38
378.802	719.38
379.027	716.38
379.253	730.38
379.478	723.38
379.704	720.38
379.929	725.38
380.155	718.38
380.38	707.38
380.606	729.38
380.831	710.38
381.057	730.38
381.282	726.38
381.507	745.38
381.733	716.38
381.958	729.38
382.184	744.38
382.409	747.38
382.634	756.38
382.86	786.38
383.085	782.38
383.31	784.38
383.535	790.38
383.761	820.38
383.986	813.38
384.211	851.38
384.436	838.38
384.662	878.38
384.887	888.38
385.112	889.38
385.337	879.38
385.562	859.38
385.787	906.38
386.013	882.38
386.238	897.38
386.463	884.38
386.688	886.38
386.913	868.38
387.138	862.38
387.363	874.38
387.588	860.38
387.813	856.38
388.038	829.38
388.263	859.38
388.488	855.38
388.713	883.38
388.938	871.38
389.163	834.38
389.387	845.38
389.612	835.38
389.837	835.38
390.062	863.38
390.287	868.38
390.512	851.38
390.736	858.38
390.961	870.38
391.186	900.38
391.411	931.38
391.636	955.38
391.86	992.38
392.085	1015.38
392.31	986.38
392.534	987.38
392.759	941.38
392.984	931.38
393.208	915.38
393.433	928.38
393.658	914.38
393.882	953.38
394.107	934.38
394.331	934.38
394.556	924.38
394.78	969.38
395.005	973.38
395.229	926.38
395.454	963.38
395.678	992.38
395.903	978.38
396.127	968.38
396.352	939.38
396.576	930.38
396.801	922.38
397.025	933.38
397.249	964.38
397.474	990.38
397.698	1006.38
397.922	1018.38
398.147	995.38
398.371	997.38
398.595	1016.38
398.82	1088.38
399.044	1188.38
399.268	1306.38
399.492	1540.38
399.717	1750.38
399.941	1707.38
400.165	1461.38
400.389	1332.38
400.613	1230.38
400.837	1170.38
401.062	1124.38
401.286	1097.38
401.51	1119.38
401.734	1092.38
401.958	1108.38
402.182	1146.38
402.406	1133.38
402.63	1157.38
402.854	1186.38
403.078	1213.38
403.302	1272.38
403.526	1269.38
403.75	1261.38
403.974	1324.38
404.198	1314.38
404.422	1315.38
404.645	1316.38
404.869	1280.38
405.093	1252.38
405.317	1209.38
405.541	1234.38
405.765	1196.38
405.988	1222.38
406.212	1201.38
406.436	1212.38
406.66	1257.38
406.883	1239.38
407.107	1332.38
407.331	1403.38
407.555	1456.38
407.778	1410.38
408.002	1358.38
408.226	1357.38
408.449	1318.38
408.673	1253.38
408.896	1242.38
409.12	1244.38
409.344	1248.38
409.567	1247.38
409.791	1228.38
410.014	1241.38
410.238	1204.38
410.461	1226.38
410.685	1206.38
410.908	1217.38
411.132	1174.38
411.355	1151.38
411.578	1139.38
411.802	1118.38
412.025	1114.38
412.249	1168.38
412.472	1206.38
412.695	1091.38
412.919	1095.38
413.142	1102.38
413.365	1064.38
413.589	1104.38
413.812	1090.38
414.035	1067.38
414.258	1085.38
414.482	1095.38
414.705	1124.38
414.928	1108.38
415.151	1084.38
415.374	1120.38
415.597	1102.38
415.821	1084.38
416.044	1069.38
416.267	1063.38
416.49	1044.38
416.713	1082.38
416.936	1079.38
417.159	1048.38
417.382	1040.38
417.605	1074.38
417.828	1094.38
418.051	1076.38
418.274	1096.38
418.497	1063.38
418.72	1094.38
418.943	1132.38
419.166	1197.38
419.389	1210.38
419.611	1195.38
419.834	1162.38
420.057	1117.38
420.28	1078.38
420.503	1056.38
420.726	1084.38
420.948	1043.38
421.171	1081.38
421.394	1092.38
421.617	1060.38
421.839	1077.38
422.062	1094.38
422.285	1055.38
422.507	1114.38
422.73	1104.38
422.953	1125.38
423.175	1135.38
423.398	1159.38
423.621	1149.38
423.843	1187.38
424.066	1158.38
424.288	1162.38
424.511	1130.38
424.733	1157.38
424.956	1095.38
425.178	1100.38
425.401	1108.38
425.623	1090.38
425.846	1054.38
426.068	1060.38
426.291	1008.38
426.513	1005.38
426.735	1017.38
426.958	986.38
427.18	954.38
427.402	990.38
427.625	980.38
427.847	946.38
428.069	935.38
428.292	939.38
428.514	947.38
428.736	970.38
428.958	965.38
429.181	924.38
429.403	919.38
429.625	913.38
429.847	923.38
430.069	888.38
430.292	926.38
430.514	916.38
430.736	925.38
430.958	945.38
431.18	932.38
431.402	916.38
431.624	931.38
431.846	970.38
432.068	973.38
432.29	1001.38
432.512	950.38
432.734	953.38
432.956	963.38
433.178	971.38
433.4	954.38
433.622	963.38
433.844	946.38
434.066	986.38
434.287	999.38
434.509	1031.38
434.731	1059.38
434.953	1063.38
435.175	1093.38
435.397	1086.38
435.618	1028.38
435.84	1013.38
436.062	938.38
436.284	970.38
436.505	931.38
436.727	960.38
436.949	990.38
437.17	965.38
437.392	942.38
437.614	924.38
437.835	916.38
438.057	918.38
438.278	909.38
438.5	901.38
438.721	912.38
438.943	921.38
439.165	891.38
439.386	921.38
439.608	937.38
439.829	956.38
440.05	962.38
440.272	950.38
440.493	954.38
440.715	966.38
440.936	1001.38
441.158	1003.38
441.379	1030.38
441.6	1079.38
441.822	1094.38
442.043	1089.38
442.264	1094.38
442.486	1047.38
442.707	1071.38
442.928	1062.38
443.149	1045.38
443.371	1074.38
443.592	1058.38
443.813	1094.38
444.034	1110.38
444.255	1138.38
444.476	1164.38
444.698	1291.38
444.919	1331.38
445.14	1376.38
445.361	1237.38
445.582	1103.38
445.803	1059.38
446.024	1003.38
446.245	993.38
446.466	982.38
446.687	955.38
446.908	963.38
447.129	934.38
447.35	906.38
447.571	931.38
447.792	896.38
448.013	907.38
448.234	883.38
448.455	851.38
448.675	900.38
448.896	863.38
449.117	888.38
449.338	882.38
449.559	834.38
449.779	864.38
450	872.38
450.221	876.38
450.442	884.38
450.662	912.38
450.883	882.38
451.104	887.38
451.324	880.38
451.545	888.38
451.766	882.38
451.986	867.38
452.207	855.38
452.428	866.38
452.648	873.38
452.869	839.38
453.089	842.38
453.31	876.38
453.53	852.38
453.751	831.38
453.971	837.38
454.192	856.38
454.412	827.38
454.633	818.38
454.853	817.38
455.073	822.38
455.294	830.38
455.514	798.38
455.734	804.38
455.955	795.38
456.175	824.38
456.395	798.38
456.616	788.38
456.836	811.38
457.056	816.38
457.276	806.38
457.497	830.38
457.717	801.38
457.937	804.38
458.157	836.38
458.377	857.38
458.598	884.38
458.818	880.38
459.038	896.38
459.258	926.38
459.478	946.38
459.698	999.38
459.918	1023.38
460.138	1070.38
460.358	1133.38
460.578	1130.38
460.798	1160.38
461.018	1149.38
461.238	1136.38
461.458	1095.38
461.678	1120.38
461.898	1123.38
462.118	1182.38
462.338	1222.38
462.558	1258.38
462.777	1321.38
462.997	1445.38
463.217	1541.38
463.437	1582.38
463.657	1376.38
463.876	1307.38
464.096	1321.38
464.316	1326.38
464.536	1360.38
464.755	1255.38
464.975	1211.38
465.195	1184.38
465.414	1107.38
465.634	1016.38
465.854	1010.38
466.073	982.38
466.293	957.38
466.512	959.38
466.732	924.38
466.951	900.38
467.171	922.38
467.391	949.38
467.61	938.38
467.829	932.38
468.049	927.38
468.268	901.38
468.488	878.38
468.707	867.38
468.927	864.38
469.146	857.38
469.365	894.38
469.585	896.38
469.804	918.38
470.023	924.38
470.243	934.38
470.462	949.38
470.681	965.38
470.901	954.38
471.12	891.38
471.339	909.38
471.558	908.38
471.777	911.38
471.997	898.38
472.216	877.38
472.435	873.38
472.654	862.38
472.873	856.38
473.092	862.38
473.311	838.38
473.53	837.38
473.749	839.38
473.968	834.38
474.187	820.38
474.406	849.38
474.625	847.38
474.844	856.38
475.063	860.38
475.282	847.38
475.501	861.38
475.72	882.38
475.939	859.38
476.158	876.38
476.377	856.38
476.596	894.38
476.814	872.38
477.033	887.38
477.252	927.38
477.471	936.38
477.69	957.38
477.908	992.38
478.127	1021.38
478.346	1035.38
478.564	1048.38
478.783	1068.38
479.002	1092.38
479.22	1103.38
479.439	1065.38
479.658	1062.38
479.876	1056.38
480.095	1086.38
480.313	1140.38
480.532	1176.38
480.751	1172.38
480.969	1096.38
481.188	1060.38
481.406	1023.38
481.624	1014.38
481.843	982.38
482.061	1012.38
482.28	990.38
482.498	981.38
482.717	969.38
482.935	970.38
483.153	986.38
483.372	969.38
483.59	968.38
483.808	962.38
484.027	980.38
484.245	1003.38
484.463	985.38
484.681	989.38
484.9	996.38
485.118	999.38
485.336	1001.38
485.554	1004.38
485.772	1018.38
485.99	1026.38
486.209	1017.38
486.427	1034.38
486.645	1022.38
486.863	1016.38
487.081	1015.38
487.299	1034.38
487.517	1016.38
487.735	1007.38
487.953	1004.38
488.171	1023.38
488.389	1023.38
488.607	1008.38
488.825	1003.38
489.043	1018.38
489.261	1000.38
489.479	986.38
489.696	1016.38
489.914	1019.38
490.132	1034.38
490.35	996.38
490.568	1031.38
490.786	1037.38
491.003	1006.38
491.221	1051.38
491.439	1041.38
491.657	1005.38
491.874	1013.38
492.092	1032.38
492.31	1051.38
492.527	1033.38
492.745	1049.38
492.963	1061.38
493.18	1051.38
493.398	1082.38
493.615	1050.38
493.833	1046.38
494.05	1069.38
494.268	1086.38
494.485	1083.38
494.703	1103.38
494.92	1107.38
495.138	1071.38
495.355	1056.38
495.573	1081.38
495.79	1066.38
496.008	1101.38
496.225	1142.38
496.442	1106.38
496.66	1111.38
496.877	1118.38
497.094	1151.38
497.312	1142.38
497.529	1214.38
497.746	1204.38
497.963	1299.38
498.181	1300.38
498.398	1388.38
498.615	1466.38
498.832	1572.38
499.049	1733.38
499.267	1826.38
499.484	2035.38
499.701	2244.38
499.918	2496.38
500.135	2820.38
500.352	3264.38
500.569	3394.38
500.786	3378.38
501.003	3092.38
501.22	2765.38
501.437	2456.38
501.654	2091.38
501.871	1910.38
502.088	1756.38
502.305	1640.38
502.522	1544.38
502.739	1535.38
502.956	1434.38
503.172	1358.38
503.389	1304.38
503.606	1282.38
503.823	1231.38
504.04	1285.38
504.256	1246.38
504.473	1318.38
504.69	1339.38
504.907	1279.38
505.123	1186.38
505.34	1115.38
505.557	1086.38
505.773	1047.38
505.99	1018.38
506.207	1023.38
506.423	967.38
506.64	1003.38
506.856	953.38
507.073	952.38
507.289	935.38
507.506	950.38
507.722	958.38
507.939	950.38
508.155	885.38
508.372	923.38
508.588	911.38
508.805	874.38
509.021	888.38
509.238	878.38
509.454	890.38
509.67	870.38
509.887	858.38
510.103	856.38
510.319	886.38
510.536	892.38
510.752	850.38
510.968	862.38
511.184	854.38
511.401	861.38
511.617	850.38
511.833	867.38
512.049	850.38
512.265	848.38
512.481	849.38
512.698	898.38
512.914	876.38
513.13	856.38
513.346	838.38
513.562	871.38
513.778	865.38
513.994	885.38
514.21	876.38
514.426	878.38
514.642	887.38
514.858	863.38
515.074	872.38
515.29	868.38
515.506	891.38
515.721	912.38
515.937	935.38
516.153	936.38
516.369	961.38
516.585	1022.38
516.801	1063.38
517.016	1077.38
517.232	1117.38
517.448	1185.38
517.664	1218.38
517.879	1256.38
518.095	1224.38
518.311	1204.38
518.527	1104.38
518.742	1126.38
518.958	1040.38
519.173	1015.38
519.389	979.38
519.605	966.38
519.82	959.38
520.036	929.38
520.251	906.38
520.467	887.38
520.682	879.38
520.898	879.38
521.113	856.38
521.329	861.38
521.544	868.38
521.76	818.38
521.975	823.38
522.19	819.38
522.406	838.38
522.621	837.38
522.836	814.38
523.052	805.38
523.267	781.38
523.482	821.38
523.698	816.38
523.913	797.38
524.128	794.38
524.343	798.38
524.559	773.38
524.774	774.38
524.989	791.38
525.204	802.38
525.419	794.38
525.634	791.38
525.849	792.38
526.064	785.38
526.28	799.38
526.495	763.38
526.71	783.38
526.925	784.38
527.14	772.38
527.355	778.38
527.57	769.38
527.785	784.38
527.999	762.38
528.214	834.38
528.429	775.38
528.644	782.38
528.859	772.38
529.074	777.38
529.289	765.38
529.503	785.38
529.718	784.38
529.933	748.38
530.148	763.38
530.363	798.38
530.577	774.38
530.792	772.38
531.007	757.38
531.221	780.38
531.436	769.38
531.651	780.38
531.865	788.38
532.08	801.38
532.295	788.38
532.509	798.38
532.724	797.38
532.938	778.38
533.153	793.38
533.367	772.38
533.582	752.38
533.796	770.38
534.011	775.38
534.225	762.38
534.44	772.38
534.654	773.38
534.868	772.38
535.083	761.38
535.297	763.38
535.511	775.38
535.726	759.38
535.94	750.38
536.154	780.38
536.369	752.38
536.583	719.38
536.797	735.38
537.011	725.38
537.225	730.38
537.44	724.38
537.654	699.38
537.868	728.38
538.082	739.38
538.296	716.38
538.51	712.38
538.724	715.38
538.938	681.38
539.153	722.38
539.367	704.38
539.581	710.38
539.795	705.38
540.009	697.38
540.222	695.38
540.436	698.38
540.65	695.38
540.864	708.38
541.078	725.38
541.292	696.38
541.506	703.38
541.72	675.38
541.934	704.38
542.147	693.38
542.361	703.38
542.575	697.38
542.789	711.38
543.002	690.38
543.216	678.38
543.43	709.38
543.644	708.38
543.857	726.38
544.071	687.38
544.285	713.38
544.498	703.38
544.712	722.38
544.925	698.38
545.139	709.38
545.352	703.38
545.566	716.38
545.779	751.38
545.993	709.38
546.206	726.38
546.42	697.38
546.633	739.38
546.847	710.38
547.06	717.38
547.274	715.38
547.487	717.38
547.7	716.38
547.914	719.38
548.127	710.38
548.34	707.38
548.554	715.38
548.767	737.38
548.98	741.38
549.193	714.38
549.407	746.38
549.62	748.38
549.833	761.38
550.046	730.38
550.259	716.38
550.473	695.38
550.686	713.38
550.899	724.38
551.112	703.38
551.325	695.38
551.538	702.38
551.751	695.38
551.964	712.38
552.177	737.38
552.39	721.38
552.603	759.38
552.816	780.38
553.029	791.38
553.242	785.38
553.455	804.38
553.667	787.38
553.88	792.38
554.093	778.38
554.306	725.38
554.519	725.38
554.732	714.38
554.944	692.38
555.157	692.38
555.37	677.38
555.583	666.38
555.795	652.38
556.008	642.38
556.221	632.38
556.433	639.38
556.646	616.38
556.859	653.38
557.071	618.38
557.284	604.38
557.496	629.38
557.709	644.38
557.921	620.38
558.134	616.38
558.346	602.38
558.559	604.38
558.771	605.38
558.984	571.38
559.196	583.38
559.409	584.38
559.621	600.38
559.833	585.38
560.046	583.38
560.258	598.38
560.47	595.38
560.683	573.38
560.895	572.38
561.107	570.38
561.32	584.38
561.532	599.38
561.744	573.38
561.956	599.38
562.168	588.38
562.381	589.38
562.593	584.38
562.805	606.38
563.017	597.38
563.229	603.38
563.441	574.38
563.653	604.38
563.865	599.38
564.077	604.38
564.289	633.38
564.501	638.38
564.713	627.38
564.925	650.38
565.137	644.38
565.349	682.38
565.561	694.38
565.773	697.38
565.985	735.38
566.197	779.38
566.408	847.38
566.62	921.38
566.832	998.38
567.044	1011.38
567.255	998.38
567.467	1028.38
567.679	1095.38
567.891	1189.38
568.102	1235.38
568.314	1147.38
568.526	982.38
568.737	925.38
568.949	844.38
569.161	735.38
569.372	738.38
569.584	690.38
569.795	669.38
570.007	642.38
570.218	610.38
570.43	629.38
570.641	610.38
570.853	613.38
571.064	626.38
571.276	632.38
571.487	606.38
571.698	595.38
571.91	575.38
572.121	537.38
572.333	544.38
572.544	516.38
572.755	537.38
572.966	512.38
573.178	520.38
573.389	495.38
573.6	500.38
573.811	485.38
574.023	467.38
574.234	498.38
574.445	496.38
574.656	453.38
574.867	502.38
575.078	490.38
575.289	491.38
575.501	475.38
575.712	455.38
575.923	470.38
576.134	466.38
576.345	475.38
576.556	479.38
576.767	471.38
576.978	461.38
577.188	451.38
577.399	447.38
577.61	447.38
577.821	438.38
578.032	437.38
578.243	420.38
578.454	439.38
578.665	430.38
578.875	442.38
579.086	447.38
579.297	434.38
579.508	430.38
579.718	420.38
579.929	421.38
580.14	429.38
580.35	412.38
580.561	429.38
580.772	430.38
580.982	419.38
581.193	419.38
581.403	430.38
581.614	420.38
581.825	407.38
582.035	410.38
582.246	412.38
582.456	413.38
582.667	423.38
582.877	402.38
583.087	392.38
583.298	400.38
583.508	395.38
583.719	401.38
583.929	405.38
584.139	408.38
584.35	369.38
584.56	400.38
584.77	406.38
584.981	398.38
585.191	396.38
585.401	411.38
585.611	386.38
585.821	394.38
586.032	390.38
586.242	391.38
586.452	395.38
586.662	407.38
586.872	406.38
587.082	387.38
587.292	395.38
587.502	384.38
587.713	403.38
587.923	394.38
588.133	396.38
588.343	390.38
588.553	378.38
588.762	393.38
588.972	405.38
589.182	386.38
589.392	386.38
589.602	394.38
589.812	382.38
590.022	403.38
590.232	408.38
590.441	405.38
590.651	395.38
590.861	406.38
591.071	387.38
591.281	388.38
591.49	404.38
591.7	418.38
591.91	417.38
592.119	408.38
592.329	426.38
592.539	437.38
592.748	466.38
592.958	451.38
593.167	503.38
593.377	495.38
593.587	527.38
593.796	490.38
594.006	510.38
594.215	531.38
594.424	548.38
594.634	518.38
594.843	482.38
595.053	461.38
595.262	434.38
595.472	422.38
595.681	426.38
595.89	427.38
596.1	404.38
596.309	402.38
596.518	378.38
596.727	365.38
596.937	367.38
597.146	374.38
597.355	348.38
597.564	363.38
597.774	352.38
597.983	349.38
598.192	342.38
598.401	346.38
598.61	363.38
598.819	357.38
599.028	334.38
599.237	353.38
599.446	328.38
599.655	339.38
599.864	348.38
600.073	327.38
600.282	332.38
600.491	340.38
600.7	327.38
600.909	328.38
601.118	334.38
601.327	324.38
601.536	330.38
601.745	320.38
601.953	322.38
602.162	315.38
602.371	325.38
602.58	322.38
602.789	326.38
602.997	320.38
603.206	330.38
603.415	319.38
603.623	314.38
603.832	315.38
604.041	309.38
604.249	310.38
604.458	310.38
604.666	314.38
604.875	315.38
605.084	314.38
605.292	308.38
605.501	320.38
605.709	328.38
605.918	310.38
606.126	316.38
606.334	322.38
606.543	314.38
606.751	302.38
606.96	301.38
607.168	299.38
607.376	317.38
607.585	306.38
607.793	312.38
608.001	299.38
608.21	292.38
608.418	285.38
608.626	304.38
608.834	297.38
609.043	289.38
609.251	299.38
609.459	288.38
609.667	291.38
609.875	294.38
610.083	313.38
610.291	295.38
610.499	313.38
610.707	298.38
610.916	281.38
611.124	299.38
611.332	293.38
611.54	298.38
611.748	291.38
611.955	297.38
612.163	286.38
612.371	300.38
612.579	288.38
612.787	283.38
612.995	300.38
613.203	271.38
613.411	284.38
613.618	297.38
613.826	277.38
614.034	291.38
614.242	290.38
614.449	298.38
614.657	286.38
614.865	286.38
615.072	281.38
615.28	278.38
615.488	281.38
615.695	292.38
615.903	301.38
616.111	299.38
616.318	316.38
616.526	290.38
616.733	301.38
616.941	293.38
617.148	291.38
617.356	298.38
617.563	284.38
617.771	278.38
617.978	282.38
618.185	318.38
618.393	293.38
618.6	298.38
618.807	285.38
619.015	301.38
619.222	286.38
619.429	278.38
619.637	278.38
619.844	297.38
620.051	272.38
620.258	264.38
620.466	261.38
620.673	263.38
620.88	277.38
621.087	263.38
621.294	256.38
621.501	272.38
621.708	279.38
621.915	269.38
622.122	262.38
622.329	260.38
622.536	290.38
622.743	272.38
622.95	264.38
623.157	259.38
623.364	287.38
623.571	283.38
623.778	261.38
623.985	260.38
624.192	230.38
624.399	236.38
624.606	258.38
624.812	250.38
625.019	265.38
625.226	255.38
625.433	253.38
625.639	239.38
625.846	237.38
626.053	247.38
626.259	249.38
626.466	232.38
626.673	227.38
626.879	224.38
627.086	252.38
627.293	254.38
627.499	259.38
627.706	239.38
627.912	246.38
628.119	242.38
628.325	232.38
628.532	239.38
628.738	228.38
628.945	219.38
629.151	246.38
629.357	237.38
629.564	253.38
629.77	230.38
629.976	241.38
630.183	214.38
630.389	220.38
630.595	221.38
630.802	231.38
631.008	233.38
631.214	235.38
631.42	216.38
631.627	217.38
631.833	214.38
632.039	214.38
632.245	215.38
632.451	223.38
632.657	220.38
632.863	214.38
633.069	226.38
633.275	220.38
633.481	233.38
633.688	218.38
633.893	226.38
634.099	212.38
634.305	195.38
634.511	202.38
634.717	228.38
634.923	215.38
635.129	205.38
635.335	214.38
635.541	212.38
635.747	215.38
635.952	220.38
636.158	204.38
636.364	201.38
636.57	217.38
636.775	223.38
636.981	226.38
637.187	213.38
637.392	211.38
637.598	216.38
637.804	196.38
638.009	214.38
638.215	213.38
638.421	194.38
638.626	210.38
638.832	198.38
639.037	200.38
639.243	208.38
639.448	210.38
639.654	197.38
639.859	210.38
640.065	218.38
640.27	182.38
640.475	208.38
640.681	195.38
640.886	187.38
641.091	187.38
641.297	200.38
641.502	199.38
641.707	187.38
641.913	199.38
642.118	200.38
642.323	193.38
642.528	200.38
642.733	190.38
642.939	208.38
643.144	184.38
643.349	199.38
643.554	204.38
643.759	206.38
643.964	195.38
644.169	165.38
644.374	196.38
644.579	199.38
644.784	200.38
644.989	206.38
645.194	205.38
645.399	206.38
645.604	198.38
645.809	192.38
646.014	201.38
646.219	199.38
646.423	199.38
646.628	171.38
646.833	187.38
647.038	194.38
647.243	183.38
647.447	222.38
647.652	201.38
647.857	200.38
648.062	202.38
648.266	205.38
648.471	222.38
648.676	202.38
648.88	203.38
649.085	219.38
649.289	201.38
649.494	213.38
649.698	193.38
649.903	189.38
650.107	187.38
650.312	187.38
650.516	169.38
650.721	194.38
650.925	163.38
651.13	190.38
651.334	166.38
651.539	180.38
651.743	190.38
651.947	171.38
652.152	165.38
652.356	163.38
652.56	162.38
652.764	162.38
652.969	169.38
653.173	166.38
653.377	170.38
653.581	159.38
653.785	166.38
653.99	155.38
654.194	160.38
654.398	143.38
654.602	142.38
654.806	155.38
655.01	162.38
655.214	157.38
655.418	165.38
655.622	146.38
655.826	162.38
656.03	150.38
656.234	151.38
656.438	158.38
656.642	150.38
656.846	153.38
657.049	142.38
657.253	139.38
657.457	138.38
657.661	137.38
657.865	116.38
658.068	135.38
658.272	126.38
658.476	130.38
658.68	125.38
658.883	110.38
659.087	113.38
659.291	127.38
659.494	131.38
659.698	101.38
659.901	96.38
660.105	109.38
660.309	93.38
660.512	101.38
660.716	109.38
660.919	110.38
661.123	87.38
661.326	102.38
661.53	92.38
661.733	100.38
661.936	100.38
662.14	82.38
662.343	95.38
662.546	82.38
662.75	92.38
662.953	81.38
663.156	71.38
663.36	84.38
663.563	85.38
663.766	76.38
663.969	79.38
664.173	99.38
664.376	78.38
664.579	84.38
664.782	90.38
664.985	93.38
665.188	83.38
665.391	88.38
665.594	82.38
665.797	84.38
666	88.38
666.203	84.38
666.406	96.38
666.609	95.38
666.812	77.38
667.015	85.38
667.218	85.38
667.421	94.38
667.624	90.38
667.827	85.38
668.03	78.38
668.232	96.38
668.435	92.38
668.638	87.38
668.841	97.38
669.043	85.38
669.246	85.38
669.449	84.38
669.651	88.38
669.854	90.38
670.057	83.38
670.259	94.38
670.462	84.38
670.665	84.38
670.867	71.38
671.07	79.38
671.272	81.38
671.475	94.38
671.677	87.38
671.88	90.38
672.082	87.38
672.284	87.38
672.487	92.38
672.689	75.38
672.892	92.38
