Data from Ni(NO3)2@0.25M.TitratingCurve.Agarose3%dH2O.NegLispCup.LampEnergy10.LIBS07252019_HRD10591_18-03-24-566.txt Node
Date: Thu Jul 25 18:03:24 EDT 2019
User: cochatt
Spectrometer: HR+D1059
Trigger mode: 1
Integration Time (sec): 1.000000E-1
Scans to average: 1
Electric dark correction enabled: true
Nonlinearity correction enabled: false
Boxcar width: 0
XAxis mode: Wavelengths
Number of Pixels in Spectrum: 2048
>>>>>Begin Spectral Data<<<<<
223.165	-8.38
223.4	-8.38
223.635	-8.38
223.869	-18.38
224.104	-25.38
224.338	-12.38
224.573	-18.38
224.808	-17.38
225.042	-1.38
225.277	-2.38
225.511	6.62
225.746	1.62
225.98	23.62
226.215	0.62
226.449	11.62
226.683	23.62
226.918	20.62
227.152	15.62
227.387	27.62
227.621	44.62
227.856	42.62
228.09	45.62
228.324	48.62
228.559	56.62
228.793	78.62
229.027	85.62
229.262	105.62
229.496	108.62
229.73	110.62
229.964	126.62
230.199	119.62
230.433	122.62
230.667	125.62
230.901	121.62
231.136	105.62
231.37	117.62
231.604	134.62
231.838	109.62
232.072	127.62
232.306	127.62
232.541	127.62
232.775	109.62
233.009	141.62
233.243	116.62
233.477	127.62
233.711	136.62
233.945	129.62
234.179	124.62
234.413	110.62
234.647	133.62
234.881	137.62
235.115	122.62
235.349	133.62
235.583	100.62
235.817	129.62
236.051	123.62
236.285	133.62
236.519	122.62
236.753	136.62
236.987	141.62
237.221	130.62
237.455	119.62
237.689	115.62
237.922	129.62
238.156	137.62
238.39	125.62
238.624	131.62
238.858	137.62
239.091	130.62
239.325	136.62
239.559	153.62
239.793	134.62
240.027	147.62
240.26	140.62
240.494	128.62
240.728	142.62
240.961	154.62
241.195	141.62
241.429	137.62
241.662	139.62
241.896	138.62
242.13	157.62
242.363	130.62
242.597	147.62
242.83	141.62
243.064	143.62
243.298	147.62
243.531	138.62
243.765	154.62
243.998	161.62
244.232	167.62
244.465	170.62
244.699	160.62
244.932	162.62
245.166	177.62
245.399	158.62
245.633	167.62
245.866	170.62
246.099	173.62
246.333	163.62
246.566	163.62
246.8	175.62
247.033	186.62
247.266	183.62
247.5	167.62
247.733	181.62
247.966	169.62
248.2	179.62
248.433	179.62
248.666	182.62
248.899	190.62
249.133	184.62
249.366	205.62
249.599	197.62
249.832	192.62
250.066	196.62
250.299	197.62
250.532	203.62
250.765	222.62
250.998	219.62
251.231	210.62
251.465	216.62
251.698	227.62
251.931	226.62
252.164	234.62
252.397	215.62
252.63	241.62
252.863	220.62
253.096	220.62
253.329	233.62
253.562	250.62
253.795	234.62
254.028	246.62
254.261	259.62
254.494	256.62
254.727	253.62
254.96	243.62
255.193	251.62
255.426	253.62
255.659	262.62
255.892	279.62
256.124	263.62
256.357	282.62
256.59	274.62
256.823	270.62
257.056	274.62
257.289	291.62
257.521	285.62
257.754	282.62
257.987	301.62
258.22	281.62
258.452	290.62
258.685	292.62
258.918	297.62
259.151	281.62
259.383	314.62
259.616	281.62
259.849	301.62
260.081	298.62
260.314	303.62
260.547	312.62
260.779	298.62
261.012	313.62
261.244	332.62
261.477	310.62
261.71	323.62
261.942	300.62
262.175	315.62
262.407	310.62
262.64	322.62
262.872	305.62
263.105	351.62
263.337	322.62
263.57	324.62
263.802	315.62
264.035	318.62
264.267	329.62
264.499	338.62
264.732	338.62
264.964	345.62
265.197	334.62
265.429	344.62
265.661	340.62
265.894	333.62
266.126	330.62
266.358	334.62
266.591	333.62
266.823	327.62
267.055	345.62
267.287	346.62
267.52	347.62
267.752	353.62
267.984	337.62
268.216	344.62
268.448	354.62
268.681	340.62
268.913	358.62
269.145	349.62
269.377	361.62
269.609	364.62
269.841	357.62
270.073	356.62
270.306	376.62
270.538	356.62
270.77	357.62
271.002	354.62
271.234	358.62
271.466	380.62
271.698	362.62
271.93	377.62
272.162	362.62
272.394	375.62
272.626	379.62
272.858	358.62
273.09	365.62
273.322	377.62
273.553	379.62
273.785	369.62
274.017	374.62
274.249	383.62
274.481	385.62
274.713	384.62
274.945	381.62
275.176	387.62
275.408	377.62
275.64	387.62
275.872	395.62
276.104	403.62
276.335	381.62
276.567	385.62
276.799	378.62
277.031	405.62
277.262	409.62
277.494	396.62
277.726	394.62
277.957	418.62
278.189	407.62
278.421	393.62
278.652	410.62
278.884	406.62
279.115	391.62
279.347	395.62
279.579	399.62
279.81	423.62
280.042	409.62
280.273	409.62
280.505	418.62
280.736	397.62
280.968	399.62
281.199	408.62
281.431	422.62
281.662	392.62
281.894	409.62
282.125	415.62
282.356	410.62
282.588	427.62
282.819	404.62
283.051	407.62
283.282	396.62
283.513	425.62
283.745	421.62
283.976	414.62
284.207	421.62
284.439	420.62
284.67	415.62
284.901	419.62
285.132	424.62
285.364	422.62
285.595	418.62
285.826	424.62
286.057	427.62
286.288	410.62
286.52	423.62
286.751	441.62
286.982	444.62
287.213	446.62
287.444	424.62
287.675	430.62
287.906	446.62
288.138	426.62
288.369	417.62
288.6	422.62
288.831	445.62
289.062	419.62
289.293	433.62
289.524	421.62
289.755	422.62
289.986	403.62
290.217	434.62
290.448	424.62
290.679	448.62
290.91	439.62
291.141	443.62
291.371	449.62
291.602	443.62
291.833	434.62
292.064	425.62
292.295	433.62
292.526	457.62
292.757	426.62
292.987	422.62
293.218	406.62
293.449	426.62
293.68	442.62
293.91	423.62
294.141	427.62
294.372	427.62
294.603	442.62
294.833	425.62
295.064	433.62
295.295	444.62
295.525	438.62
295.756	453.62
295.987	453.62
296.217	435.62
296.448	452.62
296.679	437.62
296.909	447.62
297.14	455.62
297.37	441.62
297.601	435.62
297.831	442.62
298.062	434.62
298.292	461.62
298.523	461.62
298.753	479.62
298.984	473.62
299.214	473.62
299.445	458.62
299.675	435.62
299.905	462.62
300.136	454.62
300.366	477.62
300.597	481.62
300.827	465.62
301.057	462.62
301.288	459.62
301.518	480.62
301.748	486.62
301.979	479.62
302.209	467.62
302.439	497.62
302.669	493.62
302.9	485.62
303.13	461.62
303.36	485.62
303.59	498.62
303.82	491.62
304.051	477.62
304.281	509.62
304.511	491.62
304.741	505.62
304.971	520.62
305.201	497.62
305.431	486.62
305.661	493.62
305.891	487.62
306.121	497.62
306.352	493.62
306.582	497.62
306.812	483.62
307.042	482.62
307.272	471.62
307.502	482.62
307.731	480.62
307.961	494.62
308.191	513.62
308.421	495.62
308.651	494.62
308.881	483.62
309.111	499.62
309.341	526.62
309.571	506.62
309.8	518.62
310.03	523.62
310.26	525.62
310.49	521.62
310.72	516.62
310.949	535.62
311.179	528.62
311.409	509.62
311.639	545.62
311.868	530.62
312.098	533.62
312.328	526.62
312.557	538.62
312.787	543.62
313.017	549.62
313.246	565.62
313.476	562.62
313.706	540.62
313.935	599.62
314.165	571.62
314.394	571.62
314.624	563.62
314.853	539.62
315.083	559.62
315.312	602.62
315.542	541.62
315.771	595.62
316.001	574.62
316.23	569.62
316.46	593.62
316.689	597.62
316.919	586.62
317.148	594.62
317.377	587.62
317.607	586.62
317.836	592.62
318.065	597.62
318.295	597.62
318.524	598.62
318.753	625.62
318.983	595.62
319.212	604.62
319.441	602.62
319.67	641.62
319.9	635.62
320.129	628.62
320.358	633.62
320.587	627.62
320.816	639.62
321.046	619.62
321.275	644.62
321.504	645.62
321.733	659.62
321.962	654.62
322.191	664.62
322.42	656.62
322.649	641.62
322.878	672.62
323.108	674.62
323.337	683.62
323.566	687.62
323.795	686.62
324.024	693.62
324.253	677.62
324.482	697.62
324.71	704.62
324.939	682.62
325.168	715.62
325.397	699.62
325.626	736.62
325.855	708.62
326.084	730.62
326.313	755.62
326.542	792.62
326.77	755.62
326.999	760.62
327.228	741.62
327.457	726.62
327.686	763.62
327.914	778.62
328.143	771.62
328.372	769.62
328.6	774.62
328.829	750.62
329.058	787.62
329.287	783.62
329.515	775.62
329.744	785.62
329.972	792.62
330.201	805.62
330.43	790.62
330.658	784.62
330.887	814.62
331.115	833.62
331.344	808.62
331.572	852.62
331.801	849.62
332.03	867.62
332.258	833.62
332.486	869.62
332.715	867.62
332.943	900.62
333.172	909.62
333.4	923.62
333.629	933.62
333.857	953.62
334.085	937.62
334.314	972.62
334.542	937.62
334.771	957.62
334.999	955.62
335.227	939.62
335.455	982.62
335.684	965.62
335.912	954.62
336.14	938.62
336.369	955.62
336.597	974.62
336.825	961.62
337.053	955.62
337.281	968.62
337.51	946.62
337.738	920.62
337.966	919.62
338.194	941.62
338.422	931.62
338.65	915.62
338.878	901.62
339.106	908.62
339.334	937.62
339.562	893.62
339.79	907.62
340.018	869.62
340.246	900.62
340.474	883.62
340.702	907.62
340.93	908.62
341.158	908.62
341.386	897.62
341.614	934.62
341.842	917.62
342.07	875.62
342.298	891.62
342.526	896.62
342.754	896.62
342.981	908.62
343.209	888.62
343.437	921.62
343.665	940.62
343.893	975.62
344.12	974.62
344.348	978.62
344.576	974.62
344.804	961.62
345.031	951.62
345.259	927.62
345.487	917.62
345.714	912.62
345.942	918.62
346.17	905.62
346.397	907.62
346.625	871.62
346.853	871.62
347.08	878.62
347.308	860.62
347.535	864.62
347.763	883.62
347.99	871.62
348.218	860.62
348.445	839.62
348.673	860.62
348.9	866.62
349.128	867.62
349.355	865.62
349.583	860.62
349.81	858.62
350.037	847.62
350.265	842.62
350.492	854.62
350.72	849.62
350.947	851.62
351.174	854.62
351.402	873.62
351.629	860.62
351.856	833.62
352.083	850.62
352.311	851.62
352.538	865.62
352.765	866.62
352.992	821.62
353.22	806.62
353.447	807.62
353.674	839.62
353.901	813.62
354.128	820.62
354.355	832.62
354.583	828.62
354.81	819.62
355.037	841.62
355.264	795.62
355.491	864.62
355.718	808.62
355.945	813.62
356.172	826.62
356.399	839.62
356.626	835.62
356.853	881.62
357.08	827.62
357.307	835.62
357.534	850.62
357.761	836.62
357.988	837.62
358.215	821.62
358.441	836.62
358.668	810.62
358.895	818.62
359.122	799.62
359.349	810.62
359.576	797.62
359.802	793.62
360.029	813.62
360.256	839.62
360.483	847.62
360.709	821.62
360.936	829.62
361.163	810.62
361.39	816.62
361.616	870.62
361.843	834.62
362.07	871.62
362.296	861.62
362.523	827.62
362.749	818.62
362.976	810.62
363.203	823.62
363.429	825.62
363.656	808.62
363.882	792.62
364.109	834.62
364.335	813.62
364.562	819.62
364.788	826.62
365.015	845.62
365.241	818.62
365.468	839.62
365.694	840.62
365.92	776.62
366.147	811.62
366.373	836.62
366.599	811.62
366.826	822.62
367.052	823.62
367.278	801.62
367.505	809.62
367.731	833.62
367.957	821.62
368.184	842.62
368.41	795.62
368.636	813.62
368.862	820.62
369.089	833.62
369.315	839.62
369.541	842.62
369.767	802.62
369.993	811.62
370.219	808.62
370.445	818.62
370.672	843.62
370.898	819.62
371.124	841.62
371.35	848.62
371.576	845.62
371.802	849.62
372.028	854.62
372.254	796.62
372.48	838.62
372.706	855.62
372.932	855.62
373.158	854.62
373.384	830.62
373.61	850.62
373.835	876.62
374.061	862.62
374.287	842.62
374.513	866.62
374.739	851.62
374.965	871.62
375.191	869.62
375.416	873.62
375.642	865.62
375.868	874.62
376.094	847.62
376.319	811.62
376.545	851.62
376.771	823.62
376.997	828.62
377.222	827.62
377.448	829.62
377.674	806.62
377.899	806.62
378.125	812.62
378.35	801.62
378.576	802.62
378.802	788.62
379.027	805.62
379.253	809.62
379.478	799.62
379.704	775.62
379.929	806.62
380.155	805.62
380.38	801.62
380.606	788.62
380.831	828.62
381.057	813.62
381.282	826.62
381.507	795.62
381.733	791.62
381.958	840.62
382.184	829.62
382.409	810.62
382.634	825.62
382.86	806.62
383.085	826.62
383.31	850.62
383.535	838.62
383.761	857.62
383.986	861.62
384.211	860.62
384.436	859.62
384.662	865.62
384.887	893.62
385.112	867.62
385.337	901.62
385.562	915.62
385.787	886.62
386.013	895.62
386.238	888.62
386.463	904.62
386.688	915.62
386.913	887.62
387.138	922.62
387.363	929.62
387.588	901.62
387.813	917.62
388.038	911.62
388.263	957.62
388.488	934.62
388.713	934.62
388.938	896.62
389.163	909.62
389.387	933.62
389.612	908.62
389.837	943.62
390.062	933.62
390.287	906.62
390.512	917.62
390.736	936.62
390.961	933.62
391.186	967.62
391.411	972.62
391.636	949.62
391.86	993.62
392.085	939.62
392.31	988.62
392.534	968.62
392.759	982.62
392.984	969.62
393.208	939.62
393.433	961.62
393.658	975.62
393.882	948.62
394.107	929.62
394.331	953.62
394.556	952.62
394.78	953.62
395.005	975.62
395.229	971.62
395.454	1000.62
395.678	987.62
395.903	1013.62
396.127	1004.62
396.352	965.62
396.576	963.62
396.801	985.62
397.025	998.62
397.249	1020.62
397.474	1023.62
397.698	1002.62
397.922	1035.62
398.147	1033.62
398.371	1065.62
398.595	1083.62
398.82	1105.62
399.044	1178.62
399.268	1189.62
399.492	1262.62
399.717	1299.62
399.941	1332.62
400.165	1303.62
400.389	1278.62
400.613	1233.62
400.837	1175.62
401.062	1191.62
401.286	1167.62
401.51	1113.62
401.734	1124.62
401.958	1149.62
402.182	1116.62
402.406	1137.62
402.63	1147.62
402.854	1158.62
403.078	1136.62
403.302	1151.62
403.526	1171.62
403.75	1154.62
403.974	1159.62
404.198	1172.62
404.422	1169.62
404.645	1149.62
404.869	1171.62
405.093	1168.62
405.317	1165.62
405.541	1197.62
405.765	1180.62
405.988	1189.62
406.212	1206.62
406.436	1195.62
406.66	1229.62
406.883	1249.62
407.107	1262.62
407.331	1296.62
407.555	1329.62
407.778	1320.62
408.002	1314.62
408.226	1307.62
408.449	1285.62
408.673	1242.62
408.896	1243.62
409.12	1236.62
409.344	1254.62
409.567	1235.62
409.791	1259.62
410.014	1236.62
410.238	1255.62
410.461	1237.62
410.685	1205.62
410.908	1223.62
411.132	1197.62
411.355	1188.62
411.578	1185.62
411.802	1207.62
412.025	1165.62
412.249	1189.62
412.472	1188.62
412.695	1180.62
412.919	1172.62
413.142	1167.62
413.365	1149.62
413.589	1180.62
413.812	1177.62
414.035	1157.62
414.258	1122.62
414.482	1135.62
414.705	1191.62
414.928	1182.62
415.151	1165.62
415.374	1175.62
415.597	1163.62
415.821	1125.62
416.044	1141.62
416.267	1128.62
416.49	1133.62
416.713	1127.62
416.936	1159.62
417.159	1133.62
417.382	1144.62
417.605	1101.62
417.828	1162.62
418.051	1149.62
418.274	1135.62
418.497	1133.62
418.72	1172.62
418.943	1151.62
419.166	1237.62
419.389	1262.62
419.611	1273.62
419.834	1250.62
420.057	1189.62
420.28	1183.62
420.503	1124.62
420.726	1141.62
420.948	1141.62
421.171	1147.62
421.394	1172.62
421.617	1153.62
421.839	1134.62
422.062	1167.62
422.285	1163.62
422.507	1158.62
422.73	1165.62
422.953	1191.62
423.175	1154.62
423.398	1173.62
423.621	1168.62
423.843	1206.62
424.066	1202.62
424.288	1149.62
424.511	1195.62
424.733	1142.62
424.956	1173.62
425.178	1165.62
425.401	1178.62
425.623	1177.62
425.846	1172.62
426.068	1173.62
426.291	1148.62
426.513	1112.62
426.735	1139.62
426.958	1154.62
427.18	1131.62
427.402	1116.62
427.625	1155.62
427.847	1120.62
428.069	1120.62
428.292	1131.62
428.514	1109.62
428.736	1124.62
428.958	1120.62
429.181	1087.62
429.403	1132.62
429.625	1109.62
429.847	1131.62
430.069	1129.62
430.292	1124.62
430.514	1101.62
430.736	1124.62
430.958	1137.62
431.18	1139.62
431.402	1148.62
431.624	1109.62
431.846	1115.62
432.068	1150.62
432.29	1172.62
432.512	1107.62
432.734	1179.62
432.956	1145.62
433.178	1139.62
433.4	1162.62
433.622	1184.62
433.844	1157.62
434.066	1158.62
434.287	1140.62
434.509	1158.62
434.731	1147.62
434.953	1183.62
435.175	1193.62
435.397	1197.62
435.618	1184.62
435.84	1145.62
436.062	1147.62
436.284	1130.62
436.505	1145.62
436.727	1128.62
436.949	1149.62
437.17	1123.62
437.392	1131.62
437.614	1127.62
437.835	1078.62
438.057	1093.62
438.278	1092.62
438.5	1113.62
438.721	1137.62
438.943	1155.62
439.165	1146.62
439.386	1156.62
439.608	1167.62
439.829	1122.62
440.05	1130.62
440.272	1146.62
440.493	1149.62
440.715	1175.62
440.936	1163.62
441.158	1183.62
441.379	1212.62
441.6	1226.62
441.822	1228.62
442.043	1217.62
442.264	1225.62
442.486	1199.62
442.707	1205.62
442.928	1198.62
443.149	1234.62
443.371	1225.62
443.592	1214.62
443.813	1196.62
444.034	1243.62
444.255	1242.62
444.476	1247.62
444.698	1301.62
444.919	1285.62
445.14	1406.62
445.361	1332.62
445.582	1276.62
445.803	1230.62
446.024	1179.62
446.245	1189.62
446.466	1185.62
446.687	1167.62
446.908	1179.62
447.129	1131.62
447.35	1144.62
447.571	1147.62
447.792	1117.62
448.013	1112.62
448.234	1086.62
448.455	1099.62
448.675	1084.62
448.896	1081.62
449.117	1063.62
449.338	1069.62
449.559	1083.62
449.779	1070.62
450	1055.62
450.221	1061.62
450.442	1069.62
450.662	1038.62
450.883	1082.62
451.104	1079.62
451.324	1097.62
451.545	1083.62
451.766	1072.62
451.986	1006.62
452.207	1050.62
452.428	1041.62
452.648	1055.62
452.869	1034.62
453.089	1039.62
453.31	1040.62
453.53	1029.62
453.751	1034.62
453.971	1010.62
454.192	981.62
454.412	995.62
454.633	1015.62
454.853	1053.62
455.073	1002.62
455.294	1043.62
455.514	991.62
455.734	998.62
455.955	990.62
456.175	1022.62
456.395	1002.62
456.616	975.62
456.836	994.62
457.056	1007.62
457.276	974.62
457.497	1028.62
457.717	1025.62
457.937	1064.62
458.157	1026.62
458.377	1057.62
458.598	1045.62
458.818	1072.62
459.038	1065.62
459.258	1084.62
459.478	1145.62
459.698	1151.62
459.918	1174.62
460.138	1239.62
460.358	1225.62
460.578	1252.62
460.798	1249.62
461.018	1276.62
461.238	1280.62
461.458	1237.62
461.678	1258.62
461.898	1275.62
462.118	1289.62
462.338	1313.62
462.558	1373.62
462.777	1419.62
462.997	1417.62
463.217	1432.62
463.437	1462.62
463.657	1445.62
463.876	1405.62
464.096	1399.62
464.316	1411.62
464.536	1375.62
464.755	1354.62
464.975	1323.62
465.195	1298.62
465.414	1258.62
465.634	1215.62
465.854	1217.62
466.073	1173.62
466.293	1162.62
466.512	1126.62
466.732	1120.62
466.951	1122.62
467.171	1125.62
467.391	1139.62
467.61	1126.62
467.829	1111.62
468.049	1158.62
468.268	1063.62
468.488	1090.62
468.707	1116.62
468.927	1089.62
469.146	1115.62
469.365	1121.62
469.585	1115.62
469.804	1131.62
470.023	1142.62
470.243	1135.62
470.462	1128.62
470.681	1167.62
470.901	1116.62
471.12	1118.62
471.339	1144.62
471.558	1139.62
471.777	1123.62
471.997	1101.62
472.216	1079.62
472.435	1093.62
472.654	1066.62
472.873	1090.62
473.092	1085.62
473.311	1098.62
473.53	1097.62
473.749	1109.62
473.968	1068.62
474.187	1066.62
474.406	1082.62
474.625	1113.62
474.844	1129.62
475.063	1105.62
475.282	1114.62
475.501	1099.62
475.72	1097.62
475.939	1107.62
476.158	1142.62
476.377	1141.62
476.596	1133.62
476.814	1161.62
477.033	1134.62
477.252	1178.62
477.471	1206.62
477.69	1231.62
477.908	1210.62
478.127	1237.62
478.346	1260.62
478.564	1269.62
478.783	1269.62
479.002	1301.62
479.22	1296.62
479.439	1294.62
479.658	1315.62
479.876	1307.62
480.095	1313.62
480.313	1324.62
480.532	1311.62
480.751	1335.62
480.969	1330.62
481.188	1293.62
481.406	1288.62
481.624	1288.62
481.843	1315.62
482.061	1250.62
482.28	1230.62
482.498	1255.62
482.717	1253.62
482.935	1238.62
483.153	1275.62
483.372	1290.62
483.59	1299.62
483.808	1273.62
484.027	1255.62
484.245	1284.62
484.463	1282.62
484.681	1303.62
484.9	1306.62
485.118	1299.62
485.336	1284.62
485.554	1315.62
485.772	1285.62
485.99	1278.62
486.209	1331.62
486.427	1319.62
486.645	1313.62
486.863	1311.62
487.081	1301.62
487.299	1284.62
487.517	1316.62
487.735	1300.62
487.953	1342.62
488.171	1348.62
488.389	1331.62
488.607	1347.62
488.825	1315.62
489.043	1305.62
489.261	1301.62
489.479	1276.62
489.696	1294.62
489.914	1289.62
490.132	1345.62
490.35	1319.62
490.568	1352.62
490.786	1396.62
491.003	1361.62
491.221	1381.62
491.439	1376.62
491.657	1375.62
491.874	1396.62
492.092	1376.62
492.31	1413.62
492.527	1394.62
492.745	1390.62
492.963	1421.62
493.18	1397.62
493.398	1410.62
493.615	1378.62
493.833	1382.62
494.05	1408.62
494.268	1435.62
494.485	1438.62
494.703	1426.62
494.92	1461.62
495.138	1445.62
495.355	1465.62
495.573	1510.62
495.79	1483.62
496.008	1473.62
496.225	1474.62
496.442	1497.62
496.66	1576.62
496.877	1518.62
497.094	1560.62
497.312	1603.62
497.529	1626.62
497.746	1653.62
497.963	1648.62
498.181	1676.62
498.398	1745.62
498.615	1827.62
498.832	1888.62
499.049	1953.62
499.267	2033.62
499.484	2161.62
499.701	2250.62
499.918	2363.62
500.135	2490.62
500.352	2599.62
500.569	2639.62
500.786	2610.62
501.003	2576.62
501.22	2448.62
501.437	2405.62
501.654	2263.62
501.871	2142.62
502.088	2033.62
502.305	1959.62
502.522	1930.62
502.739	1844.62
502.956	1772.62
503.172	1719.62
503.389	1692.62
503.606	1645.62
503.823	1603.62
504.04	1650.62
504.256	1616.62
504.473	1574.62
504.69	1550.62
504.907	1530.62
505.123	1506.62
505.34	1493.62
505.557	1458.62
505.773	1437.62
505.99	1412.62
506.207	1339.62
506.423	1361.62
506.64	1357.62
506.856	1322.62
507.073	1306.62
507.289	1292.62
507.506	1275.62
507.722	1253.62
507.939	1290.62
508.155	1265.62
508.372	1283.62
508.588	1223.62
508.805	1260.62
509.021	1243.62
509.238	1198.62
509.454	1195.62
509.67	1189.62
509.887	1207.62
510.103	1185.62
510.319	1209.62
510.536	1174.62
510.752	1165.62
510.968	1165.62
511.184	1161.62
511.401	1160.62
511.617	1159.62
511.833	1133.62
512.049	1171.62
512.265	1189.62
512.481	1180.62
512.698	1171.62
512.914	1153.62
513.13	1178.62
513.346	1155.62
513.562	1164.62
513.778	1163.62
513.994	1161.62
514.21	1170.62
514.426	1180.62
514.642	1174.62
514.858	1194.62
515.074	1199.62
515.29	1218.62
515.506	1205.62
515.721	1219.62
515.937	1249.62
516.153	1230.62
516.369	1253.62
516.585	1254.62
516.801	1286.62
517.016	1276.62
517.232	1325.62
517.448	1390.62
517.664	1359.62
517.879	1355.62
518.095	1371.62
518.311	1327.62
518.527	1313.62
518.742	1298.62
518.958	1272.62
519.173	1235.62
519.389	1278.62
519.605	1225.62
519.82	1230.62
520.036	1221.62
520.251	1186.62
520.467	1203.62
520.682	1171.62
520.898	1156.62
521.113	1169.62
521.329	1126.62
521.544	1162.62
521.76	1118.62
521.975	1145.62
522.19	1123.62
522.406	1145.62
522.621	1126.62
522.836	1111.62
523.052	1116.62
523.267	1148.62
523.482	1082.62
523.698	1065.62
523.913	1051.62
524.128	1111.62
524.343	1070.62
524.559	1063.62
524.774	1083.62
524.989	1064.62
525.204	1085.62
525.419	1087.62
525.634	1086.62
525.849	1066.62
526.064	1065.62
526.28	1044.62
526.495	1070.62
526.71	1080.62
526.925	1082.62
527.14	1054.62
527.355	1036.62
527.57	1054.62
527.785	1044.62
527.999	1041.62
528.214	1034.62
528.429	1038.62
528.644	1056.62
528.859	1059.62
529.074	1067.62
529.289	1052.62
529.503	1071.62
529.718	1043.62
529.933	1033.62
530.148	1028.62
530.363	1031.62
530.577	1011.62
530.792	1056.62
531.007	1022.62
531.221	1009.62
531.436	1044.62
531.651	1005.62
531.865	1018.62
532.08	990.62
532.295	1022.62
532.509	994.62
532.724	974.62
532.938	1018.62
533.153	1015.62
533.367	1020.62
533.582	1009.62
533.796	1034.62
534.011	1014.62
534.225	999.62
534.44	993.62
534.654	1036.62
534.868	984.62
535.083	1011.62
535.297	1007.62
535.511	978.62
535.726	952.62
535.94	982.62
536.154	971.62
536.369	978.62
536.583	983.62
536.797	972.62
537.011	947.62
537.225	963.62
537.44	919.62
537.654	971.62
537.868	994.62
538.082	944.62
538.296	937.62
538.51	939.62
538.724	920.62
538.938	958.62
539.153	915.62
539.367	954.62
539.581	949.62
539.795	924.62
540.009	927.62
540.222	897.62
540.436	939.62
540.65	910.62
540.864	945.62
541.078	949.62
541.292	947.62
541.506	965.62
541.72	976.62
541.934	992.62
542.147	972.62
542.361	949.62
542.575	905.62
542.789	921.62
543.002	936.62
543.216	938.62
543.43	932.62
543.644	924.62
543.857	934.62
544.071	920.62
544.285	947.62
544.498	935.62
544.712	940.62
544.925	948.62
545.139	935.62
545.352	951.62
545.566	955.62
545.779	954.62
545.993	973.62
546.206	985.62
546.42	947.62
546.633	938.62
546.847	951.62
547.06	937.62
547.274	947.62
547.487	974.62
547.7	1007.62
547.914	953.62
548.127	948.62
548.34	929.62
548.554	958.62
548.767	958.62
548.98	928.62
549.193	959.62
549.407	937.62
549.62	933.62
549.833	961.62
550.046	931.62
550.259	952.62
550.473	936.62
550.686	931.62
550.899	934.62
551.112	911.62
551.325	924.62
551.538	929.62
551.751	917.62
551.964	909.62
552.177	917.62
552.39	944.62
552.603	959.62
552.816	949.62
553.029	931.62
553.242	968.62
553.455	950.62
553.667	956.62
553.88	941.62
554.093	935.62
554.306	941.62
554.519	922.62
554.732	897.62
554.944	897.62
555.157	875.62
555.37	892.62
555.583	883.62
555.795	892.62
556.008	842.62
556.221	829.62
556.433	828.62
556.646	812.62
556.859	831.62
557.071	829.62
557.284	839.62
557.496	826.62
557.709	802.62
557.921	810.62
558.134	804.62
558.346	811.62
558.559	818.62
558.771	799.62
558.984	803.62
559.196	804.62
559.409	786.62
559.621	781.62
559.833	781.62
560.046	789.62
560.258	774.62
560.47	792.62
560.683	799.62
560.895	782.62
561.107	782.62
561.32	774.62
561.532	794.62
561.744	765.62
561.956	774.62
562.168	791.62
562.381	787.62
562.593	783.62
562.805	790.62
563.017	796.62
563.229	793.62
563.441	804.62
563.653	795.62
563.865	805.62
564.077	785.62
564.289	802.62
564.501	826.62
564.713	845.62
564.925	839.62
565.137	827.62
565.349	835.62
565.561	891.62
565.773	877.62
565.985	907.62
566.197	943.62
566.408	951.62
566.62	975.62
566.832	999.62
567.044	996.62
567.255	982.62
567.467	1000.62
567.679	1040.62
567.891	1043.62
568.102	993.62
568.314	1004.62
568.526	991.62
568.737	939.62
568.949	884.62
569.161	889.62
569.372	826.62
569.584	789.62
569.795	803.62
570.007	788.62
570.218	797.62
570.43	773.62
570.641	768.62
570.853	762.62
571.064	761.62
571.276	718.62
571.487	707.62
571.698	714.62
571.91	689.62
572.121	691.62
572.333	683.62
572.544	653.62
572.755	677.62
572.966	675.62
573.178	653.62
573.389	625.62
573.6	642.62
573.811	658.62
574.023	622.62
574.234	636.62
574.445	633.62
574.656	629.62
574.867	603.62
575.078	622.62
575.289	613.62
575.501	627.62
575.712	576.62
575.923	591.62
576.134	609.62
576.345	618.62
576.556	606.62
576.767	594.62
576.978	596.62
577.188	595.62
577.399	591.62
577.61	579.62
577.821	584.62
578.032	579.62
578.243	587.62
578.454	590.62
578.665	569.62
578.875	567.62
579.086	563.62
579.297	565.62
579.508	587.62
579.718	556.62
579.929	570.62
580.14	545.62
580.35	569.62
580.561	537.62
580.772	522.62
580.982	557.62
581.193	526.62
581.403	544.62
581.614	531.62
581.825	533.62
582.035	524.62
582.246	521.62
582.456	523.62
582.667	539.62
582.877	535.62
583.087	548.62
583.298	527.62
583.508	507.62
583.719	526.62
583.929	499.62
584.139	529.62
584.35	518.62
584.56	525.62
584.77	506.62
584.981	515.62
585.191	542.62
585.401	506.62
585.611	519.62
585.821	522.62
586.032	520.62
586.242	525.62
586.452	500.62
586.662	501.62
586.872	527.62
587.082	508.62
587.292	494.62
587.502	507.62
587.713	495.62
587.923	497.62
588.133	499.62
588.343	507.62
588.553	492.62
588.762	493.62
588.972	525.62
589.182	519.62
589.392	522.62
589.602	498.62
589.812	515.62
590.022	520.62
590.232	486.62
590.441	486.62
590.651	507.62
590.861	491.62
591.071	502.62
591.281	523.62
591.49	517.62
591.7	510.62
591.91	526.62
592.119	520.62
592.329	517.62
592.539	527.62
592.748	537.62
592.958	548.62
593.167	529.62
593.377	513.62
593.587	530.62
593.796	565.62
594.006	537.62
594.215	519.62
594.424	502.62
594.634	518.62
594.843	524.62
595.053	530.62
595.262	526.62
595.472	501.62
595.681	499.62
595.89	490.62
596.1	484.62
596.309	480.62
596.518	471.62
596.727	457.62
596.937	471.62
597.146	472.62
597.355	463.62
597.564	447.62
597.774	433.62
597.983	469.62
598.192	435.62
598.401	443.62
598.61	427.62
598.819	455.62
599.028	433.62
599.237	404.62
599.446	413.62
599.655	441.62
599.864	412.62
600.073	418.62
600.282	433.62
600.491	405.62
600.7	419.62
600.909	419.62
601.118	405.62
601.327	397.62
601.536	406.62
601.745	408.62
601.953	391.62
602.162	398.62
602.371	411.62
602.58	400.62
602.789	402.62
602.997	405.62
603.206	430.62
603.415	406.62
603.623	400.62
603.832	380.62
604.041	402.62
604.249	383.62
604.458	389.62
604.666	382.62
604.875	370.62
605.084	393.62
605.292	385.62
605.501	372.62
605.709	397.62
605.918	381.62
606.126	390.62
606.334	378.62
606.543	366.62
606.751	383.62
606.96	371.62
607.168	388.62
607.376	371.62
607.585	371.62
607.793	377.62
608.001	364.62
608.21	368.62
608.418	369.62
608.626	353.62
608.834	364.62
609.043	363.62
609.251	380.62
609.459	351.62
609.667	361.62
609.875	358.62
610.083	357.62
610.291	355.62
610.499	370.62
610.707	364.62
610.916	374.62
611.124	362.62
611.332	365.62
611.54	358.62
611.748	366.62
611.955	351.62
612.163	345.62
612.371	366.62
612.579	357.62
612.787	376.62
612.995	361.62
613.203	372.62
613.411	359.62
613.618	350.62
613.826	372.62
614.034	353.62
614.242	359.62
614.449	363.62
614.657	347.62
614.865	345.62
615.072	359.62
615.28	340.62
615.488	331.62
615.695	344.62
615.903	346.62
616.111	356.62
616.318	353.62
616.526	350.62
616.733	345.62
616.941	353.62
617.148	347.62
617.356	348.62
617.563	344.62
617.771	355.62
617.978	360.62
618.185	350.62
618.393	346.62
618.6	322.62
618.807	334.62
619.015	332.62
619.222	329.62
619.429	323.62
619.637	327.62
619.844	341.62
620.051	341.62
620.258	316.62
620.466	333.62
620.673	314.62
620.88	332.62
621.087	333.62
621.294	346.62
621.501	311.62
621.708	334.62
621.915	317.62
622.122	322.62
622.329	325.62
622.536	329.62
622.743	317.62
622.95	335.62
623.157	339.62
623.364	333.62
623.571	311.62
623.778	311.62
623.985	313.62
624.192	329.62
624.399	311.62
624.606	317.62
624.812	308.62
625.019	308.62
625.226	321.62
625.433	313.62
625.639	313.62
625.846	292.62
626.053	323.62
626.259	282.62
626.466	290.62
626.673	278.62
626.879	282.62
627.086	283.62
627.293	311.62
627.499	289.62
627.706	306.62
627.912	281.62
628.119	311.62
628.325	290.62
628.532	286.62
628.738	292.62
628.945	312.62
629.151	269.62
629.357	289.62
629.564	277.62
629.77	297.62
629.976	276.62
630.183	286.62
630.389	255.62
630.595	266.62
630.802	255.62
631.008	289.62
631.214	280.62
631.42	271.62
631.627	275.62
631.833	277.62
632.039	268.62
632.245	266.62
632.451	277.62
632.657	253.62
632.863	265.62
633.069	263.62
633.275	280.62
633.481	274.62
633.688	258.62
633.893	281.62
634.099	251.62
634.305	270.62
634.511	265.62
634.717	262.62
634.923	261.62
635.129	257.62
635.335	244.62
635.541	246.62
635.747	262.62
635.952	262.62
636.158	250.62
636.364	259.62
636.57	249.62
636.775	256.62
636.981	257.62
637.187	249.62
637.392	253.62
637.598	257.62
637.804	237.62
638.009	257.62
638.215	242.62
638.421	250.62
638.626	255.62
638.832	244.62
639.037	255.62
639.243	246.62
639.448	244.62
639.654	246.62
639.859	250.62
640.065	243.62
640.27	248.62
640.475	243.62
640.681	256.62
640.886	231.62
641.091	246.62
641.297	246.62
641.502	234.62
641.707	241.62
641.913	237.62
642.118	239.62
642.323	230.62
642.528	236.62
642.733	225.62
642.939	219.62
643.144	235.62
643.349	244.62
643.554	225.62
643.759	234.62
643.964	221.62
644.169	229.62
644.374	226.62
644.579	234.62
644.784	225.62
644.989	239.62
645.194	223.62
645.399	223.62
645.604	231.62
645.809	238.62
646.014	227.62
646.219	227.62
646.423	213.62
646.628	245.62
646.833	238.62
647.038	207.62
647.243	229.62
647.447	234.62
647.652	229.62
647.857	222.62
648.062	237.62
648.266	207.62
648.471	218.62
648.676	236.62
648.88	229.62
649.085	217.62
649.289	214.62
649.494	220.62
649.698	219.62
649.903	232.62
650.107	221.62
650.312	214.62
650.516	208.62
650.721	202.62
650.925	218.62
651.13	212.62
651.334	198.62
651.539	188.62
651.743	201.62
651.947	213.62
652.152	197.62
652.356	203.62
652.56	214.62
652.764	193.62
652.969	190.62
653.173	181.62
653.377	193.62
653.581	186.62
653.785	179.62
653.99	182.62
654.194	172.62
654.398	185.62
654.602	178.62
654.806	171.62
655.01	170.62
655.214	177.62
655.418	158.62
655.622	183.62
655.826	169.62
656.03	167.62
656.234	164.62
656.438	165.62
656.642	161.62
656.846	155.62
657.049	160.62
657.253	158.62
657.457	133.62
657.661	143.62
657.865	140.62
658.068	135.62
658.272	142.62
658.476	135.62
658.68	133.62
658.883	110.62
659.087	130.62
659.291	123.62
659.494	119.62
659.698	109.62
659.901	116.62
660.105	108.62
660.309	108.62
660.512	108.62
660.716	113.62
660.919	103.62
661.123	121.62
661.326	100.62
661.53	113.62
661.733	93.62
661.936	89.62
662.14	88.62
662.343	86.62
662.546	86.62
662.75	90.62
662.953	104.62
663.156	87.62
663.36	83.62
663.563	85.62
663.766	90.62
663.969	96.62
664.173	90.62
664.376	80.62
664.579	84.62
664.782	77.62
664.985	85.62
665.188	77.62
665.391	77.62
665.594	89.62
665.797	97.62
666	76.62
666.203	70.62
666.406	98.62
666.609	82.62
666.812	73.62
667.015	87.62
667.218	85.62
667.421	95.62
667.624	87.62
667.827	84.62
668.03	71.62
668.232	86.62
668.435	83.62
668.638	79.62
668.841	86.62
669.043	75.62
669.246	80.62
669.449	83.62
669.651	97.62
669.854	74.62
670.057	94.62
670.259	69.62
670.462	74.62
670.665	74.62
670.867	87.62
671.07	90.62
671.272	79.62
671.475	100.62
671.677	90.62
671.88	78.62
672.082	83.62
672.284	78.62
672.487	86.62
672.689	87.62
672.892	82.62
