Data from Ni(NO3)2@0.125M.TitratingCurve.Agarose3%dH2O.NegLispCup.LampEnergy10.LIBS07252019_HRD10591_18-11-23-568.txt Node
Date: Thu Jul 25 18:11:23 EDT 2019
User: cochatt
Spectrometer: HR+D1059
Trigger mode: 1
Integration Time (sec): 1.000000E-1
Scans to average: 1
Electric dark correction enabled: true
Nonlinearity correction enabled: false
Boxcar width: 0
XAxis mode: Wavelengths
Number of Pixels in Spectrum: 2048
>>>>>Begin Spectral Data<<<<<
223.165	3.75
223.4	3.75
223.635	3.75
223.869	-7.25
224.104	-34.25
224.338	-20.25
224.573	-16.25
224.808	-26.25
225.042	-0.25
225.277	-4.25
225.511	-12.25
225.746	9.75
225.98	7.75
226.215	10.75
226.449	20.75
226.683	8.75
226.918	23.75
227.152	35.75
227.387	29.75
227.621	29.75
227.856	34.75
228.09	31.75
228.324	37.75
228.559	56.75
228.793	63.75
229.027	77.75
229.262	92.75
229.496	97.75
229.73	102.75
229.964	118.75
230.199	109.75
230.433	121.75
230.667	112.75
230.901	127.75
231.136	117.75
231.37	119.75
231.604	121.75
231.838	127.75
232.072	129.75
232.306	141.75
232.541	142.75
232.775	121.75
233.009	125.75
233.243	119.75
233.477	138.75
233.711	116.75
233.945	130.75
234.179	118.75
234.413	137.75
234.647	140.75
234.881	134.75
235.115	131.75
235.349	130.75
235.583	130.75
235.817	127.75
236.051	136.75
236.285	132.75
236.519	137.75
236.753	148.75
236.987	139.75
237.221	147.75
237.455	148.75
237.689	146.75
237.922	137.75
238.156	144.75
238.39	135.75
238.624	143.75
238.858	144.75
239.091	153.75
239.325	150.75
239.559	157.75
239.793	151.75
240.027	151.75
240.26	169.75
240.494	147.75
240.728	160.75
240.961	157.75
241.195	151.75
241.429	161.75
241.662	160.75
241.896	154.75
242.13	163.75
242.363	159.75
242.597	165.75
242.83	170.75
243.064	156.75
243.298	177.75
243.531	164.75
243.765	167.75
243.998	160.75
244.232	162.75
244.465	172.75
244.699	165.75
244.932	183.75
245.166	182.75
245.399	175.75
245.633	189.75
245.866	180.75
246.099	176.75
246.333	185.75
246.566	183.75
246.8	178.75
247.033	177.75
247.266	196.75
247.5	184.75
247.733	201.75
247.966	188.75
248.2	201.75
248.433	190.75
248.666	191.75
248.899	194.75
249.133	199.75
249.366	198.75
249.599	194.75
249.832	222.75
250.066	200.75
250.299	210.75
250.532	202.75
250.765	210.75
250.998	213.75
251.231	208.75
251.465	215.75
251.698	207.75
251.931	222.75
252.164	204.75
252.397	230.75
252.63	230.75
252.863	222.75
253.096	229.75
253.329	214.75
253.562	215.75
253.795	233.75
254.028	238.75
254.261	217.75
254.494	228.75
254.727	229.75
254.96	235.75
255.193	238.75
255.426	231.75
255.659	232.75
255.892	240.75
256.124	241.75
256.357	239.75
256.59	261.75
256.823	232.75
257.056	242.75
257.289	247.75
257.521	235.75
257.754	235.75
257.987	227.75
258.22	245.75
258.452	263.75
258.685	265.75
258.918	260.75
259.151	249.75
259.383	267.75
259.616	261.75
259.849	258.75
260.081	266.75
260.314	254.75
260.547	279.75
260.779	279.75
261.012	280.75
261.244	274.75
261.477	301.75
261.71	271.75
261.942	262.75
262.175	263.75
262.407	275.75
262.64	269.75
262.872	287.75
263.105	269.75
263.337	291.75
263.57	272.75
263.802	266.75
264.035	275.75
264.267	291.75
264.499	272.75
264.732	265.75
264.964	288.75
265.197	283.75
265.429	290.75
265.661	292.75
265.894	289.75
266.126	275.75
266.358	295.75
266.591	295.75
266.823	292.75
267.055	301.75
267.287	298.75
267.52	277.75
267.752	286.75
267.984	289.75
268.216	301.75
268.448	293.75
268.681	310.75
268.913	308.75
269.145	312.75
269.377	297.75
269.609	307.75
269.841	303.75
270.073	306.75
270.306	310.75
270.538	296.75
270.77	316.75
271.002	298.75
271.234	312.75
271.466	309.75
271.698	307.75
271.93	306.75
272.162	298.75
272.394	315.75
272.626	311.75
272.858	302.75
273.09	329.75
273.322	322.75
273.553	324.75
273.785	331.75
274.017	307.75
274.249	330.75
274.481	311.75
274.713	331.75
274.945	314.75
275.176	343.75
275.408	332.75
275.64	326.75
275.872	348.75
276.104	334.75
276.335	329.75
276.567	317.75
276.799	356.75
277.031	351.75
277.262	349.75
277.494	331.75
277.726	359.75
277.957	348.75
278.189	329.75
278.421	356.75
278.652	334.75
278.884	327.75
279.115	343.75
279.347	350.75
279.579	341.75
279.81	358.75
280.042	355.75
280.273	361.75
280.505	377.75
280.736	360.75
280.968	355.75
281.199	365.75
281.431	374.75
281.662	359.75
281.894	357.75
282.125	381.75
282.356	373.75
282.588	350.75
282.819	375.75
283.051	385.75
283.282	386.75
283.513	375.75
283.745	383.75
283.976	386.75
284.207	371.75
284.439	382.75
284.67	398.75
284.901	381.75
285.132	395.75
285.364	393.75
285.595	389.75
285.826	371.75
286.057	376.75
286.288	381.75
286.52	399.75
286.751	382.75
286.982	421.75
287.213	409.75
287.444	405.75
287.675	392.75
287.906	406.75
288.138	409.75
288.369	421.75
288.6	404.75
288.831	419.75
289.062	407.75
289.293	405.75
289.524	424.75
289.755	415.75
289.986	431.75
290.217	399.75
290.448	410.75
290.679	413.75
290.91	437.75
291.141	394.75
291.371	409.75
291.602	419.75
291.833	412.75
292.064	422.75
292.295	411.75
292.526	422.75
292.757	410.75
292.987	428.75
293.218	409.75
293.449	419.75
293.68	429.75
293.91	407.75
294.141	427.75
294.372	430.75
294.603	425.75
294.833	405.75
295.064	430.75
295.295	417.75
295.525	417.75
295.756	444.75
295.987	422.75
296.217	414.75
296.448	433.75
296.679	435.75
296.909	422.75
297.14	429.75
297.37	449.75
297.601	450.75
297.831	432.75
298.062	448.75
298.292	468.75
298.523	479.75
298.753	468.75
298.984	457.75
299.214	479.75
299.445	446.75
299.675	459.75
299.905	442.75
300.136	441.75
300.366	437.75
300.597	481.75
300.827	488.75
301.057	454.75
301.288	458.75
301.518	468.75
301.748	486.75
301.979	460.75
302.209	481.75
302.439	473.75
302.669	455.75
302.9	449.75
303.13	457.75
303.36	447.75
303.59	459.75
303.82	473.75
304.051	471.75
304.281	434.75
304.511	475.75
304.741	474.75
304.971	511.75
305.201	471.75
305.431	455.75
305.661	470.75
305.891	464.75
306.121	497.75
306.352	454.75
306.582	450.75
306.812	433.75
307.042	465.75
307.272	466.75
307.502	456.75
307.731	455.75
307.961	460.75
308.191	456.75
308.421	469.75
308.651	462.75
308.881	455.75
309.111	465.75
309.341	439.75
309.571	445.75
309.8	449.75
310.03	445.75
310.26	443.75
310.49	450.75
310.72	464.75
310.949	462.75
311.179	451.75
311.409	457.75
311.639	454.75
311.868	457.75
312.098	472.75
312.328	480.75
312.557	477.75
312.787	467.75
313.017	479.75
313.246	488.75
313.476	481.75
313.706	485.75
313.935	474.75
314.165	511.75
314.394	509.75
314.624	484.75
314.853	464.75
315.083	490.75
315.312	487.75
315.542	497.75
315.771	499.75
316.001	500.75
316.23	485.75
316.46	464.75
316.689	472.75
316.919	463.75
317.148	467.75
317.377	482.75
317.607	471.75
317.836	463.75
318.065	481.75
318.295	493.75
318.524	484.75
318.753	474.75
318.983	475.75
319.212	454.75
319.441	482.75
319.67	483.75
319.9	487.75
320.129	491.75
320.358	482.75
320.587	487.75
320.816	494.75
321.046	488.75
321.275	485.75
321.504	498.75
321.733	487.75
321.962	496.75
322.191	486.75
322.42	507.75
322.649	471.75
322.878	464.75
323.108	493.75
323.337	483.75
323.566	510.75
323.795	486.75
324.024	507.75
324.253	505.75
324.482	485.75
324.71	499.75
324.939	518.75
325.168	500.75
325.397	474.75
325.626	509.75
325.855	496.75
326.084	535.75
326.313	536.75
326.542	523.75
326.77	549.75
326.999	556.75
327.228	525.75
327.457	531.75
327.686	514.75
327.914	520.75
328.143	531.75
328.372	537.75
328.6	516.75
328.829	519.75
329.058	521.75
329.287	506.75
329.515	542.75
329.744	520.75
329.972	529.75
330.201	509.75
330.43	519.75
330.658	555.75
330.887	553.75
331.115	537.75
331.344	544.75
331.572	554.75
331.801	560.75
332.03	564.75
332.258	595.75
332.486	607.75
332.715	622.75
332.943	648.75
333.172	680.75
333.4	698.75
333.629	715.75
333.857	706.75
334.085	709.75
334.314	684.75
334.542	677.75
334.771	673.75
334.999	644.75
335.227	646.75
335.455	670.75
335.684	657.75
335.912	626.75
336.14	625.75
336.369	639.75
336.597	645.75
336.825	631.75
337.053	629.75
337.281	635.75
337.51	621.75
337.738	613.75
337.966	582.75
338.194	567.75
338.422	585.75
338.65	583.75
338.878	600.75
339.106	587.75
339.334	588.75
339.562	567.75
339.79	562.75
340.018	547.75
340.246	540.75
340.474	536.75
340.702	552.75
340.93	573.75
341.158	577.75
341.386	538.75
341.614	531.75
341.842	530.75
342.07	539.75
342.298	563.75
342.526	530.75
342.754	539.75
342.981	545.75
343.209	563.75
343.437	578.75
343.665	600.75
343.893	669.75
344.12	705.75
344.348	667.75
344.576	612.75
344.804	610.75
345.031	591.75
345.259	572.75
345.487	565.75
345.714	542.75
345.942	549.75
346.17	540.75
346.397	571.75
346.625	542.75
346.853	547.75
347.08	531.75
347.308	554.75
347.535	538.75
347.763	550.75
347.99	560.75
348.218	562.75
348.445	554.75
348.673	543.75
348.9	570.75
349.128	543.75
349.355	541.75
349.583	512.75
349.81	536.75
350.037	522.75
350.265	501.75
350.492	531.75
350.72	518.75
350.947	517.75
351.174	503.75
351.402	525.75
351.629	504.75
351.856	517.75
352.083	506.75
352.311	503.75
352.538	527.75
352.765	498.75
352.992	509.75
353.22	528.75
353.447	522.75
353.674	499.75
353.901	538.75
354.128	527.75
354.355	501.75
354.583	526.75
354.81	530.75
355.037	513.75
355.264	517.75
355.491	522.75
355.718	515.75
355.945	528.75
356.172	521.75
356.399	535.75
356.626	535.75
356.853	530.75
357.08	518.75
357.307	522.75
357.534	513.75
357.761	501.75
357.988	549.75
358.215	522.75
358.441	514.75
358.668	542.75
358.895	506.75
359.122	506.75
359.349	541.75
359.576	511.75
359.802	530.75
360.029	514.75
360.256	505.75
360.483	538.75
360.709	531.75
360.936	520.75
361.163	543.75
361.39	505.75
361.616	495.75
361.843	509.75
362.07	516.75
362.296	493.75
362.523	510.75
362.749	525.75
362.976	500.75
363.203	517.75
363.429	501.75
363.656	542.75
363.882	527.75
364.109	531.75
364.335	495.75
364.562	521.75
364.788	501.75
365.015	508.75
365.241	525.75
365.468	530.75
365.694	519.75
365.92	527.75
366.147	531.75
366.373	527.75
366.599	527.75
366.826	518.75
367.052	487.75
367.278	506.75
367.505	517.75
367.731	509.75
367.957	528.75
368.184	502.75
368.41	526.75
368.636	535.75
368.862	530.75
369.089	511.75
369.315	521.75
369.541	547.75
369.767	545.75
369.993	547.75
370.219	528.75
370.445	529.75
370.672	561.75
370.898	522.75
371.124	543.75
371.35	567.75
371.576	560.75
371.802	529.75
372.028	561.75
372.254	582.75
372.48	578.75
372.706	587.75
372.932	580.75
373.158	587.75
373.384	557.75
373.61	569.75
373.835	566.75
374.061	565.75
374.287	589.75
374.513	547.75
374.739	581.75
374.965	601.75
375.191	644.75
375.416	621.75
375.642	604.75
375.868	628.75
376.094	575.75
376.319	590.75
376.545	578.75
376.771	569.75
376.997	564.75
377.222	561.75
377.448	572.75
377.674	577.75
377.899	579.75
378.125	565.75
378.35	562.75
378.576	563.75
378.802	566.75
379.027	549.75
379.253	548.75
379.478	547.75
379.704	535.75
379.929	550.75
380.155	565.75
380.38	567.75
380.606	527.75
380.831	552.75
381.057	569.75
381.282	557.75
381.507	547.75
381.733	544.75
381.958	563.75
382.184	557.75
382.409	575.75
382.634	594.75
382.86	600.75
383.085	594.75
383.31	605.75
383.535	603.75
383.761	612.75
383.986	629.75
384.211	626.75
384.436	651.75
384.662	647.75
384.887	661.75
385.112	677.75
385.337	663.75
385.562	673.75
385.787	682.75
386.013	680.75
386.238	677.75
386.463	656.75
386.688	708.75
386.913	683.75
387.138	659.75
387.363	657.75
387.588	637.75
387.813	649.75
388.038	657.75
388.263	654.75
388.488	657.75
388.713	651.75
388.938	665.75
389.163	658.75
389.387	679.75
389.612	629.75
389.837	652.75
390.062	643.75
390.287	637.75
390.512	653.75
390.736	657.75
390.961	665.75
391.186	692.75
391.411	704.75
391.636	711.75
391.86	750.75
392.085	753.75
392.31	745.75
392.534	737.75
392.759	733.75
392.984	711.75
393.208	725.75
393.433	711.75
393.658	703.75
393.882	719.75
394.107	714.75
394.331	697.75
394.556	711.75
394.78	712.75
395.005	721.75
395.229	723.75
395.454	718.75
395.678	759.75
395.903	749.75
396.127	744.75
396.352	705.75
396.576	687.75
396.801	677.75
397.025	714.75
397.249	754.75
397.474	738.75
397.698	722.75
397.922	749.75
398.147	712.75
398.371	752.75
398.595	752.75
398.82	797.75
399.044	863.75
399.268	928.75
399.492	1098.75
399.717	1269.75
399.941	1273.75
400.165	1107.75
400.389	1004.75
400.613	913.75
400.837	887.75
401.062	847.75
401.286	833.75
401.51	818.75
401.734	818.75
401.958	823.75
402.182	861.75
402.406	850.75
402.63	851.75
402.854	887.75
403.078	905.75
403.302	905.75
403.526	945.75
403.75	928.75
403.974	968.75
404.198	976.75
404.422	981.75
404.645	981.75
404.869	938.75
405.093	978.75
405.317	940.75
405.541	912.75
405.765	918.75
405.988	889.75
406.212	937.75
406.436	900.75
406.66	933.75
406.883	921.75
407.107	971.75
407.331	1055.75
407.555	1073.75
407.778	1063.75
408.002	1064.75
408.226	1041.75
408.449	1007.75
408.673	965.75
408.896	931.75
409.12	936.75
409.344	965.75
409.567	958.75
409.791	990.75
410.014	949.75
410.238	965.75
410.461	958.75
410.685	934.75
410.908	906.75
411.132	897.75
411.355	869.75
411.578	895.75
411.802	861.75
412.025	881.75
412.249	917.75
412.472	881.75
412.695	855.75
412.919	834.75
413.142	822.75
413.365	845.75
413.589	827.75
413.812	843.75
414.035	809.75
414.258	825.75
414.482	849.75
414.705	866.75
414.928	866.75
415.151	861.75
415.374	866.75
415.597	807.75
415.821	801.75
416.044	802.75
416.267	814.75
416.49	812.75
416.713	823.75
416.936	813.75
417.159	819.75
417.382	804.75
417.605	842.75
417.828	823.75
418.051	825.75
418.274	835.75
418.497	826.75
418.72	843.75
418.943	853.75
419.166	906.75
419.389	937.75
419.611	932.75
419.834	917.75
420.057	879.75
420.28	839.75
420.503	851.75
420.726	803.75
420.948	830.75
421.171	815.75
421.394	831.75
421.617	830.75
421.839	814.75
422.062	816.75
422.285	823.75
422.507	824.75
422.73	846.75
422.953	853.75
423.175	877.75
423.398	883.75
423.621	889.75
423.843	890.75
424.066	893.75
424.288	888.75
424.511	878.75
424.733	870.75
424.956	836.75
425.178	837.75
425.401	836.75
425.623	822.75
425.846	831.75
426.068	814.75
426.291	810.75
426.513	769.75
426.735	773.75
426.958	754.75
427.18	765.75
427.402	782.75
427.625	776.75
427.847	742.75
428.069	753.75
428.292	744.75
428.514	751.75
428.736	727.75
428.958	766.75
429.181	735.75
429.403	715.75
429.625	733.75
429.847	719.75
430.069	732.75
430.292	713.75
430.514	711.75
430.736	731.75
430.958	730.75
431.18	705.75
431.402	712.75
431.624	743.75
431.846	756.75
432.068	778.75
432.29	779.75
432.512	732.75
432.734	732.75
432.956	732.75
433.178	770.75
433.4	731.75
433.622	748.75
433.844	779.75
434.066	776.75
434.287	784.75
434.509	776.75
434.731	825.75
434.953	853.75
435.175	863.75
435.397	872.75
435.618	797.75
435.84	798.75
436.062	780.75
436.284	754.75
436.505	736.75
436.727	767.75
436.949	755.75
437.17	769.75
437.392	751.75
437.614	725.75
437.835	733.75
438.057	703.75
438.278	707.75
438.5	722.75
438.721	711.75
438.943	741.75
439.165	709.75
439.386	711.75
439.608	729.75
439.829	735.75
440.05	769.75
440.272	761.75
440.493	775.75
440.715	783.75
440.936	775.75
441.158	808.75
441.379	808.75
441.6	879.75
441.822	871.75
442.043	866.75
442.264	840.75
442.486	855.75
442.707	841.75
442.928	816.75
443.149	827.75
443.371	826.75
443.592	856.75
443.813	843.75
444.034	856.75
444.255	866.75
444.476	915.75
444.698	988.75
444.919	1023.75
445.14	1057.75
445.361	990.75
445.582	879.75
445.803	845.75
446.024	801.75
446.245	802.75
446.466	787.75
446.687	785.75
446.908	778.75
447.129	741.75
447.35	738.75
447.571	733.75
447.792	712.75
448.013	724.75
448.234	704.75
448.455	713.75
448.675	682.75
448.896	682.75
449.117	678.75
449.338	703.75
449.559	687.75
449.779	682.75
450	708.75
450.221	693.75
450.442	712.75
450.662	691.75
450.883	714.75
451.104	720.75
451.324	733.75
451.545	728.75
451.766	725.75
451.986	715.75
452.207	685.75
452.428	705.75
452.648	704.75
452.869	695.75
453.089	697.75
453.31	696.75
453.53	662.75
453.751	652.75
453.971	674.75
454.192	685.75
454.412	665.75
454.633	654.75
454.853	655.75
455.073	690.75
455.294	661.75
455.514	662.75
455.734	655.75
455.955	643.75
456.175	638.75
456.395	630.75
456.616	641.75
456.836	639.75
457.056	664.75
457.276	637.75
457.497	667.75
457.717	654.75
457.937	632.75
458.157	657.75
458.377	667.75
458.598	660.75
458.818	719.75
459.038	709.75
459.258	722.75
459.478	745.75
459.698	807.75
459.918	803.75
460.138	826.75
460.358	905.75
460.578	888.75
460.798	882.75
461.018	925.75
461.238	905.75
461.458	869.75
461.678	889.75
461.898	879.75
462.118	905.75
462.338	942.75
462.558	977.75
462.777	981.75
462.997	1108.75
463.217	1256.75
463.437	1264.75
463.657	1121.75
463.876	1064.75
464.096	1050.75
464.316	1039.75
464.536	1068.75
464.755	1018.75
464.975	961.75
465.195	938.75
465.414	851.75
465.634	815.75
465.854	820.75
466.073	782.75
466.293	766.75
466.512	743.75
466.732	751.75
466.951	755.75
467.171	734.75
467.391	733.75
467.61	735.75
467.829	729.75
468.049	713.75
468.268	697.75
468.488	699.75
468.707	687.75
468.927	705.75
469.146	695.75
469.365	689.75
469.585	716.75
469.804	695.75
470.023	765.75
470.243	739.75
470.462	777.75
470.681	755.75
470.901	765.75
471.12	745.75
471.339	746.75
471.558	723.75
471.777	712.75
471.997	714.75
472.216	676.75
472.435	704.75
472.654	690.75
472.873	681.75
473.092	691.75
473.311	688.75
473.53	663.75
473.749	671.75
473.968	679.75
474.187	678.75
474.406	672.75
474.625	691.75
474.844	661.75
475.063	670.75
475.282	685.75
475.501	687.75
475.72	680.75
475.939	691.75
476.158	711.75
476.377	695.75
476.596	684.75
476.814	725.75
477.033	734.75
477.252	703.75
477.471	742.75
477.69	745.75
477.908	767.75
478.127	825.75
478.346	823.75
478.564	802.75
478.783	835.75
479.002	862.75
479.22	878.75
479.439	857.75
479.658	823.75
479.876	837.75
480.095	850.75
480.313	887.75
480.532	922.75
480.751	903.75
480.969	855.75
481.188	839.75
481.406	831.75
481.624	803.75
481.843	805.75
482.061	773.75
482.28	773.75
482.498	792.75
482.717	782.75
482.935	750.75
483.153	772.75
483.372	784.75
483.59	787.75
483.808	779.75
484.027	771.75
484.245	776.75
484.463	801.75
484.681	802.75
484.9	802.75
485.118	800.75
485.336	805.75
485.554	836.75
485.772	826.75
485.99	823.75
486.209	835.75
486.427	825.75
486.645	832.75
486.863	841.75
487.081	817.75
487.299	792.75
487.517	814.75
487.735	819.75
487.953	815.75
488.171	811.75
488.389	804.75
488.607	811.75
488.825	798.75
489.043	822.75
489.261	826.75
489.479	786.75
489.696	806.75
489.914	814.75
490.132	780.75
490.35	811.75
490.568	808.75
490.786	824.75
491.003	829.75
491.221	834.75
491.439	830.75
491.657	825.75
491.874	826.75
492.092	832.75
492.31	831.75
492.527	834.75
492.745	846.75
492.963	854.75
493.18	858.75
493.398	826.75
493.615	871.75
493.833	868.75
494.05	863.75
494.268	851.75
494.485	865.75
494.703	881.75
494.92	863.75
495.138	846.75
495.355	830.75
495.573	851.75
495.79	841.75
496.008	874.75
496.225	899.75
496.442	888.75
496.66	903.75
496.877	893.75
497.094	897.75
497.312	915.75
497.529	941.75
497.746	959.75
497.963	975.75
498.181	1024.75
498.398	1063.75
498.615	1149.75
498.832	1181.75
499.049	1299.75
499.267	1390.75
499.484	1522.75
499.701	1697.75
499.918	1885.75
500.135	2153.75
500.352	2544.75
500.569	2617.75
500.786	2669.75
501.003	2448.75
501.22	2141.75
501.437	1886.75
501.654	1675.75
501.871	1488.75
502.088	1398.75
502.305	1270.75
502.522	1230.75
502.739	1177.75
502.956	1094.75
503.172	1091.75
503.389	1016.75
503.606	988.75
503.823	970.75
504.04	982.75
504.256	981.75
504.473	1009.75
504.69	1011.75
504.907	1016.75
505.123	937.75
505.34	903.75
505.557	850.75
505.773	831.75
505.99	803.75
506.207	814.75
506.423	801.75
506.64	796.75
506.856	795.75
507.073	771.75
507.289	729.75
507.506	765.75
507.722	754.75
507.939	769.75
508.155	725.75
508.372	759.75
508.588	724.75
508.805	725.75
509.021	715.75
509.238	711.75
509.454	739.75
509.67	710.75
509.887	703.75
510.103	687.75
510.319	713.75
510.536	719.75
510.752	710.75
510.968	677.75
511.184	701.75
511.401	709.75
511.617	676.75
511.833	707.75
512.049	683.75
512.265	689.75
512.481	675.75
512.698	690.75
512.914	695.75
513.13	677.75
513.346	698.75
513.562	716.75
513.778	677.75
513.994	705.75
514.21	718.75
514.426	693.75
514.642	689.75
514.858	718.75
515.074	725.75
515.29	723.75
515.506	722.75
515.721	710.75
515.937	743.75
516.153	763.75
516.369	803.75
516.585	800.75
516.801	819.75
517.016	833.75
517.232	906.75
517.448	953.75
517.664	987.75
517.879	981.75
518.095	972.75
518.311	988.75
518.527	919.75
518.742	885.75
518.958	850.75
519.173	825.75
519.389	806.75
519.605	756.75
519.82	742.75
520.036	730.75
520.251	758.75
520.467	728.75
520.682	735.75
520.898	715.75
521.113	681.75
521.329	658.75
521.544	691.75
521.76	676.75
521.975	677.75
522.19	676.75
522.406	683.75
522.621	672.75
522.836	657.75
523.052	661.75
523.267	648.75
523.482	661.75
523.698	664.75
523.913	667.75
524.128	647.75
524.343	661.75
524.559	662.75
524.774	632.75
524.989	687.75
525.204	645.75
525.419	662.75
525.634	660.75
525.849	639.75
526.064	643.75
526.28	624.75
526.495	641.75
526.71	638.75
526.925	670.75
527.14	623.75
527.355	641.75
527.57	658.75
527.785	627.75
527.999	634.75
528.214	642.75
528.429	645.75
528.644	647.75
528.859	667.75
529.074	646.75
529.289	637.75
529.503	638.75
529.718	638.75
529.933	624.75
530.148	631.75
530.363	655.75
530.577	644.75
530.792	647.75
531.007	639.75
531.221	635.75
531.436	640.75
531.651	643.75
531.865	644.75
532.08	650.75
532.295	645.75
532.509	639.75
532.724	631.75
532.938	631.75
533.153	644.75
533.367	636.75
533.582	651.75
533.796	654.75
534.011	645.75
534.225	631.75
534.44	631.75
534.654	656.75
534.868	639.75
535.083	618.75
535.297	613.75
535.511	643.75
535.726	617.75
535.94	608.75
536.154	610.75
536.369	595.75
536.583	588.75
536.797	584.75
537.011	600.75
537.225	593.75
537.44	610.75
537.654	604.75
537.868	585.75
538.082	605.75
538.296	607.75
538.51	589.75
538.724	577.75
538.938	600.75
539.153	596.75
539.367	586.75
539.581	578.75
539.795	582.75
540.009	582.75
540.222	583.75
540.436	567.75
540.65	569.75
540.864	580.75
541.078	578.75
541.292	577.75
541.506	561.75
541.72	587.75
541.934	568.75
542.147	586.75
542.361	571.75
542.575	553.75
542.789	569.75
543.002	570.75
543.216	581.75
543.43	574.75
543.644	569.75
543.857	592.75
544.071	564.75
544.285	593.75
544.498	559.75
544.712	590.75
544.925	592.75
545.139	584.75
545.352	592.75
545.566	578.75
545.779	577.75
545.993	597.75
546.206	602.75
546.42	576.75
546.633	592.75
546.847	565.75
547.06	582.75
547.274	589.75
547.487	588.75
547.7	574.75
547.914	605.75
548.127	572.75
548.34	591.75
548.554	617.75
548.767	606.75
548.98	585.75
549.193	593.75
549.407	597.75
549.62	602.75
549.833	615.75
550.046	606.75
550.259	573.75
550.473	573.75
550.686	588.75
550.899	591.75
551.112	578.75
551.325	574.75
551.538	588.75
551.751	572.75
551.964	555.75
552.177	573.75
552.39	593.75
552.603	605.75
552.816	626.75
553.029	632.75
553.242	653.75
553.455	643.75
553.667	681.75
553.88	639.75
554.093	629.75
554.306	589.75
554.519	592.75
554.732	563.75
554.944	570.75
555.157	580.75
555.37	577.75
555.583	541.75
555.795	544.75
556.008	537.75
556.221	534.75
556.433	533.75
556.646	522.75
556.859	501.75
557.071	513.75
557.284	517.75
557.496	504.75
557.709	523.75
557.921	507.75
558.134	521.75
558.346	504.75
558.559	505.75
558.771	502.75
558.984	503.75
559.196	506.75
559.409	490.75
559.621	493.75
559.833	488.75
560.046	488.75
560.258	481.75
560.47	468.75
560.683	507.75
560.895	484.75
561.107	495.75
561.32	482.75
561.532	481.75
561.744	485.75
561.956	485.75
562.168	475.75
562.381	489.75
562.593	486.75
562.805	493.75
563.017	475.75
563.229	502.75
563.441	480.75
563.653	498.75
563.865	505.75
564.077	480.75
564.289	503.75
564.501	484.75
564.713	529.75
564.925	521.75
565.137	552.75
565.349	547.75
565.561	561.75
565.773	574.75
565.985	582.75
566.197	604.75
566.408	677.75
566.62	704.75
566.832	786.75
567.044	804.75
567.255	789.75
567.467	831.75
567.679	848.75
567.891	947.75
568.102	970.75
568.314	906.75
568.526	838.75
568.737	707.75
568.949	675.75
569.161	628.75
569.372	593.75
569.584	551.75
569.795	510.75
570.007	516.75
570.218	519.75
570.43	504.75
570.641	497.75
570.853	512.75
571.064	535.75
571.276	519.75
571.487	488.75
571.698	481.75
571.91	488.75
572.121	462.75
572.333	415.75
572.544	419.75
572.755	408.75
572.966	403.75
573.178	439.75
573.389	409.75
573.6	418.75
573.811	402.75
574.023	416.75
574.234	406.75
574.445	436.75
574.656	411.75
574.867	415.75
575.078	425.75
575.289	408.75
575.501	392.75
575.712	397.75
575.923	413.75
576.134	387.75
576.345	373.75
576.556	387.75
576.767	382.75
576.978	387.75
577.188	377.75
577.399	393.75
577.61	387.75
577.821	392.75
578.032	374.75
578.243	372.75
578.454	375.75
578.665	375.75
578.875	361.75
579.086	367.75
579.297	362.75
579.508	365.75
579.718	365.75
579.929	360.75
580.14	364.75
580.35	358.75
580.561	359.75
580.772	371.75
580.982	367.75
581.193	337.75
581.403	346.75
581.614	353.75
581.825	351.75
582.035	342.75
582.246	348.75
582.456	355.75
582.667	345.75
582.877	334.75
583.087	344.75
583.298	360.75
583.508	318.75
583.719	344.75
583.929	336.75
584.139	357.75
584.35	347.75
584.56	350.75
584.77	340.75
584.981	337.75
585.191	338.75
585.401	340.75
585.611	334.75
585.821	334.75
586.032	337.75
586.242	328.75
586.452	340.75
586.662	331.75
586.872	321.75
587.082	345.75
587.292	336.75
587.502	334.75
587.713	329.75
587.923	335.75
588.133	338.75
588.343	323.75
588.553	327.75
588.762	331.75
588.972	340.75
589.182	331.75
589.392	312.75
589.602	321.75
589.812	320.75
590.022	350.75
590.232	337.75
590.441	331.75
590.651	359.75
590.861	331.75
591.071	335.75
591.281	330.75
591.49	349.75
591.7	359.75
591.91	361.75
592.119	359.75
592.329	353.75
592.539	369.75
592.748	401.75
592.958	387.75
593.167	403.75
593.377	419.75
593.587	443.75
593.796	429.75
594.006	431.75
594.215	450.75
594.424	459.75
594.634	427.75
594.843	393.75
595.053	371.75
595.262	371.75
595.472	360.75
595.681	358.75
595.89	370.75
596.1	333.75
596.309	328.75
596.518	330.75
596.727	310.75
596.937	308.75
597.146	302.75
597.355	312.75
597.564	302.75
597.774	291.75
597.983	293.75
598.192	307.75
598.401	307.75
598.61	292.75
598.819	286.75
599.028	293.75
599.237	301.75
599.446	279.75
599.655	296.75
599.864	269.75
600.073	297.75
600.282	288.75
600.491	286.75
600.7	288.75
600.909	282.75
601.118	293.75
601.327	276.75
601.536	288.75
601.745	273.75
601.953	270.75
602.162	306.75
602.371	274.75
602.58	274.75
602.789	275.75
602.997	273.75
603.206	280.75
603.415	273.75
603.623	287.75
603.832	264.75
604.041	280.75
604.249	277.75
604.458	273.75
604.666	270.75
604.875	258.75
605.084	265.75
605.292	272.75
605.501	257.75
605.709	257.75
605.918	252.75
606.126	247.75
606.334	277.75
606.543	274.75
606.751	255.75
606.96	245.75
607.168	259.75
607.376	277.75
607.585	258.75
607.793	261.75
608.001	247.75
608.21	255.75
608.418	250.75
608.626	269.75
608.834	259.75
609.043	248.75
609.251	270.75
609.459	255.75
609.667	260.75
609.875	257.75
610.083	264.75
610.291	266.75
610.499	266.75
610.707	241.75
610.916	262.75
611.124	255.75
611.332	249.75
611.54	266.75
611.748	252.75
611.955	265.75
612.163	243.75
612.371	252.75
612.579	257.75
612.787	257.75
612.995	247.75
613.203	253.75
613.411	228.75
613.618	230.75
613.826	240.75
614.034	249.75
614.242	232.75
614.449	233.75
614.657	227.75
614.865	237.75
615.072	252.75
615.28	249.75
615.488	242.75
615.695	232.75
615.903	258.75
616.111	256.75
616.318	270.75
616.526	261.75
616.733	267.75
616.941	254.75
617.148	268.75
617.356	257.75
617.563	254.75
617.771	261.75
617.978	255.75
618.185	249.75
618.393	239.75
618.6	269.75
618.807	261.75
619.015	244.75
619.222	242.75
619.429	240.75
619.637	221.75
619.844	224.75
620.051	214.75
620.258	211.75
620.466	235.75
620.673	229.75
620.88	240.75
621.087	239.75
621.294	222.75
621.501	231.75
621.708	232.75
621.915	224.75
622.122	206.75
622.329	225.75
622.536	224.75
622.743	218.75
622.95	233.75
623.157	232.75
623.364	213.75
623.571	227.75
623.778	200.75
623.985	217.75
624.192	212.75
624.399	222.75
624.606	237.75
624.812	209.75
625.019	220.75
625.226	215.75
625.433	220.75
625.639	200.75
625.846	209.75
626.053	194.75
626.259	208.75
626.466	220.75
626.673	215.75
626.879	216.75
627.086	218.75
627.293	199.75
627.499	207.75
627.706	212.75
627.912	225.75
628.119	224.75
628.325	227.75
628.532	192.75
628.738	198.75
628.945	214.75
629.151	217.75
629.357	194.75
629.564	202.75
629.77	208.75
629.976	192.75
630.183	198.75
630.389	200.75
630.595	185.75
630.802	201.75
631.008	215.75
631.214	201.75
631.42	185.75
631.627	214.75
631.833	207.75
632.039	187.75
632.245	188.75
632.451	180.75
632.657	168.75
632.863	210.75
633.069	181.75
633.275	196.75
633.481	198.75
633.688	191.75
633.893	174.75
634.099	178.75
634.305	185.75
634.511	182.75
634.717	191.75
634.923	184.75
635.129	167.75
635.335	189.75
635.541	163.75
635.747	191.75
635.952	187.75
636.158	188.75
636.364	192.75
636.57	198.75
636.775	202.75
636.981	177.75
637.187	175.75
637.392	177.75
637.598	179.75
637.804	188.75
638.009	183.75
638.215	182.75
638.421	172.75
638.626	180.75
638.832	184.75
639.037	176.75
639.243	174.75
639.448	178.75
639.654	179.75
639.859	162.75
640.065	179.75
640.27	163.75
640.475	181.75
640.681	166.75
640.886	181.75
641.091	179.75
641.297	170.75
641.502	173.75
641.707	173.75
641.913	174.75
642.118	181.75
642.323	165.75
642.528	186.75
642.733	153.75
642.939	170.75
643.144	166.75
643.349	163.75
643.554	167.75
643.759	146.75
643.964	161.75
644.169	159.75
644.374	179.75
644.579	166.75
644.784	165.75
644.989	165.75
645.194	167.75
645.399	183.75
645.604	161.75
645.809	166.75
646.014	173.75
646.219	163.75
646.423	147.75
646.628	160.75
646.833	167.75
647.038	181.75
647.243	175.75
647.447	171.75
647.652	165.75
647.857	167.75
648.062	173.75
648.266	160.75
648.471	186.75
648.676	167.75
648.88	179.75
649.085	162.75
649.289	161.75
649.494	169.75
649.698	159.75
649.903	149.75
650.107	165.75
650.312	175.75
650.516	151.75
650.721	158.75
650.925	173.75
651.13	127.75
651.334	130.75
651.539	154.75
651.743	134.75
651.947	135.75
652.152	159.75
652.356	129.75
652.56	144.75
652.764	149.75
652.969	137.75
653.173	131.75
653.377	151.75
653.581	138.75
653.785	127.75
653.99	119.75
654.194	118.75
654.398	126.75
654.602	125.75
654.806	118.75
655.01	120.75
655.214	121.75
655.418	124.75
655.622	117.75
655.826	123.75
656.03	129.75
656.234	121.75
656.438	124.75
656.642	117.75
656.846	116.75
657.049	113.75
657.253	127.75
657.457	115.75
657.661	111.75
657.865	110.75
658.068	114.75
658.272	100.75
658.476	96.75
658.68	96.75
658.883	108.75
659.087	111.75
659.291	94.75
659.494	110.75
659.698	107.75
659.901	96.75
660.105	85.75
660.309	80.75
660.512	82.75
660.716	83.75
660.919	93.75
661.123	89.75
661.326	100.75
661.53	90.75
661.733	94.75
661.936	74.75
662.14	71.75
662.343	86.75
662.546	73.75
662.75	77.75
662.953	86.75
663.156	73.75
663.36	80.75
663.563	66.75
663.766	86.75
663.969	67.75
664.173	74.75
664.376	76.75
664.579	75.75
664.782	80.75
664.985	73.75
665.188	68.75
665.391	83.75
665.594	79.75
665.797	78.75
666	85.75
666.203	73.75
666.406	82.75
666.609	84.75
666.812	94.75
667.015	72.75
667.218	92.75
667.421	83.75
667.624	70.75
667.827	70.75
668.03	73.75
668.232	87.75
668.435	83.75
668.638	88.75
668.841	75.75
669.043	65.75
669.246	65.75
669.449	79.75
669.651	82.75
669.854	66.75
670.057	73.75
670.259	72.75
670.462	91.75
670.665	98.75
670.867	67.75
671.07	71.75
671.272	78.75
671.475	81.75
671.677	74.75
671.88	80.75
672.082	67.75
672.284	82.75
672.487	90.75
672.689	75.75
672.892	78.75
