Data from Ni(NO3)2@0.5M.TitratingCurve.Agarose3%dH2O.NegLispCup.LampEnergy10.LIBS07252019_HRD10591_17-57-16-564.txt Node
Date: Thu Jul 25 17:57:16 EDT 2019
User: cochatt
Spectrometer: HR+D1059
Trigger mode: 1
Integration Time (sec): 1.000000E-1
Scans to average: 1
Electric dark correction enabled: true
Nonlinearity correction enabled: false
Boxcar width: 0
XAxis mode: Wavelengths
Number of Pixels in Spectrum: 2048
>>>>>Begin Spectral Data<<<<<
223.165	-19.56
223.4	-19.56
223.635	-19.56
223.869	-20.56
224.104	-16.56
224.338	-22.56
224.573	-26.56
224.808	-3.56
225.042	2.44
225.277	10.44
225.511	-5.56
225.746	0.44
225.98	0.44
226.215	8.44
226.449	16.44
226.683	19.44
226.918	19.44
227.152	37.44
227.387	40.44
227.621	43.44
227.856	43.44
228.09	52.44
228.324	65.44
228.559	49.44
228.793	80.44
229.027	133.44
229.262	152.44
229.496	167.44
229.73	155.44
229.964	180.44
230.199	193.44
230.433	192.44
230.667	194.44
230.901	194.44
231.136	183.44
231.37	172.44
231.604	189.44
231.838	201.44
232.072	211.44
232.306	175.44
232.541	190.44
232.775	193.44
233.009	159.44
233.243	169.44
233.477	175.44
233.711	178.44
233.945	176.44
234.179	188.44
234.413	187.44
234.647	190.44
234.881	191.44
235.115	187.44
235.349	171.44
235.583	183.44
235.817	179.44
236.051	165.44
236.285	201.44
236.519	191.44
236.753	195.44
236.987	180.44
237.221	183.44
237.455	185.44
237.689	198.44
237.922	207.44
238.156	210.44
238.39	210.44
238.624	199.44
238.858	190.44
239.091	208.44
239.325	212.44
239.559	234.44
239.793	245.44
240.027	252.44
240.26	212.44
240.494	219.44
240.728	214.44
240.961	207.44
241.195	224.44
241.429	243.44
241.662	258.44
241.896	258.44
242.13	276.44
242.363	237.44
242.597	240.44
242.83	235.44
243.064	229.44
243.298	228.44
243.531	248.44
243.765	244.44
243.998	247.44
244.232	267.44
244.465	265.44
244.699	241.44
244.932	255.44
245.166	261.44
245.399	264.44
245.633	284.44
245.866	269.44
246.099	279.44
246.333	277.44
246.566	273.44
246.8	264.44
247.033	275.44
247.266	266.44
247.5	282.44
247.733	263.44
247.966	288.44
248.2	282.44
248.433	298.44
248.666	282.44
248.899	303.44
249.133	309.44
249.366	314.44
249.599	299.44
249.832	299.44
250.066	302.44
250.299	316.44
250.532	322.44
250.765	320.44
250.998	327.44
251.231	362.44
251.465	364.44
251.698	338.44
251.931	327.44
252.164	343.44
252.397	356.44
252.63	333.44
252.863	353.44
253.096	346.44
253.329	363.44
253.562	351.44
253.795	362.44
254.028	373.44
254.261	379.44
254.494	377.44
254.727	371.44
254.96	363.44
255.193	395.44
255.426	383.44
255.659	394.44
255.892	402.44
256.124	394.44
256.357	382.44
256.59	399.44
256.823	418.44
257.056	410.44
257.289	415.44
257.521	383.44
257.754	411.44
257.987	412.44
258.22	428.44
258.452	413.44
258.685	415.44
258.918	410.44
259.151	417.44
259.383	420.44
259.616	427.44
259.849	444.44
260.081	429.44
260.314	435.44
260.547	431.44
260.779	434.44
261.012	456.44
261.244	450.44
261.477	457.44
261.71	452.44
261.942	448.44
262.175	457.44
262.407	457.44
262.64	470.44
262.872	455.44
263.105	479.44
263.337	468.44
263.57	473.44
263.802	465.44
264.035	490.44
264.267	471.44
264.499	472.44
264.732	498.44
264.964	498.44
265.197	472.44
265.429	475.44
265.661	483.44
265.894	486.44
266.126	513.44
266.358	503.44
266.591	494.44
266.823	497.44
267.055	493.44
267.287	529.44
267.52	485.44
267.752	513.44
267.984	515.44
268.216	512.44
268.448	518.44
268.681	554.44
268.913	538.44
269.145	531.44
269.377	519.44
269.609	538.44
269.841	508.44
270.073	538.44
270.306	514.44
270.538	529.44
270.77	547.44
271.002	558.44
271.234	554.44
271.466	548.44
271.698	557.44
271.93	543.44
272.162	565.44
272.394	569.44
272.626	542.44
272.858	568.44
273.09	559.44
273.322	559.44
273.553	541.44
273.785	547.44
274.017	561.44
274.249	590.44
274.481	583.44
274.713	577.44
274.945	589.44
275.176	584.44
275.408	576.44
275.64	582.44
275.872	562.44
276.104	567.44
276.335	568.44
276.567	594.44
276.799	609.44
277.031	579.44
277.262	599.44
277.494	605.44
277.726	600.44
277.957	599.44
278.189	588.44
278.421	624.44
278.652	594.44
278.884	603.44
279.115	607.44
279.347	620.44
279.579	623.44
279.81	620.44
280.042	612.44
280.273	626.44
280.505	615.44
280.736	613.44
280.968	609.44
281.199	633.44
281.431	634.44
281.662	643.44
281.894	640.44
282.125	651.44
282.356	632.44
282.588	632.44
282.819	643.44
283.051	628.44
283.282	625.44
283.513	637.44
283.745	656.44
283.976	655.44
284.207	649.44
284.439	649.44
284.67	651.44
284.901	648.44
285.132	664.44
285.364	653.44
285.595	632.44
285.826	674.44
286.057	671.44
286.288	656.44
286.52	631.44
286.751	679.44
286.982	694.44
287.213	688.44
287.444	689.44
287.675	681.44
287.906	672.44
288.138	649.44
288.369	681.44
288.6	703.44
288.831	663.44
289.062	689.44
289.293	668.44
289.524	690.44
289.755	696.44
289.986	665.44
290.217	666.44
290.448	675.44
290.679	697.44
290.91	683.44
291.141	721.44
291.371	695.44
291.602	707.44
291.833	706.44
292.064	699.44
292.295	699.44
292.526	713.44
292.757	698.44
292.987	708.44
293.218	682.44
293.449	707.44
293.68	693.44
293.91	687.44
294.141	704.44
294.372	707.44
294.603	705.44
294.833	713.44
295.064	713.44
295.295	709.44
295.525	707.44
295.756	707.44
295.987	706.44
296.217	717.44
296.448	716.44
296.679	717.44
296.909	730.44
297.14	727.44
297.37	724.44
297.601	738.44
297.831	728.44
298.062	726.44
298.292	744.44
298.523	719.44
298.753	731.44
298.984	729.44
299.214	731.44
299.445	775.44
299.675	772.44
299.905	779.44
300.136	759.44
300.366	792.44
300.597	769.44
300.827	774.44
301.057	767.44
301.288	793.44
301.518	768.44
301.748	764.44
301.979	787.44
302.209	767.44
302.439	770.44
302.669	779.44
302.9	789.44
303.13	776.44
303.36	796.44
303.59	793.44
303.82	781.44
304.051	827.44
304.281	808.44
304.511	812.44
304.741	805.44
304.971	826.44
305.201	827.44
305.431	851.44
305.661	834.44
305.891	806.44
306.121	817.44
306.352	803.44
306.582	795.44
306.812	810.44
307.042	808.44
307.272	809.44
307.502	819.44
307.731	819.44
307.961	807.44
308.191	819.44
308.421	821.44
308.651	863.44
308.881	824.44
309.111	824.44
309.341	846.44
309.571	849.44
309.8	850.44
310.03	859.44
310.26	872.44
310.49	890.44
310.72	853.44
310.949	841.44
311.179	877.44
311.409	869.44
311.639	870.44
311.868	871.44
312.098	850.44
312.328	867.44
312.557	885.44
312.787	869.44
313.017	847.44
313.246	872.44
313.476	859.44
313.706	881.44
313.935	887.44
314.165	886.44
314.394	890.44
314.624	892.44
314.853	888.44
315.083	871.44
315.312	882.44
315.542	893.44
315.771	904.44
316.001	893.44
316.23	910.44
316.46	919.44
316.689	910.44
316.919	923.44
317.148	908.44
317.377	946.44
317.607	916.44
317.836	911.44
318.065	942.44
318.295	940.44
318.524	932.44
318.753	933.44
318.983	957.44
319.212	909.44
319.441	949.44
319.67	950.44
319.9	957.44
320.129	983.44
320.358	972.44
320.587	943.44
320.816	969.44
321.046	978.44
321.275	962.44
321.504	980.44
321.733	981.44
321.962	1009.44
322.191	991.44
322.42	1013.44
322.649	990.44
322.878	1016.44
323.108	995.44
323.337	1021.44
323.566	1027.44
323.795	1015.44
324.024	1003.44
324.253	1019.44
324.482	1010.44
324.71	1047.44
324.939	984.44
325.168	1007.44
325.397	1031.44
325.626	1017.44
325.855	1026.44
326.084	1033.44
326.313	1055.44
326.542	1060.44
326.77	1074.44
326.999	1044.44
327.228	1040.44
327.457	1034.44
327.686	1076.44
327.914	1065.44
328.143	1076.44
328.372	1059.44
328.6	1077.44
328.829	1093.44
329.058	1060.44
329.287	1045.44
329.515	1077.44
329.744	1088.44
329.972	1099.44
330.201	1099.44
330.43	1088.44
330.658	1118.44
330.887	1094.44
331.115	1126.44
331.344	1108.44
331.572	1122.44
331.801	1128.44
332.03	1132.44
332.258	1132.44
332.486	1130.44
332.715	1125.44
332.943	1119.44
333.172	1127.44
333.4	1148.44
333.629	1143.44
333.857	1165.44
334.085	1148.44
334.314	1149.44
334.542	1135.44
334.771	1178.44
334.999	1173.44
335.227	1171.44
335.455	1163.44
335.684	1182.44
335.912	1168.44
336.14	1188.44
336.369	1169.44
336.597	1223.44
336.825	1203.44
337.053	1229.44
337.281	1173.44
337.51	1211.44
337.738	1183.44
337.966	1199.44
338.194	1215.44
338.422	1201.44
338.65	1169.44
338.878	1159.44
339.106	1209.44
339.334	1231.44
339.562	1173.44
339.79	1173.44
340.018	1189.44
340.246	1190.44
340.474	1152.44
340.702	1188.44
340.93	1150.44
341.158	1169.44
341.386	1204.44
341.614	1266.44
341.842	1252.44
342.07	1177.44
342.298	1174.44
342.526	1163.44
342.754	1174.44
342.981	1181.44
343.209	1171.44
343.437	1203.44
343.665	1217.44
343.893	1209.44
344.12	1171.44
344.348	1177.44
344.576	1215.44
344.804	1223.44
345.031	1210.44
345.259	1197.44
345.487	1168.44
345.714	1195.44
345.942	1210.44
346.17	1212.44
346.397	1203.44
346.625	1143.44
346.853	1154.44
347.08	1141.44
347.308	1141.44
347.535	1154.44
347.763	1146.44
347.99	1129.44
348.218	1145.44
348.445	1160.44
348.673	1158.44
348.9	1155.44
349.128	1155.44
349.355	1142.44
349.583	1155.44
349.81	1157.44
350.037	1127.44
350.265	1126.44
350.492	1115.44
350.72	1109.44
350.947	1127.44
351.174	1151.44
351.402	1180.44
351.629	1219.44
351.856	1153.44
352.083	1131.44
352.311	1154.44
352.538	1195.44
352.765	1207.44
352.992	1132.44
353.22	1104.44
353.447	1126.44
353.674	1067.44
353.901	1102.44
354.128	1096.44
354.355	1096.44
354.583	1081.44
354.81	1115.44
355.037	1120.44
355.264	1129.44
355.491	1116.44
355.718	1121.44
355.945	1085.44
356.172	1100.44
356.399	1099.44
356.626	1116.44
356.853	1146.44
357.08	1138.44
357.307	1103.44
357.534	1128.44
357.761	1079.44
357.988	1103.44
358.215	1124.44
358.441	1095.44
358.668	1089.44
358.895	1129.44
359.122	1111.44
359.349	1091.44
359.576	1098.44
359.802	1118.44
360.029	1117.44
360.256	1113.44
360.483	1105.44
360.709	1098.44
360.936	1123.44
361.163	1119.44
361.39	1139.44
361.616	1145.44
361.843	1142.44
362.07	1204.44
362.296	1171.44
362.523	1111.44
362.749	1119.44
362.976	1102.44
363.203	1097.44
363.429	1121.44
363.656	1136.44
363.882	1111.44
364.109	1112.44
364.335	1097.44
364.562	1105.44
364.788	1074.44
365.015	1127.44
365.241	1087.44
365.468	1099.44
365.694	1119.44
365.92	1097.44
366.147	1117.44
366.373	1112.44
366.599	1140.44
366.826	1128.44
367.052	1131.44
367.278	1145.44
367.505	1107.44
367.731	1149.44
367.957	1139.44
368.184	1143.44
368.41	1109.44
368.636	1110.44
368.862	1117.44
369.089	1131.44
369.315	1131.44
369.541	1115.44
369.767	1156.44
369.993	1136.44
370.219	1129.44
370.445	1160.44
370.672	1154.44
370.898	1118.44
371.124	1118.44
371.35	1139.44
371.576	1149.44
371.802	1148.44
372.028	1163.44
372.254	1143.44
372.48	1144.44
372.706	1135.44
372.932	1126.44
373.158	1152.44
373.384	1141.44
373.61	1135.44
373.835	1171.44
374.061	1135.44
374.287	1147.44
374.513	1120.44
374.739	1139.44
374.965	1161.44
375.191	1118.44
375.416	1135.44
375.642	1122.44
375.868	1141.44
376.094	1107.44
376.319	1143.44
376.545	1155.44
376.771	1121.44
376.997	1149.44
377.222	1108.44
377.448	1107.44
377.674	1114.44
377.899	1123.44
378.125	1117.44
378.35	1116.44
378.576	1125.44
378.802	1110.44
379.027	1092.44
379.253	1132.44
379.478	1116.44
379.704	1106.44
379.929	1094.44
380.155	1136.44
380.38	1081.44
380.606	1125.44
380.831	1092.44
381.057	1131.44
381.282	1114.44
381.507	1107.44
381.733	1130.44
381.958	1131.44
382.184	1131.44
382.409	1153.44
382.634	1133.44
382.86	1146.44
383.085	1146.44
383.31	1132.44
383.535	1155.44
383.761	1128.44
383.986	1111.44
384.211	1125.44
384.436	1142.44
384.662	1160.44
384.887	1176.44
385.112	1185.44
385.337	1136.44
385.562	1155.44
385.787	1171.44
386.013	1195.44
386.238	1186.44
386.463	1199.44
386.688	1201.44
386.913	1166.44
387.138	1174.44
387.363	1169.44
387.588	1183.44
387.813	1183.44
388.038	1156.44
388.263	1192.44
388.488	1191.44
388.713	1185.44
388.938	1199.44
389.163	1165.44
389.387	1205.44
389.612	1183.44
389.837	1199.44
390.062	1184.44
390.287	1165.44
390.512	1163.44
390.736	1195.44
390.961	1212.44
391.186	1156.44
391.411	1211.44
391.636	1210.44
391.86	1216.44
392.085	1216.44
392.31	1197.44
392.534	1213.44
392.759	1211.44
392.984	1166.44
393.208	1182.44
393.433	1190.44
393.658	1229.44
393.882	1199.44
394.107	1202.44
394.331	1213.44
394.556	1201.44
394.78	1212.44
395.005	1182.44
395.229	1209.44
395.454	1228.44
395.678	1213.44
395.903	1164.44
396.127	1199.44
396.352	1231.44
396.576	1220.44
396.801	1219.44
397.025	1211.44
397.249	1231.44
397.474	1283.44
397.698	1240.44
397.922	1224.44
398.147	1238.44
398.371	1248.44
398.595	1225.44
398.82	1243.44
399.044	1287.44
399.268	1291.44
399.492	1321.44
399.717	1331.44
399.941	1342.44
400.165	1340.44
400.389	1330.44
400.613	1304.44
400.837	1309.44
401.062	1309.44
401.286	1313.44
401.51	1317.44
401.734	1286.44
401.958	1295.44
402.182	1256.44
402.406	1244.44
402.63	1276.44
402.854	1279.44
403.078	1268.44
403.302	1298.44
403.526	1257.44
403.75	1293.44
403.974	1284.44
404.198	1294.44
404.422	1280.44
404.645	1283.44
404.869	1307.44
405.093	1334.44
405.317	1306.44
405.541	1273.44
405.765	1321.44
405.988	1304.44
406.212	1320.44
406.436	1359.44
406.66	1345.44
406.883	1329.44
407.107	1392.44
407.331	1347.44
407.555	1397.44
407.778	1379.44
408.002	1366.44
408.226	1398.44
408.449	1397.44
408.673	1357.44
408.896	1376.44
409.12	1363.44
409.344	1364.44
409.567	1372.44
409.791	1340.44
410.014	1341.44
410.238	1318.44
410.461	1365.44
410.685	1382.44
410.908	1311.44
411.132	1333.44
411.355	1301.44
411.578	1319.44
411.802	1316.44
412.025	1340.44
412.249	1308.44
412.472	1309.44
412.695	1301.44
412.919	1308.44
413.142	1336.44
413.365	1323.44
413.589	1321.44
413.812	1287.44
414.035	1286.44
414.258	1274.44
414.482	1266.44
414.705	1282.44
414.928	1286.44
415.151	1284.44
415.374	1299.44
415.597	1263.44
415.821	1247.44
416.044	1215.44
416.267	1258.44
416.49	1264.44
416.713	1241.44
416.936	1259.44
417.159	1286.44
417.382	1233.44
417.605	1204.44
417.828	1238.44
418.051	1270.44
418.274	1285.44
418.497	1258.44
418.72	1288.44
418.943	1231.44
419.166	1305.44
419.389	1358.44
419.611	1369.44
419.834	1346.44
420.057	1307.44
420.28	1253.44
420.503	1224.44
420.726	1239.44
420.948	1221.44
421.171	1247.44
421.394	1225.44
421.617	1220.44
421.839	1237.44
422.062	1252.44
422.285	1235.44
422.507	1247.44
422.73	1244.44
422.953	1247.44
423.175	1253.44
423.398	1252.44
423.621	1244.44
423.843	1236.44
424.066	1237.44
424.288	1238.44
424.511	1236.44
424.733	1227.44
424.956	1228.44
425.178	1260.44
425.401	1275.44
425.623	1284.44
425.846	1233.44
426.068	1205.44
426.291	1230.44
426.513	1258.44
426.735	1247.44
426.958	1233.44
427.18	1245.44
427.402	1246.44
427.625	1286.44
427.847	1231.44
428.069	1294.44
428.292	1250.44
428.514	1238.44
428.736	1246.44
428.958	1264.44
429.181	1236.44
429.403	1223.44
429.625	1224.44
429.847	1218.44
430.069	1268.44
430.292	1242.44
430.514	1247.44
430.736	1223.44
430.958	1251.44
431.18	1245.44
431.402	1255.44
431.624	1233.44
431.846	1247.44
432.068	1210.44
432.29	1244.44
432.512	1233.44
432.734	1251.44
432.956	1270.44
433.178	1299.44
433.4	1297.44
433.622	1264.44
433.844	1266.44
434.066	1263.44
434.287	1252.44
434.509	1236.44
434.731	1240.44
434.953	1277.44
435.175	1294.44
435.397	1335.44
435.618	1278.44
435.84	1295.44
436.062	1240.44
436.284	1250.44
436.505	1250.44
436.727	1263.44
436.949	1225.44
437.17	1265.44
437.392	1257.44
437.614	1258.44
437.835	1197.44
438.057	1203.44
438.278	1189.44
438.5	1241.44
438.721	1201.44
438.943	1220.44
439.165	1217.44
439.386	1218.44
439.608	1226.44
439.829	1232.44
440.05	1249.44
440.272	1232.44
440.493	1253.44
440.715	1237.44
440.936	1241.44
441.158	1244.44
441.379	1250.44
441.6	1281.44
441.822	1275.44
442.043	1282.44
442.264	1231.44
442.486	1290.44
442.707	1279.44
442.928	1261.44
443.149	1258.44
443.371	1283.44
443.592	1344.44
443.813	1322.44
444.034	1268.44
444.255	1287.44
444.476	1246.44
444.698	1291.44
444.919	1272.44
445.14	1414.44
445.361	1353.44
445.582	1247.44
445.803	1242.44
446.024	1252.44
446.245	1269.44
446.466	1247.44
446.687	1200.44
446.908	1247.44
447.129	1161.44
447.35	1185.44
447.571	1210.44
447.792	1167.44
448.013	1187.44
448.234	1180.44
448.455	1196.44
448.675	1185.44
448.896	1151.44
449.117	1191.44
449.338	1173.44
449.559	1163.44
449.779	1122.44
450	1147.44
450.221	1146.44
450.442	1176.44
450.662	1147.44
450.883	1160.44
451.104	1161.44
451.324	1159.44
451.545	1142.44
451.766	1169.44
451.986	1118.44
452.207	1135.44
452.428	1106.44
452.648	1112.44
452.869	1160.44
453.089	1119.44
453.31	1147.44
453.53	1132.44
453.751	1114.44
453.971	1112.44
454.192	1115.44
454.412	1143.44
454.633	1108.44
454.853	1127.44
455.073	1123.44
455.294	1110.44
455.514	1127.44
455.734	1168.44
455.955	1132.44
456.175	1122.44
456.395	1157.44
456.616	1137.44
456.836	1099.44
457.056	1151.44
457.276	1113.44
457.497	1153.44
457.717	1135.44
457.937	1170.44
458.157	1125.44
458.377	1106.44
458.598	1125.44
458.818	1161.44
459.038	1133.44
459.258	1168.44
459.478	1232.44
459.698	1263.44
459.918	1278.44
460.138	1247.44
460.358	1258.44
460.578	1232.44
460.798	1289.44
461.018	1307.44
461.238	1207.44
461.458	1225.44
461.678	1236.44
461.898	1224.44
462.118	1233.44
462.338	1281.44
462.558	1304.44
462.777	1331.44
462.997	1349.44
463.217	1323.44
463.437	1384.44
463.657	1352.44
463.876	1300.44
464.096	1299.44
464.316	1291.44
464.536	1280.44
464.755	1313.44
464.975	1282.44
465.195	1258.44
465.414	1253.44
465.634	1225.44
465.854	1230.44
466.073	1213.44
466.293	1193.44
466.512	1185.44
466.732	1163.44
466.951	1212.44
467.171	1218.44
467.391	1211.44
467.61	1215.44
467.829	1216.44
468.049	1215.44
468.268	1183.44
468.488	1188.44
468.707	1162.44
468.927	1178.44
469.146	1206.44
469.365	1255.44
469.585	1224.44
469.804	1190.44
470.023	1217.44
470.243	1217.44
470.462	1190.44
470.681	1215.44
470.901	1217.44
471.12	1181.44
471.339	1205.44
471.558	1233.44
471.777	1186.44
471.997	1217.44
472.216	1199.44
472.435	1168.44
472.654	1200.44
472.873	1170.44
473.092	1190.44
473.311	1227.44
473.53	1247.44
473.749	1226.44
473.968	1240.44
474.187	1230.44
474.406	1266.44
474.625	1247.44
474.844	1222.44
475.063	1260.44
475.282	1283.44
475.501	1278.44
475.72	1264.44
475.939	1315.44
476.158	1280.44
476.377	1304.44
476.596	1311.44
476.814	1280.44
477.033	1324.44
477.252	1335.44
477.471	1323.44
477.69	1357.44
477.908	1329.44
478.127	1379.44
478.346	1381.44
478.564	1379.44
478.783	1407.44
479.002	1431.44
479.22	1462.44
479.439	1478.44
479.658	1416.44
479.876	1419.44
480.095	1438.44
480.313	1423.44
480.532	1436.44
480.751	1441.44
480.969	1426.44
481.188	1419.44
481.406	1450.44
481.624	1457.44
481.843	1420.44
482.061	1448.44
482.28	1439.44
482.498	1451.44
482.717	1441.44
482.935	1476.44
483.153	1505.44
483.372	1504.44
483.59	1568.44
483.808	1507.44
484.027	1499.44
484.245	1465.44
484.463	1465.44
484.681	1495.44
484.9	1493.44
485.118	1492.44
485.336	1526.44
485.554	1508.44
485.772	1535.44
485.99	1488.44
486.209	1507.44
486.427	1492.44
486.645	1531.44
486.863	1502.44
487.081	1519.44
487.299	1527.44
487.517	1565.44
487.735	1529.44
487.953	1562.44
488.171	1516.44
488.389	1505.44
488.607	1537.44
488.825	1510.44
489.043	1508.44
489.261	1500.44
489.479	1501.44
489.696	1527.44
489.914	1522.44
490.132	1535.44
490.35	1493.44
490.568	1565.44
490.786	1571.44
491.003	1579.44
491.221	1542.44
491.439	1608.44
491.657	1578.44
491.874	1583.44
492.092	1603.44
492.31	1591.44
492.527	1590.44
492.745	1588.44
492.963	1556.44
493.18	1542.44
493.398	1567.44
493.615	1573.44
493.833	1538.44
494.05	1544.44
494.268	1547.44
494.485	1563.44
494.703	1562.44
494.92	1583.44
495.138	1574.44
495.355	1565.44
495.573	1623.44
495.79	1587.44
496.008	1586.44
496.225	1596.44
496.442	1640.44
496.66	1613.44
496.877	1584.44
497.094	1666.44
497.312	1659.44
497.529	1638.44
497.746	1656.44
497.963	1656.44
498.181	1678.44
498.398	1691.44
498.615	1715.44
498.832	1743.44
499.049	1766.44
499.267	1778.44
499.484	1804.44
499.701	1842.44
499.918	1831.44
500.135	1904.44
500.352	1904.44
500.569	1939.44
500.786	1905.44
501.003	1851.44
501.22	1900.44
501.437	1888.44
501.654	1844.44
501.871	1777.44
502.088	1771.44
502.305	1765.44
502.522	1751.44
502.739	1678.44
502.956	1661.44
503.172	1639.44
503.389	1637.44
503.606	1592.44
503.823	1605.44
504.04	1558.44
504.256	1554.44
504.473	1544.44
504.69	1539.44
504.907	1470.44
505.123	1516.44
505.34	1479.44
505.557	1487.44
505.773	1442.44
505.99	1455.44
506.207	1433.44
506.423	1435.44
506.64	1397.44
506.856	1412.44
507.073	1424.44
507.289	1399.44
507.506	1376.44
507.722	1399.44
507.939	1359.44
508.155	1356.44
508.372	1415.44
508.588	1357.44
508.805	1305.44
509.021	1352.44
509.238	1311.44
509.454	1323.44
509.67	1334.44
509.887	1303.44
510.103	1300.44
510.319	1293.44
510.536	1283.44
510.752	1269.44
510.968	1304.44
511.184	1271.44
511.401	1284.44
511.617	1275.44
511.833	1286.44
512.049	1255.44
512.265	1270.44
512.481	1269.44
512.698	1239.44
512.914	1261.44
513.13	1269.44
513.346	1242.44
513.562	1255.44
513.778	1238.44
513.994	1288.44
514.21	1286.44
514.426	1277.44
514.642	1274.44
514.858	1256.44
515.074	1238.44
515.29	1256.44
515.506	1231.44
515.721	1292.44
515.937	1263.44
516.153	1254.44
516.369	1312.44
516.585	1249.44
516.801	1245.44
517.016	1270.44
517.232	1324.44
517.448	1326.44
517.664	1281.44
517.879	1285.44
518.095	1308.44
518.311	1297.44
518.527	1248.44
518.742	1258.44
518.958	1259.44
519.173	1238.44
519.389	1267.44
519.605	1263.44
519.82	1248.44
520.036	1240.44
520.251	1271.44
520.467	1204.44
520.682	1242.44
520.898	1215.44
521.113	1211.44
521.329	1207.44
521.544	1207.44
521.76	1206.44
521.975	1181.44
522.19	1191.44
522.406	1160.44
522.621	1176.44
522.836	1160.44
523.052	1176.44
523.267	1157.44
523.482	1149.44
523.698	1170.44
523.913	1150.44
524.128	1169.44
524.343	1128.44
524.559	1149.44
524.774	1169.44
524.989	1136.44
525.204	1144.44
525.419	1140.44
525.634	1132.44
525.849	1150.44
526.064	1147.44
526.28	1101.44
526.495	1128.44
526.71	1151.44
526.925	1138.44
527.14	1119.44
527.355	1079.44
527.57	1121.44
527.785	1116.44
527.999	1139.44
528.214	1116.44
528.429	1097.44
528.644	1101.44
528.859	1157.44
529.074	1110.44
529.289	1114.44
529.503	1128.44
529.718	1126.44
529.933	1110.44
530.148	1078.44
530.363	1097.44
530.577	1072.44
530.792	1078.44
531.007	1067.44
531.221	1089.44
531.436	1068.44
531.651	1075.44
531.865	1075.44
532.08	1058.44
532.295	1049.44
532.509	1057.44
532.724	1087.44
532.938	1089.44
533.153	1077.44
533.367	1061.44
533.582	1082.44
533.796	1047.44
534.011	1059.44
534.225	1052.44
534.44	1043.44
534.654	1052.44
534.868	1028.44
535.083	1044.44
535.297	1044.44
535.511	1037.44
535.726	1016.44
535.94	1047.44
536.154	1041.44
536.369	1057.44
536.583	1045.44
536.797	1025.44
537.011	1024.44
537.225	1024.44
537.44	994.44
537.654	1007.44
537.868	1016.44
538.082	1006.44
538.296	1021.44
538.51	989.44
538.724	1001.44
538.938	997.44
539.153	1012.44
539.367	1007.44
539.581	985.44
539.795	993.44
540.009	985.44
540.222	968.44
540.436	991.44
540.65	983.44
540.864	975.44
541.078	1000.44
541.292	993.44
541.506	1009.44
541.72	1005.44
541.934	1000.44
542.147	1031.44
542.361	1015.44
542.575	1008.44
542.789	1001.44
543.002	1003.44
543.216	972.44
543.43	975.44
543.644	972.44
543.857	976.44
544.071	968.44
544.285	996.44
544.498	987.44
544.712	975.44
544.925	991.44
545.139	964.44
545.352	988.44
545.566	977.44
545.779	967.44
545.993	982.44
546.206	972.44
546.42	962.44
546.633	1000.44
546.847	999.44
547.06	954.44
547.274	960.44
547.487	982.44
547.7	962.44
547.914	986.44
548.127	975.44
548.34	965.44
548.554	947.44
548.767	961.44
548.98	948.44
549.193	967.44
549.407	930.44
549.62	945.44
549.833	930.44
550.046	961.44
550.259	918.44
550.473	922.44
550.686	919.44
550.899	955.44
551.112	924.44
551.325	916.44
551.538	879.44
551.751	896.44
551.964	897.44
552.177	923.44
552.39	907.44
552.603	921.44
552.816	952.44
553.029	914.44
553.242	918.44
553.455	948.44
553.667	918.44
553.88	908.44
554.093	897.44
554.306	882.44
554.519	917.44
554.732	882.44
554.944	879.44
555.157	901.44
555.37	862.44
555.583	870.44
555.795	882.44
556.008	865.44
556.221	855.44
556.433	853.44
556.646	841.44
556.859	840.44
557.071	803.44
557.284	825.44
557.496	829.44
557.709	850.44
557.921	857.44
558.134	821.44
558.346	813.44
558.559	812.44
558.771	840.44
558.984	827.44
559.196	820.44
559.409	834.44
559.621	831.44
559.833	816.44
560.046	787.44
560.258	828.44
560.47	800.44
560.683	795.44
560.895	790.44
561.107	828.44
561.32	792.44
561.532	786.44
561.744	840.44
561.956	801.44
562.168	799.44
562.381	786.44
562.593	794.44
562.805	814.44
563.017	800.44
563.229	814.44
563.441	780.44
563.653	791.44
563.865	811.44
564.077	800.44
564.289	791.44
564.501	777.44
564.713	793.44
564.925	826.44
565.137	776.44
565.349	795.44
565.561	801.44
565.773	804.44
565.985	833.44
566.197	801.44
566.408	803.44
566.62	826.44
566.832	812.44
567.044	823.44
567.255	796.44
567.467	802.44
567.679	798.44
567.891	841.44
568.102	813.44
568.314	820.44
568.526	802.44
568.737	772.44
568.949	774.44
569.161	765.44
569.372	722.44
569.584	748.44
569.795	748.44
570.007	724.44
570.218	711.44
570.43	724.44
570.641	682.44
570.853	711.44
571.064	705.44
571.276	715.44
571.487	689.44
571.698	669.44
571.91	687.44
572.121	678.44
572.333	675.44
572.544	652.44
572.755	644.44
572.966	647.44
573.178	660.44
573.389	657.44
573.6	621.44
573.811	629.44
574.023	637.44
574.234	615.44
574.445	627.44
574.656	629.44
574.867	614.44
575.078	617.44
575.289	634.44
575.501	616.44
575.712	588.44
575.923	607.44
576.134	639.44
576.345	601.44
576.556	605.44
576.767	583.44
576.978	608.44
577.188	608.44
577.399	593.44
577.61	575.44
577.821	589.44
578.032	579.44
578.243	592.44
578.454	593.44
578.665	586.44
578.875	584.44
579.086	568.44
579.297	584.44
579.508	576.44
579.718	557.44
579.929	546.44
580.14	564.44
580.35	567.44
580.561	551.44
580.772	565.44
580.982	569.44
581.193	554.44
581.403	535.44
581.614	553.44
581.825	547.44
582.035	548.44
582.246	556.44
582.456	534.44
582.667	545.44
582.877	530.44
583.087	547.44
583.298	552.44
583.508	528.44
583.719	531.44
583.929	515.44
584.139	527.44
584.35	531.44
584.56	512.44
584.77	524.44
584.981	517.44
585.191	512.44
585.401	525.44
585.611	532.44
585.821	504.44
586.032	519.44
586.242	508.44
586.452	506.44
586.662	498.44
586.872	511.44
587.082	510.44
587.292	483.44
587.502	487.44
587.713	523.44
587.923	515.44
588.133	512.44
588.343	512.44
588.553	489.44
588.762	495.44
588.972	519.44
589.182	560.44
589.392	543.44
589.602	509.44
589.812	525.44
590.022	524.44
590.232	486.44
590.441	497.44
590.651	493.44
590.861	477.44
591.071	489.44
591.281	478.44
591.49	476.44
591.7	493.44
591.91	524.44
592.119	505.44
592.329	483.44
592.539	507.44
592.748	482.44
592.958	476.44
593.167	486.44
593.377	468.44
593.587	490.44
593.796	485.44
594.006	508.44
594.215	508.44
594.424	495.44
594.634	471.44
594.843	467.44
595.053	481.44
595.262	449.44
595.472	460.44
595.681	452.44
595.89	450.44
596.1	459.44
596.309	461.44
596.518	474.44
596.727	470.44
596.937	439.44
597.146	442.44
597.355	427.44
597.564	437.44
597.774	431.44
597.983	434.44
598.192	427.44
598.401	423.44
598.61	429.44
598.819	428.44
599.028	432.44
599.237	420.44
599.446	425.44
599.655	410.44
599.864	408.44
600.073	414.44
600.282	415.44
600.491	447.44
600.7	426.44
600.909	416.44
601.118	416.44
601.327	403.44
601.536	415.44
601.745	403.44
601.953	392.44
602.162	409.44
602.371	408.44
602.58	404.44
602.789	401.44
602.997	395.44
603.206	407.44
603.415	405.44
603.623	377.44
603.832	404.44
604.041	379.44
604.249	375.44
604.458	396.44
604.666	365.44
604.875	363.44
605.084	380.44
605.292	403.44
605.501	377.44
605.709	403.44
605.918	391.44
606.126	397.44
606.334	387.44
606.543	412.44
606.751	388.44
606.96	390.44
607.168	399.44
607.376	379.44
607.585	377.44
607.793	400.44
608.001	393.44
608.21	379.44
608.418	383.44
608.626	388.44
608.834	397.44
609.043	381.44
609.251	386.44
609.459	357.44
609.667	375.44
609.875	369.44
610.083	382.44
610.291	354.44
610.499	369.44
610.707	363.44
610.916	372.44
611.124	375.44
611.332	356.44
611.54	347.44
611.748	361.44
611.955	375.44
612.163	382.44
612.371	367.44
612.579	356.44
612.787	375.44
612.995	359.44
613.203	367.44
613.411	373.44
613.618	360.44
613.826	351.44
614.034	364.44
614.242	360.44
614.449	355.44
614.657	366.44
614.865	379.44
615.072	369.44
615.28	365.44
615.488	357.44
615.695	330.44
615.903	348.44
616.111	336.44
616.318	359.44
616.526	337.44
616.733	347.44
616.941	318.44
617.148	360.44
617.356	352.44
617.563	345.44
617.771	338.44
617.978	344.44
618.185	339.44
618.393	345.44
618.6	357.44
618.807	343.44
619.015	346.44
619.222	349.44
619.429	338.44
619.637	331.44
619.844	308.44
620.051	340.44
620.258	326.44
620.466	325.44
620.673	315.44
620.88	325.44
621.087	329.44
621.294	331.44
621.501	316.44
621.708	334.44
621.915	330.44
622.122	341.44
622.329	351.44
622.536	329.44
622.743	329.44
622.95	314.44
623.157	314.44
623.364	329.44
623.571	317.44
623.778	331.44
623.985	321.44
624.192	322.44
624.399	334.44
624.606	324.44
624.812	307.44
625.019	296.44
625.226	323.44
625.433	307.44
625.639	289.44
625.846	300.44
626.053	288.44
626.259	290.44
626.466	318.44
626.673	296.44
626.879	297.44
627.086	313.44
627.293	302.44
627.499	299.44
627.706	297.44
627.912	296.44
628.119	300.44
628.325	306.44
628.532	298.44
628.738	290.44
628.945	286.44
629.151	289.44
629.357	291.44
629.564	289.44
629.77	290.44
629.976	289.44
630.183	280.44
630.389	285.44
630.595	293.44
630.802	279.44
631.008	276.44
631.214	291.44
631.42	287.44
631.627	292.44
631.833	277.44
632.039	289.44
632.245	266.44
632.451	253.44
632.657	286.44
632.863	265.44
633.069	289.44
633.275	281.44
633.481	265.44
633.688	278.44
633.893	279.44
634.099	263.44
634.305	270.44
634.511	269.44
634.717	287.44
634.923	267.44
635.129	268.44
635.335	264.44
635.541	263.44
635.747	277.44
635.952	281.44
636.158	262.44
636.364	275.44
636.57	257.44
636.775	260.44
636.981	254.44
637.187	243.44
637.392	253.44
637.598	272.44
637.804	272.44
638.009	267.44
638.215	268.44
638.421	263.44
638.626	256.44
638.832	257.44
639.037	247.44
639.243	248.44
639.448	236.44
639.654	258.44
639.859	254.44
640.065	265.44
640.27	259.44
640.475	259.44
640.681	260.44
640.886	246.44
641.091	249.44
641.297	248.44
641.502	239.44
641.707	239.44
641.913	242.44
642.118	265.44
642.323	256.44
642.528	260.44
642.733	250.44
642.939	249.44
643.144	244.44
643.349	241.44
643.554	256.44
643.759	266.44
643.964	250.44
644.169	251.44
644.374	270.44
644.579	243.44
644.784	240.44
644.989	249.44
645.194	239.44
645.399	243.44
645.604	252.44
645.809	263.44
646.014	233.44
646.219	241.44
646.423	259.44
646.628	262.44
646.833	252.44
647.038	266.44
647.243	240.44
647.447	259.44
647.652	257.44
647.857	268.44
648.062	236.44
648.266	259.44
648.471	255.44
648.676	247.44
648.88	251.44
649.085	264.44
649.289	257.44
649.494	255.44
649.698	269.44
649.903	257.44
650.107	268.44
650.312	258.44
650.516	243.44
650.721	233.44
650.925	261.44
651.13	246.44
651.334	243.44
651.539	234.44
651.743	237.44
651.947	245.44
652.152	248.44
652.356	240.44
652.56	243.44
652.764	257.44
652.969	219.44
653.173	247.44
653.377	227.44
653.581	240.44
653.785	223.44
653.99	231.44
654.194	241.44
654.398	234.44
654.602	231.44
654.806	235.44
655.01	239.44
655.214	237.44
655.418	242.44
655.622	241.44
655.826	236.44
656.03	241.44
656.234	262.44
656.438	267.44
656.642	248.44
656.846	233.44
657.049	226.44
657.253	216.44
657.457	212.44
657.661	204.44
657.865	186.44
658.068	196.44
658.272	189.44
658.476	182.44
658.68	157.44
658.883	159.44
659.087	143.44
659.291	139.44
659.494	145.44
659.698	135.44
659.901	110.44
660.105	114.44
660.309	112.44
660.512	127.44
660.716	134.44
660.919	105.44
661.123	99.44
661.326	92.44
661.53	97.44
661.733	107.44
661.936	92.44
662.14	88.44
662.343	89.44
662.546	94.44
662.75	95.44
662.953	91.44
663.156	80.44
663.36	94.44
663.563	93.44
663.766	94.44
663.969	103.44
664.173	79.44
664.376	90.44
664.579	91.44
664.782	83.44
664.985	94.44
665.188	69.44
665.391	81.44
665.594	87.44
665.797	84.44
666	66.44
666.203	74.44
666.406	72.44
666.609	82.44
666.812	85.44
667.015	90.44
667.218	75.44
667.421	76.44
667.624	77.44
667.827	75.44
668.03	73.44
668.232	77.44
668.435	83.44
668.638	79.44
668.841	77.44
669.043	81.44
669.246	76.44
669.449	73.44
669.651	75.44
669.854	85.44
670.057	70.44
670.259	78.44
670.462	70.44
670.665	90.44
670.867	88.44
671.07	91.44
671.272	82.44
671.475	91.44
671.677	95.44
671.88	75.44
672.082	68.44
672.284	68.44
672.487	71.44
672.689	75.44
672.892	65.44
