Data from Ni(NO3)2@0.125M.TitratingCurve.Agarose3%dH2O.NegLispCup.LampEnergy10.LIBS07252019_HRD10591_18-09-02-570.txt Node
Date: Thu Jul 25 18:09:02 EDT 2019
User: cochatt
Spectrometer: HR+D1059
Trigger mode: 1
Integration Time (sec): 1.000000E-1
Scans to average: 1
Electric dark correction enabled: true
Nonlinearity correction enabled: false
Boxcar width: 0
XAxis mode: Wavelengths
Number of Pixels in Spectrum: 2048
>>>>>Begin Spectral Data<<<<<
223.165	-21.31
223.4	-21.31
223.635	-21.31
223.869	-5.31
224.104	-19.31
224.338	5.69
224.573	-7.31
224.808	-15.31
225.042	-23.31
225.277	-3.31
225.511	-10.31
225.746	-3.31
225.98	8.69
226.215	14.69
226.449	21.69
226.683	16.69
226.918	14.69
227.152	26.69
227.387	32.69
227.621	39.69
227.856	49.69
228.09	35.69
228.324	48.69
228.559	57.69
228.793	74.69
229.027	107.69
229.262	113.69
229.496	118.69
229.73	123.69
229.964	131.69
230.199	142.69
230.433	139.69
230.667	136.69
230.901	157.69
231.136	136.69
231.37	140.69
231.604	150.69
231.838	141.69
232.072	166.69
232.306	178.69
232.541	155.69
232.775	162.69
233.009	158.69
233.243	154.69
233.477	161.69
233.711	162.69
233.945	176.69
234.179	164.69
234.413	142.69
234.647	156.69
234.881	155.69
235.115	164.69
235.349	143.69
235.583	154.69
235.817	156.69
236.051	169.69
236.285	176.69
236.519	172.69
236.753	158.69
236.987	149.69
237.221	167.69
237.455	186.69
237.689	171.69
237.922	192.69
238.156	166.69
238.39	179.69
238.624	180.69
238.858	173.69
239.091	162.69
239.325	180.69
239.559	183.69
239.793	190.69
240.027	184.69
240.26	197.69
240.494	204.69
240.728	192.69
240.961	195.69
241.195	200.69
241.429	207.69
241.662	212.69
241.896	209.69
242.13	192.69
242.363	218.69
242.597	206.69
242.83	214.69
243.064	208.69
243.298	222.69
243.531	240.69
243.765	220.69
243.998	227.69
244.232	214.69
244.465	243.69
244.699	236.69
244.932	231.69
245.166	244.69
245.399	235.69
245.633	233.69
245.866	222.69
246.099	242.69
246.333	241.69
246.566	237.69
246.8	233.69
247.033	240.69
247.266	254.69
247.5	243.69
247.733	237.69
247.966	264.69
248.2	248.69
248.433	253.69
248.666	252.69
248.899	278.69
249.133	264.69
249.366	277.69
249.599	277.69
249.832	277.69
250.066	273.69
250.299	289.69
250.532	284.69
250.765	263.69
250.998	290.69
251.231	308.69
251.465	284.69
251.698	297.69
251.931	305.69
252.164	278.69
252.397	289.69
252.63	281.69
252.863	300.69
253.096	297.69
253.329	308.69
253.562	300.69
253.795	306.69
254.028	312.69
254.261	298.69
254.494	322.69
254.727	308.69
254.96	309.69
255.193	322.69
255.426	310.69
255.659	316.69
255.892	325.69
256.124	313.69
256.357	324.69
256.59	338.69
256.823	320.69
257.056	336.69
257.289	334.69
257.521	329.69
257.754	323.69
257.987	340.69
258.22	327.69
258.452	356.69
258.685	342.69
258.918	322.69
259.151	362.69
259.383	338.69
259.616	360.69
259.849	344.69
260.081	355.69
260.314	355.69
260.547	371.69
260.779	347.69
261.012	371.69
261.244	372.69
261.477	372.69
261.71	375.69
261.942	354.69
262.175	372.69
262.407	378.69
262.64	368.69
262.872	360.69
263.105	374.69
263.337	379.69
263.57	378.69
263.802	377.69
264.035	374.69
264.267	364.69
264.499	364.69
264.732	382.69
264.964	382.69
265.197	386.69
265.429	412.69
265.661	385.69
265.894	396.69
266.126	390.69
266.358	385.69
266.591	391.69
266.823	409.69
267.055	417.69
267.287	415.69
267.52	408.69
267.752	406.69
267.984	392.69
268.216	412.69
268.448	401.69
268.681	408.69
268.913	405.69
269.145	416.69
269.377	416.69
269.609	416.69
269.841	427.69
270.073	420.69
270.306	394.69
270.538	423.69
270.77	417.69
271.002	425.69
271.234	414.69
271.466	437.69
271.698	418.69
271.93	433.69
272.162	433.69
272.394	452.69
272.626	440.69
272.858	416.69
273.09	445.69
273.322	464.69
273.553	438.69
273.785	433.69
274.017	450.69
274.249	445.69
274.481	433.69
274.713	432.69
274.945	442.69
275.176	441.69
275.408	465.69
275.64	445.69
275.872	458.69
276.104	465.69
276.335	468.69
276.567	456.69
276.799	453.69
277.031	461.69
277.262	476.69
277.494	460.69
277.726	491.69
277.957	487.69
278.189	485.69
278.421	496.69
278.652	477.69
278.884	477.69
279.115	466.69
279.347	491.69
279.579	508.69
279.81	473.69
280.042	502.69
280.273	501.69
280.505	485.69
280.736	486.69
280.968	518.69
281.199	492.69
281.431	512.69
281.662	500.69
281.894	501.69
282.125	527.69
282.356	502.69
282.588	506.69
282.819	511.69
283.051	504.69
283.282	493.69
283.513	542.69
283.745	538.69
283.976	515.69
284.207	532.69
284.439	534.69
284.67	529.69
284.901	545.69
285.132	540.69
285.364	534.69
285.595	543.69
285.826	532.69
286.057	546.69
286.288	545.69
286.52	571.69
286.751	556.69
286.982	553.69
287.213	569.69
287.444	564.69
287.675	576.69
287.906	551.69
288.138	564.69
288.369	560.69
288.6	594.69
288.831	548.69
289.062	573.69
289.293	574.69
289.524	583.69
289.755	556.69
289.986	559.69
290.217	579.69
290.448	576.69
290.679	586.69
290.91	583.69
291.141	584.69
291.371	594.69
291.602	570.69
291.833	581.69
292.064	578.69
292.295	587.69
292.526	585.69
292.757	590.69
292.987	561.69
293.218	581.69
293.449	593.69
293.68	582.69
293.91	582.69
294.141	585.69
294.372	592.69
294.603	580.69
294.833	591.69
295.064	630.69
295.295	606.69
295.525	598.69
295.756	591.69
295.987	601.69
296.217	611.69
296.448	624.69
296.679	606.69
296.909	608.69
297.14	620.69
297.37	630.69
297.601	632.69
297.831	634.69
298.062	606.69
298.292	640.69
298.523	639.69
298.753	633.69
298.984	644.69
299.214	645.69
299.445	633.69
299.675	635.69
299.905	614.69
300.136	638.69
300.366	638.69
300.597	641.69
300.827	660.69
301.057	666.69
301.288	656.69
301.518	664.69
301.748	692.69
301.979	700.69
302.209	661.69
302.439	660.69
302.669	648.69
302.9	632.69
303.13	633.69
303.36	660.69
303.59	642.69
303.82	658.69
304.051	657.69
304.281	643.69
304.511	652.69
304.741	649.69
304.971	648.69
305.201	639.69
305.431	637.69
305.661	645.69
305.891	660.69
306.121	654.69
306.352	662.69
306.582	672.69
306.812	644.69
307.042	639.69
307.272	669.69
307.502	650.69
307.731	635.69
307.961	642.69
308.191	629.69
308.421	640.69
308.651	644.69
308.881	643.69
309.111	647.69
309.341	618.69
309.571	646.69
309.8	642.69
310.03	644.69
310.26	637.69
310.49	654.69
310.72	665.69
310.949	646.69
311.179	661.69
311.409	638.69
311.639	664.69
311.868	672.69
312.098	646.69
312.328	673.69
312.557	672.69
312.787	662.69
313.017	700.69
313.246	692.69
313.476	701.69
313.706	694.69
313.935	679.69
314.165	708.69
314.394	708.69
314.624	707.69
314.853	682.69
315.083	696.69
315.312	684.69
315.542	694.69
315.771	708.69
316.001	711.69
316.23	670.69
316.46	657.69
316.689	698.69
316.919	679.69
317.148	690.69
317.377	673.69
317.607	682.69
317.836	693.69
318.065	691.69
318.295	696.69
318.524	668.69
318.753	672.69
318.983	696.69
319.212	652.69
319.441	642.69
319.67	689.69
319.9	707.69
320.129	695.69
320.358	699.69
320.587	678.69
320.816	693.69
321.046	679.69
321.275	685.69
321.504	696.69
321.733	682.69
321.962	689.69
322.191	676.69
322.42	699.69
322.649	712.69
322.878	715.69
323.108	717.69
323.337	733.69
323.566	714.69
323.795	713.69
324.024	732.69
324.253	710.69
324.482	727.69
324.71	714.69
324.939	738.69
325.168	710.69
325.397	727.69
325.626	733.69
325.855	726.69
326.084	768.69
326.313	772.69
326.542	756.69
326.77	797.69
326.999	772.69
327.228	775.69
327.457	749.69
327.686	740.69
327.914	758.69
328.143	767.69
328.372	786.69
328.6	765.69
328.829	764.69
329.058	771.69
329.287	755.69
329.515	774.69
329.744	788.69
329.972	769.69
330.201	764.69
330.43	781.69
330.658	788.69
330.887	772.69
331.115	806.69
331.344	803.69
331.572	804.69
331.801	834.69
332.03	846.69
332.258	869.69
332.486	874.69
332.715	901.69
332.943	946.69
333.172	1002.69
333.4	1021.69
333.629	1061.69
333.857	1062.69
334.085	1045.69
334.314	1001.69
334.542	1010.69
334.771	1004.69
334.999	1004.69
335.227	984.69
335.455	965.69
335.684	956.69
335.912	956.69
336.14	945.69
336.369	948.69
336.597	941.69
336.825	928.69
337.053	936.69
337.281	930.69
337.51	903.69
337.738	884.69
337.966	877.69
338.194	864.69
338.422	877.69
338.65	861.69
338.878	859.69
339.106	847.69
339.334	838.69
339.562	857.69
339.79	827.69
340.018	810.69
340.246	786.69
340.474	789.69
340.702	819.69
340.93	817.69
341.158	820.69
341.386	841.69
341.614	848.69
341.842	818.69
342.07	817.69
342.298	798.69
342.526	835.69
342.754	807.69
342.981	807.69
343.209	819.69
343.437	843.69
343.665	928.69
343.893	988.69
344.12	1027.69
344.348	983.69
344.576	928.69
344.804	900.69
345.031	838.69
345.259	868.69
345.487	830.69
345.714	837.69
345.942	806.69
346.17	822.69
346.397	828.69
346.625	792.69
346.853	821.69
347.08	797.69
347.308	798.69
347.535	852.69
347.763	817.69
347.99	804.69
348.218	822.69
348.445	782.69
348.673	794.69
348.9	792.69
349.128	767.69
349.355	793.69
349.583	804.69
349.81	753.69
350.037	770.69
350.265	748.69
350.492	780.69
350.72	754.69
350.947	755.69
351.174	764.69
351.402	771.69
351.629	766.69
351.856	760.69
352.083	745.69
352.311	743.69
352.538	773.69
352.765	781.69
352.992	736.69
353.22	759.69
353.447	754.69
353.674	765.69
353.901	753.69
354.128	742.69
354.355	752.69
354.583	740.69
354.81	748.69
355.037	746.69
355.264	776.69
355.491	760.69
355.718	756.69
355.945	764.69
356.172	761.69
356.399	761.69
356.626	768.69
356.853	768.69
357.08	762.69
357.307	741.69
357.534	766.69
357.761	781.69
357.988	770.69
358.215	753.69
358.441	755.69
358.668	748.69
358.895	770.69
359.122	732.69
359.349	768.69
359.576	758.69
359.802	790.69
360.029	771.69
360.256	768.69
360.483	766.69
360.709	772.69
360.936	761.69
361.163	758.69
361.39	770.69
361.616	785.69
361.843	760.69
362.07	778.69
362.296	759.69
362.523	756.69
362.749	757.69
362.976	752.69
363.203	763.69
363.429	736.69
363.656	733.69
363.882	753.69
364.109	770.69
364.335	737.69
364.562	706.69
364.788	733.69
365.015	749.69
365.241	786.69
365.468	738.69
365.694	752.69
365.92	726.69
366.147	754.69
366.373	774.69
366.599	779.69
366.826	749.69
367.052	758.69
367.278	744.69
367.505	728.69
367.731	761.69
367.957	753.69
368.184	750.69
368.41	735.69
368.636	771.69
368.862	779.69
369.089	767.69
369.315	787.69
369.541	772.69
369.767	776.69
369.993	779.69
370.219	771.69
370.445	806.69
370.672	791.69
370.898	813.69
371.124	826.69
371.35	808.69
371.576	854.69
371.802	816.69
372.028	820.69
372.254	828.69
372.48	805.69
372.706	822.69
372.932	851.69
373.158	847.69
373.384	850.69
373.61	833.69
373.835	831.69
374.061	819.69
374.287	814.69
374.513	833.69
374.739	866.69
374.965	938.69
375.191	908.69
375.416	909.69
375.642	864.69
375.868	837.69
376.094	859.69
376.319	861.69
376.545	825.69
376.771	819.69
376.997	845.69
377.222	832.69
377.448	812.69
377.674	802.69
377.899	806.69
378.125	801.69
378.35	814.69
378.576	819.69
378.802	797.69
379.027	788.69
379.253	793.69
379.478	823.69
379.704	803.69
379.929	809.69
380.155	807.69
380.38	794.69
380.606	843.69
380.831	801.69
381.057	837.69
381.282	812.69
381.507	837.69
381.733	843.69
381.958	838.69
382.184	818.69
382.409	861.69
382.634	853.69
382.86	865.69
383.085	874.69
383.31	875.69
383.535	899.69
383.761	912.69
383.986	915.69
384.211	933.69
384.436	962.69
384.662	965.69
384.887	987.69
385.112	987.69
385.337	984.69
385.562	1001.69
385.787	1017.69
386.013	1002.69
386.238	970.69
386.463	1001.69
386.688	1010.69
386.913	950.69
387.138	964.69
387.363	958.69
387.588	947.69
387.813	929.69
388.038	959.69
388.263	954.69
388.488	977.69
388.713	971.69
388.938	938.69
389.163	954.69
389.387	953.69
389.612	946.69
389.837	965.69
390.062	948.69
390.287	934.69
390.512	938.69
390.736	954.69
390.961	985.69
391.186	987.69
391.411	998.69
391.636	1068.69
391.86	1100.69
392.085	1095.69
392.31	1109.69
392.534	1069.69
392.759	1063.69
392.984	1037.69
393.208	1035.69
393.433	1046.69
393.658	1035.69
393.882	1027.69
394.107	1053.69
394.331	1052.69
394.556	1053.69
394.78	1045.69
395.005	1075.69
395.229	1017.69
395.454	1070.69
395.678	1117.69
395.903	1109.69
396.127	1090.69
396.352	1046.69
396.576	1038.69
396.801	1008.69
397.025	1039.69
397.249	1068.69
397.474	1082.69
397.698	1117.69
397.922	1120.69
398.147	1107.69
398.371	1126.69
398.595	1144.69
398.82	1179.69
399.044	1291.69
399.268	1404.69
399.492	1626.69
399.717	1874.69
399.941	1899.69
400.165	1625.69
400.389	1447.69
400.613	1377.69
400.837	1312.69
401.062	1251.69
401.286	1262.69
401.51	1212.69
401.734	1224.69
401.958	1196.69
402.182	1245.69
402.406	1277.69
402.63	1275.69
402.854	1319.69
403.078	1309.69
403.302	1368.69
403.526	1392.69
403.75	1407.69
403.974	1426.69
404.198	1387.69
404.422	1452.69
404.645	1428.69
404.869	1421.69
405.093	1393.69
405.317	1364.69
405.541	1340.69
405.765	1371.69
405.988	1351.69
406.212	1353.69
406.436	1345.69
406.66	1368.69
406.883	1394.69
407.107	1491.69
407.331	1554.69
407.555	1637.69
407.778	1623.69
408.002	1559.69
408.226	1517.69
408.449	1476.69
408.673	1438.69
408.896	1402.69
409.12	1426.69
409.344	1417.69
409.567	1418.69
409.791	1426.69
410.014	1414.69
410.238	1389.69
410.461	1397.69
410.685	1356.69
410.908	1355.69
411.132	1339.69
411.355	1298.69
411.578	1318.69
411.802	1296.69
412.025	1302.69
412.249	1311.69
412.472	1307.69
412.695	1233.69
412.919	1250.69
413.142	1219.69
413.365	1216.69
413.589	1260.69
413.812	1258.69
414.035	1240.69
414.258	1205.69
414.482	1245.69
414.705	1259.69
414.928	1281.69
415.151	1255.69
415.374	1257.69
415.597	1235.69
415.821	1185.69
416.044	1217.69
416.267	1200.69
416.49	1212.69
416.713	1189.69
416.936	1206.69
417.159	1217.69
417.382	1205.69
417.605	1192.69
417.828	1222.69
418.051	1232.69
418.274	1204.69
418.497	1223.69
418.72	1308.69
418.943	1260.69
419.166	1358.69
419.389	1409.69
419.611	1360.69
419.834	1372.69
420.057	1306.69
420.28	1238.69
420.503	1226.69
420.726	1241.69
420.948	1207.69
421.171	1254.69
421.394	1252.69
421.617	1209.69
421.839	1280.69
422.062	1238.69
422.285	1239.69
422.507	1270.69
422.73	1276.69
422.953	1302.69
423.175	1299.69
423.398	1321.69
423.621	1295.69
423.843	1301.69
424.066	1301.69
424.288	1320.69
424.511	1330.69
424.733	1298.69
424.956	1266.69
425.178	1259.69
425.401	1220.69
425.623	1248.69
425.846	1216.69
426.068	1186.69
426.291	1194.69
426.513	1168.69
426.735	1159.69
426.958	1158.69
427.18	1152.69
427.402	1156.69
427.625	1127.69
427.847	1104.69
428.069	1125.69
428.292	1142.69
428.514	1099.69
428.736	1114.69
428.958	1103.69
429.181	1061.69
429.403	1046.69
429.625	1044.69
429.847	1048.69
430.069	1083.69
430.292	1092.69
430.514	1058.69
430.736	1077.69
430.958	1067.69
431.18	1076.69
431.402	1122.69
431.624	1089.69
431.846	1110.69
432.068	1113.69
432.29	1131.69
432.512	1109.69
432.734	1122.69
432.956	1076.69
433.178	1108.69
433.4	1113.69
433.622	1125.69
433.844	1132.69
434.066	1118.69
434.287	1129.69
434.509	1184.69
434.731	1231.69
434.953	1228.69
435.175	1279.69
435.397	1299.69
435.618	1176.69
435.84	1166.69
436.062	1154.69
436.284	1120.69
436.505	1098.69
436.727	1114.69
436.949	1111.69
437.17	1126.69
437.392	1082.69
437.614	1077.69
437.835	1067.69
438.057	1065.69
438.278	1063.69
438.5	1056.69
438.721	1046.69
438.943	1079.69
439.165	1070.69
439.386	1083.69
439.608	1111.69
439.829	1093.69
440.05	1111.69
440.272	1130.69
440.493	1135.69
440.715	1138.69
440.936	1171.69
441.158	1167.69
441.379	1193.69
441.6	1275.69
441.822	1248.69
442.043	1302.69
442.264	1241.69
442.486	1208.69
442.707	1224.69
442.928	1243.69
443.149	1198.69
443.371	1248.69
443.592	1276.69
443.813	1247.69
444.034	1286.69
444.255	1342.69
444.476	1343.69
444.698	1440.69
444.919	1509.69
445.14	1581.69
445.361	1410.69
445.582	1338.69
445.803	1237.69
446.024	1188.69
446.245	1142.69
446.466	1153.69
446.687	1109.69
446.908	1105.69
447.129	1128.69
447.35	1096.69
447.571	1094.69
447.792	1060.69
448.013	1042.69
448.234	1022.69
448.455	1036.69
448.675	1057.69
448.896	1026.69
449.117	1026.69
449.338	1022.69
449.559	1011.69
449.779	1008.69
450	1014.69
450.221	1029.69
450.442	1049.69
450.662	1010.69
450.883	1068.69
451.104	1069.69
451.324	1052.69
451.545	1046.69
451.766	1050.69
451.986	1049.69
452.207	1010.69
452.428	1039.69
452.648	1033.69
452.869	1006.69
453.089	990.69
453.31	1002.69
453.53	984.69
453.751	995.69
453.971	965.69
454.192	1000.69
454.412	1004.69
454.633	985.69
454.853	969.69
455.073	977.69
455.294	974.69
455.514	967.69
455.734	972.69
455.955	949.69
456.175	967.69
456.395	962.69
456.616	943.69
456.836	938.69
457.056	964.69
457.276	924.69
457.497	941.69
457.717	968.69
457.937	953.69
458.157	983.69
458.377	983.69
458.598	998.69
458.818	1038.69
459.038	1034.69
459.258	1107.69
459.478	1116.69
459.698	1197.69
459.918	1257.69
460.138	1284.69
460.358	1308.69
460.578	1309.69
460.798	1353.69
461.018	1352.69
461.238	1332.69
461.458	1309.69
461.678	1287.69
461.898	1292.69
462.118	1318.69
462.338	1437.69
462.558	1461.69
462.777	1481.69
462.997	1611.69
463.217	1788.69
463.437	1854.69
463.657	1664.69
463.876	1580.69
464.096	1567.69
464.316	1555.69
464.536	1569.69
464.755	1501.69
464.975	1451.69
465.195	1375.69
465.414	1310.69
465.634	1237.69
465.854	1170.69
466.073	1145.69
466.293	1129.69
466.512	1133.69
466.732	1090.69
466.951	1089.69
467.171	1079.69
467.391	1074.69
467.61	1081.69
467.829	1057.69
468.049	1038.69
468.268	1022.69
468.488	1019.69
468.707	1027.69
468.927	1028.69
469.146	1028.69
469.365	1057.69
469.585	1046.69
469.804	1080.69
470.023	1066.69
470.243	1074.69
470.462	1113.69
470.681	1109.69
470.901	1127.69
471.12	1116.69
471.339	1098.69
471.558	1076.69
471.777	1042.69
471.997	994.69
472.216	1031.69
472.435	1030.69
472.654	1011.69
472.873	1004.69
473.092	1024.69
473.311	1005.69
473.53	1003.69
473.749	953.69
473.968	971.69
474.187	987.69
474.406	1000.69
474.625	1007.69
474.844	1013.69
475.063	1002.69
475.282	994.69
475.501	1017.69
475.72	1033.69
475.939	1042.69
476.158	1048.69
476.377	1025.69
476.596	1058.69
476.814	1059.69
477.033	1023.69
477.252	1032.69
477.471	1108.69
477.69	1108.69
477.908	1159.69
478.127	1186.69
478.346	1184.69
478.564	1210.69
478.783	1229.69
479.002	1295.69
479.22	1333.69
479.439	1285.69
479.658	1281.69
479.876	1259.69
480.095	1295.69
480.313	1336.69
480.532	1348.69
480.751	1378.69
480.969	1306.69
481.188	1273.69
481.406	1216.69
481.624	1207.69
481.843	1143.69
482.061	1177.69
482.28	1146.69
482.498	1171.69
482.717	1138.69
482.935	1150.69
483.153	1145.69
483.372	1189.69
483.59	1192.69
483.808	1156.69
484.027	1182.69
484.245	1182.69
484.463	1173.69
484.681	1188.69
484.9	1202.69
485.118	1216.69
485.336	1226.69
485.554	1215.69
485.772	1222.69
485.99	1212.69
486.209	1212.69
486.427	1229.69
486.645	1252.69
486.863	1263.69
487.081	1248.69
487.299	1234.69
487.517	1193.69
487.735	1204.69
487.953	1236.69
488.171	1228.69
488.389	1204.69
488.607	1208.69
488.825	1205.69
489.043	1191.69
489.261	1195.69
489.479	1214.69
489.696	1208.69
489.914	1236.69
490.132	1190.69
490.35	1255.69
490.568	1205.69
490.786	1255.69
491.003	1237.69
491.221	1237.69
491.439	1253.69
491.657	1241.69
491.874	1226.69
492.092	1238.69
492.31	1251.69
492.527	1244.69
492.745	1277.69
492.963	1276.69
493.18	1271.69
493.398	1294.69
493.615	1265.69
493.833	1290.69
494.05	1298.69
494.268	1314.69
494.485	1306.69
494.703	1308.69
494.92	1302.69
495.138	1291.69
495.355	1288.69
495.573	1306.69
495.79	1321.69
496.008	1322.69
496.225	1292.69
496.442	1330.69
496.66	1352.69
496.877	1377.69
497.094	1399.69
497.312	1399.69
497.529	1432.69
497.746	1445.69
497.963	1499.69
498.181	1536.69
498.398	1643.69
498.615	1728.69
498.832	1817.69
499.049	1958.69
499.267	2128.69
499.484	2342.69
499.701	2560.69
499.918	2824.69
500.135	3287.69
500.352	3805.69
500.569	3976.69
500.786	3966.69
501.003	3712.69
501.22	3219.69
501.437	2877.69
501.654	2528.69
501.871	2260.69
502.088	2092.69
502.305	1969.69
502.522	1864.69
502.739	1779.69
502.956	1696.69
503.172	1629.69
503.389	1598.69
503.606	1509.69
503.823	1481.69
504.04	1463.69
504.256	1451.69
504.473	1509.69
504.69	1588.69
504.907	1539.69
505.123	1427.69
505.34	1340.69
505.557	1278.69
505.773	1259.69
505.99	1220.69
506.207	1203.69
506.423	1172.69
506.64	1176.69
506.856	1154.69
507.073	1166.69
507.289	1160.69
507.506	1144.69
507.722	1170.69
507.939	1126.69
508.155	1139.69
508.372	1084.69
508.588	1087.69
508.805	1094.69
509.021	1073.69
509.238	1068.69
509.454	1072.69
509.67	1064.69
509.887	1057.69
510.103	1064.69
510.319	1076.69
510.536	1056.69
510.752	1027.69
510.968	1055.69
511.184	1027.69
511.401	1044.69
511.617	1035.69
511.833	1052.69
512.049	1028.69
512.265	1028.69
512.481	1049.69
512.698	1003.69
512.914	1040.69
513.13	1076.69
513.346	1044.69
513.562	1021.69
513.778	1050.69
513.994	1024.69
514.21	1054.69
514.426	1050.69
514.642	1078.69
514.858	1064.69
515.074	1064.69
515.29	1077.69
515.506	1086.69
515.721	1114.69
515.937	1102.69
516.153	1143.69
516.369	1160.69
516.585	1187.69
516.801	1242.69
517.016	1261.69
517.232	1350.69
517.448	1420.69
517.664	1468.69
517.879	1494.69
518.095	1486.69
518.311	1464.69
518.527	1342.69
518.742	1296.69
518.958	1248.69
519.173	1207.69
519.389	1156.69
519.605	1150.69
519.82	1112.69
520.036	1105.69
520.251	1067.69
520.467	1057.69
520.682	1054.69
520.898	1052.69
521.113	1046.69
521.329	1011.69
521.544	1005.69
521.76	976.69
521.975	973.69
522.19	981.69
522.406	1011.69
522.621	978.69
522.836	968.69
523.052	969.69
523.267	964.69
523.482	965.69
523.698	950.69
523.913	931.69
524.128	956.69
524.343	952.69
524.559	987.69
524.774	957.69
524.989	943.69
525.204	981.69
525.419	937.69
525.634	944.69
525.849	940.69
526.064	955.69
526.28	946.69
526.495	937.69
526.71	926.69
526.925	949.69
527.14	932.69
527.355	951.69
527.57	931.69
527.785	949.69
527.999	951.69
528.214	940.69
528.429	950.69
528.644	964.69
528.859	938.69
529.074	960.69
529.289	945.69
529.503	948.69
529.718	955.69
529.933	946.69
530.148	950.69
530.363	964.69
530.577	956.69
530.792	951.69
531.007	933.69
531.221	980.69
531.436	962.69
531.651	934.69
531.865	946.69
532.08	933.69
532.295	940.69
532.509	924.69
532.724	915.69
532.938	955.69
533.153	923.69
533.367	938.69
533.582	971.69
533.796	928.69
534.011	928.69
534.225	921.69
534.44	925.69
534.654	939.69
534.868	904.69
535.083	903.69
535.297	918.69
535.511	903.69
535.726	929.69
535.94	879.69
536.154	899.69
536.369	871.69
536.583	861.69
536.797	850.69
537.011	868.69
537.225	868.69
537.44	868.69
537.654	891.69
537.868	858.69
538.082	852.69
538.296	859.69
538.51	851.69
538.724	856.69
538.938	876.69
539.153	858.69
539.367	886.69
539.581	846.69
539.795	843.69
540.009	850.69
540.222	846.69
540.436	858.69
540.65	843.69
540.864	860.69
541.078	841.69
541.292	866.69
541.506	851.69
541.72	832.69
541.934	830.69
542.147	871.69
542.361	848.69
542.575	840.69
542.789	825.69
543.002	818.69
543.216	841.69
543.43	833.69
543.644	819.69
543.857	805.69
544.071	823.69
544.285	848.69
544.498	823.69
544.712	826.69
544.925	875.69
545.139	882.69
545.352	875.69
545.566	875.69
545.779	883.69
545.993	873.69
546.206	874.69
546.42	858.69
546.633	866.69
546.847	856.69
547.06	876.69
547.274	855.69
547.487	851.69
547.7	855.69
547.914	881.69
548.127	850.69
548.34	871.69
548.554	865.69
548.767	867.69
548.98	860.69
549.193	877.69
549.407	869.69
549.62	900.69
549.833	900.69
550.046	888.69
550.259	888.69
550.473	862.69
550.686	840.69
550.899	858.69
551.112	851.69
551.325	862.69
551.538	833.69
551.751	839.69
551.964	836.69
552.177	854.69
552.39	885.69
552.603	878.69
552.816	892.69
553.029	907.69
553.242	946.69
553.455	948.69
553.667	970.69
553.88	941.69
554.093	905.69
554.306	900.69
554.519	860.69
554.732	874.69
554.944	838.69
555.157	821.69
555.37	819.69
555.583	807.69
555.795	794.69
556.008	780.69
556.221	785.69
556.433	760.69
556.646	784.69
556.859	732.69
557.071	761.69
557.284	727.69
557.496	761.69
557.709	729.69
557.921	729.69
558.134	742.69
558.346	724.69
558.559	729.69
558.771	723.69
558.984	728.69
559.196	713.69
559.409	721.69
559.621	713.69
559.833	702.69
560.046	701.69
560.258	697.69
560.47	710.69
560.683	692.69
560.895	677.69
561.107	698.69
561.32	676.69
561.532	683.69
561.744	694.69
561.956	718.69
562.168	715.69
562.381	716.69
562.593	711.69
562.805	729.69
563.017	697.69
563.229	721.69
563.441	727.69
563.653	734.69
563.865	722.69
564.077	721.69
564.289	729.69
564.501	739.69
564.713	745.69
564.925	739.69
565.137	771.69
565.349	764.69
565.561	818.69
565.773	860.69
565.985	874.69
566.197	937.69
566.408	984.69
566.62	1075.69
566.832	1143.69
567.044	1169.69
567.255	1183.69
567.467	1188.69
567.679	1276.69
567.891	1368.69
568.102	1393.69
568.314	1367.69
568.526	1164.69
568.737	1094.69
568.949	985.69
569.161	898.69
569.372	868.69
569.584	824.69
569.795	769.69
570.007	742.69
570.218	725.69
570.43	726.69
570.641	729.69
570.853	738.69
571.064	715.69
571.276	726.69
571.487	706.69
571.698	678.69
571.91	655.69
572.121	646.69
572.333	644.69
572.544	634.69
572.755	621.69
572.966	588.69
573.178	635.69
573.389	591.69
573.6	590.69
573.811	587.69
574.023	594.69
574.234	596.69
574.445	578.69
574.656	594.69
574.867	584.69
575.078	583.69
575.289	584.69
575.501	581.69
575.712	564.69
575.923	553.69
576.134	554.69
576.345	573.69
576.556	547.69
576.767	544.69
576.978	551.69
577.188	537.69
577.399	555.69
577.61	541.69
577.821	552.69
578.032	508.69
578.243	521.69
578.454	522.69
578.665	532.69
578.875	541.69
579.086	514.69
579.297	484.69
579.508	510.69
579.718	500.69
579.929	496.69
580.14	505.69
580.35	502.69
580.561	505.69
580.772	517.69
580.982	503.69
581.193	505.69
581.403	512.69
581.614	501.69
581.825	491.69
582.035	502.69
582.246	482.69
582.456	479.69
582.667	505.69
582.877	495.69
583.087	494.69
583.298	493.69
583.508	489.69
583.719	515.69
583.929	485.69
584.139	476.69
584.35	486.69
584.56	476.69
584.77	478.69
584.981	459.69
585.191	486.69
585.401	484.69
585.611	476.69
585.821	482.69
586.032	458.69
586.242	453.69
586.452	475.69
586.662	474.69
586.872	465.69
587.082	475.69
587.292	469.69
587.502	460.69
587.713	445.69
587.923	470.69
588.133	469.69
588.343	461.69
588.553	455.69
588.762	458.69
588.972	458.69
589.182	458.69
589.392	449.69
589.602	476.69
589.812	458.69
590.022	460.69
590.232	467.69
590.441	473.69
590.651	466.69
590.861	477.69
591.071	470.69
591.281	470.69
591.49	491.69
591.7	499.69
591.91	499.69
592.119	523.69
592.329	529.69
592.539	540.69
592.748	537.69
592.958	548.69
593.167	574.69
593.377	606.69
593.587	610.69
593.796	589.69
594.006	610.69
594.215	625.69
594.424	609.69
594.634	602.69
594.843	577.69
595.053	548.69
595.262	531.69
595.472	517.69
595.681	498.69
595.89	498.69
596.1	467.69
596.309	459.69
596.518	462.69
596.727	464.69
596.937	429.69
597.146	434.69
597.355	435.69
597.564	436.69
597.774	435.69
597.983	427.69
598.192	418.69
598.401	416.69
598.61	407.69
598.819	417.69
599.028	432.69
599.237	398.69
599.446	392.69
599.655	411.69
599.864	402.69
600.073	403.69
600.282	388.69
600.491	407.69
600.7	386.69
600.909	386.69
601.118	393.69
601.327	383.69
601.536	388.69
601.745	380.69
601.953	379.69
602.162	401.69
602.371	380.69
602.58	401.69
602.789	370.69
602.997	375.69
603.206	393.69
603.415	381.69
603.623	388.69
603.832	373.69
604.041	370.69
604.249	383.69
604.458	368.69
604.666	349.69
604.875	372.69
605.084	373.69
605.292	372.69
605.501	359.69
605.709	352.69
605.918	366.69
606.126	363.69
606.334	363.69
606.543	363.69
606.751	354.69
606.96	376.69
607.168	355.69
607.376	360.69
607.585	358.69
607.793	332.69
608.001	360.69
608.21	350.69
608.418	360.69
608.626	353.69
608.834	344.69
609.043	350.69
609.251	346.69
609.459	344.69
609.667	338.69
609.875	341.69
610.083	350.69
610.291	353.69
610.499	375.69
610.707	363.69
610.916	354.69
611.124	362.69
611.332	346.69
611.54	354.69
611.748	340.69
611.955	334.69
612.163	342.69
612.371	338.69
612.579	352.69
612.787	360.69
612.995	344.69
613.203	341.69
613.411	358.69
613.618	329.69
613.826	326.69
614.034	340.69
614.242	331.69
614.449	342.69
614.657	342.69
614.865	333.69
615.072	340.69
615.28	306.69
615.488	342.69
615.695	352.69
615.903	336.69
616.111	317.69
616.318	341.69
616.526	333.69
616.733	342.69
616.941	316.69
617.148	347.69
617.356	352.69
617.563	346.69
617.771	327.69
617.978	332.69
618.185	320.69
618.393	354.69
618.6	341.69
618.807	329.69
619.015	328.69
619.222	338.69
619.429	337.69
619.637	332.69
619.844	352.69
620.051	306.69
620.258	325.69
620.466	325.69
620.673	309.69
620.88	312.69
621.087	307.69
621.294	326.69
621.501	304.69
621.708	323.69
621.915	310.69
622.122	314.69
622.329	322.69
622.536	315.69
622.743	308.69
622.95	301.69
623.157	293.69
623.364	303.69
623.571	297.69
623.778	304.69
623.985	307.69
624.192	308.69
624.399	289.69
624.606	291.69
624.812	319.69
625.019	300.69
625.226	288.69
625.433	290.69
625.639	289.69
625.846	288.69
626.053	294.69
626.259	288.69
626.466	278.69
626.673	284.69
626.879	286.69
627.086	276.69
627.293	280.69
627.499	287.69
627.706	281.69
627.912	280.69
628.119	272.69
628.325	281.69
628.532	277.69
628.738	274.69
628.945	291.69
629.151	261.69
629.357	271.69
629.564	270.69
629.77	270.69
629.976	269.69
630.183	264.69
630.389	266.69
630.595	253.69
630.802	264.69
631.008	260.69
631.214	272.69
631.42	261.69
631.627	274.69
631.833	251.69
632.039	243.69
632.245	250.69
632.451	258.69
632.657	253.69
632.863	266.69
633.069	250.69
633.275	249.69
633.481	256.69
633.688	245.69
633.893	239.69
634.099	236.69
634.305	254.69
634.511	247.69
634.717	262.69
634.923	234.69
635.129	232.69
635.335	230.69
635.541	227.69
635.747	223.69
635.952	241.69
636.158	238.69
636.364	232.69
636.57	237.69
636.775	232.69
636.981	233.69
637.187	241.69
637.392	241.69
637.598	231.69
637.804	232.69
638.009	236.69
638.215	233.69
638.421	223.69
638.626	228.69
638.832	244.69
639.037	223.69
639.243	220.69
639.448	225.69
639.654	232.69
639.859	212.69
640.065	210.69
640.27	225.69
640.475	216.69
640.681	217.69
640.886	230.69
641.091	219.69
641.297	234.69
641.502	224.69
641.707	216.69
641.913	219.69
642.118	205.69
642.323	228.69
642.528	204.69
642.733	197.69
642.939	220.69
643.144	206.69
643.349	215.69
643.554	228.69
643.759	217.69
643.964	201.69
644.169	206.69
644.374	201.69
644.579	219.69
644.784	219.69
644.989	214.69
645.194	224.69
645.399	222.69
645.604	213.69
645.809	216.69
646.014	214.69
646.219	221.69
646.423	214.69
646.628	221.69
646.833	221.69
647.038	231.69
647.243	217.69
647.447	224.69
647.652	225.69
647.857	209.69
648.062	243.69
648.266	227.69
648.471	208.69
648.676	212.69
648.88	224.69
649.085	208.69
649.289	214.69
649.494	216.69
649.698	212.69
649.903	213.69
650.107	197.69
650.312	208.69
650.516	191.69
650.721	210.69
650.925	198.69
651.13	204.69
651.334	178.69
651.539	189.69
651.743	200.69
651.947	187.69
652.152	192.69
652.356	190.69
652.56	186.69
652.764	183.69
652.969	185.69
653.173	181.69
653.377	180.69
653.581	178.69
653.785	173.69
653.99	150.69
654.194	165.69
654.398	152.69
654.602	166.69
654.806	159.69
655.01	184.69
655.214	160.69
655.418	165.69
655.622	164.69
655.826	143.69
656.03	167.69
656.234	157.69
656.438	153.69
656.642	153.69
656.846	154.69
657.049	153.69
657.253	148.69
657.457	139.69
657.661	139.69
657.865	125.69
658.068	137.69
658.272	130.69
658.476	124.69
658.68	125.69
658.883	98.69
659.087	118.69
659.291	97.69
659.494	99.69
659.698	97.69
659.901	106.69
660.105	88.69
660.309	104.69
660.512	105.69
660.716	97.69
660.919	109.69
661.123	108.69
661.326	94.69
661.53	81.69
661.733	107.69
661.936	86.69
662.14	85.69
662.343	71.69
662.546	86.69
662.75	74.69
662.953	81.69
663.156	78.69
663.36	88.69
663.563	86.69
663.766	81.69
663.969	77.69
664.173	88.69
664.376	78.69
664.579	69.69
664.782	90.69
664.985	89.69
665.188	81.69
665.391	86.69
665.594	85.69
665.797	91.69
666	84.69
666.203	79.69
666.406	74.69
666.609	92.69
666.812	72.69
667.015	93.69
667.218	85.69
667.421	89.69
667.624	90.69
667.827	86.69
668.03	81.69
668.232	71.69
668.435	82.69
668.638	73.69
668.841	86.69
669.043	100.69
669.246	85.69
669.449	72.69
669.651	88.69
669.854	81.69
670.057	91.69
670.259	82.69
670.462	88.69
670.665	83.69
670.867	95.69
671.07	80.69
671.272	89.69
671.475	98.69
671.677	89.69
671.88	83.69
672.082	82.69
672.284	87.69
672.487	97.69
672.689	82.69
672.892	93.69
