Data from Ni(NO3)2@0.0625M.TitratingCurve.Agarose3%dH2O.NegLispCup.LampEnergy10.LIBS07252019_HRD10591_18-14-25-569.txt Node
Date: Thu Jul 25 18:14:25 EDT 2019
User: cochatt
Spectrometer: HR+D1059
Trigger mode: 1
Integration Time (sec): 1.000000E-1
Scans to average: 1
Electric dark correction enabled: true
Nonlinearity correction enabled: false
Boxcar width: 0
XAxis mode: Wavelengths
Number of Pixels in Spectrum: 2048
>>>>>Begin Spectral Data<<<<<
223.165	-19.88
223.4	-19.88
223.635	-19.88
223.869	-20.88
224.104	-16.88
224.338	-13.88
224.573	-6.88
224.808	-23.88
225.042	-16.88
225.277	4.12
225.511	7.12
225.746	-7.88
225.98	9.12
226.215	9.12
226.449	7.12
226.683	27.12
226.918	30.12
227.152	33.12
227.387	35.12
227.621	37.12
227.856	47.12
228.09	66.12
228.324	31.12
228.559	39.12
228.793	77.12
229.027	99.12
229.262	112.12
229.496	104.12
229.73	113.12
229.964	130.12
230.199	136.12
230.433	140.12
230.667	143.12
230.901	137.12
231.136	130.12
231.37	129.12
231.604	135.12
231.838	145.12
232.072	157.12
232.306	145.12
232.541	164.12
232.775	135.12
233.009	157.12
233.243	141.12
233.477	150.12
233.711	148.12
233.945	158.12
234.179	163.12
234.413	163.12
234.647	133.12
234.881	156.12
235.115	157.12
235.349	148.12
235.583	143.12
235.817	152.12
236.051	157.12
236.285	151.12
236.519	155.12
236.753	137.12
236.987	159.12
237.221	157.12
237.455	172.12
237.689	160.12
237.922	159.12
238.156	172.12
238.39	160.12
238.624	153.12
238.858	172.12
239.091	169.12
239.325	178.12
239.559	185.12
239.793	168.12
240.027	172.12
240.26	192.12
240.494	180.12
240.728	178.12
240.961	167.12
241.195	189.12
241.429	195.12
241.662	190.12
241.896	202.12
242.13	206.12
242.363	205.12
242.597	212.12
242.83	217.12
243.064	187.12
243.298	192.12
243.531	196.12
243.765	220.12
243.998	206.12
244.232	209.12
244.465	207.12
244.699	229.12
244.932	218.12
245.166	208.12
245.399	199.12
245.633	204.12
245.866	223.12
246.099	214.12
246.333	218.12
246.566	216.12
246.8	230.12
247.033	233.12
247.266	229.12
247.5	224.12
247.733	223.12
247.966	224.12
248.2	244.12
248.433	226.12
248.666	239.12
248.899	217.12
249.133	247.12
249.366	239.12
249.599	238.12
249.832	224.12
250.066	249.12
250.299	236.12
250.532	246.12
250.765	234.12
250.998	250.12
251.231	262.12
251.465	255.12
251.698	240.12
251.931	277.12
252.164	262.12
252.397	253.12
252.63	266.12
252.863	256.12
253.096	280.12
253.329	266.12
253.562	274.12
253.795	275.12
254.028	272.12
254.261	284.12
254.494	271.12
254.727	273.12
254.96	265.12
255.193	281.12
255.426	265.12
255.659	268.12
255.892	286.12
256.124	294.12
256.357	296.12
256.59	286.12
256.823	290.12
257.056	307.12
257.289	294.12
257.521	289.12
257.754	314.12
257.987	301.12
258.22	310.12
258.452	308.12
258.685	314.12
258.918	301.12
259.151	276.12
259.383	310.12
259.616	302.12
259.849	315.12
260.081	309.12
260.314	324.12
260.547	304.12
260.779	318.12
261.012	295.12
261.244	304.12
261.477	333.12
261.71	319.12
261.942	334.12
262.175	333.12
262.407	315.12
262.64	329.12
262.872	327.12
263.105	345.12
263.337	348.12
263.57	324.12
263.802	324.12
264.035	326.12
264.267	357.12
264.499	333.12
264.732	337.12
264.964	340.12
265.197	335.12
265.429	345.12
265.661	329.12
265.894	344.12
266.126	370.12
266.358	348.12
266.591	351.12
266.823	360.12
267.055	378.12
267.287	371.12
267.52	343.12
267.752	369.12
267.984	370.12
268.216	357.12
268.448	352.12
268.681	349.12
268.913	360.12
269.145	359.12
269.377	373.12
269.609	374.12
269.841	363.12
270.073	382.12
270.306	376.12
270.538	361.12
270.77	364.12
271.002	389.12
271.234	379.12
271.466	383.12
271.698	361.12
271.93	382.12
272.162	383.12
272.394	382.12
272.626	374.12
272.858	383.12
273.09	383.12
273.322	389.12
273.553	374.12
273.785	391.12
274.017	407.12
274.249	393.12
274.481	385.12
274.713	406.12
274.945	406.12
275.176	395.12
275.408	426.12
275.64	400.12
275.872	406.12
276.104	407.12
276.335	406.12
276.567	412.12
276.799	421.12
277.031	401.12
277.262	421.12
277.494	410.12
277.726	415.12
277.957	410.12
278.189	425.12
278.421	442.12
278.652	402.12
278.884	416.12
279.115	453.12
279.347	425.12
279.579	418.12
279.81	435.12
280.042	431.12
280.273	441.12
280.505	446.12
280.736	434.12
280.968	428.12
281.199	446.12
281.431	428.12
281.662	434.12
281.894	445.12
282.125	442.12
282.356	441.12
282.588	488.12
282.819	473.12
283.051	454.12
283.282	476.12
283.513	467.12
283.745	479.12
283.976	467.12
284.207	473.12
284.439	484.12
284.67	475.12
284.901	466.12
285.132	471.12
285.364	468.12
285.595	483.12
285.826	486.12
286.057	480.12
286.288	486.12
286.52	480.12
286.751	482.12
286.982	488.12
287.213	482.12
287.444	502.12
287.675	495.12
287.906	508.12
288.138	478.12
288.369	487.12
288.6	497.12
288.831	511.12
289.062	526.12
289.293	502.12
289.524	504.12
289.755	496.12
289.986	514.12
290.217	495.12
290.448	504.12
290.679	517.12
290.91	509.12
291.141	486.12
291.371	484.12
291.602	533.12
291.833	524.12
292.064	514.12
292.295	511.12
292.526	519.12
292.757	533.12
292.987	513.12
293.218	513.12
293.449	510.12
293.68	517.12
293.91	509.12
294.141	515.12
294.372	513.12
294.603	532.12
294.833	516.12
295.064	517.12
295.295	535.12
295.525	528.12
295.756	533.12
295.987	529.12
296.217	553.12
296.448	538.12
296.679	541.12
296.909	535.12
297.14	547.12
297.37	579.12
297.601	551.12
297.831	557.12
298.062	550.12
298.292	549.12
298.523	557.12
298.753	562.12
298.984	584.12
299.214	584.12
299.445	537.12
299.675	534.12
299.905	554.12
300.136	567.12
300.366	581.12
300.597	582.12
300.827	573.12
301.057	569.12
301.288	589.12
301.518	589.12
301.748	580.12
301.979	583.12
302.209	583.12
302.439	603.12
302.669	591.12
302.9	587.12
303.13	559.12
303.36	602.12
303.59	586.12
303.82	582.12
304.051	575.12
304.281	566.12
304.511	591.12
304.741	577.12
304.971	564.12
305.201	574.12
305.431	597.12
305.661	586.12
305.891	576.12
306.121	586.12
306.352	573.12
306.582	556.12
306.812	559.12
307.042	553.12
307.272	551.12
307.502	542.12
307.731	564.12
307.961	568.12
308.191	588.12
308.421	567.12
308.651	567.12
308.881	560.12
309.111	572.12
309.341	574.12
309.571	569.12
309.8	583.12
310.03	591.12
310.26	569.12
310.49	558.12
310.72	586.12
310.949	559.12
311.179	582.12
311.409	564.12
311.639	586.12
311.868	572.12
312.098	598.12
312.328	583.12
312.557	606.12
312.787	598.12
313.017	610.12
313.246	598.12
313.476	594.12
313.706	604.12
313.935	605.12
314.165	600.12
314.394	597.12
314.624	609.12
314.853	608.12
315.083	597.12
315.312	583.12
315.542	600.12
315.771	591.12
316.001	616.12
316.23	614.12
316.46	615.12
316.689	597.12
316.919	591.12
317.148	591.12
317.377	620.12
317.607	600.12
317.836	588.12
318.065	572.12
318.295	606.12
318.524	585.12
318.753	573.12
318.983	605.12
319.212	607.12
319.441	593.12
319.67	596.12
319.9	594.12
320.129	598.12
320.358	594.12
320.587	599.12
320.816	601.12
321.046	615.12
321.275	603.12
321.504	603.12
321.733	603.12
321.962	609.12
322.191	597.12
322.42	604.12
322.649	620.12
322.878	637.12
323.108	613.12
323.337	637.12
323.566	611.12
323.795	626.12
324.024	630.12
324.253	630.12
324.482	623.12
324.71	624.12
324.939	635.12
325.168	617.12
325.397	617.12
325.626	626.12
325.855	642.12
326.084	672.12
326.313	668.12
326.542	662.12
326.77	680.12
326.999	661.12
327.228	621.12
327.457	648.12
327.686	629.12
327.914	659.12
328.143	663.12
328.372	650.12
328.6	641.12
328.829	648.12
329.058	684.12
329.287	658.12
329.515	668.12
329.744	689.12
329.972	684.12
330.201	676.12
330.43	673.12
330.658	687.12
330.887	694.12
331.115	669.12
331.344	687.12
331.572	702.12
331.801	708.12
332.03	735.12
332.258	717.12
332.486	766.12
332.715	786.12
332.943	824.12
333.172	859.12
333.4	854.12
333.629	912.12
333.857	908.12
334.085	869.12
334.314	862.12
334.542	849.12
334.771	859.12
334.999	864.12
335.227	826.12
335.455	806.12
335.684	806.12
335.912	813.12
336.14	797.12
336.369	786.12
336.597	812.12
336.825	805.12
337.053	805.12
337.281	794.12
337.51	742.12
337.738	748.12
337.966	724.12
338.194	734.12
338.422	732.12
338.65	721.12
338.878	729.12
339.106	728.12
339.334	730.12
339.562	712.12
339.79	695.12
340.018	700.12
340.246	685.12
340.474	690.12
340.702	702.12
340.93	704.12
341.158	698.12
341.386	704.12
341.614	700.12
341.842	670.12
342.07	692.12
342.298	701.12
342.526	710.12
342.754	676.12
342.981	676.12
343.209	702.12
343.437	725.12
343.665	792.12
343.893	830.12
344.12	860.12
344.348	822.12
344.576	780.12
344.804	746.12
345.031	719.12
345.259	698.12
345.487	700.12
345.714	705.12
345.942	683.12
346.17	706.12
346.397	660.12
346.625	673.12
346.853	675.12
347.08	674.12
347.308	680.12
347.535	695.12
347.763	686.12
347.99	686.12
348.218	687.12
348.445	696.12
348.673	657.12
348.9	656.12
349.128	683.12
349.355	636.12
349.583	641.12
349.81	643.12
350.037	650.12
350.265	657.12
350.492	646.12
350.72	639.12
350.947	635.12
351.174	644.12
351.402	652.12
351.629	646.12
351.856	643.12
352.083	635.12
352.311	668.12
352.538	641.12
352.765	641.12
352.992	654.12
353.22	651.12
353.447	650.12
353.674	643.12
353.901	638.12
354.128	637.12
354.355	637.12
354.583	662.12
354.81	667.12
355.037	641.12
355.264	649.12
355.491	642.12
355.718	650.12
355.945	665.12
356.172	669.12
356.399	655.12
356.626	648.12
356.853	678.12
357.08	659.12
357.307	623.12
357.534	644.12
357.761	654.12
357.988	668.12
358.215	653.12
358.441	657.12
358.668	657.12
358.895	640.12
359.122	666.12
359.349	637.12
359.576	660.12
359.802	648.12
360.029	659.12
360.256	652.12
360.483	647.12
360.709	639.12
360.936	689.12
361.163	639.12
361.39	642.12
361.616	636.12
361.843	665.12
362.07	650.12
362.296	664.12
362.523	630.12
362.749	683.12
362.976	649.12
363.203	629.12
363.429	644.12
363.656	630.12
363.882	646.12
364.109	658.12
364.335	663.12
364.562	662.12
364.788	636.12
365.015	641.12
365.241	639.12
365.468	636.12
365.694	623.12
365.92	638.12
366.147	656.12
366.373	638.12
366.599	642.12
366.826	664.12
367.052	665.12
367.278	664.12
367.505	649.12
367.731	638.12
367.957	654.12
368.184	666.12
368.41	663.12
368.636	633.12
368.862	670.12
369.089	658.12
369.315	670.12
369.541	645.12
369.767	685.12
369.993	687.12
370.219	666.12
370.445	687.12
370.672	701.12
370.898	722.12
371.124	708.12
371.35	688.12
371.576	709.12
371.802	732.12
372.028	692.12
372.254	687.12
372.48	715.12
372.706	727.12
372.932	730.12
373.158	712.12
373.384	715.12
373.61	694.12
373.835	716.12
374.061	686.12
374.287	702.12
374.513	716.12
374.739	758.12
374.965	756.12
375.191	754.12
375.416	803.12
375.642	780.12
375.868	748.12
376.094	751.12
376.319	738.12
376.545	746.12
376.771	712.12
376.997	715.12
377.222	718.12
377.448	721.12
377.674	722.12
377.899	706.12
378.125	680.12
378.35	702.12
378.576	683.12
378.802	714.12
379.027	688.12
379.253	685.12
379.478	664.12
379.704	675.12
379.929	700.12
380.155	701.12
380.38	701.12
380.606	686.12
380.831	700.12
381.057	719.12
381.282	711.12
381.507	705.12
381.733	727.12
381.958	711.12
382.184	687.12
382.409	750.12
382.634	715.12
382.86	761.12
383.085	749.12
383.31	752.12
383.535	776.12
383.761	788.12
383.986	797.12
384.211	825.12
384.436	846.12
384.662	841.12
384.887	849.12
385.112	854.12
385.337	860.12
385.562	860.12
385.787	870.12
386.013	867.12
386.238	834.12
386.463	838.12
386.688	851.12
386.913	826.12
387.138	826.12
387.363	848.12
387.588	809.12
387.813	820.12
388.038	841.12
388.263	814.12
388.488	851.12
388.713	834.12
388.938	824.12
389.163	825.12
389.387	805.12
389.612	817.12
389.837	810.12
390.062	812.12
390.287	813.12
390.512	827.12
390.736	833.12
390.961	853.12
391.186	868.12
391.411	895.12
391.636	902.12
391.86	932.12
392.085	975.12
392.31	953.12
392.534	929.12
392.759	913.12
392.984	878.12
393.208	884.12
393.433	851.12
393.658	901.12
393.882	862.12
394.107	890.12
394.331	922.12
394.556	904.12
394.78	910.12
395.005	933.12
395.229	909.12
395.454	928.12
395.678	938.12
395.903	964.12
396.127	899.12
396.352	897.12
396.576	866.12
396.801	898.12
397.025	896.12
397.249	944.12
397.474	924.12
397.698	906.12
397.922	926.12
398.147	951.12
398.371	986.12
398.595	976.12
398.82	1010.12
399.044	1053.12
399.268	1226.12
399.492	1377.12
399.717	1635.12
399.941	1631.12
400.165	1424.12
400.389	1253.12
400.613	1128.12
400.837	1087.12
401.062	1068.12
401.286	1046.12
401.51	1054.12
401.734	1021.12
401.958	1063.12
402.182	1052.12
402.406	1080.12
402.63	1113.12
402.854	1129.12
403.078	1113.12
403.302	1208.12
403.526	1177.12
403.75	1228.12
403.974	1251.12
404.198	1210.12
404.422	1247.12
404.645	1227.12
404.869	1177.12
405.093	1190.12
405.317	1160.12
405.541	1190.12
405.765	1170.12
405.988	1172.12
406.212	1143.12
406.436	1133.12
406.66	1201.12
406.883	1202.12
407.107	1238.12
407.331	1342.12
407.555	1382.12
407.778	1359.12
408.002	1332.12
408.226	1297.12
408.449	1279.12
408.673	1206.12
408.896	1217.12
409.12	1164.12
409.344	1213.12
409.567	1240.12
409.791	1177.12
410.014	1205.12
410.238	1175.12
410.461	1209.12
410.685	1189.12
410.908	1168.12
411.132	1134.12
411.355	1102.12
411.578	1117.12
411.802	1138.12
412.025	1104.12
412.249	1116.12
412.472	1097.12
412.695	1050.12
412.919	1053.12
413.142	1032.12
413.365	1092.12
413.589	1054.12
413.812	1005.12
414.035	1019.12
414.258	1020.12
414.482	1069.12
414.705	1064.12
414.928	1071.12
415.151	1080.12
415.374	1065.12
415.597	1069.12
415.821	1055.12
416.044	1037.12
416.267	1017.12
416.49	1019.12
416.713	1005.12
416.936	1035.12
417.159	1029.12
417.382	1025.12
417.605	1045.12
417.828	1018.12
418.051	1042.12
418.274	1071.12
418.497	1047.12
418.72	1074.12
418.943	1088.12
419.166	1134.12
419.389	1194.12
419.611	1147.12
419.834	1106.12
420.057	1076.12
420.28	1063.12
420.503	1016.12
420.726	1012.12
420.948	1031.12
421.171	1024.12
421.394	1031.12
421.617	983.12
421.839	1032.12
422.062	1032.12
422.285	1055.12
422.507	1072.12
422.73	1052.12
422.953	1056.12
423.175	1083.12
423.398	1108.12
423.621	1109.12
423.843	1113.12
424.066	1116.12
424.288	1081.12
424.511	1067.12
424.733	1087.12
424.956	1092.12
425.178	1063.12
425.401	1036.12
425.623	1034.12
425.846	992.12
426.068	995.12
426.291	1024.12
426.513	967.12
426.735	967.12
426.958	957.12
427.18	934.12
427.402	934.12
427.625	931.12
427.847	944.12
428.069	910.12
428.292	960.12
428.514	942.12
428.736	941.12
428.958	929.12
429.181	929.12
429.403	872.12
429.625	909.12
429.847	887.12
430.069	890.12
430.292	906.12
430.514	871.12
430.736	916.12
430.958	896.12
431.18	908.12
431.402	893.12
431.624	901.12
431.846	934.12
432.068	953.12
432.29	957.12
432.512	921.12
432.734	917.12
432.956	920.12
433.178	930.12
433.4	955.12
433.622	941.12
433.844	923.12
434.066	955.12
434.287	964.12
434.509	994.12
434.731	1006.12
434.953	1082.12
435.175	1064.12
435.397	1037.12
435.618	999.12
435.84	987.12
436.062	955.12
436.284	930.12
436.505	932.12
436.727	932.12
436.949	944.12
437.17	935.12
437.392	926.12
437.614	918.12
437.835	885.12
438.057	901.12
438.278	895.12
438.5	905.12
438.721	888.12
438.943	919.12
439.165	908.12
439.386	885.12
439.608	928.12
439.829	920.12
440.05	914.12
440.272	940.12
440.493	930.12
440.715	936.12
440.936	955.12
441.158	978.12
441.379	1006.12
441.6	1097.12
441.822	1070.12
442.043	1047.12
442.264	1032.12
442.486	998.12
442.707	1034.12
442.928	1038.12
443.149	1046.12
443.371	1018.12
443.592	1045.12
443.813	1008.12
444.034	1054.12
444.255	1104.12
444.476	1131.12
444.698	1213.12
444.919	1233.12
445.14	1339.12
445.361	1209.12
445.582	1094.12
445.803	1000.12
446.024	997.12
446.245	995.12
446.466	981.12
446.687	936.12
446.908	954.12
447.129	918.12
447.35	894.12
447.571	878.12
447.792	871.12
448.013	892.12
448.234	856.12
448.455	880.12
448.675	833.12
448.896	870.12
449.117	836.12
449.338	862.12
449.559	870.12
449.779	859.12
450	841.12
450.221	849.12
450.442	866.12
450.662	895.12
450.883	866.12
451.104	883.12
451.324	894.12
451.545	881.12
451.766	876.12
451.986	856.12
452.207	841.12
452.428	876.12
452.648	834.12
452.869	847.12
453.089	842.12
453.31	856.12
453.53	845.12
453.751	829.12
453.971	839.12
454.192	840.12
454.412	820.12
454.633	829.12
454.853	824.12
455.073	798.12
455.294	811.12
455.514	808.12
455.734	806.12
455.955	806.12
456.175	779.12
456.395	804.12
456.616	776.12
456.836	802.12
457.056	793.12
457.276	819.12
457.497	808.12
457.717	797.12
457.937	782.12
458.157	824.12
458.377	857.12
458.598	864.12
458.818	861.12
459.038	894.12
459.258	893.12
459.478	909.12
459.698	982.12
459.918	1000.12
460.138	1027.12
460.358	1077.12
460.578	1101.12
460.798	1091.12
461.018	1134.12
461.238	1125.12
461.458	1050.12
461.678	1078.12
461.898	1077.12
462.118	1120.12
462.338	1152.12
462.558	1192.12
462.777	1257.12
462.997	1348.12
463.217	1528.12
463.437	1546.12
463.657	1360.12
463.876	1298.12
464.096	1293.12
464.316	1269.12
464.536	1322.12
464.755	1246.12
464.975	1212.12
465.195	1128.12
465.414	1080.12
465.634	1016.12
465.854	1004.12
466.073	949.12
466.293	940.12
466.512	956.12
466.732	926.12
466.951	909.12
467.171	896.12
467.391	906.12
467.61	906.12
467.829	919.12
468.049	892.12
468.268	881.12
468.488	860.12
468.707	859.12
468.927	862.12
469.146	863.12
469.365	883.12
469.585	868.12
469.804	865.12
470.023	917.12
470.243	918.12
470.462	936.12
470.681	958.12
470.901	940.12
471.12	917.12
471.339	921.12
471.558	903.12
471.777	867.12
471.997	872.12
472.216	876.12
472.435	874.12
472.654	858.12
472.873	834.12
473.092	828.12
473.311	843.12
473.53	850.12
473.749	865.12
473.968	849.12
474.187	829.12
474.406	840.12
474.625	853.12
474.844	852.12
475.063	840.12
475.282	825.12
475.501	858.12
475.72	846.12
475.939	866.12
476.158	885.12
476.377	867.12
476.596	850.12
476.814	892.12
477.033	867.12
477.252	896.12
477.471	926.12
477.69	957.12
477.908	946.12
478.127	992.12
478.346	1009.12
478.564	1008.12
478.783	1015.12
479.002	1035.12
479.22	1077.12
479.439	1068.12
479.658	1038.12
479.876	1046.12
480.095	1063.12
480.313	1108.12
480.532	1163.12
480.751	1156.12
480.969	1104.12
481.188	1048.12
481.406	1031.12
481.624	975.12
481.843	953.12
482.061	952.12
482.28	957.12
482.498	946.12
482.717	936.12
482.935	949.12
483.153	980.12
483.372	973.12
483.59	958.12
483.808	953.12
484.027	1000.12
484.245	975.12
484.463	964.12
484.681	974.12
484.9	1010.12
485.118	1018.12
485.336	983.12
485.554	992.12
485.772	1005.12
485.99	1058.12
486.209	1049.12
486.427	1037.12
486.645	1043.12
486.863	1049.12
487.081	1006.12
487.299	1021.12
487.517	1005.12
487.735	1021.12
487.953	1008.12
488.171	991.12
488.389	1000.12
488.607	985.12
488.825	980.12
489.043	967.12
489.261	1028.12
489.479	991.12
489.696	996.12
489.914	997.12
490.132	1024.12
490.35	999.12
490.568	1015.12
490.786	1009.12
491.003	1033.12
491.221	1031.12
491.439	1033.12
491.657	1016.12
491.874	1021.12
492.092	1006.12
492.31	1018.12
492.527	1025.12
492.745	1039.12
492.963	1035.12
493.18	1035.12
493.398	1069.12
493.615	1040.12
493.833	1044.12
494.05	1051.12
494.268	1057.12
494.485	1085.12
494.703	1057.12
494.92	1082.12
495.138	1070.12
495.355	1047.12
495.573	1093.12
495.79	1085.12
496.008	1075.12
496.225	1071.12
496.442	1081.12
496.66	1109.12
496.877	1098.12
497.094	1128.12
497.312	1133.12
497.529	1189.12
497.746	1169.12
497.963	1205.12
498.181	1260.12
498.398	1322.12
498.615	1396.12
498.832	1486.12
499.049	1614.12
499.267	1773.12
499.484	1893.12
499.701	2121.12
499.918	2334.12
500.135	2700.12
500.352	3134.12
500.569	3374.12
500.786	3333.12
501.003	3048.12
501.22	2654.12
501.437	2348.12
501.654	2054.12
501.871	1884.12
502.088	1728.12
502.305	1605.12
502.522	1560.12
502.739	1460.12
502.956	1415.12
503.172	1303.12
503.389	1240.12
503.606	1233.12
503.823	1213.12
504.04	1213.12
504.256	1208.12
504.473	1252.12
504.69	1269.12
504.907	1255.12
505.123	1200.12
505.34	1095.12
505.557	1058.12
505.773	1036.12
505.99	1012.12
506.207	987.12
506.423	968.12
506.64	946.12
506.856	918.12
507.073	940.12
507.289	956.12
507.506	913.12
507.722	935.12
507.939	916.12
508.155	930.12
508.372	911.12
508.588	876.12
508.805	902.12
509.021	890.12
509.238	912.12
509.454	865.12
509.67	849.12
509.887	886.12
510.103	904.12
510.319	865.12
510.536	872.12
510.752	868.12
510.968	868.12
511.184	834.12
511.401	870.12
511.617	853.12
511.833	870.12
512.049	848.12
512.265	869.12
512.481	857.12
512.698	859.12
512.914	847.12
513.13	877.12
513.346	856.12
513.562	849.12
513.778	854.12
513.994	884.12
514.21	884.12
514.426	882.12
514.642	888.12
514.858	874.12
515.074	886.12
515.29	898.12
515.506	897.12
515.721	894.12
515.937	921.12
516.153	945.12
516.369	991.12
516.585	991.12
516.801	1008.12
517.016	1094.12
517.232	1097.12
517.448	1185.12
517.664	1196.12
517.879	1188.12
518.095	1224.12
518.311	1197.12
518.527	1168.12
518.742	1078.12
518.958	1046.12
519.173	1014.12
519.389	992.12
519.605	953.12
519.82	917.12
520.036	884.12
520.251	906.12
520.467	880.12
520.682	910.12
520.898	881.12
521.113	861.12
521.329	847.12
521.544	835.12
521.76	847.12
521.975	846.12
522.19	840.12
522.406	829.12
522.621	814.12
522.836	828.12
523.052	806.12
523.267	803.12
523.482	816.12
523.698	795.12
523.913	807.12
524.128	823.12
524.343	786.12
524.559	787.12
524.774	782.12
524.989	785.12
525.204	786.12
525.419	804.12
525.634	792.12
525.849	802.12
526.064	806.12
526.28	807.12
526.495	767.12
526.71	764.12
526.925	785.12
527.14	759.12
527.355	781.12
527.57	802.12
527.785	785.12
527.999	793.12
528.214	782.12
528.429	804.12
528.644	790.12
528.859	778.12
529.074	786.12
529.289	778.12
529.503	792.12
529.718	782.12
529.933	759.12
530.148	763.12
530.363	774.12
530.577	766.12
530.792	789.12
531.007	767.12
531.221	816.12
531.436	794.12
531.651	772.12
531.865	785.12
532.08	788.12
532.295	778.12
532.509	786.12
532.724	776.12
532.938	777.12
533.153	776.12
533.367	796.12
533.582	780.12
533.796	787.12
534.011	781.12
534.225	767.12
534.44	744.12
534.654	749.12
534.868	775.12
535.083	742.12
535.297	771.12
535.511	742.12
535.726	762.12
535.94	748.12
536.154	753.12
536.369	744.12
536.583	729.12
536.797	747.12
537.011	757.12
537.225	718.12
537.44	719.12
537.654	740.12
537.868	717.12
538.082	685.12
538.296	679.12
538.51	712.12
538.724	710.12
538.938	730.12
539.153	720.12
539.367	722.12
539.581	717.12
539.795	681.12
540.009	686.12
540.222	701.12
540.436	711.12
540.65	687.12
540.864	706.12
541.078	710.12
541.292	722.12
541.506	720.12
541.72	689.12
541.934	686.12
542.147	717.12
542.361	712.12
542.575	714.12
542.789	690.12
543.002	689.12
543.216	679.12
543.43	674.12
543.644	678.12
543.857	681.12
544.071	708.12
544.285	698.12
544.498	696.12
544.712	718.12
544.925	703.12
545.139	690.12
545.352	729.12
545.566	717.12
545.779	705.12
545.993	716.12
546.206	717.12
546.42	678.12
546.633	692.12
546.847	727.12
547.06	694.12
547.274	713.12
547.487	686.12
547.7	693.12
547.914	718.12
548.127	750.12
548.34	707.12
548.554	709.12
548.767	728.12
548.98	738.12
549.193	723.12
549.407	729.12
549.62	746.12
549.833	746.12
550.046	714.12
550.259	720.12
550.473	709.12
550.686	700.12
550.899	698.12
551.112	694.12
551.325	688.12
551.538	683.12
551.751	715.12
551.964	724.12
552.177	732.12
552.39	698.12
552.603	740.12
552.816	751.12
553.029	769.12
553.242	807.12
553.455	808.12
553.667	784.12
553.88	776.12
554.093	783.12
554.306	737.12
554.519	709.12
554.732	698.12
554.944	695.12
555.157	682.12
555.37	658.12
555.583	668.12
555.795	660.12
556.008	645.12
556.221	636.12
556.433	632.12
556.646	641.12
556.859	628.12
557.071	629.12
557.284	623.12
557.496	618.12
557.709	611.12
557.921	626.12
558.134	592.12
558.346	623.12
558.559	626.12
558.771	616.12
558.984	600.12
559.196	578.12
559.409	608.12
559.621	594.12
559.833	622.12
560.046	596.12
560.258	601.12
560.47	581.12
560.683	588.12
560.895	590.12
561.107	582.12
561.32	602.12
561.532	580.12
561.744	598.12
561.956	569.12
562.168	599.12
562.381	582.12
562.593	604.12
562.805	592.12
563.017	584.12
563.229	600.12
563.441	584.12
563.653	609.12
563.865	598.12
564.077	612.12
564.289	618.12
564.501	624.12
564.713	654.12
564.925	662.12
565.137	669.12
565.349	649.12
565.561	658.12
565.773	689.12
565.985	718.12
566.197	775.12
566.408	806.12
566.62	885.12
566.832	970.12
567.044	972.12
567.255	978.12
567.467	987.12
567.679	1059.12
567.891	1150.12
568.102	1215.12
568.314	1134.12
568.526	1039.12
568.737	898.12
568.949	828.12
569.161	771.12
569.372	709.12
569.584	678.12
569.795	682.12
570.007	656.12
570.218	606.12
570.43	613.12
570.641	629.12
570.853	601.12
571.064	656.12
571.276	638.12
571.487	592.12
571.698	559.12
571.91	556.12
572.121	537.12
572.333	545.12
572.544	519.12
572.755	535.12
572.966	518.12
573.178	492.12
573.389	512.12
573.6	487.12
573.811	484.12
574.023	493.12
574.234	502.12
574.445	497.12
574.656	495.12
574.867	471.12
575.078	502.12
575.289	494.12
575.501	498.12
575.712	493.12
575.923	461.12
576.134	482.12
576.345	488.12
576.556	448.12
576.767	449.12
576.978	462.12
577.188	455.12
577.399	484.12
577.61	464.12
577.821	441.12
578.032	446.12
578.243	445.12
578.454	441.12
578.665	456.12
578.875	436.12
579.086	442.12
579.297	437.12
579.508	438.12
579.718	463.12
579.929	413.12
580.14	446.12
580.35	418.12
580.561	432.12
580.772	430.12
580.982	435.12
581.193	417.12
581.403	412.12
581.614	425.12
581.825	419.12
582.035	418.12
582.246	414.12
582.456	426.12
582.667	417.12
582.877	425.12
583.087	419.12
583.298	406.12
583.508	406.12
583.719	418.12
583.929	418.12
584.139	428.12
584.35	396.12
584.56	415.12
584.77	403.12
584.981	413.12
585.191	430.12
585.401	427.12
585.611	406.12
585.821	407.12
586.032	427.12
586.242	406.12
586.452	395.12
586.662	411.12
586.872	399.12
587.082	396.12
587.292	379.12
587.502	378.12
587.713	392.12
587.923	364.12
588.133	393.12
588.343	394.12
588.553	409.12
588.762	403.12
588.972	399.12
589.182	388.12
589.392	409.12
589.602	406.12
589.812	391.12
590.022	410.12
590.232	398.12
590.441	407.12
590.651	411.12
590.861	397.12
591.071	409.12
591.281	420.12
591.49	422.12
591.7	428.12
591.91	410.12
592.119	428.12
592.329	441.12
592.539	459.12
592.748	477.12
592.958	494.12
593.167	489.12
593.377	504.12
593.587	520.12
593.796	502.12
594.006	535.12
594.215	520.12
594.424	531.12
594.634	520.12
594.843	478.12
595.053	457.12
595.262	432.12
595.472	424.12
595.681	424.12
595.89	405.12
596.1	408.12
596.309	372.12
596.518	412.12
596.727	393.12
596.937	370.12
597.146	358.12
597.355	378.12
597.564	378.12
597.774	376.12
597.983	328.12
598.192	362.12
598.401	367.12
598.61	360.12
598.819	351.12
599.028	335.12
599.237	353.12
599.446	341.12
599.655	338.12
599.864	334.12
600.073	340.12
600.282	356.12
600.491	329.12
600.7	344.12
600.909	358.12
601.118	336.12
601.327	327.12
601.536	338.12
601.745	338.12
601.953	334.12
602.162	338.12
602.371	336.12
602.58	334.12
602.789	318.12
602.997	338.12
603.206	314.12
603.415	316.12
603.623	328.12
603.832	328.12
604.041	305.12
604.249	316.12
604.458	332.12
604.666	310.12
604.875	281.12
605.084	314.12
605.292	301.12
605.501	329.12
605.709	310.12
605.918	304.12
606.126	295.12
606.334	293.12
606.543	328.12
606.751	337.12
606.96	308.12
607.168	302.12
607.376	299.12
607.585	299.12
607.793	305.12
608.001	321.12
608.21	309.12
608.418	311.12
608.626	286.12
608.834	317.12
609.043	311.12
609.251	322.12
609.459	310.12
609.667	285.12
609.875	313.12
610.083	313.12
610.291	319.12
610.499	311.12
610.707	311.12
610.916	299.12
611.124	322.12
611.332	304.12
611.54	308.12
611.748	309.12
611.955	283.12
612.163	296.12
612.371	294.12
612.579	291.12
612.787	301.12
612.995	293.12
613.203	294.12
613.411	294.12
613.618	301.12
613.826	301.12
614.034	301.12
614.242	289.12
614.449	293.12
614.657	290.12
614.865	308.12
615.072	273.12
615.28	303.12
615.488	297.12
615.695	296.12
615.903	287.12
616.111	292.12
616.318	296.12
616.526	306.12
616.733	297.12
616.941	302.12
617.148	297.12
617.356	286.12
617.563	309.12
617.771	307.12
617.978	305.12
618.185	306.12
618.393	304.12
618.6	304.12
618.807	269.12
619.015	303.12
619.222	297.12
619.429	267.12
619.637	301.12
619.844	320.12
620.051	283.12
620.258	293.12
620.466	261.12
620.673	270.12
620.88	276.12
621.087	260.12
621.294	258.12
621.501	293.12
621.708	282.12
621.915	274.12
622.122	270.12
622.329	264.12
622.536	264.12
622.743	268.12
622.95	257.12
623.157	255.12
623.364	273.12
623.571	264.12
623.778	263.12
623.985	263.12
624.192	256.12
624.399	247.12
624.606	274.12
624.812	262.12
625.019	245.12
625.226	249.12
625.433	259.12
625.639	255.12
625.846	235.12
626.053	249.12
626.259	244.12
626.466	258.12
626.673	266.12
626.879	245.12
627.086	246.12
627.293	251.12
627.499	251.12
627.706	248.12
627.912	242.12
628.119	253.12
628.325	252.12
628.532	229.12
628.738	238.12
628.945	248.12
629.151	240.12
629.357	243.12
629.564	221.12
629.77	225.12
629.976	241.12
630.183	234.12
630.389	226.12
630.595	244.12
630.802	221.12
631.008	234.12
631.214	226.12
631.42	214.12
631.627	231.12
631.833	239.12
632.039	214.12
632.245	225.12
632.451	229.12
632.657	226.12
632.863	221.12
633.069	223.12
633.275	229.12
633.481	224.12
633.688	233.12
633.893	227.12
634.099	215.12
634.305	235.12
634.511	217.12
634.717	209.12
634.923	214.12
635.129	203.12
635.335	222.12
635.541	223.12
635.747	209.12
635.952	215.12
636.158	218.12
636.364	192.12
636.57	213.12
636.775	214.12
636.981	198.12
637.187	204.12
637.392	222.12
637.598	203.12
637.804	221.12
638.009	221.12
638.215	217.12
638.421	205.12
638.626	216.12
638.832	206.12
639.037	209.12
639.243	198.12
639.448	198.12
639.654	218.12
639.859	196.12
640.065	204.12
640.27	199.12
640.475	208.12
640.681	210.12
640.886	199.12
641.091	193.12
641.297	208.12
641.502	198.12
641.707	213.12
641.913	200.12
642.118	206.12
642.323	195.12
642.528	196.12
642.733	198.12
642.939	200.12
643.144	217.12
643.349	195.12
643.554	202.12
643.759	194.12
643.964	200.12
644.169	194.12
644.374	192.12
644.579	186.12
644.784	181.12
644.989	200.12
645.194	201.12
645.399	197.12
645.604	183.12
645.809	211.12
646.014	193.12
646.219	206.12
646.423	205.12
646.628	206.12
646.833	203.12
647.038	207.12
647.243	208.12
647.447	207.12
647.652	205.12
647.857	211.12
648.062	226.12
648.266	198.12
648.471	221.12
648.676	217.12
648.88	207.12
649.085	201.12
649.289	181.12
649.494	197.12
649.698	187.12
649.903	193.12
650.107	200.12
650.312	195.12
650.516	187.12
650.721	182.12
650.925	196.12
651.13	172.12
651.334	170.12
651.539	172.12
651.743	191.12
651.947	174.12
652.152	167.12
652.356	168.12
652.56	173.12
652.764	169.12
652.969	161.12
653.173	160.12
653.377	154.12
653.581	174.12
653.785	154.12
653.99	160.12
654.194	158.12
654.398	166.12
654.602	145.12
654.806	149.12
655.01	171.12
655.214	162.12
655.418	151.12
655.622	146.12
655.826	150.12
656.03	144.12
656.234	165.12
656.438	149.12
656.642	160.12
656.846	156.12
657.049	149.12
657.253	143.12
657.457	136.12
657.661	130.12
657.865	130.12
658.068	133.12
658.272	127.12
658.476	121.12
658.68	107.12
658.883	115.12
659.087	119.12
659.291	117.12
659.494	126.12
659.698	106.12
659.901	90.12
660.105	107.12
660.309	123.12
660.512	91.12
660.716	85.12
660.919	104.12
661.123	86.12
661.326	108.12
661.53	101.12
661.733	86.12
661.936	91.12
662.14	88.12
662.343	84.12
662.546	85.12
662.75	84.12
662.953	77.12
663.156	88.12
663.36	88.12
663.563	87.12
663.766	91.12
663.969	71.12
664.173	85.12
664.376	84.12
664.579	89.12
664.782	94.12
664.985	95.12
665.188	82.12
665.391	91.12
665.594	100.12
665.797	88.12
666	85.12
666.203	81.12
666.406	79.12
666.609	84.12
666.812	94.12
667.015	83.12
667.218	93.12
667.421	79.12
667.624	90.12
667.827	77.12
668.03	79.12
668.232	89.12
668.435	97.12
668.638	69.12
668.841	90.12
669.043	92.12
669.246	98.12
669.449	87.12
669.651	82.12
669.854	98.12
670.057	83.12
670.259	88.12
670.462	90.12
670.665	102.12
670.867	93.12
671.07	90.12
671.272	84.12
671.475	88.12
671.677	84.12
671.88	86.12
672.082	88.12
672.284	99.12
672.487	92.12
672.689	78.12
672.892	93.12
