Data from Ni(NO3)2@0.5M.TitratingCurve.Agarose3%dH2O.NegLispCup.LampEnergy10.LIBS07252019_HRD10591_17-57-51-564.txt Node
Date: Thu Jul 25 17:57:51 EDT 2019
User: cochatt
Spectrometer: HR+D1059
Trigger mode: 1
Integration Time (sec): 1.000000E-1
Scans to average: 1
Electric dark correction enabled: true
Nonlinearity correction enabled: false
Boxcar width: 0
XAxis mode: Wavelengths
Number of Pixels in Spectrum: 2048
>>>>>Begin Spectral Data<<<<<
223.165	-21.56
223.4	-21.56
223.635	-21.56
223.869	-26.56
224.104	-20.56
224.338	-14.56
224.573	-9.56
224.808	-11.56
225.042	-0.56
225.277	2.44
225.511	0.44
225.746	12.44
225.98	10.44
226.215	15.44
226.449	11.44
226.683	13.44
226.918	20.44
227.152	18.44
227.387	31.44
227.621	30.44
227.856	46.44
228.09	43.44
228.324	52.44
228.559	52.44
228.793	77.44
229.027	152.44
229.262	176.44
229.496	172.44
229.73	186.44
229.964	216.44
230.199	272.44
230.433	265.44
230.667	229.44
230.901	232.44
231.136	200.44
231.37	189.44
231.604	226.44
231.838	249.44
232.072	260.44
232.306	252.44
232.541	201.44
232.775	196.44
233.009	198.44
233.243	205.44
233.477	206.44
233.711	200.44
233.945	220.44
234.179	217.44
234.413	210.44
234.647	225.44
234.881	221.44
235.115	224.44
235.349	202.44
235.583	202.44
235.817	181.44
236.051	194.44
236.285	193.44
236.519	185.44
236.753	200.44
236.987	211.44
237.221	204.44
237.455	212.44
237.689	218.44
237.922	225.44
238.156	231.44
238.39	233.44
238.624	219.44
238.858	216.44
239.091	229.44
239.325	249.44
239.559	265.44
239.793	284.44
240.027	262.44
240.26	231.44
240.494	238.44
240.728	247.44
240.961	248.44
241.195	238.44
241.429	249.44
241.662	269.44
241.896	299.44
242.13	309.44
242.363	283.44
242.597	258.44
242.83	263.44
243.064	259.44
243.298	271.44
243.531	264.44
243.765	286.44
243.998	281.44
244.232	285.44
244.465	311.44
244.699	275.44
244.932	286.44
245.166	285.44
245.399	293.44
245.633	279.44
245.866	297.44
246.099	289.44
246.333	275.44
246.566	292.44
246.8	296.44
247.033	307.44
247.266	296.44
247.5	307.44
247.733	318.44
247.966	307.44
248.2	310.44
248.433	309.44
248.666	327.44
248.899	352.44
249.133	332.44
249.366	344.44
249.599	343.44
249.832	343.44
250.066	352.44
250.299	381.44
250.532	363.44
250.765	379.44
250.998	381.44
251.231	401.44
251.465	428.44
251.698	412.44
251.931	405.44
252.164	388.44
252.397	391.44
252.63	401.44
252.863	395.44
253.096	387.44
253.329	410.44
253.562	412.44
253.795	400.44
254.028	423.44
254.261	428.44
254.494	436.44
254.727	450.44
254.96	440.44
255.193	439.44
255.426	450.44
255.659	458.44
255.892	447.44
256.124	450.44
256.357	472.44
256.59	462.44
256.823	498.44
257.056	485.44
257.289	487.44
257.521	512.44
257.754	497.44
257.987	474.44
258.22	484.44
258.452	486.44
258.685	486.44
258.918	512.44
259.151	496.44
259.383	492.44
259.616	509.44
259.849	516.44
260.081	520.44
260.314	524.44
260.547	544.44
260.779	546.44
261.012	542.44
261.244	534.44
261.477	552.44
261.71	536.44
261.942	533.44
262.175	542.44
262.407	536.44
262.64	576.44
262.872	579.44
263.105	574.44
263.337	558.44
263.57	592.44
263.802	596.44
264.035	592.44
264.267	572.44
264.499	570.44
264.732	593.44
264.964	589.44
265.197	605.44
265.429	622.44
265.661	600.44
265.894	589.44
266.126	613.44
266.358	594.44
266.591	614.44
266.823	609.44
267.055	590.44
267.287	605.44
267.52	617.44
267.752	609.44
267.984	607.44
268.216	617.44
268.448	641.44
268.681	636.44
268.913	637.44
269.145	645.44
269.377	624.44
269.609	633.44
269.841	645.44
270.073	644.44
270.306	673.44
270.538	645.44
270.77	648.44
271.002	636.44
271.234	650.44
271.466	672.44
271.698	668.44
271.93	657.44
272.162	667.44
272.394	673.44
272.626	659.44
272.858	662.44
273.09	675.44
273.322	673.44
273.553	695.44
273.785	691.44
274.017	653.44
274.249	678.44
274.481	692.44
274.713	690.44
274.945	709.44
275.176	698.44
275.408	725.44
275.64	705.44
275.872	702.44
276.104	678.44
276.335	693.44
276.567	689.44
276.799	716.44
277.031	706.44
277.262	710.44
277.494	715.44
277.726	710.44
277.957	725.44
278.189	745.44
278.421	722.44
278.652	740.44
278.884	727.44
279.115	738.44
279.347	768.44
279.579	722.44
279.81	753.44
280.042	738.44
280.273	741.44
280.505	746.44
280.736	734.44
280.968	735.44
281.199	753.44
281.431	747.44
281.662	773.44
281.894	768.44
282.125	769.44
282.356	760.44
282.588	756.44
282.819	737.44
283.051	800.44
283.282	783.44
283.513	749.44
283.745	794.44
283.976	784.44
284.207	759.44
284.439	772.44
284.67	770.44
284.901	780.44
285.132	803.44
285.364	780.44
285.595	806.44
285.826	781.44
286.057	817.44
286.288	804.44
286.52	790.44
286.751	811.44
286.982	812.44
287.213	790.44
287.444	803.44
287.675	816.44
287.906	818.44
288.138	811.44
288.369	816.44
288.6	829.44
288.831	792.44
289.062	811.44
289.293	833.44
289.524	824.44
289.755	809.44
289.986	813.44
290.217	782.44
290.448	837.44
290.679	834.44
290.91	847.44
291.141	821.44
291.371	816.44
291.602	842.44
291.833	846.44
292.064	848.44
292.295	842.44
292.526	818.44
292.757	823.44
292.987	828.44
293.218	842.44
293.449	836.44
293.68	818.44
293.91	830.44
294.141	817.44
294.372	809.44
294.603	838.44
294.833	850.44
295.064	872.44
295.295	818.44
295.525	828.44
295.756	841.44
295.987	831.44
296.217	824.44
296.448	838.44
296.679	862.44
296.909	853.44
297.14	824.44
297.37	865.44
297.601	881.44
297.831	854.44
298.062	857.44
298.292	859.44
298.523	876.44
298.753	867.44
298.984	881.44
299.214	886.44
299.445	877.44
299.675	883.44
299.905	882.44
300.136	912.44
300.366	924.44
300.597	961.44
300.827	891.44
301.057	924.44
301.288	908.44
301.518	910.44
301.748	900.44
301.979	923.44
302.209	915.44
302.439	936.44
302.669	900.44
302.9	920.44
303.13	899.44
303.36	923.44
303.59	904.44
303.82	939.44
304.051	970.44
304.281	950.44
304.511	952.44
304.741	950.44
304.971	946.44
305.201	993.44
305.431	1003.44
305.661	996.44
305.891	971.44
306.121	1001.44
306.352	955.44
306.582	953.44
306.812	958.44
307.042	983.44
307.272	969.44
307.502	963.44
307.731	951.44
307.961	975.44
308.191	957.44
308.421	950.44
308.651	964.44
308.881	975.44
309.111	978.44
309.341	981.44
309.571	994.44
309.8	1034.44
310.03	1014.44
310.26	1058.44
310.49	1054.44
310.72	1052.44
310.949	1015.44
311.179	1004.44
311.409	1019.44
311.639	1009.44
311.868	1024.44
312.098	1049.44
312.328	1061.44
312.557	1039.44
312.787	1064.44
313.017	1056.44
313.246	1079.44
313.476	1074.44
313.706	1097.44
313.935	1080.44
314.165	1082.44
314.394	1091.44
314.624	1084.44
314.853	1068.44
315.083	1100.44
315.312	1103.44
315.542	1106.44
315.771	1117.44
316.001	1124.44
316.23	1108.44
316.46	1115.44
316.689	1144.44
316.919	1118.44
317.148	1144.44
317.377	1127.44
317.607	1125.44
317.836	1108.44
318.065	1134.44
318.295	1168.44
318.524	1171.44
318.753	1165.44
318.983	1180.44
319.212	1181.44
319.441	1183.44
319.67	1179.44
319.9	1194.44
320.129	1190.44
320.358	1209.44
320.587	1213.44
320.816	1226.44
321.046	1202.44
321.275	1259.44
321.504	1197.44
321.733	1248.44
321.962	1255.44
322.191	1250.44
322.42	1261.44
322.649	1241.44
322.878	1256.44
323.108	1248.44
323.337	1260.44
323.566	1261.44
323.795	1289.44
324.024	1275.44
324.253	1276.44
324.482	1298.44
324.71	1275.44
324.939	1280.44
325.168	1312.44
325.397	1287.44
325.626	1312.44
325.855	1318.44
326.084	1333.44
326.313	1359.44
326.542	1334.44
326.77	1366.44
326.999	1350.44
327.228	1357.44
327.457	1342.44
327.686	1386.44
327.914	1357.44
328.143	1377.44
328.372	1365.44
328.6	1363.44
328.829	1394.44
329.058	1378.44
329.287	1383.44
329.515	1411.44
329.744	1392.44
329.972	1404.44
330.201	1381.44
330.43	1407.44
330.658	1404.44
330.887	1446.44
331.115	1424.44
331.344	1442.44
331.572	1459.44
331.801	1408.44
332.03	1468.44
332.258	1458.44
332.486	1448.44
332.715	1429.44
332.943	1458.44
333.172	1433.44
333.4	1443.44
333.629	1457.44
333.857	1448.44
334.085	1469.44
334.314	1440.44
334.542	1466.44
334.771	1471.44
334.999	1496.44
335.227	1472.44
335.455	1507.44
335.684	1482.44
335.912	1460.44
336.14	1485.44
336.369	1460.44
336.597	1493.44
336.825	1566.44
337.053	1566.44
337.281	1521.44
337.51	1509.44
337.738	1524.44
337.966	1530.44
338.194	1539.44
338.422	1531.44
338.65	1504.44
338.878	1476.44
339.106	1511.44
339.334	1538.44
339.562	1529.44
339.79	1478.44
340.018	1494.44
340.246	1494.44
340.474	1505.44
340.702	1489.44
340.93	1457.44
341.158	1506.44
341.386	1518.44
341.614	1547.44
341.842	1527.44
342.07	1513.44
342.298	1522.44
342.526	1500.44
342.754	1484.44
342.981	1485.44
343.209	1490.44
343.437	1533.44
343.665	1532.44
343.893	1557.44
344.12	1474.44
344.348	1521.44
344.576	1512.44
344.804	1551.44
345.031	1489.44
345.259	1482.44
345.487	1501.44
345.714	1529.44
345.942	1545.44
346.17	1588.44
346.397	1554.44
346.625	1486.44
346.853	1460.44
347.08	1480.44
347.308	1465.44
347.535	1481.44
347.763	1481.44
347.99	1474.44
348.218	1447.44
348.445	1414.44
348.673	1443.44
348.9	1494.44
349.128	1489.44
349.355	1520.44
349.583	1543.44
349.81	1467.44
350.037	1443.44
350.265	1435.44
350.492	1422.44
350.72	1475.44
350.947	1479.44
351.174	1459.44
351.402	1521.44
351.629	1570.44
351.856	1494.44
352.083	1488.44
352.311	1493.44
352.538	1521.44
352.765	1533.44
352.992	1445.44
353.22	1396.44
353.447	1428.44
353.674	1428.44
353.901	1434.44
354.128	1423.44
354.355	1432.44
354.583	1460.44
354.81	1434.44
355.037	1445.44
355.264	1416.44
355.491	1414.44
355.718	1451.44
355.945	1403.44
356.172	1410.44
356.399	1485.44
356.626	1483.44
356.853	1543.44
357.08	1462.44
357.307	1456.44
357.534	1486.44
357.761	1449.44
357.988	1450.44
358.215	1448.44
358.441	1419.44
358.668	1422.44
358.895	1420.44
359.122	1439.44
359.349	1436.44
359.576	1424.44
359.802	1445.44
360.029	1459.44
360.256	1485.44
360.483	1486.44
360.709	1428.44
360.936	1459.44
361.163	1460.44
361.39	1472.44
361.616	1429.44
361.843	1463.44
362.07	1536.44
362.296	1485.44
362.523	1443.44
362.749	1436.44
362.976	1425.44
363.203	1444.44
363.429	1432.44
363.656	1443.44
363.882	1444.44
364.109	1430.44
364.335	1446.44
364.562	1442.44
364.788	1443.44
365.015	1462.44
365.241	1432.44
365.468	1452.44
365.694	1458.44
365.92	1470.44
366.147	1447.44
366.373	1488.44
366.599	1412.44
366.826	1435.44
367.052	1468.44
367.278	1459.44
367.505	1463.44
367.731	1468.44
367.957	1452.44
368.184	1449.44
368.41	1476.44
368.636	1481.44
368.862	1480.44
369.089	1489.44
369.315	1485.44
369.541	1494.44
369.767	1472.44
369.993	1479.44
370.219	1445.44
370.445	1487.44
370.672	1480.44
370.898	1486.44
371.124	1473.44
371.35	1478.44
371.576	1486.44
371.802	1450.44
372.028	1477.44
372.254	1497.44
372.48	1449.44
372.706	1476.44
372.932	1424.44
373.158	1492.44
373.384	1459.44
373.61	1501.44
373.835	1479.44
374.061	1449.44
374.287	1463.44
374.513	1452.44
374.739	1479.44
374.965	1461.44
375.191	1475.44
375.416	1495.44
375.642	1443.44
375.868	1449.44
376.094	1462.44
376.319	1463.44
376.545	1445.44
376.771	1440.44
376.997	1436.44
377.222	1461.44
377.448	1422.44
377.674	1465.44
377.899	1428.44
378.125	1410.44
378.35	1413.44
378.576	1422.44
378.802	1417.44
379.027	1413.44
379.253	1426.44
379.478	1445.44
379.704	1392.44
379.929	1443.44
380.155	1391.44
380.38	1402.44
380.606	1462.44
380.831	1414.44
381.057	1465.44
381.282	1392.44
381.507	1380.44
381.733	1404.44
381.958	1402.44
382.184	1429.44
382.409	1437.44
382.634	1420.44
382.86	1402.44
383.085	1413.44
383.31	1417.44
383.535	1436.44
383.761	1448.44
383.986	1437.44
384.211	1437.44
384.436	1431.44
384.662	1450.44
384.887	1481.44
385.112	1433.44
385.337	1471.44
385.562	1464.44
385.787	1506.44
386.013	1523.44
386.238	1523.44
386.463	1466.44
386.688	1437.44
386.913	1437.44
387.138	1470.44
387.363	1507.44
387.588	1464.44
387.813	1476.44
388.038	1496.44
388.263	1482.44
388.488	1501.44
388.713	1486.44
388.938	1499.44
389.163	1474.44
389.387	1481.44
389.612	1454.44
389.837	1464.44
390.062	1476.44
390.287	1510.44
390.512	1494.44
390.736	1472.44
390.961	1448.44
391.186	1504.44
391.411	1487.44
391.636	1505.44
391.86	1485.44
392.085	1470.44
392.31	1510.44
392.534	1465.44
392.759	1490.44
392.984	1475.44
393.208	1494.44
393.433	1544.44
393.658	1486.44
393.882	1465.44
394.107	1506.44
394.331	1460.44
394.556	1471.44
394.78	1454.44
395.005	1475.44
395.229	1491.44
395.454	1497.44
395.678	1474.44
395.903	1504.44
396.127	1486.44
396.352	1498.44
396.576	1461.44
396.801	1509.44
397.025	1481.44
397.249	1515.44
397.474	1489.44
397.698	1523.44
397.922	1518.44
398.147	1521.44
398.371	1548.44
398.595	1498.44
398.82	1561.44
399.044	1559.44
399.268	1516.44
399.492	1576.44
399.717	1555.44
399.941	1584.44
400.165	1604.44
400.389	1585.44
400.613	1580.44
400.837	1570.44
401.062	1587.44
401.286	1599.44
401.51	1568.44
401.734	1588.44
401.958	1581.44
402.182	1565.44
402.406	1538.44
402.63	1561.44
402.854	1587.44
403.078	1575.44
403.302	1575.44
403.526	1566.44
403.75	1580.44
403.974	1540.44
404.198	1511.44
404.422	1556.44
404.645	1576.44
404.869	1564.44
405.093	1612.44
405.317	1539.44
405.541	1585.44
405.765	1628.44
405.988	1577.44
406.212	1619.44
406.436	1574.44
406.66	1637.44
406.883	1586.44
407.107	1626.44
407.331	1671.44
407.555	1656.44
407.778	1654.44
408.002	1643.44
408.226	1642.44
408.449	1690.44
408.673	1665.44
408.896	1628.44
409.12	1637.44
409.344	1653.44
409.567	1620.44
409.791	1648.44
410.014	1636.44
410.238	1616.44
410.461	1645.44
410.685	1628.44
410.908	1599.44
411.132	1614.44
411.355	1593.44
411.578	1621.44
411.802	1581.44
412.025	1614.44
412.249	1607.44
412.472	1573.44
412.695	1560.44
412.919	1571.44
413.142	1603.44
413.365	1593.44
413.589	1594.44
413.812	1531.44
414.035	1517.44
414.258	1558.44
414.482	1553.44
414.705	1590.44
414.928	1591.44
415.151	1545.44
415.374	1585.44
415.597	1554.44
415.821	1536.44
416.044	1515.44
416.267	1563.44
416.49	1526.44
416.713	1525.44
416.936	1525.44
417.159	1500.44
417.382	1518.44
417.605	1504.44
417.828	1524.44
418.051	1505.44
418.274	1505.44
418.497	1484.44
418.72	1471.44
418.943	1492.44
419.166	1536.44
419.389	1651.44
419.611	1643.44
419.834	1623.44
420.057	1544.44
420.28	1514.44
420.503	1480.44
420.726	1502.44
420.948	1482.44
421.171	1484.44
421.394	1532.44
421.617	1538.44
421.839	1501.44
422.062	1522.44
422.285	1490.44
422.507	1527.44
422.73	1548.44
422.953	1536.44
423.175	1520.44
423.398	1552.44
423.621	1494.44
423.843	1532.44
424.066	1524.44
424.288	1536.44
424.511	1530.44
424.733	1547.44
424.956	1513.44
425.178	1511.44
425.401	1529.44
425.623	1546.44
425.846	1529.44
426.068	1568.44
426.291	1483.44
426.513	1513.44
426.735	1535.44
426.958	1507.44
427.18	1499.44
427.402	1510.44
427.625	1544.44
427.847	1518.44
428.069	1506.44
428.292	1537.44
428.514	1513.44
428.736	1526.44
428.958	1572.44
429.181	1513.44
429.403	1529.44
429.625	1532.44
429.847	1557.44
430.069	1539.44
430.292	1549.44
430.514	1520.44
430.736	1565.44
430.958	1552.44
431.18	1521.44
431.402	1513.44
431.624	1477.44
431.846	1517.44
432.068	1492.44
432.29	1547.44
432.512	1504.44
432.734	1548.44
432.956	1518.44
433.178	1569.44
433.4	1600.44
433.622	1590.44
433.844	1580.44
434.066	1556.44
434.287	1528.44
434.509	1545.44
434.731	1568.44
434.953	1561.44
435.175	1576.44
435.397	1660.44
435.618	1581.44
435.84	1548.44
436.062	1543.44
436.284	1537.44
436.505	1529.44
436.727	1536.44
436.949	1544.44
437.17	1593.44
437.392	1560.44
437.614	1520.44
437.835	1544.44
438.057	1518.44
438.278	1500.44
438.5	1491.44
438.721	1545.44
438.943	1497.44
439.165	1503.44
439.386	1528.44
439.608	1538.44
439.829	1546.44
440.05	1489.44
440.272	1528.44
440.493	1546.44
440.715	1536.44
440.936	1540.44
441.158	1543.44
441.379	1524.44
441.6	1601.44
441.822	1534.44
442.043	1546.44
442.264	1549.44
442.486	1553.44
442.707	1517.44
442.928	1547.44
443.149	1570.44
443.371	1584.44
443.592	1650.44
443.813	1640.44
444.034	1554.44
444.255	1561.44
444.476	1579.44
444.698	1589.44
444.919	1644.44
445.14	1718.44
445.361	1659.44
445.582	1574.44
445.803	1534.44
446.024	1532.44
446.245	1507.44
446.466	1511.44
446.687	1477.44
446.908	1497.44
447.129	1490.44
447.35	1509.44
447.571	1490.44
447.792	1443.44
448.013	1466.44
448.234	1458.44
448.455	1452.44
448.675	1446.44
448.896	1454.44
449.117	1403.44
449.338	1456.44
449.559	1430.44
449.779	1434.44
450	1369.44
450.221	1424.44
450.442	1453.44
450.662	1413.44
450.883	1439.44
451.104	1473.44
451.324	1450.44
451.545	1403.44
451.766	1428.44
451.986	1410.44
452.207	1433.44
452.428	1395.44
452.648	1402.44
452.869	1412.44
453.089	1401.44
453.31	1441.44
453.53	1447.44
453.751	1423.44
453.971	1403.44
454.192	1423.44
454.412	1460.44
454.633	1436.44
454.853	1426.44
455.073	1414.44
455.294	1422.44
455.514	1394.44
455.734	1460.44
455.955	1484.44
456.175	1470.44
456.395	1395.44
456.616	1364.44
456.836	1415.44
457.056	1412.44
457.276	1378.44
457.497	1446.44
457.717	1424.44
457.937	1418.44
458.157	1383.44
458.377	1406.44
458.598	1382.44
458.818	1406.44
459.038	1400.44
459.258	1451.44
459.478	1495.44
459.698	1606.44
459.918	1584.44
460.138	1556.44
460.358	1556.44
460.578	1558.44
460.798	1589.44
461.018	1612.44
461.238	1528.44
461.458	1526.44
461.678	1509.44
461.898	1513.44
462.118	1495.44
462.338	1530.44
462.558	1534.44
462.777	1575.44
462.997	1590.44
463.217	1596.44
463.437	1668.44
463.657	1651.44
463.876	1556.44
464.096	1568.44
464.316	1571.44
464.536	1555.44
464.755	1505.44
464.975	1523.44
465.195	1469.44
465.414	1520.44
465.634	1501.44
465.854	1498.44
466.073	1494.44
466.293	1477.44
466.512	1465.44
466.732	1458.44
466.951	1464.44
467.171	1497.44
467.391	1486.44
467.61	1467.44
467.829	1454.44
468.049	1462.44
468.268	1471.44
468.488	1462.44
468.707	1476.44
468.927	1458.44
469.146	1467.44
469.365	1570.44
469.585	1518.44
469.804	1485.44
470.023	1484.44
470.243	1466.44
470.462	1467.44
470.681	1472.44
470.901	1490.44
471.12	1450.44
471.339	1481.44
471.558	1513.44
471.777	1506.44
471.997	1486.44
472.216	1492.44
472.435	1475.44
472.654	1475.44
472.873	1489.44
473.092	1493.44
473.311	1511.44
473.53	1550.44
473.749	1529.44
473.968	1490.44
474.187	1513.44
474.406	1520.44
474.625	1559.44
474.844	1556.44
475.063	1563.44
475.282	1547.44
475.501	1557.44
475.72	1552.44
475.939	1588.44
476.158	1587.44
476.377	1551.44
476.596	1611.44
476.814	1628.44
477.033	1581.44
477.252	1630.44
477.471	1636.44
477.69	1629.44
477.908	1668.44
478.127	1708.44
478.346	1676.44
478.564	1704.44
478.783	1749.44
479.002	1818.44
479.22	1824.44
479.439	1820.44
479.658	1731.44
479.876	1749.44
480.095	1737.44
480.313	1727.44
480.532	1745.44
480.751	1744.44
480.969	1769.44
481.188	1788.44
481.406	1747.44
481.624	1767.44
481.843	1765.44
482.061	1768.44
482.28	1814.44
482.498	1766.44
482.717	1821.44
482.935	1831.44
483.153	1898.44
483.372	1892.44
483.59	1973.44
483.808	1844.44
484.027	1887.44
484.245	1870.44
484.463	1844.44
484.681	1853.44
484.9	1856.44
485.118	1838.44
485.336	1833.44
485.554	1849.44
485.772	1862.44
485.99	1883.44
486.209	1833.44
486.427	1860.44
486.645	1880.44
486.863	1867.44
487.081	1861.44
487.299	1870.44
487.517	1889.44
487.735	1927.44
487.953	1917.44
488.171	1931.44
488.389	1916.44
488.607	1888.44
488.825	1851.44
489.043	1884.44
489.261	1891.44
489.479	1888.44
489.696	1868.44
489.914	1851.44
490.132	1869.44
490.35	1900.44
490.568	1909.44
490.786	1918.44
491.003	1914.44
491.221	1898.44
491.439	1936.44
491.657	1913.44
491.874	1926.44
492.092	1974.44
492.31	1901.44
492.527	1941.44
492.745	1904.44
492.963	1871.44
493.18	1932.44
493.398	1932.44
493.615	1883.44
493.833	1910.44
494.05	1948.44
494.268	1941.44
494.485	1921.44
494.703	1952.44
494.92	1975.44
495.138	1930.44
495.355	1934.44
495.573	1950.44
495.79	1965.44
496.008	1945.44
496.225	1933.44
496.442	1952.44
496.66	1977.44
496.877	1957.44
497.094	1987.44
497.312	1993.44
497.529	1960.44
497.746	1993.44
497.963	2006.44
498.181	2029.44
498.398	1994.44
498.615	1998.44
498.832	2065.44
499.049	2034.44
499.267	2088.44
499.484	2061.44
499.701	2091.44
499.918	2091.44
500.135	2103.44
500.352	2130.44
500.569	2160.44
500.786	2137.44
501.003	2125.44
501.22	2108.44
501.437	2145.44
501.654	2080.44
501.871	2072.44
502.088	2090.44
502.305	2075.44
502.522	2036.44
502.739	1997.44
502.956	2006.44
503.172	1953.44
503.389	1945.44
503.606	1978.44
503.823	1984.44
504.04	1916.44
504.256	1906.44
504.473	1891.44
504.69	1852.44
504.907	1886.44
505.123	1814.44
505.34	1853.44
505.557	1828.44
505.773	1815.44
505.99	1785.44
506.207	1781.44
506.423	1782.44
506.64	1765.44
506.856	1771.44
507.073	1752.44
507.289	1756.44
507.506	1746.44
507.722	1732.44
507.939	1689.44
508.155	1738.44
508.372	1741.44
508.588	1719.44
508.805	1709.44
509.021	1696.44
509.238	1671.44
509.454	1667.44
509.67	1641.44
509.887	1662.44
510.103	1677.44
510.319	1686.44
510.536	1649.44
510.752	1632.44
510.968	1623.44
511.184	1628.44
511.401	1634.44
511.617	1641.44
511.833	1610.44
512.049	1600.44
512.265	1609.44
512.481	1606.44
512.698	1611.44
512.914	1622.44
513.13	1584.44
513.346	1587.44
513.562	1593.44
513.778	1603.44
513.994	1618.44
514.21	1560.44
514.426	1603.44
514.642	1579.44
514.858	1605.44
515.074	1627.44
515.29	1569.44
515.506	1612.44
515.721	1602.44
515.937	1610.44
516.153	1601.44
516.369	1569.44
516.585	1595.44
516.801	1579.44
517.016	1627.44
517.232	1620.44
517.448	1612.44
517.664	1598.44
517.879	1559.44
518.095	1617.44
518.311	1598.44
518.527	1602.44
518.742	1563.44
518.958	1585.44
519.173	1518.44
519.389	1580.44
519.605	1521.44
519.82	1562.44
520.036	1567.44
520.251	1536.44
520.467	1532.44
520.682	1547.44
520.898	1521.44
521.113	1541.44
521.329	1552.44
521.544	1542.44
521.76	1518.44
521.975	1494.44
522.19	1489.44
522.406	1466.44
522.621	1522.44
522.836	1509.44
523.052	1454.44
523.267	1473.44
523.482	1476.44
523.698	1478.44
523.913	1477.44
524.128	1485.44
524.343	1537.44
524.559	1480.44
524.774	1456.44
524.989	1496.44
525.204	1476.44
525.419	1436.44
525.634	1438.44
525.849	1469.44
526.064	1446.44
526.28	1465.44
526.495	1429.44
526.71	1453.44
526.925	1448.44
527.14	1445.44
527.355	1417.44
527.57	1437.44
527.785	1426.44
527.999	1405.44
528.214	1443.44
528.429	1429.44
528.644	1426.44
528.859	1436.44
529.074	1400.44
529.289	1418.44
529.503	1418.44
529.718	1440.44
529.933	1402.44
530.148	1395.44
530.363	1412.44
530.577	1392.44
530.792	1393.44
531.007	1387.44
531.221	1362.44
531.436	1384.44
531.651	1370.44
531.865	1324.44
532.08	1348.44
532.295	1386.44
532.509	1352.44
532.724	1344.44
532.938	1364.44
533.153	1368.44
533.367	1361.44
533.582	1357.44
533.796	1332.44
534.011	1369.44
534.225	1360.44
534.44	1339.44
534.654	1334.44
534.868	1334.44
535.083	1346.44
535.297	1318.44
535.511	1330.44
535.726	1344.44
535.94	1320.44
536.154	1283.44
536.369	1321.44
536.583	1275.44
536.797	1292.44
537.011	1271.44
537.225	1296.44
537.44	1280.44
537.654	1272.44
537.868	1310.44
538.082	1307.44
538.296	1285.44
538.51	1259.44
538.724	1280.44
538.938	1300.44
539.153	1246.44
539.367	1293.44
539.581	1269.44
539.795	1257.44
540.009	1253.44
540.222	1232.44
540.436	1234.44
540.65	1236.44
540.864	1250.44
541.078	1248.44
541.292	1244.44
541.506	1270.44
541.72	1242.44
541.934	1254.44
542.147	1241.44
542.361	1258.44
542.575	1253.44
542.789	1202.44
543.002	1212.44
543.216	1233.44
543.43	1216.44
543.644	1208.44
543.857	1234.44
544.071	1242.44
544.285	1221.44
544.498	1240.44
544.712	1230.44
544.925	1245.44
545.139	1217.44
545.352	1189.44
545.566	1180.44
545.779	1188.44
545.993	1199.44
546.206	1209.44
546.42	1210.44
546.633	1190.44
546.847	1205.44
547.06	1190.44
547.274	1191.44
547.487	1204.44
547.7	1241.44
547.914	1206.44
548.127	1200.44
548.34	1179.44
548.554	1166.44
548.767	1174.44
548.98	1189.44
549.193	1188.44
549.407	1154.44
549.62	1156.44
549.833	1172.44
550.046	1157.44
550.259	1146.44
550.473	1157.44
550.686	1147.44
550.899	1160.44
551.112	1111.44
551.325	1145.44
551.538	1120.44
551.751	1144.44
551.964	1122.44
552.177	1113.44
552.39	1118.44
552.603	1141.44
552.816	1138.44
553.029	1136.44
553.242	1145.44
553.455	1138.44
553.667	1113.44
553.88	1140.44
554.093	1115.44
554.306	1084.44
554.519	1069.44
554.732	1077.44
554.944	1108.44
555.157	1094.44
555.37	1085.44
555.583	1065.44
555.795	1106.44
556.008	1074.44
556.221	1067.44
556.433	1046.44
556.646	1064.44
556.859	1052.44
557.071	1060.44
557.284	998.44
557.496	1028.44
557.709	1064.44
557.921	1032.44
558.134	1024.44
558.346	1032.44
558.559	1023.44
558.771	1025.44
558.984	1020.44
559.196	1024.44
559.409	1012.44
559.621	1040.44
559.833	1029.44
560.046	988.44
560.258	987.44
560.47	947.44
560.683	987.44
560.895	974.44
561.107	989.44
561.32	981.44
561.532	1004.44
561.744	1001.44
561.956	986.44
562.168	993.44
562.381	972.44
562.593	997.44
562.805	992.44
563.017	964.44
563.229	985.44
563.441	958.44
563.653	945.44
563.865	978.44
564.077	942.44
564.289	930.44
564.501	987.44
564.713	965.44
564.925	960.44
565.137	973.44
565.349	973.44
565.561	977.44
565.773	973.44
565.985	986.44
566.197	977.44
566.408	977.44
566.62	975.44
566.832	962.44
567.044	968.44
567.255	954.44
567.467	930.44
567.679	957.44
567.891	942.44
568.102	949.44
568.314	948.44
568.526	911.44
568.737	908.44
568.949	900.44
569.161	887.44
569.372	863.44
569.584	898.44
569.795	896.44
570.007	864.44
570.218	825.44
570.43	865.44
570.641	873.44
570.853	861.44
571.064	845.44
571.276	850.44
571.487	864.44
571.698	855.44
571.91	836.44
572.121	846.44
572.333	826.44
572.544	812.44
572.755	804.44
572.966	816.44
573.178	821.44
573.389	786.44
573.6	789.44
573.811	768.44
574.023	772.44
574.234	770.44
574.445	782.44
574.656	766.44
574.867	769.44
575.078	773.44
575.289	774.44
575.501	768.44
575.712	783.44
575.923	753.44
576.134	729.44
576.345	738.44
576.556	759.44
576.767	738.44
576.978	764.44
577.188	741.44
577.399	749.44
577.61	723.44
577.821	728.44
578.032	723.44
578.243	752.44
578.454	725.44
578.665	719.44
578.875	702.44
579.086	691.44
579.297	696.44
579.508	727.44
579.718	699.44
579.929	670.44
580.14	688.44
580.35	675.44
580.561	689.44
580.772	682.44
580.982	702.44
581.193	677.44
581.403	677.44
581.614	681.44
581.825	701.44
582.035	674.44
582.246	690.44
582.456	675.44
582.667	668.44
582.877	676.44
583.087	657.44
583.298	646.44
583.508	671.44
583.719	668.44
583.929	659.44
584.139	654.44
584.35	668.44
584.56	665.44
584.77	653.44
584.981	650.44
585.191	652.44
585.401	646.44
585.611	647.44
585.821	627.44
586.032	648.44
586.242	646.44
586.452	630.44
586.662	616.44
586.872	626.44
587.082	636.44
587.292	617.44
587.502	634.44
587.713	629.44
587.923	618.44
588.133	613.44
588.343	598.44
588.553	616.44
588.762	632.44
588.972	613.44
589.182	680.44
589.392	681.44
589.602	629.44
589.812	677.44
590.022	658.44
590.232	598.44
590.441	596.44
590.651	590.44
590.861	582.44
591.071	595.44
591.281	576.44
591.49	581.44
591.7	578.44
591.91	601.44
592.119	587.44
592.329	600.44
592.539	593.44
592.748	588.44
592.958	584.44
593.167	575.44
593.377	578.44
593.587	597.44
593.796	582.44
594.006	576.44
594.215	560.44
594.424	549.44
594.634	570.44
594.843	554.44
595.053	557.44
595.262	557.44
595.472	564.44
595.681	533.44
595.89	555.44
596.1	538.44
596.309	542.44
596.518	545.44
596.727	533.44
596.937	570.44
597.146	567.44
597.355	547.44
597.564	543.44
597.774	545.44
597.983	540.44
598.192	534.44
598.401	514.44
598.61	506.44
598.819	533.44
599.028	525.44
599.237	542.44
599.446	548.44
599.655	484.44
599.864	506.44
600.073	516.44
600.282	516.44
600.491	492.44
600.7	503.44
600.909	489.44
601.118	514.44
601.327	490.44
601.536	496.44
601.745	512.44
601.953	511.44
602.162	500.44
602.371	498.44
602.58	514.44
602.789	504.44
602.997	505.44
603.206	499.44
603.415	489.44
603.623	481.44
603.832	486.44
604.041	481.44
604.249	440.44
604.458	458.44
604.666	475.44
604.875	474.44
605.084	457.44
605.292	469.44
605.501	488.44
605.709	489.44
605.918	475.44
606.126	477.44
606.334	487.44
606.543	474.44
606.751	468.44
606.96	459.44
607.168	445.44
607.376	454.44
607.585	457.44
607.793	461.44
608.001	465.44
608.21	457.44
608.418	453.44
608.626	461.44
608.834	479.44
609.043	463.44
609.251	457.44
609.459	464.44
609.667	444.44
609.875	447.44
610.083	466.44
610.291	446.44
610.499	431.44
610.707	441.44
610.916	445.44
611.124	465.44
611.332	450.44
611.54	437.44
611.748	430.44
611.955	426.44
612.163	428.44
612.371	405.44
612.579	418.44
612.787	429.44
612.995	437.44
613.203	442.44
613.411	433.44
613.618	416.44
613.826	437.44
614.034	434.44
614.242	417.44
614.449	438.44
614.657	443.44
614.865	436.44
615.072	423.44
615.28	423.44
615.488	425.44
615.695	434.44
615.903	427.44
616.111	436.44
616.318	423.44
616.526	434.44
616.733	420.44
616.941	418.44
617.148	426.44
617.356	404.44
617.563	420.44
617.771	410.44
617.978	419.44
618.185	402.44
618.393	411.44
618.6	411.44
618.807	421.44
619.015	412.44
619.222	379.44
619.429	380.44
619.637	405.44
619.844	382.44
620.051	397.44
620.258	411.44
620.466	401.44
620.673	381.44
620.88	378.44
621.087	373.44
621.294	384.44
621.501	374.44
621.708	406.44
621.915	380.44
622.122	388.44
622.329	410.44
622.536	375.44
622.743	388.44
622.95	393.44
623.157	371.44
623.364	386.44
623.571	380.44
623.778	376.44
623.985	389.44
624.192	375.44
624.399	372.44
624.606	380.44
624.812	355.44
625.019	374.44
625.226	380.44
625.433	379.44
625.639	335.44
625.846	356.44
626.053	365.44
626.259	374.44
626.466	355.44
626.673	340.44
626.879	361.44
627.086	361.44
627.293	367.44
627.499	346.44
627.706	359.44
627.912	344.44
628.119	348.44
628.325	349.44
628.532	329.44
628.738	351.44
628.945	347.44
629.151	347.44
629.357	341.44
629.564	359.44
629.77	338.44
629.976	327.44
630.183	344.44
630.389	344.44
630.595	353.44
630.802	349.44
631.008	338.44
631.214	333.44
631.42	333.44
631.627	340.44
631.833	338.44
632.039	327.44
632.245	327.44
632.451	322.44
632.657	334.44
632.863	327.44
633.069	341.44
633.275	315.44
633.481	321.44
633.688	316.44
633.893	325.44
634.099	326.44
634.305	315.44
634.511	312.44
634.717	320.44
634.923	320.44
635.129	299.44
635.335	305.44
635.541	307.44
635.747	300.44
635.952	313.44
636.158	304.44
636.364	312.44
636.57	309.44
636.775	304.44
636.981	310.44
637.187	319.44
637.392	314.44
637.598	304.44
637.804	302.44
638.009	305.44
638.215	311.44
638.421	306.44
638.626	308.44
638.832	305.44
639.037	320.44
639.243	285.44
639.448	296.44
639.654	306.44
639.859	298.44
640.065	304.44
640.27	299.44
640.475	281.44
640.681	299.44
640.886	295.44
641.091	301.44
641.297	312.44
641.502	298.44
641.707	313.44
641.913	311.44
642.118	289.44
642.323	296.44
642.528	293.44
642.733	305.44
642.939	298.44
643.144	284.44
643.349	306.44
643.554	302.44
643.759	288.44
643.964	272.44
644.169	293.44
644.374	283.44
644.579	288.44
644.784	273.44
644.989	290.44
645.194	288.44
645.399	277.44
645.604	285.44
645.809	280.44
646.014	291.44
646.219	290.44
646.423	300.44
646.628	290.44
646.833	289.44
647.038	281.44
647.243	282.44
647.447	298.44
647.652	285.44
647.857	287.44
648.062	288.44
648.266	295.44
648.471	302.44
648.676	295.44
648.88	280.44
649.085	303.44
649.289	292.44
649.494	308.44
649.698	288.44
649.903	290.44
650.107	296.44
650.312	270.44
650.516	283.44
650.721	266.44
650.925	274.44
651.13	281.44
651.334	273.44
651.539	267.44
651.743	268.44
651.947	251.44
652.152	258.44
652.356	256.44
652.56	260.44
652.764	265.44
652.969	287.44
653.173	254.44
653.377	268.44
653.581	261.44
653.785	235.44
653.99	244.44
654.194	248.44
654.398	235.44
654.602	266.44
654.806	253.44
655.01	246.44
655.214	256.44
655.418	248.44
655.622	249.44
655.826	233.44
656.03	234.44
656.234	237.44
656.438	249.44
656.642	261.44
656.846	239.44
657.049	221.44
657.253	217.44
657.457	218.44
657.661	196.44
657.865	191.44
658.068	165.44
658.272	159.44
658.476	172.44
658.68	163.44
658.883	163.44
659.087	153.44
659.291	157.44
659.494	148.44
659.698	152.44
659.901	136.44
660.105	138.44
660.309	119.44
660.512	116.44
660.716	123.44
660.919	119.44
661.123	103.44
661.326	110.44
661.53	105.44
661.733	104.44
661.936	102.44
662.14	101.44
662.343	91.44
662.546	109.44
662.75	89.44
662.953	88.44
663.156	91.44
663.36	81.44
663.563	78.44
663.766	105.44
663.969	89.44
664.173	75.44
664.376	98.44
664.579	99.44
664.782	72.44
664.985	87.44
665.188	86.44
665.391	88.44
665.594	91.44
665.797	78.44
666	88.44
666.203	94.44
666.406	76.44
666.609	65.44
666.812	90.44
667.015	89.44
667.218	88.44
667.421	88.44
667.624	94.44
667.827	77.44
668.03	88.44
668.232	69.44
668.435	78.44
668.638	98.44
668.841	75.44
669.043	84.44
669.246	88.44
669.449	70.44
669.651	78.44
669.854	85.44
670.057	72.44
670.259	80.44
670.462	89.44
670.665	78.44
670.867	90.44
671.07	81.44
671.272	78.44
671.475	83.44
671.677	88.44
671.88	73.44
672.082	75.44
672.284	89.44
672.487	76.44
672.689	90.44
672.892	81.44
