Data from Ni(NO3)2@0.0625M.TitratingCurve.Agarose3%dH2O.NegLispCup.LampEnergy10.LIBS07252019_HRD10591_18-13-46-569.txt Node
Date: Thu Jul 25 18:13:46 EDT 2019
User: cochatt
Spectrometer: HR+D1059
Trigger mode: 1
Integration Time (sec): 1.000000E-1
Scans to average: 1
Electric dark correction enabled: true
Nonlinearity correction enabled: false
Boxcar width: 0
XAxis mode: Wavelengths
Number of Pixels in Spectrum: 2048
>>>>>Begin Spectral Data<<<<<
223.165	-13.25
223.4	-13.25
223.635	-13.25
223.869	-12.25
224.104	-12.25
224.338	-21.25
224.573	-9.25
224.808	-26.25
225.042	0.75
225.277	-6.25
225.511	-11.25
225.746	9.75
225.98	1.75
226.215	10.75
226.449	6.75
226.683	19.75
226.918	34.75
227.152	27.75
227.387	37.75
227.621	38.75
227.856	54.75
228.09	48.75
228.324	61.75
228.559	72.75
228.793	65.75
229.027	96.75
229.262	105.75
229.496	95.75
229.73	109.75
229.964	105.75
230.199	127.75
230.433	116.75
230.667	118.75
230.901	116.75
231.136	122.75
231.37	128.75
231.604	125.75
231.838	141.75
232.072	133.75
232.306	128.75
232.541	141.75
232.775	133.75
233.009	126.75
233.243	134.75
233.477	130.75
233.711	143.75
233.945	140.75
234.179	141.75
234.413	133.75
234.647	145.75
234.881	130.75
235.115	131.75
235.349	128.75
235.583	139.75
235.817	139.75
236.051	158.75
236.285	152.75
236.519	152.75
236.753	142.75
236.987	132.75
237.221	133.75
237.455	158.75
237.689	136.75
237.922	138.75
238.156	142.75
238.39	149.75
238.624	152.75
238.858	161.75
239.091	152.75
239.325	149.75
239.559	162.75
239.793	157.75
240.027	137.75
240.26	146.75
240.494	152.75
240.728	160.75
240.961	164.75
241.195	172.75
241.429	156.75
241.662	176.75
241.896	173.75
242.13	176.75
242.363	168.75
242.597	172.75
242.83	183.75
243.064	187.75
243.298	173.75
243.531	187.75
243.765	188.75
243.998	199.75
244.232	185.75
244.465	169.75
244.699	169.75
244.932	184.75
245.166	184.75
245.399	183.75
245.633	194.75
245.866	193.75
246.099	204.75
246.333	189.75
246.566	204.75
246.8	198.75
247.033	213.75
247.266	201.75
247.5	208.75
247.733	219.75
247.966	192.75
248.2	200.75
248.433	209.75
248.666	208.75
248.899	209.75
249.133	217.75
249.366	237.75
249.599	217.75
249.832	210.75
250.066	223.75
250.299	211.75
250.532	222.75
250.765	231.75
250.998	219.75
251.231	210.75
251.465	229.75
251.698	228.75
251.931	226.75
252.164	231.75
252.397	236.75
252.63	219.75
252.863	252.75
253.096	214.75
253.329	243.75
253.562	241.75
253.795	233.75
254.028	228.75
254.261	236.75
254.494	247.75
254.727	242.75
254.96	241.75
255.193	257.75
255.426	232.75
255.659	234.75
255.892	245.75
256.124	259.75
256.357	259.75
256.59	235.75
256.823	248.75
257.056	253.75
257.289	255.75
257.521	254.75
257.754	263.75
257.987	251.75
258.22	261.75
258.452	256.75
258.685	252.75
258.918	281.75
259.151	268.75
259.383	269.75
259.616	268.75
259.849	274.75
260.081	278.75
260.314	275.75
260.547	280.75
260.779	278.75
261.012	280.75
261.244	272.75
261.477	289.75
261.71	280.75
261.942	271.75
262.175	297.75
262.407	277.75
262.64	286.75
262.872	288.75
263.105	290.75
263.337	295.75
263.57	295.75
263.802	293.75
264.035	303.75
264.267	313.75
264.499	296.75
264.732	300.75
264.964	306.75
265.197	308.75
265.429	309.75
265.661	309.75
265.894	298.75
266.126	305.75
266.358	315.75
266.591	324.75
266.823	321.75
267.055	304.75
267.287	307.75
267.52	300.75
267.752	318.75
267.984	304.75
268.216	309.75
268.448	306.75
268.681	324.75
268.913	309.75
269.145	322.75
269.377	318.75
269.609	304.75
269.841	318.75
270.073	316.75
270.306	334.75
270.538	345.75
270.77	334.75
271.002	316.75
271.234	331.75
271.466	332.75
271.698	318.75
271.93	349.75
272.162	362.75
272.394	342.75
272.626	349.75
272.858	332.75
273.09	340.75
273.322	351.75
273.553	344.75
273.785	339.75
274.017	343.75
274.249	347.75
274.481	353.75
274.713	349.75
274.945	337.75
275.176	356.75
275.408	348.75
275.64	349.75
275.872	350.75
276.104	368.75
276.335	340.75
276.567	368.75
276.799	351.75
277.031	370.75
277.262	378.75
277.494	352.75
277.726	376.75
277.957	358.75
278.189	372.75
278.421	365.75
278.652	360.75
278.884	376.75
279.115	366.75
279.347	364.75
279.579	386.75
279.81	377.75
280.042	395.75
280.273	384.75
280.505	358.75
280.736	378.75
280.968	393.75
281.199	394.75
281.431	386.75
281.662	393.75
281.894	388.75
282.125	389.75
282.356	394.75
282.588	397.75
282.819	392.75
283.051	395.75
283.282	405.75
283.513	392.75
283.745	384.75
283.976	412.75
284.207	413.75
284.439	406.75
284.67	411.75
284.901	411.75
285.132	422.75
285.364	421.75
285.595	403.75
285.826	422.75
286.057	417.75
286.288	411.75
286.52	450.75
286.751	426.75
286.982	416.75
287.213	442.75
287.444	420.75
287.675	435.75
287.906	425.75
288.138	417.75
288.369	432.75
288.6	440.75
288.831	450.75
289.062	452.75
289.293	439.75
289.524	426.75
289.755	445.75
289.986	446.75
290.217	454.75
290.448	451.75
290.679	448.75
290.91	465.75
291.141	429.75
291.371	438.75
291.602	450.75
291.833	448.75
292.064	441.75
292.295	453.75
292.526	460.75
292.757	448.75
292.987	453.75
293.218	447.75
293.449	457.75
293.68	459.75
293.91	445.75
294.141	433.75
294.372	446.75
294.603	452.75
294.833	454.75
295.064	468.75
295.295	456.75
295.525	482.75
295.756	476.75
295.987	464.75
296.217	461.75
296.448	469.75
296.679	473.75
296.909	477.75
297.14	489.75
297.37	492.75
297.601	491.75
297.831	481.75
298.062	478.75
298.292	524.75
298.523	500.75
298.753	493.75
298.984	506.75
299.214	494.75
299.445	496.75
299.675	487.75
299.905	494.75
300.136	503.75
300.366	504.75
300.597	486.75
300.827	512.75
301.057	524.75
301.288	534.75
301.518	511.75
301.748	512.75
301.979	499.75
302.209	496.75
302.439	506.75
302.669	508.75
302.9	528.75
303.13	509.75
303.36	519.75
303.59	515.75
303.82	502.75
304.051	526.75
304.281	517.75
304.511	503.75
304.741	501.75
304.971	508.75
305.201	502.75
305.431	509.75
305.661	498.75
305.891	474.75
306.121	502.75
306.352	501.75
306.582	477.75
306.812	498.75
307.042	491.75
307.272	483.75
307.502	466.75
307.731	489.75
307.961	484.75
308.191	510.75
308.421	494.75
308.651	481.75
308.881	497.75
309.111	493.75
309.341	482.75
309.571	477.75
309.8	484.75
310.03	489.75
310.26	479.75
310.49	500.75
310.72	493.75
310.949	502.75
311.179	486.75
311.409	493.75
311.639	493.75
311.868	521.75
312.098	489.75
312.328	493.75
312.557	524.75
312.787	508.75
313.017	514.75
313.246	517.75
313.476	526.75
313.706	533.75
313.935	526.75
314.165	526.75
314.394	537.75
314.624	541.75
314.853	491.75
315.083	538.75
315.312	503.75
315.542	505.75
315.771	510.75
316.001	542.75
316.23	514.75
316.46	528.75
316.689	530.75
316.919	505.75
317.148	518.75
317.377	529.75
317.607	510.75
317.836	510.75
318.065	502.75
318.295	501.75
318.524	550.75
318.753	508.75
318.983	505.75
319.212	508.75
319.441	505.75
319.67	512.75
319.9	522.75
320.129	517.75
320.358	504.75
320.587	514.75
320.816	517.75
321.046	515.75
321.275	508.75
321.504	511.75
321.733	516.75
321.962	530.75
322.191	534.75
322.42	515.75
322.649	498.75
322.878	548.75
323.108	534.75
323.337	545.75
323.566	508.75
323.795	535.75
324.024	541.75
324.253	535.75
324.482	527.75
324.71	543.75
324.939	533.75
325.168	545.75
325.397	553.75
325.626	542.75
325.855	530.75
326.084	549.75
326.313	566.75
326.542	567.75
326.77	596.75
326.999	583.75
327.228	546.75
327.457	561.75
327.686	570.75
327.914	577.75
328.143	573.75
328.372	562.75
328.6	541.75
328.829	564.75
329.058	553.75
329.287	567.75
329.515	557.75
329.744	593.75
329.972	547.75
330.201	577.75
330.43	602.75
330.658	571.75
330.887	605.75
331.115	590.75
331.344	591.75
331.572	591.75
331.801	602.75
332.03	636.75
332.258	665.75
332.486	669.75
332.715	685.75
332.943	718.75
333.172	733.75
333.4	759.75
333.629	784.75
333.857	794.75
334.085	746.75
334.314	739.75
334.542	738.75
334.771	712.75
334.999	708.75
335.227	714.75
335.455	694.75
335.684	709.75
335.912	717.75
336.14	677.75
336.369	660.75
336.597	658.75
336.825	674.75
337.053	689.75
337.281	667.75
337.51	650.75
337.738	645.75
337.966	660.75
338.194	637.75
338.422	611.75
338.65	642.75
338.878	622.75
339.106	616.75
339.334	609.75
339.562	575.75
339.79	596.75
340.018	628.75
340.246	588.75
340.474	568.75
340.702	594.75
340.93	610.75
341.158	579.75
341.386	596.75
341.614	594.75
341.842	576.75
342.07	593.75
342.298	577.75
342.526	590.75
342.754	585.75
342.981	596.75
343.209	606.75
343.437	629.75
343.665	667.75
343.893	733.75
344.12	788.75
344.348	710.75
344.576	671.75
344.804	655.75
345.031	637.75
345.259	622.75
345.487	582.75
345.714	621.75
345.942	600.75
346.17	586.75
346.397	606.75
346.625	585.75
346.853	564.75
347.08	586.75
347.308	602.75
347.535	599.75
347.763	596.75
347.99	602.75
348.218	597.75
348.445	596.75
348.673	587.75
348.9	580.75
349.128	570.75
349.355	562.75
349.583	556.75
349.81	583.75
350.037	548.75
350.265	544.75
350.492	567.75
350.72	574.75
350.947	553.75
351.174	554.75
351.402	555.75
351.629	551.75
351.856	568.75
352.083	574.75
352.311	551.75
352.538	550.75
352.765	530.75
352.992	557.75
353.22	525.75
353.447	552.75
353.674	552.75
353.901	552.75
354.128	557.75
354.355	555.75
354.583	548.75
354.81	558.75
355.037	566.75
355.264	556.75
355.491	565.75
355.718	570.75
355.945	582.75
356.172	587.75
356.399	571.75
356.626	547.75
356.853	555.75
357.08	561.75
357.307	562.75
357.534	538.75
357.761	557.75
357.988	583.75
358.215	554.75
358.441	574.75
358.668	540.75
358.895	570.75
359.122	572.75
359.349	566.75
359.576	548.75
359.802	560.75
360.029	569.75
360.256	568.75
360.483	561.75
360.709	558.75
360.936	568.75
361.163	562.75
361.39	552.75
361.616	568.75
361.843	561.75
362.07	550.75
362.296	534.75
362.523	564.75
362.749	545.75
362.976	563.75
363.203	538.75
363.429	556.75
363.656	530.75
363.882	555.75
364.109	537.75
364.335	539.75
364.562	557.75
364.788	525.75
365.015	546.75
365.241	541.75
365.468	539.75
365.694	563.75
365.92	554.75
366.147	570.75
366.373	562.75
366.599	545.75
366.826	560.75
367.052	556.75
367.278	579.75
367.505	580.75
367.731	582.75
367.957	553.75
368.184	578.75
368.41	551.75
368.636	572.75
368.862	572.75
369.089	565.75
369.315	595.75
369.541	577.75
369.767	594.75
369.993	565.75
370.219	594.75
370.445	595.75
370.672	582.75
370.898	585.75
371.124	610.75
371.35	635.75
371.576	611.75
371.802	619.75
372.028	596.75
372.254	573.75
372.48	601.75
372.706	650.75
372.932	615.75
373.158	630.75
373.384	618.75
373.61	615.75
373.835	585.75
374.061	607.75
374.287	616.75
374.513	636.75
374.739	633.75
374.965	666.75
375.191	680.75
375.416	678.75
375.642	660.75
375.868	668.75
376.094	643.75
376.319	630.75
376.545	625.75
376.771	589.75
376.997	598.75
377.222	633.75
377.448	587.75
377.674	598.75
377.899	615.75
378.125	601.75
378.35	605.75
378.576	587.75
378.802	589.75
379.027	610.75
379.253	597.75
379.478	602.75
379.704	613.75
379.929	605.75
380.155	593.75
380.38	600.75
380.606	607.75
380.831	600.75
381.057	612.75
381.282	585.75
381.507	608.75
381.733	593.75
381.958	611.75
382.184	609.75
382.409	627.75
382.634	640.75
382.86	638.75
383.085	655.75
383.31	642.75
383.535	674.75
383.761	672.75
383.986	689.75
384.211	698.75
384.436	701.75
384.662	738.75
384.887	739.75
385.112	736.75
385.337	727.75
385.562	728.75
385.787	719.75
386.013	735.75
386.238	740.75
386.463	747.75
386.688	727.75
386.913	704.75
387.138	711.75
387.363	706.75
387.588	682.75
387.813	718.75
388.038	727.75
388.263	718.75
388.488	706.75
388.713	729.75
388.938	697.75
389.163	695.75
389.387	712.75
389.612	701.75
389.837	707.75
390.062	711.75
390.287	735.75
390.512	727.75
390.736	720.75
390.961	734.75
391.186	741.75
391.411	737.75
391.636	782.75
391.86	821.75
392.085	826.75
392.31	826.75
392.534	802.75
392.759	768.75
392.984	788.75
393.208	732.75
393.433	785.75
393.658	776.75
393.882	786.75
394.107	773.75
394.331	779.75
394.556	788.75
394.78	787.75
395.005	791.75
395.229	766.75
395.454	821.75
395.678	826.75
395.903	826.75
396.127	808.75
396.352	805.75
396.576	740.75
396.801	765.75
397.025	754.75
397.249	802.75
397.474	807.75
397.698	810.75
397.922	805.75
398.147	811.75
398.371	812.75
398.595	845.75
398.82	866.75
399.044	965.75
399.268	1020.75
399.492	1205.75
399.717	1421.75
399.941	1410.75
400.165	1244.75
400.389	1068.75
400.613	996.75
400.837	966.75
401.062	909.75
401.286	929.75
401.51	916.75
401.734	896.75
401.958	921.75
402.182	938.75
402.406	972.75
402.63	948.75
402.854	966.75
403.078	948.75
403.302	1011.75
403.526	1042.75
403.75	1070.75
403.974	1095.75
404.198	1070.75
404.422	1085.75
404.645	1097.75
404.869	1049.75
405.093	1052.75
405.317	1003.75
405.541	1044.75
405.765	998.75
405.988	1019.75
406.212	957.75
406.436	1000.75
406.66	1028.75
406.883	1042.75
407.107	1113.75
407.331	1177.75
407.555	1212.75
407.778	1198.75
408.002	1172.75
408.226	1114.75
408.449	1074.75
408.673	1069.75
408.896	1064.75
409.12	1024.75
409.344	1074.75
409.567	1051.75
409.791	1081.75
410.014	1028.75
410.238	1050.75
410.461	1046.75
410.685	1027.75
410.908	997.75
411.132	983.75
411.355	962.75
411.578	950.75
411.802	975.75
412.025	965.75
412.249	962.75
412.472	931.75
412.695	936.75
412.919	884.75
413.142	890.75
413.365	914.75
413.589	934.75
413.812	878.75
414.035	903.75
414.258	886.75
414.482	909.75
414.705	941.75
414.928	931.75
415.151	904.75
415.374	906.75
415.597	909.75
415.821	899.75
416.044	889.75
416.267	924.75
416.49	865.75
416.713	896.75
416.936	919.75
417.159	886.75
417.382	906.75
417.605	913.75
417.828	921.75
418.051	903.75
418.274	924.75
418.497	908.75
418.72	899.75
418.943	932.75
419.166	988.75
419.389	1056.75
419.611	1022.75
419.834	992.75
420.057	962.75
420.28	922.75
420.503	877.75
420.726	886.75
420.948	864.75
421.171	896.75
421.394	896.75
421.617	875.75
421.839	908.75
422.062	925.75
422.285	882.75
422.507	903.75
422.73	934.75
422.953	972.75
423.175	968.75
423.398	967.75
423.621	987.75
423.843	1009.75
424.066	974.75
424.288	982.75
424.511	952.75
424.733	949.75
424.956	940.75
425.178	920.75
425.401	911.75
425.623	889.75
425.846	885.75
426.068	857.75
426.291	855.75
426.513	833.75
426.735	853.75
426.958	855.75
427.18	824.75
427.402	859.75
427.625	825.75
427.847	814.75
428.069	786.75
428.292	829.75
428.514	813.75
428.736	776.75
428.958	783.75
429.181	768.75
429.403	782.75
429.625	792.75
429.847	798.75
430.069	800.75
430.292	785.75
430.514	775.75
430.736	779.75
430.958	790.75
431.18	805.75
431.402	792.75
431.624	808.75
431.846	798.75
432.068	821.75
432.29	806.75
432.512	784.75
432.734	822.75
432.956	835.75
433.178	816.75
433.4	813.75
433.622	802.75
433.844	805.75
434.066	844.75
434.287	826.75
434.509	855.75
434.731	888.75
434.953	919.75
435.175	925.75
435.397	878.75
435.618	877.75
435.84	844.75
436.062	813.75
436.284	816.75
436.505	779.75
436.727	797.75
436.949	809.75
437.17	811.75
437.392	779.75
437.614	795.75
437.835	769.75
438.057	807.75
438.278	731.75
438.5	762.75
438.721	776.75
438.943	793.75
439.165	781.75
439.386	796.75
439.608	805.75
439.829	822.75
440.05	816.75
440.272	841.75
440.493	795.75
440.715	830.75
440.936	844.75
441.158	837.75
441.379	869.75
441.6	917.75
441.822	921.75
442.043	933.75
442.264	898.75
442.486	883.75
442.707	893.75
442.928	895.75
443.149	898.75
443.371	905.75
443.592	926.75
443.813	893.75
444.034	920.75
444.255	976.75
444.476	991.75
444.698	1091.75
444.919	1138.75
445.14	1144.75
445.361	1038.75
445.582	948.75
445.803	893.75
446.024	850.75
446.245	845.75
446.466	834.75
446.687	820.75
446.908	827.75
447.129	839.75
447.35	765.75
447.571	792.75
447.792	765.75
448.013	767.75
448.234	770.75
448.455	756.75
448.675	749.75
448.896	744.75
449.117	744.75
449.338	745.75
449.559	725.75
449.779	715.75
450	727.75
450.221	724.75
450.442	729.75
450.662	741.75
450.883	760.75
451.104	770.75
451.324	776.75
451.545	774.75
451.766	781.75
451.986	735.75
452.207	745.75
452.428	743.75
452.648	732.75
452.869	730.75
453.089	733.75
453.31	742.75
453.53	728.75
453.751	732.75
453.971	733.75
454.192	728.75
454.412	705.75
454.633	708.75
454.853	724.75
455.073	679.75
455.294	721.75
455.514	683.75
455.734	708.75
455.955	680.75
456.175	702.75
456.395	690.75
456.616	664.75
456.836	705.75
457.056	696.75
457.276	679.75
457.497	686.75
457.717	708.75
457.937	678.75
458.157	679.75
458.377	712.75
458.598	723.75
458.818	723.75
459.038	778.75
459.258	786.75
459.478	793.75
459.698	841.75
459.918	860.75
460.138	887.75
460.358	976.75
460.578	990.75
460.798	985.75
461.018	996.75
461.238	957.75
461.458	955.75
461.678	921.75
461.898	948.75
462.118	981.75
462.338	1027.75
462.558	1048.75
462.777	1077.75
462.997	1217.75
463.217	1314.75
463.437	1349.75
463.657	1218.75
463.876	1123.75
464.096	1126.75
464.316	1147.75
464.536	1163.75
464.755	1122.75
464.975	1066.75
465.195	997.75
465.414	912.75
465.634	876.75
465.854	846.75
466.073	828.75
466.293	840.75
466.512	793.75
466.732	796.75
466.951	779.75
467.171	778.75
467.391	778.75
467.61	785.75
467.829	790.75
468.049	756.75
468.268	746.75
468.488	739.75
468.707	762.75
468.927	746.75
469.146	734.75
469.365	748.75
469.585	767.75
469.804	796.75
470.023	790.75
470.243	816.75
470.462	806.75
470.681	803.75
470.901	804.75
471.12	790.75
471.339	792.75
471.558	760.75
471.777	768.75
471.997	774.75
472.216	741.75
472.435	734.75
472.654	714.75
472.873	736.75
473.092	722.75
473.311	738.75
473.53	719.75
473.749	718.75
473.968	738.75
474.187	726.75
474.406	712.75
474.625	700.75
474.844	740.75
475.063	738.75
475.282	713.75
475.501	696.75
475.72	729.75
475.939	733.75
476.158	745.75
476.377	744.75
476.596	788.75
476.814	756.75
477.033	769.75
477.252	788.75
477.471	774.75
477.69	820.75
477.908	813.75
478.127	830.75
478.346	872.75
478.564	900.75
478.783	894.75
479.002	905.75
479.22	899.75
479.439	920.75
479.658	918.75
479.876	894.75
480.095	917.75
480.313	947.75
480.532	961.75
480.751	1013.75
480.969	934.75
481.188	894.75
481.406	870.75
481.624	850.75
481.843	840.75
482.061	816.75
482.28	841.75
482.498	801.75
482.717	828.75
482.935	838.75
483.153	797.75
483.372	801.75
483.59	832.75
483.808	813.75
484.027	829.75
484.245	830.75
484.463	817.75
484.681	852.75
484.9	869.75
485.118	819.75
485.336	877.75
485.554	891.75
485.772	848.75
485.99	879.75
486.209	885.75
486.427	892.75
486.645	882.75
486.863	885.75
487.081	865.75
487.299	874.75
487.517	842.75
487.735	851.75
487.953	848.75
488.171	879.75
488.389	867.75
488.607	845.75
488.825	841.75
489.043	835.75
489.261	838.75
489.479	853.75
489.696	858.75
489.914	865.75
490.132	844.75
490.35	848.75
490.568	846.75
490.786	846.75
491.003	856.75
491.221	890.75
491.439	876.75
491.657	854.75
491.874	882.75
492.092	862.75
492.31	857.75
492.527	892.75
492.745	899.75
492.963	901.75
493.18	898.75
493.398	908.75
493.615	906.75
493.833	907.75
494.05	958.75
494.268	911.75
494.485	944.75
494.703	912.75
494.92	907.75
495.138	900.75
495.355	920.75
495.573	904.75
495.79	930.75
496.008	925.75
496.225	922.75
496.442	933.75
496.66	947.75
496.877	960.75
497.094	961.75
497.312	998.75
497.529	983.75
497.746	997.75
497.963	1065.75
498.181	1112.75
498.398	1145.75
498.615	1195.75
498.832	1318.75
499.049	1384.75
499.267	1500.75
499.484	1685.75
499.701	1904.75
499.918	2101.75
500.135	2401.75
500.352	2849.75
500.569	2975.75
500.786	2968.75
501.003	2708.75
501.22	2397.75
501.437	2118.75
501.654	1774.75
501.871	1605.75
502.088	1474.75
502.305	1389.75
502.522	1300.75
502.739	1253.75
502.956	1204.75
503.172	1148.75
503.389	1089.75
503.606	1069.75
503.823	1061.75
504.04	1053.75
504.256	1044.75
504.473	1074.75
504.69	1134.75
504.907	1108.75
505.123	999.75
505.34	973.75
505.557	946.75
505.773	923.75
505.99	853.75
506.207	865.75
506.423	852.75
506.64	837.75
506.856	817.75
507.073	829.75
507.289	808.75
507.506	814.75
507.722	804.75
507.939	803.75
508.155	788.75
508.372	791.75
508.588	784.75
508.805	747.75
509.021	774.75
509.238	772.75
509.454	786.75
509.67	780.75
509.887	752.75
510.103	780.75
510.319	778.75
510.536	776.75
510.752	743.75
510.968	753.75
511.184	747.75
511.401	753.75
511.617	758.75
511.833	752.75
512.049	733.75
512.265	738.75
512.481	718.75
512.698	717.75
512.914	725.75
513.13	734.75
513.346	754.75
513.562	744.75
513.778	768.75
513.994	744.75
514.21	762.75
514.426	735.75
514.642	754.75
514.858	774.75
515.074	773.75
515.29	793.75
515.506	768.75
515.721	797.75
515.937	800.75
516.153	805.75
516.369	829.75
516.585	852.75
516.801	882.75
517.016	924.75
517.232	987.75
517.448	1021.75
517.664	1082.75
517.879	1090.75
518.095	1077.75
518.311	1072.75
518.527	995.75
518.742	938.75
518.958	929.75
519.173	881.75
519.389	874.75
519.605	826.75
519.82	811.75
520.036	798.75
520.251	772.75
520.467	772.75
520.682	746.75
520.898	749.75
521.113	730.75
521.329	717.75
521.544	726.75
521.76	735.75
521.975	724.75
522.19	717.75
522.406	710.75
522.621	713.75
522.836	700.75
523.052	707.75
523.267	694.75
523.482	684.75
523.698	698.75
523.913	708.75
524.128	683.75
524.343	673.75
524.559	704.75
524.774	674.75
524.989	685.75
525.204	700.75
525.419	676.75
525.634	654.75
525.849	679.75
526.064	669.75
526.28	696.75
526.495	704.75
526.71	682.75
526.925	690.75
527.14	680.75
527.355	688.75
527.57	688.75
527.785	680.75
527.999	670.75
528.214	704.75
528.429	708.75
528.644	664.75
528.859	674.75
529.074	678.75
529.289	681.75
529.503	692.75
529.718	674.75
529.933	685.75
530.148	688.75
530.363	680.75
530.577	687.75
530.792	633.75
531.007	681.75
531.221	700.75
531.436	672.75
531.651	676.75
531.865	667.75
532.08	677.75
532.295	683.75
532.509	685.75
532.724	673.75
532.938	685.75
533.153	698.75
533.367	661.75
533.582	685.75
533.796	683.75
534.011	697.75
534.225	679.75
534.44	672.75
534.654	653.75
534.868	660.75
535.083	701.75
535.297	658.75
535.511	654.75
535.726	662.75
535.94	644.75
536.154	637.75
536.369	648.75
536.583	642.75
536.797	622.75
537.011	613.75
537.225	633.75
537.44	624.75
537.654	632.75
537.868	617.75
538.082	624.75
538.296	620.75
538.51	624.75
538.724	642.75
538.938	625.75
539.153	644.75
539.367	613.75
539.581	628.75
539.795	597.75
540.009	607.75
540.222	628.75
540.436	606.75
540.65	586.75
540.864	615.75
541.078	612.75
541.292	617.75
541.506	612.75
541.72	611.75
541.934	597.75
542.147	605.75
542.361	590.75
542.575	597.75
542.789	595.75
543.002	592.75
543.216	604.75
543.43	613.75
543.644	614.75
543.857	593.75
544.071	596.75
544.285	609.75
544.498	587.75
544.712	585.75
544.925	605.75
545.139	600.75
545.352	625.75
545.566	608.75
545.779	597.75
545.993	611.75
546.206	650.75
546.42	634.75
546.633	613.75
546.847	610.75
547.06	635.75
547.274	626.75
547.487	622.75
547.7	634.75
547.914	613.75
548.127	634.75
548.34	615.75
548.554	614.75
548.767	621.75
548.98	613.75
549.193	629.75
549.407	624.75
549.62	620.75
549.833	670.75
550.046	653.75
550.259	646.75
550.473	617.75
550.686	640.75
550.899	608.75
551.112	601.75
551.325	581.75
551.538	612.75
551.751	610.75
551.964	610.75
552.177	615.75
552.39	618.75
552.603	643.75
552.816	672.75
553.029	691.75
553.242	692.75
553.455	691.75
553.667	726.75
553.88	670.75
554.093	661.75
554.306	610.75
554.519	610.75
554.732	634.75
554.944	606.75
555.157	604.75
555.37	593.75
555.583	586.75
555.795	587.75
556.008	564.75
556.221	548.75
556.433	545.75
556.646	548.75
556.859	554.75
557.071	562.75
557.284	541.75
557.496	550.75
557.709	525.75
557.921	516.75
558.134	520.75
558.346	533.75
558.559	525.75
558.771	518.75
558.984	522.75
559.196	538.75
559.409	506.75
559.621	511.75
559.833	502.75
560.046	508.75
560.258	525.75
560.47	504.75
560.683	534.75
560.895	509.75
561.107	500.75
561.32	505.75
561.532	524.75
561.744	516.75
561.956	494.75
562.168	504.75
562.381	530.75
562.593	518.75
562.805	532.75
563.017	540.75
563.229	510.75
563.441	533.75
563.653	519.75
563.865	524.75
564.077	530.75
564.289	541.75
564.501	544.75
564.713	554.75
564.925	564.75
565.137	530.75
565.349	570.75
565.561	590.75
565.773	614.75
565.985	634.75
566.197	657.75
566.408	718.75
566.62	773.75
566.832	854.75
567.044	886.75
567.255	859.75
567.467	860.75
567.679	930.75
567.891	1016.75
568.102	1056.75
568.314	1018.75
568.526	865.75
568.737	796.75
568.949	726.75
569.161	676.75
569.372	628.75
569.584	583.75
569.795	569.75
570.007	563.75
570.218	550.75
570.43	547.75
570.641	532.75
570.853	539.75
571.064	550.75
571.276	523.75
571.487	520.75
571.698	500.75
571.91	492.75
572.121	474.75
572.333	473.75
572.544	453.75
572.755	451.75
572.966	477.75
573.178	457.75
573.389	461.75
573.6	464.75
573.811	442.75
574.023	436.75
574.234	422.75
574.445	426.75
574.656	426.75
574.867	427.75
575.078	442.75
575.289	420.75
575.501	429.75
575.712	420.75
575.923	407.75
576.134	410.75
576.345	408.75
576.556	404.75
576.767	405.75
576.978	394.75
577.188	376.75
577.399	396.75
577.61	402.75
577.821	384.75
578.032	386.75
578.243	378.75
578.454	401.75
578.665	392.75
578.875	404.75
579.086	364.75
579.297	368.75
579.508	378.75
579.718	399.75
579.929	384.75
580.14	375.75
580.35	384.75
580.561	376.75
580.772	380.75
580.982	363.75
581.193	372.75
581.403	372.75
581.614	388.75
581.825	353.75
582.035	374.75
582.246	362.75
582.456	372.75
582.667	382.75
582.877	358.75
583.087	348.75
583.298	358.75
583.508	378.75
583.719	363.75
583.929	360.75
584.139	360.75
584.35	364.75
584.56	349.75
584.77	372.75
584.981	357.75
585.191	362.75
585.401	337.75
585.611	351.75
585.821	357.75
586.032	349.75
586.242	361.75
586.452	350.75
586.662	338.75
586.872	341.75
587.082	349.75
587.292	347.75
587.502	349.75
587.713	365.75
587.923	354.75
588.133	354.75
588.343	374.75
588.553	343.75
588.762	360.75
588.972	369.75
589.182	333.75
589.392	368.75
589.602	347.75
589.812	344.75
590.022	355.75
590.232	353.75
590.441	349.75
590.651	349.75
590.861	355.75
591.071	362.75
591.281	372.75
591.49	379.75
591.7	362.75
591.91	378.75
592.119	391.75
592.329	398.75
592.539	390.75
592.748	412.75
592.958	416.75
593.167	407.75
593.377	444.75
593.587	435.75
593.796	451.75
594.006	457.75
594.215	469.75
594.424	461.75
594.634	441.75
594.843	419.75
595.053	407.75
595.262	428.75
595.472	381.75
595.681	358.75
595.89	361.75
596.1	358.75
596.309	350.75
596.518	351.75
596.727	342.75
596.937	313.75
597.146	332.75
597.355	349.75
597.564	333.75
597.774	328.75
597.983	331.75
598.192	316.75
598.401	312.75
598.61	307.75
598.819	320.75
599.028	298.75
599.237	302.75
599.446	284.75
599.655	312.75
599.864	313.75
600.073	317.75
600.282	292.75
600.491	301.75
600.7	292.75
600.909	295.75
601.118	303.75
601.327	296.75
601.536	286.75
601.745	283.75
601.953	292.75
602.162	298.75
602.371	285.75
602.58	291.75
602.789	268.75
602.997	281.75
603.206	279.75
603.415	278.75
603.623	295.75
603.832	292.75
604.041	300.75
604.249	278.75
604.458	280.75
604.666	288.75
604.875	284.75
605.084	292.75
605.292	295.75
605.501	258.75
605.709	278.75
605.918	256.75
606.126	264.75
606.334	279.75
606.543	265.75
606.751	310.75
606.96	267.75
607.168	280.75
607.376	276.75
607.585	288.75
607.793	282.75
608.001	288.75
608.21	266.75
608.418	267.75
608.626	262.75
608.834	257.75
609.043	261.75
609.251	262.75
609.459	258.75
609.667	254.75
609.875	253.75
610.083	279.75
610.291	266.75
610.499	250.75
610.707	250.75
610.916	275.75
611.124	270.75
611.332	266.75
611.54	267.75
611.748	279.75
611.955	263.75
612.163	253.75
612.371	258.75
612.579	269.75
612.787	248.75
612.995	261.75
613.203	248.75
613.411	258.75
613.618	256.75
613.826	254.75
614.034	281.75
614.242	268.75
614.449	247.75
614.657	246.75
614.865	252.75
615.072	242.75
615.28	260.75
615.488	252.75
615.695	264.75
615.903	262.75
616.111	235.75
616.318	267.75
616.526	278.75
616.733	249.75
616.941	261.75
617.148	273.75
617.356	258.75
617.563	272.75
617.771	268.75
617.978	256.75
618.185	268.75
618.393	271.75
618.6	256.75
618.807	227.75
619.015	252.75
619.222	246.75
619.429	249.75
619.637	231.75
619.844	252.75
620.051	254.75
620.258	232.75
620.466	256.75
620.673	254.75
620.88	248.75
621.087	235.75
621.294	233.75
621.501	236.75
621.708	223.75
621.915	252.75
622.122	248.75
622.329	261.75
622.536	241.75
622.743	253.75
622.95	227.75
623.157	217.75
623.364	226.75
623.571	228.75
623.778	225.75
623.985	235.75
624.192	235.75
624.399	226.75
624.606	234.75
624.812	235.75
625.019	222.75
625.226	215.75
625.433	214.75
625.639	228.75
625.846	222.75
626.053	212.75
626.259	216.75
626.466	219.75
626.673	199.75
626.879	219.75
627.086	203.75
627.293	219.75
627.499	218.75
627.706	226.75
627.912	221.75
628.119	230.75
628.325	210.75
628.532	221.75
628.738	221.75
628.945	204.75
629.151	214.75
629.357	212.75
629.564	198.75
629.77	216.75
629.976	205.75
630.183	192.75
630.389	200.75
630.595	200.75
630.802	205.75
631.008	204.75
631.214	201.75
631.42	198.75
631.627	202.75
631.833	204.75
632.039	213.75
632.245	197.75
632.451	205.75
632.657	204.75
632.863	214.75
633.069	197.75
633.275	196.75
633.481	176.75
633.688	205.75
633.893	193.75
634.099	200.75
634.305	198.75
634.511	200.75
634.717	206.75
634.923	187.75
635.129	188.75
635.335	193.75
635.541	203.75
635.747	195.75
635.952	192.75
636.158	209.75
636.364	192.75
636.57	188.75
636.775	185.75
636.981	188.75
637.187	184.75
637.392	194.75
637.598	186.75
637.804	190.75
638.009	190.75
638.215	193.75
638.421	182.75
638.626	182.75
638.832	177.75
639.037	185.75
639.243	181.75
639.448	190.75
639.654	178.75
639.859	184.75
640.065	179.75
640.27	187.75
640.475	177.75
640.681	166.75
640.886	161.75
641.091	183.75
641.297	202.75
641.502	176.75
641.707	189.75
641.913	178.75
642.118	183.75
642.323	171.75
642.528	165.75
642.733	173.75
642.939	178.75
643.144	172.75
643.349	176.75
643.554	176.75
643.759	174.75
643.964	165.75
644.169	179.75
644.374	157.75
644.579	189.75
644.784	172.75
644.989	167.75
645.194	158.75
645.399	187.75
645.604	159.75
645.809	185.75
646.014	182.75
646.219	173.75
646.423	164.75
646.628	183.75
646.833	179.75
647.038	176.75
647.243	193.75
647.447	171.75
647.652	173.75
647.857	205.75
648.062	182.75
648.266	169.75
648.471	200.75
648.676	192.75
648.88	188.75
649.085	172.75
649.289	172.75
649.494	172.75
649.698	170.75
649.903	170.75
650.107	166.75
650.312	169.75
650.516	168.75
650.721	166.75
650.925	148.75
651.13	164.75
651.334	156.75
651.539	168.75
651.743	149.75
651.947	136.75
652.152	160.75
652.356	148.75
652.56	137.75
652.764	148.75
652.969	147.75
653.173	142.75
653.377	139.75
653.581	146.75
653.785	142.75
653.99	134.75
654.194	135.75
654.398	131.75
654.602	137.75
654.806	123.75
655.01	132.75
655.214	130.75
655.418	127.75
655.622	126.75
655.826	134.75
656.03	138.75
656.234	126.75
656.438	122.75
656.642	113.75
656.846	122.75
657.049	131.75
657.253	127.75
657.457	116.75
657.661	99.75
657.865	116.75
658.068	90.75
658.272	107.75
658.476	110.75
658.68	114.75
658.883	117.75
659.087	106.75
659.291	103.75
659.494	96.75
659.698	86.75
659.901	92.75
660.105	79.75
660.309	102.75
660.512	90.75
660.716	104.75
660.919	93.75
661.123	96.75
661.326	87.75
661.53	96.75
661.733	73.75
661.936	101.75
662.14	70.75
662.343	91.75
662.546	75.75
662.75	82.75
662.953	82.75
663.156	77.75
663.36	85.75
663.563	80.75
663.766	91.75
663.969	91.75
664.173	76.75
664.376	60.75
664.579	72.75
664.782	87.75
664.985	83.75
665.188	76.75
665.391	82.75
665.594	87.75
665.797	83.75
666	83.75
666.203	81.75
666.406	68.75
666.609	81.75
666.812	75.75
667.015	73.75
667.218	89.75
667.421	89.75
667.624	76.75
667.827	86.75
668.03	81.75
668.232	78.75
668.435	86.75
668.638	82.75
668.841	80.75
669.043	89.75
669.246	72.75
669.449	74.75
669.651	88.75
669.854	90.75
670.057	87.75
670.259	88.75
670.462	77.75
670.665	74.75
670.867	80.75
671.07	90.75
671.272	87.75
671.475	77.75
671.677	84.75
671.88	80.75
672.082	76.75
672.284	80.75
672.487	78.75
672.689	75.75
672.892	80.75
