Data from Ni(NO3)2@0.125M.TitratingCurve.Agarose3%dH2O.NegLispCup.LampEnergy10.LIBS07252019_HRD10591_18-10-41-568.txt Node
Date: Thu Jul 25 18:10:41 EDT 2019
User: cochatt
Spectrometer: HR+D1059
Trigger mode: 1
Integration Time (sec): 1.000000E-1
Scans to average: 1
Electric dark correction enabled: true
Nonlinearity correction enabled: false
Boxcar width: 0
XAxis mode: Wavelengths
Number of Pixels in Spectrum: 2048
>>>>>Begin Spectral Data<<<<<
223.165	-2.62
223.4	-2.62
223.635	-2.62
223.869	-16.62
224.104	-23.62
224.338	-7.62
224.573	-21.62
224.808	-4.62
225.042	-3.62
225.277	-0.62
225.511	-10.62
225.746	-0.62
225.98	10.38
226.215	12.38
226.449	14.38
226.683	13.38
226.918	28.38
227.152	13.38
227.387	40.38
227.621	33.38
227.856	35.38
228.09	52.38
228.324	49.38
228.559	49.38
228.793	57.38
229.027	97.38
229.262	98.38
229.496	109.38
229.73	86.38
229.964	108.38
230.199	118.38
230.433	121.38
230.667	113.38
230.901	116.38
231.136	103.38
231.37	128.38
231.604	119.38
231.838	115.38
232.072	121.38
232.306	135.38
232.541	124.38
232.775	130.38
233.009	146.38
233.243	133.38
233.477	128.38
233.711	144.38
233.945	142.38
234.179	131.38
234.413	136.38
234.647	133.38
234.881	134.38
235.115	128.38
235.349	133.38
235.583	120.38
235.817	132.38
236.051	138.38
236.285	125.38
236.519	146.38
236.753	143.38
236.987	148.38
237.221	145.38
237.455	144.38
237.689	136.38
237.922	137.38
238.156	142.38
238.39	132.38
238.624	151.38
238.858	144.38
239.091	147.38
239.325	154.38
239.559	158.38
239.793	152.38
240.027	152.38
240.26	168.38
240.494	156.38
240.728	155.38
240.961	155.38
241.195	161.38
241.429	176.38
241.662	163.38
241.896	174.38
242.13	175.38
242.363	177.38
242.597	173.38
242.83	166.38
243.064	166.38
243.298	185.38
243.531	174.38
243.765	201.38
243.998	179.38
244.232	177.38
244.465	172.38
244.699	191.38
244.932	190.38
245.166	172.38
245.399	195.38
245.633	192.38
245.866	180.38
246.099	191.38
246.333	185.38
246.566	196.38
246.8	202.38
247.033	189.38
247.266	198.38
247.5	224.38
247.733	186.38
247.966	210.38
248.2	198.38
248.433	211.38
248.666	204.38
248.899	200.38
249.133	210.38
249.366	206.38
249.599	208.38
249.832	216.38
250.066	218.38
250.299	216.38
250.532	211.38
250.765	220.38
250.998	208.38
251.231	218.38
251.465	225.38
251.698	242.38
251.931	246.38
252.164	229.38
252.397	228.38
252.63	234.38
252.863	228.38
253.096	223.38
253.329	222.38
253.562	229.38
253.795	234.38
254.028	234.38
254.261	247.38
254.494	238.38
254.727	252.38
254.96	242.38
255.193	254.38
255.426	242.38
255.659	240.38
255.892	258.38
256.124	247.38
256.357	249.38
256.59	245.38
256.823	275.38
257.056	255.38
257.289	270.38
257.521	266.38
257.754	272.38
257.987	255.38
258.22	268.38
258.452	264.38
258.685	248.38
258.918	254.38
259.151	281.38
259.383	265.38
259.616	286.38
259.849	279.38
260.081	281.38
260.314	275.38
260.547	261.38
260.779	273.38
261.012	262.38
261.244	286.38
261.477	276.38
261.71	281.38
261.942	284.38
262.175	287.38
262.407	267.38
262.64	277.38
262.872	284.38
263.105	282.38
263.337	297.38
263.57	294.38
263.802	285.38
264.035	276.38
264.267	282.38
264.499	299.38
264.732	310.38
264.964	290.38
265.197	284.38
265.429	309.38
265.661	328.38
265.894	305.38
266.126	326.38
266.358	309.38
266.591	317.38
266.823	322.38
267.055	307.38
267.287	309.38
267.52	328.38
267.752	332.38
267.984	306.38
268.216	328.38
268.448	328.38
268.681	349.38
268.913	321.38
269.145	322.38
269.377	321.38
269.609	324.38
269.841	323.38
270.073	326.38
270.306	322.38
270.538	329.38
270.77	300.38
271.002	335.38
271.234	326.38
271.466	329.38
271.698	316.38
271.93	324.38
272.162	338.38
272.394	343.38
272.626	342.38
272.858	325.38
273.09	347.38
273.322	346.38
273.553	340.38
273.785	365.38
274.017	358.38
274.249	349.38
274.481	350.38
274.713	366.38
274.945	348.38
275.176	349.38
275.408	342.38
275.64	353.38
275.872	365.38
276.104	339.38
276.335	345.38
276.567	375.38
276.799	374.38
277.031	377.38
277.262	368.38
277.494	383.38
277.726	368.38
277.957	384.38
278.189	381.38
278.421	385.38
278.652	379.38
278.884	370.38
279.115	392.38
279.347	377.38
279.579	393.38
279.81	400.38
280.042	388.38
280.273	376.38
280.505	380.38
280.736	368.38
280.968	374.38
281.199	398.38
281.431	393.38
281.662	437.38
281.894	393.38
282.125	393.38
282.356	414.38
282.588	408.38
282.819	421.38
283.051	395.38
283.282	400.38
283.513	399.38
283.745	417.38
283.976	413.38
284.207	398.38
284.439	405.38
284.67	414.38
284.901	420.38
285.132	419.38
285.364	412.38
285.595	418.38
285.826	416.38
286.057	405.38
286.288	419.38
286.52	403.38
286.751	415.38
286.982	445.38
287.213	420.38
287.444	428.38
287.675	444.38
287.906	424.38
288.138	446.38
288.369	450.38
288.6	460.38
288.831	441.38
289.062	460.38
289.293	456.38
289.524	439.38
289.755	455.38
289.986	447.38
290.217	441.38
290.448	445.38
290.679	447.38
290.91	451.38
291.141	464.38
291.371	458.38
291.602	444.38
291.833	459.38
292.064	468.38
292.295	444.38
292.526	439.38
292.757	448.38
292.987	431.38
293.218	461.38
293.449	453.38
293.68	465.38
293.91	453.38
294.141	457.38
294.372	470.38
294.603	472.38
294.833	442.38
295.064	462.38
295.295	474.38
295.525	472.38
295.756	442.38
295.987	464.38
296.217	470.38
296.448	471.38
296.679	471.38
296.909	471.38
297.14	472.38
297.37	512.38
297.601	472.38
297.831	486.38
298.062	472.38
298.292	503.38
298.523	517.38
298.753	494.38
298.984	466.38
299.214	502.38
299.445	512.38
299.675	485.38
299.905	487.38
300.136	472.38
300.366	500.38
300.597	494.38
300.827	500.38
301.057	506.38
301.288	530.38
301.518	517.38
301.748	504.38
301.979	526.38
302.209	530.38
302.439	510.38
302.669	511.38
302.9	512.38
303.13	525.38
303.36	522.38
303.59	489.38
303.82	508.38
304.051	514.38
304.281	507.38
304.511	528.38
304.741	524.38
304.971	510.38
305.201	502.38
305.431	513.38
305.661	504.38
305.891	504.38
306.121	493.38
306.352	469.38
306.582	504.38
306.812	490.38
307.042	506.38
307.272	522.38
307.502	514.38
307.731	493.38
307.961	502.38
308.191	486.38
308.421	480.38
308.651	490.38
308.881	511.38
309.111	508.38
309.341	497.38
309.571	516.38
309.8	486.38
310.03	496.38
310.26	508.38
310.49	498.38
310.72	508.38
310.949	514.38
311.179	525.38
311.409	518.38
311.639	532.38
311.868	522.38
312.098	525.38
312.328	522.38
312.557	508.38
312.787	507.38
313.017	523.38
313.246	560.38
313.476	537.38
313.706	541.38
313.935	529.38
314.165	536.38
314.394	545.38
314.624	543.38
314.853	560.38
315.083	529.38
315.312	538.38
315.542	534.38
315.771	541.38
316.001	538.38
316.23	523.38
316.46	512.38
316.689	513.38
316.919	532.38
317.148	531.38
317.377	527.38
317.607	545.38
317.836	516.38
318.065	504.38
318.295	533.38
318.524	538.38
318.753	532.38
318.983	538.38
319.212	532.38
319.441	526.38
319.67	515.38
319.9	520.38
320.129	542.38
320.358	510.38
320.587	526.38
320.816	535.38
321.046	530.38
321.275	533.38
321.504	520.38
321.733	544.38
321.962	534.38
322.191	551.38
322.42	562.38
322.649	529.38
322.878	534.38
323.108	523.38
323.337	541.38
323.566	545.38
323.795	571.38
324.024	565.38
324.253	548.38
324.482	564.38
324.71	540.38
324.939	574.38
325.168	544.38
325.397	570.38
325.626	572.38
325.855	585.38
326.084	591.38
326.313	613.38
326.542	593.38
326.77	590.38
326.999	591.38
327.228	590.38
327.457	568.38
327.686	579.38
327.914	596.38
328.143	610.38
328.372	601.38
328.6	600.38
328.829	605.38
329.058	600.38
329.287	580.38
329.515	601.38
329.744	606.38
329.972	611.38
330.201	601.38
330.43	617.38
330.658	613.38
330.887	613.38
331.115	613.38
331.344	620.38
331.572	626.38
331.801	629.38
332.03	686.38
332.258	663.38
332.486	694.38
332.715	714.38
332.943	733.38
333.172	768.38
333.4	818.38
333.629	822.38
333.857	825.38
334.085	786.38
334.314	770.38
334.542	746.38
334.771	737.38
334.999	744.38
335.227	756.38
335.455	727.38
335.684	734.38
335.912	718.38
336.14	734.38
336.369	718.38
336.597	709.38
336.825	726.38
337.053	716.38
337.281	709.38
337.51	688.38
337.738	678.38
337.966	672.38
338.194	667.38
338.422	650.38
338.65	616.38
338.878	655.38
339.106	650.38
339.334	648.38
339.562	644.38
339.79	624.38
340.018	620.38
340.246	614.38
340.474	599.38
340.702	616.38
340.93	632.38
341.158	646.38
341.386	596.38
341.614	606.38
341.842	622.38
342.07	602.38
342.298	623.38
342.526	613.38
342.754	612.38
342.981	634.38
343.209	630.38
343.437	659.38
343.665	720.38
343.893	778.38
344.12	788.38
344.348	719.38
344.576	695.38
344.804	669.38
345.031	640.38
345.259	656.38
345.487	631.38
345.714	629.38
345.942	620.38
346.17	638.38
346.397	628.38
346.625	620.38
346.853	593.38
347.08	604.38
347.308	626.38
347.535	607.38
347.763	625.38
347.99	649.38
348.218	620.38
348.445	610.38
348.673	608.38
348.9	598.38
349.128	601.38
349.355	592.38
349.583	578.38
349.81	584.38
350.037	598.38
350.265	583.38
350.492	593.38
350.72	589.38
350.947	592.38
351.174	559.38
351.402	561.38
351.629	575.38
351.856	572.38
352.083	573.38
352.311	595.38
352.538	592.38
352.765	582.38
352.992	589.38
353.22	580.38
353.447	580.38
353.674	578.38
353.901	598.38
354.128	574.38
354.355	593.38
354.583	584.38
354.81	586.38
355.037	566.38
355.264	581.38
355.491	567.38
355.718	581.38
355.945	585.38
356.172	592.38
356.399	600.38
356.626	581.38
356.853	589.38
357.08	564.38
357.307	582.38
357.534	589.38
357.761	601.38
357.988	593.38
358.215	574.38
358.441	585.38
358.668	570.38
358.895	560.38
359.122	569.38
359.349	571.38
359.576	582.38
359.802	593.38
360.029	594.38
360.256	573.38
360.483	574.38
360.709	586.38
360.936	577.38
361.163	583.38
361.39	572.38
361.616	615.38
361.843	576.38
362.07	580.38
362.296	590.38
362.523	576.38
362.749	582.38
362.976	581.38
363.203	567.38
363.429	577.38
363.656	588.38
363.882	566.38
364.109	596.38
364.335	573.38
364.562	562.38
364.788	574.38
365.015	576.38
365.241	558.38
365.468	562.38
365.694	569.38
365.92	576.38
366.147	582.38
366.373	570.38
366.599	578.38
366.826	577.38
367.052	582.38
367.278	572.38
367.505	581.38
367.731	583.38
367.957	583.38
368.184	596.38
368.41	562.38
368.636	572.38
368.862	599.38
369.089	571.38
369.315	584.38
369.541	582.38
369.767	615.38
369.993	619.38
370.219	584.38
370.445	598.38
370.672	594.38
370.898	633.38
371.124	640.38
371.35	627.38
371.576	623.38
371.802	628.38
372.028	627.38
372.254	647.38
372.48	642.38
372.706	656.38
372.932	642.38
373.158	654.38
373.384	653.38
373.61	638.38
373.835	655.38
374.061	632.38
374.287	639.38
374.513	640.38
374.739	680.38
374.965	693.38
375.191	720.38
375.416	693.38
375.642	693.38
375.868	673.38
376.094	684.38
376.319	668.38
376.545	642.38
376.771	636.38
376.997	647.38
377.222	628.38
377.448	632.38
377.674	606.38
377.899	638.38
378.125	646.38
378.35	607.38
378.576	617.38
378.802	630.38
379.027	643.38
379.253	615.38
379.478	644.38
379.704	634.38
379.929	626.38
380.155	625.38
380.38	615.38
380.606	631.38
380.831	642.38
381.057	627.38
381.282	606.38
381.507	622.38
381.733	652.38
381.958	649.38
382.184	659.38
382.409	636.38
382.634	672.38
382.86	657.38
383.085	660.38
383.31	681.38
383.535	701.38
383.761	727.38
383.986	712.38
384.211	716.38
384.436	752.38
384.662	795.38
384.887	759.38
385.112	728.38
385.337	782.38
385.562	760.38
385.787	748.38
386.013	770.38
386.238	762.38
386.463	762.38
386.688	753.38
386.913	759.38
387.138	759.38
387.363	725.38
387.588	735.38
387.813	737.38
388.038	753.38
388.263	731.38
388.488	764.38
388.713	746.38
388.938	739.38
389.163	746.38
389.387	728.38
389.612	754.38
389.837	772.38
390.062	733.38
390.287	736.38
390.512	732.38
390.736	738.38
390.961	724.38
391.186	756.38
391.411	810.38
391.636	830.38
391.86	862.38
392.085	877.38
392.31	868.38
392.534	842.38
392.759	825.38
392.984	816.38
393.208	786.38
393.433	776.38
393.658	784.38
393.882	807.38
394.107	808.38
394.331	823.38
394.556	824.38
394.78	829.38
395.005	812.38
395.229	824.38
395.454	852.38
395.678	861.38
395.903	846.38
396.127	826.38
396.352	808.38
396.576	796.38
396.801	813.38
397.025	806.38
397.249	841.38
397.474	844.38
397.698	837.38
397.922	856.38
398.147	862.38
398.371	867.38
398.595	887.38
398.82	910.38
399.044	998.38
399.268	1108.38
399.492	1320.38
399.717	1469.38
399.941	1436.38
400.165	1283.38
400.389	1130.38
400.613	1034.38
400.837	953.38
401.062	960.38
401.286	941.38
401.51	944.38
401.734	940.38
401.958	954.38
402.182	962.38
402.406	976.38
402.63	959.38
402.854	1021.38
403.078	1032.38
403.302	1074.38
403.526	1093.38
403.75	1115.38
403.974	1119.38
404.198	1142.38
404.422	1140.38
404.645	1129.38
404.869	1093.38
405.093	1078.38
405.317	1067.38
405.541	1048.38
405.765	1023.38
405.988	1056.38
406.212	1041.38
406.436	1058.38
406.66	1065.38
406.883	1094.38
407.107	1143.38
407.331	1198.38
407.555	1281.38
407.778	1276.38
408.002	1240.38
408.226	1145.38
408.449	1140.38
408.673	1105.38
408.896	1092.38
409.12	1068.38
409.344	1080.38
409.567	1114.38
409.791	1105.38
410.014	1124.38
410.238	1093.38
410.461	1100.38
410.685	1074.38
410.908	1034.38
411.132	1013.38
411.355	974.38
411.578	997.38
411.802	1010.38
412.025	973.38
412.249	998.38
412.472	1008.38
412.695	954.38
412.919	948.38
413.142	972.38
413.365	962.38
413.589	970.38
413.812	951.38
414.035	931.38
414.258	948.38
414.482	956.38
414.705	979.38
414.928	977.38
415.151	966.38
415.374	960.38
415.597	993.38
415.821	938.38
416.044	919.38
416.267	901.38
416.49	893.38
416.713	924.38
416.936	922.38
417.159	942.38
417.382	919.38
417.605	934.38
417.828	938.38
418.051	954.38
418.274	952.38
418.497	947.38
418.72	985.38
418.943	990.38
419.166	1051.38
419.389	1114.38
419.611	1077.38
419.834	993.38
420.057	1000.38
420.28	971.38
420.503	932.38
420.726	913.38
420.948	928.38
421.171	928.38
421.394	963.38
421.617	931.38
421.839	954.38
422.062	950.38
422.285	952.38
422.507	984.38
422.73	965.38
422.953	971.38
423.175	997.38
423.398	999.38
423.621	1001.38
423.843	1041.38
424.066	1055.38
424.288	1034.38
424.511	1000.38
424.733	985.38
424.956	958.38
425.178	956.38
425.401	967.38
425.623	933.38
425.846	899.38
426.068	937.38
426.291	899.38
426.513	927.38
426.735	888.38
426.958	888.38
427.18	856.38
427.402	864.38
427.625	856.38
427.847	838.38
428.069	842.38
428.292	838.38
428.514	817.38
428.736	848.38
428.958	838.38
429.181	825.38
429.403	819.38
429.625	814.38
429.847	836.38
430.069	836.38
430.292	832.38
430.514	810.38
430.736	835.38
430.958	813.38
431.18	821.38
431.402	823.38
431.624	832.38
431.846	851.38
432.068	877.38
432.29	865.38
432.512	850.38
432.734	864.38
432.956	852.38
433.178	855.38
433.4	852.38
433.622	820.38
433.844	864.38
434.066	851.38
434.287	850.38
434.509	886.38
434.731	948.38
434.953	965.38
435.175	977.38
435.397	976.38
435.618	881.38
435.84	888.38
436.062	864.38
436.284	845.38
436.505	847.38
436.727	881.38
436.949	884.38
437.17	868.38
437.392	861.38
437.614	849.38
437.835	810.38
438.057	818.38
438.278	808.38
438.5	835.38
438.721	832.38
438.943	830.38
439.165	813.38
439.386	820.38
439.608	834.38
439.829	841.38
440.05	868.38
440.272	875.38
440.493	828.38
440.715	831.38
440.936	877.38
441.158	891.38
441.379	913.38
441.6	980.38
441.822	976.38
442.043	970.38
442.264	949.38
442.486	933.38
442.707	934.38
442.928	978.38
443.149	941.38
443.371	905.38
443.592	979.38
443.813	998.38
444.034	1013.38
444.255	991.38
444.476	1076.38
444.698	1127.38
444.919	1188.38
445.14	1239.38
445.361	1083.38
445.582	996.38
445.803	917.38
446.024	885.38
446.245	891.38
446.466	878.38
446.687	869.38
446.908	850.38
447.129	848.38
447.35	846.38
447.571	828.38
447.792	772.38
448.013	800.38
448.234	771.38
448.455	812.38
448.675	764.38
448.896	793.38
449.117	772.38
449.338	776.38
449.559	789.38
449.779	751.38
450	776.38
450.221	766.38
450.442	782.38
450.662	783.38
450.883	823.38
451.104	788.38
451.324	813.38
451.545	830.38
451.766	830.38
451.986	802.38
452.207	801.38
452.428	792.38
452.648	770.38
452.869	778.38
453.089	778.38
453.31	794.38
453.53	778.38
453.751	767.38
453.971	754.38
454.192	774.38
454.412	739.38
454.633	757.38
454.853	727.38
455.073	733.38
455.294	752.38
455.514	742.38
455.734	748.38
455.955	705.38
456.175	729.38
456.395	735.38
456.616	733.38
456.836	750.38
457.056	718.38
457.276	708.38
457.497	744.38
457.717	723.38
457.937	724.38
458.157	748.38
458.377	750.38
458.598	776.38
458.818	764.38
459.038	808.38
459.258	801.38
459.478	855.38
459.698	905.38
459.918	920.38
460.138	962.38
460.358	978.38
460.578	1009.38
460.798	999.38
461.018	1024.38
461.238	995.38
461.458	1010.38
461.678	1008.38
461.898	1039.38
462.118	993.38
462.338	1079.38
462.558	1103.38
462.777	1142.38
462.997	1266.38
463.217	1420.38
463.437	1409.38
463.657	1286.38
463.876	1197.38
464.096	1198.38
464.316	1204.38
464.536	1212.38
464.755	1181.38
464.975	1107.38
465.195	1052.38
465.414	1007.38
465.634	902.38
465.854	887.38
466.073	857.38
466.293	861.38
466.512	833.38
466.732	819.38
466.951	845.38
467.171	802.38
467.391	847.38
467.61	820.38
467.829	815.38
468.049	789.38
468.268	791.38
468.488	772.38
468.707	796.38
468.927	786.38
469.146	777.38
469.365	800.38
469.585	800.38
469.804	802.38
470.023	840.38
470.243	811.38
470.462	848.38
470.681	865.38
470.901	852.38
471.12	849.38
471.339	804.38
471.558	840.38
471.777	807.38
471.997	773.38
472.216	755.38
472.435	766.38
472.654	772.38
472.873	742.38
473.092	776.38
473.311	768.38
473.53	729.38
473.749	755.38
473.968	748.38
474.187	745.38
474.406	736.38
474.625	753.38
474.844	761.38
475.063	777.38
475.282	769.38
475.501	745.38
475.72	769.38
475.939	766.38
476.158	766.38
476.377	771.38
476.596	808.38
476.814	806.38
477.033	788.38
477.252	786.38
477.471	843.38
477.69	834.38
477.908	872.38
478.127	901.38
478.346	936.38
478.564	933.38
478.783	943.38
479.002	967.38
479.22	955.38
479.439	958.38
479.658	953.38
479.876	940.38
480.095	936.38
480.313	984.38
480.532	1042.38
480.751	1022.38
480.969	958.38
481.188	918.38
481.406	921.38
481.624	888.38
481.843	881.38
482.061	850.38
482.28	872.38
482.498	838.38
482.717	842.38
482.935	867.38
483.153	841.38
483.372	858.38
483.59	837.38
483.808	845.38
484.027	854.38
484.245	860.38
484.463	897.38
484.681	889.38
484.9	915.38
485.118	937.38
485.336	927.38
485.554	896.38
485.772	910.38
485.99	931.38
486.209	945.38
486.427	947.38
486.645	936.38
486.863	926.38
487.081	916.38
487.299	919.38
487.517	896.38
487.735	925.38
487.953	935.38
488.171	921.38
488.389	888.38
488.607	920.38
488.825	911.38
489.043	884.38
489.261	903.38
489.479	903.38
489.696	907.38
489.914	908.38
490.132	918.38
490.35	914.38
490.568	915.38
490.786	908.38
491.003	925.38
491.221	944.38
491.439	940.38
491.657	926.38
491.874	916.38
492.092	926.38
492.31	938.38
492.527	955.38
492.745	938.38
492.963	934.38
493.18	970.38
493.398	906.38
493.615	960.38
493.833	947.38
494.05	944.38
494.268	978.38
494.485	964.38
494.703	972.38
494.92	981.38
495.138	960.38
495.355	966.38
495.573	942.38
495.79	948.38
496.008	976.38
496.225	971.38
496.442	995.38
496.66	977.38
496.877	1008.38
497.094	1015.38
497.312	1030.38
497.529	1022.38
497.746	1068.38
497.963	1132.38
498.181	1174.38
498.398	1209.38
498.615	1277.38
498.832	1352.38
499.049	1486.38
499.267	1572.38
499.484	1799.38
499.701	1981.38
499.918	2185.38
500.135	2509.38
500.352	2943.38
500.569	3181.38
500.786	3062.38
501.003	2831.38
501.22	2488.38
501.437	2145.38
501.654	1901.38
501.871	1699.38
502.088	1532.38
502.305	1436.38
502.522	1372.38
502.739	1286.38
502.956	1218.38
503.172	1180.38
503.389	1122.38
503.606	1121.38
503.823	1085.38
504.04	1076.38
504.256	1086.38
504.473	1160.38
504.69	1194.38
504.907	1164.38
505.123	1086.38
505.34	993.38
505.557	953.38
505.773	922.38
505.99	929.38
506.207	909.38
506.423	894.38
506.64	876.38
506.856	856.38
507.073	872.38
507.289	853.38
507.506	854.38
507.722	831.38
507.939	838.38
508.155	823.38
508.372	801.38
508.588	831.38
508.805	819.38
509.021	796.38
509.238	799.38
509.454	790.38
509.67	782.38
509.887	787.38
510.103	802.38
510.319	776.38
510.536	780.38
510.752	776.38
510.968	778.38
511.184	774.38
511.401	759.38
511.617	766.38
511.833	772.38
512.049	785.38
512.265	790.38
512.481	793.38
512.698	768.38
512.914	785.38
513.13	768.38
513.346	770.38
513.562	782.38
513.778	753.38
513.994	782.38
514.21	746.38
514.426	790.38
514.642	790.38
514.858	790.38
515.074	806.38
515.29	815.38
515.506	807.38
515.721	803.38
515.937	802.38
516.153	837.38
516.369	877.38
516.585	878.38
516.801	941.38
517.016	940.38
517.232	1026.38
517.448	1084.38
517.664	1101.38
517.879	1138.38
518.095	1136.38
518.311	1087.38
518.527	1021.38
518.742	993.38
518.958	953.38
519.173	931.38
519.389	883.38
519.605	860.38
519.82	823.38
520.036	830.38
520.251	813.38
520.467	823.38
520.682	814.38
520.898	769.38
521.113	750.38
521.329	770.38
521.544	770.38
521.76	765.38
521.975	760.38
522.19	742.38
522.406	754.38
522.621	748.38
522.836	733.38
523.052	750.38
523.267	746.38
523.482	694.38
523.698	709.38
523.913	736.38
524.128	719.38
524.343	724.38
524.559	711.38
524.774	721.38
524.989	709.38
525.204	718.38
525.419	718.38
525.634	701.38
525.849	711.38
526.064	694.38
526.28	709.38
526.495	709.38
526.71	706.38
526.925	714.38
527.14	670.38
527.355	704.38
527.57	710.38
527.785	700.38
527.999	706.38
528.214	700.38
528.429	710.38
528.644	702.38
528.859	717.38
529.074	720.38
529.289	717.38
529.503	696.38
529.718	702.38
529.933	712.38
530.148	703.38
530.363	705.38
530.577	691.38
530.792	685.38
531.007	690.38
531.221	696.38
531.436	701.38
531.651	722.38
531.865	692.38
532.08	720.38
532.295	710.38
532.509	714.38
532.724	689.38
532.938	728.38
533.153	713.38
533.367	704.38
533.582	701.38
533.796	692.38
534.011	713.38
534.225	714.38
534.44	669.38
534.654	702.38
534.868	668.38
535.083	688.38
535.297	701.38
535.511	696.38
535.726	680.38
535.94	673.38
536.154	665.38
536.369	672.38
536.583	676.38
536.797	657.38
537.011	680.38
537.225	636.38
537.44	648.38
537.654	638.38
537.868	650.38
538.082	634.38
538.296	634.38
538.51	643.38
538.724	651.38
538.938	641.38
539.153	650.38
539.367	647.38
539.581	642.38
539.795	630.38
540.009	632.38
540.222	616.38
540.436	617.38
540.65	643.38
540.864	621.38
541.078	654.38
541.292	646.38
541.506	636.38
541.72	621.38
541.934	654.38
542.147	642.38
542.361	625.38
542.575	609.38
542.789	628.38
543.002	640.38
543.216	634.38
543.43	621.38
543.644	608.38
543.857	620.38
544.071	622.38
544.285	644.38
544.498	637.38
544.712	638.38
544.925	634.38
545.139	657.38
545.352	636.38
545.566	656.38
545.779	640.38
545.993	670.38
546.206	670.38
546.42	641.38
546.633	643.38
546.847	641.38
547.06	658.38
547.274	636.38
547.487	658.38
547.7	625.38
547.914	643.38
548.127	651.38
548.34	621.38
548.554	664.38
548.767	674.38
548.98	662.38
549.193	670.38
549.407	642.38
549.62	672.38
549.833	681.38
550.046	674.38
550.259	671.38
550.473	656.38
550.686	640.38
550.899	609.38
551.112	637.38
551.325	646.38
551.538	621.38
551.751	618.38
551.964	638.38
552.177	644.38
552.39	648.38
552.603	695.38
552.816	685.38
553.029	696.38
553.242	720.38
553.455	715.38
553.667	741.38
553.88	704.38
554.093	706.38
554.306	684.38
554.519	676.38
554.732	632.38
554.944	640.38
555.157	656.38
555.37	628.38
555.583	620.38
555.795	607.38
556.008	606.38
556.221	584.38
556.433	566.38
556.646	584.38
556.859	551.38
557.071	588.38
557.284	562.38
557.496	572.38
557.709	548.38
557.921	567.38
558.134	532.38
558.346	537.38
558.559	562.38
558.771	536.38
558.984	532.38
559.196	524.38
559.409	528.38
559.621	549.38
559.833	546.38
560.046	537.38
560.258	522.38
560.47	519.38
560.683	554.38
560.895	525.38
561.107	508.38
561.32	532.38
561.532	533.38
561.744	549.38
561.956	527.38
562.168	528.38
562.381	536.38
562.593	525.38
562.805	538.38
563.017	550.38
563.229	520.38
563.441	531.38
563.653	542.38
563.865	556.38
564.077	545.38
564.289	550.38
564.501	581.38
564.713	585.38
564.925	575.38
565.137	574.38
565.349	586.38
565.561	593.38
565.773	630.38
565.985	658.38
566.197	682.38
566.408	732.38
566.62	830.38
566.832	896.38
567.044	908.38
567.255	886.38
567.467	929.38
567.679	976.38
567.891	1069.38
568.102	1080.38
568.314	1031.38
568.526	919.38
568.737	815.38
568.949	744.38
569.161	678.38
569.372	654.38
569.584	613.38
569.795	580.38
570.007	543.38
570.218	544.38
570.43	554.38
570.641	538.38
570.853	569.38
571.064	574.38
571.276	569.38
571.487	545.38
571.698	500.38
571.91	530.38
572.121	489.38
572.333	479.38
572.544	477.38
572.755	454.38
572.966	446.38
573.178	463.38
573.389	446.38
573.6	472.38
573.811	456.38
574.023	451.38
574.234	458.38
574.445	443.38
574.656	446.38
574.867	445.38
575.078	441.38
575.289	429.38
575.501	440.38
575.712	418.38
575.923	406.38
576.134	439.38
576.345	424.38
576.556	423.38
576.767	412.38
576.978	394.38
577.188	412.38
577.399	437.38
577.61	390.38
577.821	404.38
578.032	382.38
578.243	400.38
578.454	404.38
578.665	394.38
578.875	390.38
579.086	406.38
579.297	401.38
579.508	396.38
579.718	381.38
579.929	386.38
580.14	380.38
580.35	359.38
580.561	384.38
580.772	384.38
580.982	383.38
581.193	387.38
581.403	382.38
581.614	389.38
581.825	375.38
582.035	376.38
582.246	368.38
582.456	387.38
582.667	382.38
582.877	377.38
583.087	385.38
583.298	373.38
583.508	376.38
583.719	360.38
583.929	376.38
584.139	370.38
584.35	377.38
584.56	355.38
584.77	366.38
584.981	357.38
585.191	382.38
585.401	345.38
585.611	351.38
585.821	372.38
586.032	365.38
586.242	353.38
586.452	358.38
586.662	367.38
586.872	357.38
587.082	335.38
587.292	334.38
587.502	358.38
587.713	346.38
587.923	353.38
588.133	361.38
588.343	350.38
588.553	352.38
588.762	359.38
588.972	356.38
589.182	349.38
589.392	376.38
589.602	370.38
589.812	359.38
590.022	378.38
590.232	344.38
590.441	365.38
590.651	376.38
590.861	357.38
591.071	374.38
591.281	366.38
591.49	366.38
591.7	365.38
591.91	384.38
592.119	380.38
592.329	367.38
592.539	402.38
592.748	404.38
592.958	439.38
593.167	457.38
593.377	473.38
593.587	456.38
593.796	474.38
594.006	460.38
594.215	478.38
594.424	474.38
594.634	460.38
594.843	444.38
595.053	409.38
595.262	392.38
595.472	389.38
595.681	392.38
595.89	375.38
596.1	347.38
596.309	353.38
596.518	336.38
596.727	346.38
596.937	347.38
597.146	330.38
597.355	349.38
597.564	324.38
597.774	336.38
597.983	304.38
598.192	313.38
598.401	321.38
598.61	310.38
598.819	305.38
599.028	296.38
599.237	302.38
599.446	307.38
599.655	302.38
599.864	302.38
600.073	319.38
600.282	319.38
600.491	290.38
600.7	305.38
600.909	300.38
601.118	291.38
601.327	304.38
601.536	306.38
601.745	279.38
601.953	302.38
602.162	296.38
602.371	277.38
602.58	290.38
602.789	291.38
602.997	294.38
603.206	300.38
603.415	305.38
603.623	277.38
603.832	279.38
604.041	293.38
604.249	267.38
604.458	291.38
604.666	266.38
604.875	303.38
605.084	290.38
605.292	276.38
605.501	282.38
605.709	276.38
605.918	290.38
606.126	293.38
606.334	290.38
606.543	273.38
606.751	292.38
606.96	267.38
607.168	276.38
607.376	274.38
607.585	281.38
607.793	291.38
608.001	259.38
608.21	281.38
608.418	273.38
608.626	267.38
608.834	282.38
609.043	273.38
609.251	281.38
609.459	277.38
609.667	272.38
609.875	269.38
610.083	280.38
610.291	275.38
610.499	267.38
610.707	256.38
610.916	253.38
611.124	274.38
611.332	260.38
611.54	268.38
611.748	286.38
611.955	257.38
612.163	250.38
612.371	278.38
612.579	279.38
612.787	276.38
612.995	258.38
613.203	278.38
613.411	270.38
613.618	274.38
613.826	259.38
614.034	270.38
614.242	276.38
614.449	260.38
614.657	262.38
614.865	274.38
615.072	275.38
615.28	268.38
615.488	264.38
615.695	250.38
615.903	268.38
616.111	266.38
616.318	264.38
616.526	271.38
616.733	278.38
616.941	260.38
617.148	273.38
617.356	254.38
617.563	270.38
617.771	279.38
617.978	274.38
618.185	273.38
618.393	272.38
618.6	284.38
618.807	258.38
619.015	264.38
619.222	262.38
619.429	257.38
619.637	259.38
619.844	256.38
620.051	264.38
620.258	249.38
620.466	269.38
620.673	233.38
620.88	236.38
621.087	258.38
621.294	244.38
621.501	236.38
621.708	244.38
621.915	223.38
622.122	246.38
622.329	251.38
622.536	240.38
622.743	250.38
622.95	240.38
623.157	238.38
623.364	226.38
623.571	241.38
623.778	232.38
623.985	229.38
624.192	234.38
624.399	233.38
624.606	240.38
624.812	232.38
625.019	222.38
625.226	230.38
625.433	228.38
625.639	225.38
625.846	240.38
626.053	224.38
626.259	231.38
626.466	220.38
626.673	224.38
626.879	230.38
627.086	209.38
627.293	210.38
627.499	238.38
627.706	216.38
627.912	210.38
628.119	212.38
628.325	224.38
628.532	214.38
628.738	220.38
628.945	228.38
629.151	209.38
629.357	224.38
629.564	228.38
629.77	203.38
629.976	201.38
630.183	204.38
630.389	207.38
630.595	198.38
630.802	215.38
631.008	227.38
631.214	209.38
631.42	199.38
631.627	210.38
631.833	195.38
632.039	203.38
632.245	199.38
632.451	187.38
632.657	194.38
632.863	207.38
633.069	183.38
633.275	202.38
633.481	192.38
633.688	194.38
633.893	198.38
634.099	202.38
634.305	186.38
634.511	199.38
634.717	193.38
634.923	192.38
635.129	195.38
635.335	186.38
635.541	182.38
635.747	203.38
635.952	178.38
636.158	182.38
636.364	196.38
636.57	209.38
636.775	201.38
636.981	201.38
637.187	181.38
637.392	165.38
637.598	185.38
637.804	189.38
638.009	180.38
638.215	185.38
638.421	180.38
638.626	184.38
638.832	184.38
639.037	190.38
639.243	168.38
639.448	188.38
639.654	177.38
639.859	186.38
640.065	184.38
640.27	185.38
640.475	180.38
640.681	192.38
640.886	176.38
641.091	177.38
641.297	177.38
641.502	176.38
641.707	177.38
641.913	177.38
642.118	173.38
642.323	182.38
642.528	183.38
642.733	181.38
642.939	174.38
643.144	172.38
643.349	189.38
643.554	165.38
643.759	162.38
643.964	170.38
644.169	173.38
644.374	173.38
644.579	182.38
644.784	178.38
644.989	166.38
645.194	185.38
645.399	166.38
645.604	178.38
645.809	175.38
646.014	180.38
646.219	170.38
646.423	181.38
646.628	157.38
646.833	173.38
647.038	172.38
647.243	188.38
647.447	182.38
647.652	178.38
647.857	190.38
648.062	192.38
648.266	201.38
648.471	180.38
648.676	190.38
648.88	186.38
649.085	194.38
649.289	168.38
649.494	178.38
649.698	173.38
649.903	179.38
650.107	187.38
650.312	176.38
650.516	164.38
650.721	152.38
650.925	166.38
651.13	173.38
651.334	159.38
651.539	143.38
651.743	169.38
651.947	154.38
652.152	159.38
652.356	155.38
652.56	166.38
652.764	150.38
652.969	134.38
653.173	144.38
653.377	150.38
653.581	131.38
653.785	122.38
653.99	128.38
654.194	128.38
654.398	137.38
654.602	129.38
654.806	129.38
655.01	137.38
655.214	139.38
655.418	139.38
655.622	135.38
655.826	129.38
656.03	133.38
656.234	137.38
656.438	132.38
656.642	137.38
656.846	125.38
657.049	120.38
657.253	125.38
657.457	105.38
657.661	119.38
657.865	129.38
658.068	120.38
658.272	98.38
658.476	102.38
658.68	101.38
658.883	104.38
659.087	93.38
659.291	97.38
659.494	87.38
659.698	89.38
659.901	104.38
660.105	81.38
660.309	84.38
660.512	85.38
660.716	85.38
660.919	87.38
661.123	98.38
661.326	78.38
661.53	82.38
661.733	74.38
661.936	84.38
662.14	94.38
662.343	77.38
662.546	84.38
662.75	81.38
662.953	88.38
663.156	87.38
663.36	68.38
663.563	68.38
663.766	91.38
663.969	65.38
664.173	90.38
664.376	74.38
664.579	72.38
664.782	77.38
664.985	70.38
665.188	83.38
665.391	82.38
665.594	75.38
665.797	73.38
666	70.38
666.203	74.38
666.406	77.38
666.609	66.38
666.812	77.38
667.015	74.38
667.218	71.38
667.421	76.38
667.624	71.38
667.827	69.38
668.03	50.38
668.232	60.38
668.435	84.38
668.638	70.38
668.841	70.38
669.043	72.38
669.246	83.38
669.449	61.38
669.651	70.38
669.854	85.38
670.057	79.38
670.259	62.38
670.462	83.38
670.665	89.38
670.867	66.38
671.07	79.38
671.272	78.38
671.475	80.38
671.677	84.38
671.88	83.38
672.082	74.38
672.284	76.38
672.487	78.38
672.689	62.38
672.892	73.38
