Data from Ni(NO3)2@0.0625M.TitratingCurve.Agarose3%dH2O.NegLispCup.LampEnergy10.LIBS07252019_HRD10591_18-12-51-569.txt Node
Date: Thu Jul 25 18:12:51 EDT 2019
User: cochatt
Spectrometer: HR+D1059
Trigger mode: 1
Integration Time (sec): 1.000000E-1
Scans to average: 1
Electric dark correction enabled: true
Nonlinearity correction enabled: false
Boxcar width: 0
XAxis mode: Wavelengths
Number of Pixels in Spectrum: 2048
>>>>>Begin Spectral Data<<<<<
223.165	-12.75
223.4	-12.75
223.635	-12.75
223.869	-20.75
224.104	-15.75
224.338	-13.75
224.573	-15.75
224.808	-18.75
225.042	-18.75
225.277	-4.75
225.511	13.25
225.746	-0.75
225.98	4.25
226.215	8.25
226.449	14.25
226.683	8.25
226.918	29.25
227.152	44.25
227.387	27.25
227.621	48.25
227.856	35.25
228.09	39.25
228.324	23.25
228.559	56.25
228.793	65.25
229.027	87.25
229.262	88.25
229.496	95.25
229.73	105.25
229.964	88.25
230.199	106.25
230.433	113.25
230.667	119.25
230.901	120.25
231.136	124.25
231.37	122.25
231.604	126.25
231.838	116.25
232.072	115.25
232.306	128.25
232.541	129.25
232.775	116.25
233.009	138.25
233.243	134.25
233.477	118.25
233.711	128.25
233.945	115.25
234.179	127.25
234.413	141.25
234.647	117.25
234.881	121.25
235.115	127.25
235.349	122.25
235.583	125.25
235.817	131.25
236.051	122.25
236.285	112.25
236.519	115.25
236.753	127.25
236.987	144.25
237.221	138.25
237.455	136.25
237.689	132.25
237.922	141.25
238.156	127.25
238.39	142.25
238.624	145.25
238.858	143.25
239.091	132.25
239.325	149.25
239.559	144.25
239.793	138.25
240.027	144.25
240.26	123.25
240.494	143.25
240.728	127.25
240.961	139.25
241.195	145.25
241.429	162.25
241.662	160.25
241.896	141.25
242.13	157.25
242.363	141.25
242.597	148.25
242.83	157.25
243.064	154.25
243.298	153.25
243.531	169.25
243.765	166.25
243.998	163.25
244.232	172.25
244.465	160.25
244.699	165.25
244.932	169.25
245.166	177.25
245.399	177.25
245.633	178.25
245.866	167.25
246.099	175.25
246.333	172.25
246.566	164.25
246.8	179.25
247.033	178.25
247.266	170.25
247.5	182.25
247.733	177.25
247.966	179.25
248.2	194.25
248.433	193.25
248.666	177.25
248.899	185.25
249.133	186.25
249.366	189.25
249.599	193.25
249.832	200.25
250.066	187.25
250.299	176.25
250.532	185.25
250.765	200.25
250.998	181.25
251.231	205.25
251.465	194.25
251.698	210.25
251.931	222.25
252.164	196.25
252.397	209.25
252.63	214.25
252.863	210.25
253.096	216.25
253.329	209.25
253.562	215.25
253.795	214.25
254.028	219.25
254.261	215.25
254.494	203.25
254.727	202.25
254.96	202.25
255.193	190.25
255.426	204.25
255.659	207.25
255.892	217.25
256.124	227.25
256.357	219.25
256.59	227.25
256.823	224.25
257.056	235.25
257.289	211.25
257.521	236.25
257.754	233.25
257.987	229.25
258.22	233.25
258.452	220.25
258.685	217.25
258.918	242.25
259.151	236.25
259.383	224.25
259.616	239.25
259.849	227.25
260.081	250.25
260.314	232.25
260.547	254.25
260.779	236.25
261.012	238.25
261.244	237.25
261.477	235.25
261.71	236.25
261.942	257.25
262.175	226.25
262.407	269.25
262.64	243.25
262.872	242.25
263.105	246.25
263.337	264.25
263.57	246.25
263.802	250.25
264.035	264.25
264.267	271.25
264.499	258.25
264.732	279.25
264.964	262.25
265.197	277.25
265.429	282.25
265.661	252.25
265.894	250.25
266.126	260.25
266.358	263.25
266.591	261.25
266.823	268.25
267.055	291.25
267.287	267.25
267.52	267.25
267.752	286.25
267.984	275.25
268.216	268.25
268.448	271.25
268.681	287.25
268.913	284.25
269.145	268.25
269.377	275.25
269.609	270.25
269.841	284.25
270.073	269.25
270.306	268.25
270.538	279.25
270.77	272.25
271.002	270.25
271.234	313.25
271.466	287.25
271.698	284.25
271.93	279.25
272.162	293.25
272.394	283.25
272.626	283.25
272.858	299.25
273.09	306.25
273.322	287.25
273.553	307.25
273.785	303.25
274.017	304.25
274.249	296.25
274.481	295.25
274.713	295.25
274.945	311.25
275.176	308.25
275.408	292.25
275.64	297.25
275.872	333.25
276.104	325.25
276.335	296.25
276.567	322.25
276.799	310.25
277.031	321.25
277.262	330.25
277.494	340.25
277.726	298.25
277.957	328.25
278.189	306.25
278.421	314.25
278.652	322.25
278.884	328.25
279.115	323.25
279.347	343.25
279.579	328.25
279.81	319.25
280.042	327.25
280.273	353.25
280.505	348.25
280.736	328.25
280.968	319.25
281.199	332.25
281.431	345.25
281.662	357.25
281.894	347.25
282.125	332.25
282.356	333.25
282.588	331.25
282.819	347.25
283.051	349.25
283.282	346.25
283.513	361.25
283.745	353.25
283.976	355.25
284.207	347.25
284.439	367.25
284.67	365.25
284.901	341.25
285.132	367.25
285.364	355.25
285.595	357.25
285.826	354.25
286.057	377.25
286.288	361.25
286.52	375.25
286.751	373.25
286.982	367.25
287.213	379.25
287.444	366.25
287.675	374.25
287.906	361.25
288.138	375.25
288.369	370.25
288.6	381.25
288.831	389.25
289.062	390.25
289.293	398.25
289.524	382.25
289.755	385.25
289.986	363.25
290.217	371.25
290.448	397.25
290.679	406.25
290.91	403.25
291.141	411.25
291.371	396.25
291.602	401.25
291.833	384.25
292.064	385.25
292.295	380.25
292.526	394.25
292.757	383.25
292.987	390.25
293.218	395.25
293.449	406.25
293.68	397.25
293.91	401.25
294.141	403.25
294.372	386.25
294.603	384.25
294.833	390.25
295.064	401.25
295.295	395.25
295.525	395.25
295.756	404.25
295.987	391.25
296.217	411.25
296.448	402.25
296.679	405.25
296.909	411.25
297.14	404.25
297.37	439.25
297.601	411.25
297.831	405.25
298.062	424.25
298.292	427.25
298.523	442.25
298.753	434.25
298.984	427.25
299.214	431.25
299.445	414.25
299.675	419.25
299.905	402.25
300.136	416.25
300.366	426.25
300.597	427.25
300.827	425.25
301.057	447.25
301.288	435.25
301.518	463.25
301.748	445.25
301.979	463.25
302.209	440.25
302.439	456.25
302.669	439.25
302.9	424.25
303.13	437.25
303.36	433.25
303.59	433.25
303.82	448.25
304.051	449.25
304.281	433.25
304.511	426.25
304.741	434.25
304.971	430.25
305.201	430.25
305.431	445.25
305.661	441.25
305.891	442.25
306.121	451.25
306.352	460.25
306.582	426.25
306.812	428.25
307.042	435.25
307.272	419.25
307.502	425.25
307.731	439.25
307.961	434.25
308.191	419.25
308.421	441.25
308.651	439.25
308.881	437.25
309.111	432.25
309.341	415.25
309.571	437.25
309.8	397.25
310.03	444.25
310.26	445.25
310.49	457.25
310.72	436.25
310.949	438.25
311.179	458.25
311.409	439.25
311.639	444.25
311.868	433.25
312.098	451.25
312.328	443.25
312.557	448.25
312.787	465.25
313.017	458.25
313.246	469.25
313.476	463.25
313.706	459.25
313.935	492.25
314.165	470.25
314.394	455.25
314.624	456.25
314.853	469.25
315.083	444.25
315.312	468.25
315.542	476.25
315.771	455.25
316.001	463.25
316.23	447.25
316.46	476.25
316.689	469.25
316.919	453.25
317.148	457.25
317.377	471.25
317.607	469.25
317.836	458.25
318.065	441.25
318.295	477.25
318.524	453.25
318.753	465.25
318.983	460.25
319.212	452.25
319.441	460.25
319.67	464.25
319.9	455.25
320.129	465.25
320.358	470.25
320.587	475.25
320.816	476.25
321.046	477.25
321.275	457.25
321.504	461.25
321.733	466.25
321.962	456.25
322.191	474.25
322.42	469.25
322.649	485.25
322.878	457.25
323.108	490.25
323.337	485.25
323.566	477.25
323.795	487.25
324.024	475.25
324.253	469.25
324.482	483.25
324.71	480.25
324.939	506.25
325.168	497.25
325.397	493.25
325.626	495.25
325.855	507.25
326.084	477.25
326.313	533.25
326.542	515.25
326.77	515.25
326.999	490.25
327.228	495.25
327.457	497.25
327.686	503.25
327.914	507.25
328.143	517.25
328.372	514.25
328.6	537.25
328.829	524.25
329.058	513.25
329.287	516.25
329.515	529.25
329.744	525.25
329.972	507.25
330.201	511.25
330.43	521.25
330.658	528.25
330.887	505.25
331.115	526.25
331.344	515.25
331.572	541.25
331.801	551.25
332.03	574.25
332.258	561.25
332.486	598.25
332.715	618.25
332.943	643.25
333.172	648.25
333.4	683.25
333.629	681.25
333.857	685.25
334.085	669.25
334.314	674.25
334.542	670.25
334.771	663.25
334.999	635.25
335.227	639.25
335.455	641.25
335.684	639.25
335.912	627.25
336.14	601.25
336.369	613.25
336.597	613.25
336.825	631.25
337.053	616.25
337.281	575.25
337.51	596.25
337.738	612.25
337.966	579.25
338.194	580.25
338.422	570.25
338.65	575.25
338.878	563.25
339.106	576.25
339.334	573.25
339.562	559.25
339.79	548.25
340.018	547.25
340.246	539.25
340.474	533.25
340.702	530.25
340.93	543.25
341.158	543.25
341.386	533.25
341.614	546.25
341.842	533.25
342.07	522.25
342.298	531.25
342.526	524.25
342.754	534.25
342.981	531.25
343.209	556.25
343.437	577.25
343.665	599.25
343.893	659.25
344.12	641.25
344.348	637.25
344.576	606.25
344.804	563.25
345.031	555.25
345.259	537.25
345.487	551.25
345.714	540.25
345.942	539.25
346.17	553.25
346.397	531.25
346.625	552.25
346.853	549.25
347.08	524.25
347.308	543.25
347.535	535.25
347.763	536.25
347.99	528.25
348.218	531.25
348.445	553.25
348.673	533.25
348.9	524.25
349.128	537.25
349.355	524.25
349.583	527.25
349.81	516.25
350.037	505.25
350.265	507.25
350.492	508.25
350.72	487.25
350.947	529.25
351.174	521.25
351.402	509.25
351.629	499.25
351.856	509.25
352.083	508.25
352.311	517.25
352.538	506.25
352.765	495.25
352.992	489.25
353.22	497.25
353.447	508.25
353.674	491.25
353.901	513.25
354.128	498.25
354.355	502.25
354.583	499.25
354.81	525.25
355.037	491.25
355.264	477.25
355.491	507.25
355.718	518.25
355.945	505.25
356.172	487.25
356.399	538.25
356.626	531.25
356.853	532.25
357.08	510.25
357.307	511.25
357.534	500.25
357.761	513.25
357.988	530.25
358.215	508.25
358.441	514.25
358.668	495.25
358.895	514.25
359.122	504.25
359.349	484.25
359.576	500.25
359.802	483.25
360.029	493.25
360.256	520.25
360.483	517.25
360.709	493.25
360.936	485.25
361.163	507.25
361.39	494.25
361.616	508.25
361.843	523.25
362.07	508.25
362.296	511.25
362.523	481.25
362.749	485.25
362.976	499.25
363.203	513.25
363.429	486.25
363.656	519.25
363.882	498.25
364.109	503.25
364.335	476.25
364.562	521.25
364.788	498.25
365.015	495.25
365.241	513.25
365.468	492.25
365.694	485.25
365.92	512.25
366.147	490.25
366.373	499.25
366.599	498.25
366.826	484.25
367.052	498.25
367.278	505.25
367.505	513.25
367.731	515.25
367.957	507.25
368.184	514.25
368.41	502.25
368.636	513.25
368.862	535.25
369.089	542.25
369.315	525.25
369.541	528.25
369.767	535.25
369.993	541.25
370.219	545.25
370.445	541.25
370.672	549.25
370.898	532.25
371.124	556.25
371.35	574.25
371.576	537.25
371.802	555.25
372.028	571.25
372.254	542.25
372.48	545.25
372.706	581.25
372.932	599.25
373.158	574.25
373.384	535.25
373.61	567.25
373.835	586.25
374.061	565.25
374.287	568.25
374.513	595.25
374.739	600.25
374.965	608.25
375.191	619.25
375.416	618.25
375.642	602.25
375.868	600.25
376.094	569.25
376.319	578.25
376.545	572.25
376.771	565.25
376.997	571.25
377.222	548.25
377.448	527.25
377.674	563.25
377.899	545.25
378.125	567.25
378.35	541.25
378.576	548.25
378.802	567.25
379.027	563.25
379.253	541.25
379.478	562.25
379.704	560.25
379.929	543.25
380.155	548.25
380.38	556.25
380.606	543.25
380.831	544.25
381.057	571.25
381.282	524.25
381.507	560.25
381.733	557.25
381.958	556.25
382.184	584.25
382.409	558.25
382.634	576.25
382.86	573.25
383.085	603.25
383.31	588.25
383.535	609.25
383.761	631.25
383.986	634.25
384.211	651.25
384.436	647.25
384.662	667.25
384.887	652.25
385.112	667.25
385.337	681.25
385.562	652.25
385.787	649.25
386.013	673.25
386.238	674.25
386.463	667.25
386.688	688.25
386.913	659.25
387.138	661.25
387.363	640.25
387.588	660.25
387.813	650.25
388.038	655.25
388.263	646.25
388.488	665.25
388.713	655.25
388.938	650.25
389.163	640.25
389.387	665.25
389.612	631.25
389.837	644.25
390.062	645.25
390.287	631.25
390.512	646.25
390.736	662.25
390.961	665.25
391.186	711.25
391.411	683.25
391.636	708.25
391.86	751.25
392.085	751.25
392.31	729.25
392.534	706.25
392.759	685.25
392.984	694.25
393.208	705.25
393.433	703.25
393.658	706.25
393.882	703.25
394.107	720.25
394.331	693.25
394.556	710.25
394.78	707.25
395.005	707.25
395.229	705.25
395.454	728.25
395.678	732.25
395.903	752.25
396.127	722.25
396.352	693.25
396.576	702.25
396.801	700.25
397.025	710.25
397.249	725.25
397.474	759.25
397.698	746.25
397.922	731.25
398.147	749.25
398.371	775.25
398.595	785.25
398.82	813.25
399.044	895.25
399.268	937.25
399.492	1107.25
399.717	1257.25
399.941	1247.25
400.165	1088.25
400.389	964.25
400.613	905.25
400.837	856.25
401.062	835.25
401.286	821.25
401.51	826.25
401.734	823.25
401.958	839.25
402.182	843.25
402.406	839.25
402.63	859.25
402.854	880.25
403.078	908.25
403.302	921.25
403.526	936.25
403.75	915.25
403.974	977.25
404.198	996.25
404.422	978.25
404.645	963.25
404.869	920.25
405.093	961.25
405.317	924.25
405.541	910.25
405.765	888.25
405.988	917.25
406.212	890.25
406.436	919.25
406.66	921.25
406.883	929.25
407.107	994.25
407.331	1031.25
407.555	1085.25
407.778	1058.25
408.002	1033.25
408.226	1018.25
408.449	984.25
408.673	939.25
408.896	951.25
409.12	957.25
409.344	937.25
409.567	929.25
409.791	933.25
410.014	932.25
410.238	931.25
410.461	908.25
410.685	898.25
410.908	897.25
411.132	899.25
411.355	847.25
411.578	858.25
411.802	869.25
412.025	849.25
412.249	883.25
412.472	850.25
412.695	840.25
412.919	822.25
413.142	835.25
413.365	816.25
413.589	852.25
413.812	836.25
414.035	824.25
414.258	817.25
414.482	861.25
414.705	845.25
414.928	837.25
415.151	825.25
415.374	827.25
415.597	848.25
415.821	821.25
416.044	827.25
416.267	800.25
416.49	795.25
416.713	817.25
416.936	810.25
417.159	829.25
417.382	821.25
417.605	809.25
417.828	813.25
418.051	808.25
418.274	818.25
418.497	825.25
418.72	850.25
418.943	858.25
419.166	895.25
419.389	895.25
419.611	946.25
419.834	891.25
420.057	861.25
420.28	833.25
420.503	819.25
420.726	786.25
420.948	811.25
421.171	811.25
421.394	779.25
421.617	785.25
421.839	803.25
422.062	825.25
422.285	797.25
422.507	852.25
422.73	838.25
422.953	830.25
423.175	866.25
423.398	892.25
423.621	888.25
423.843	868.25
424.066	879.25
424.288	887.25
424.511	868.25
424.733	847.25
424.956	833.25
425.178	808.25
425.401	811.25
425.623	817.25
425.846	798.25
426.068	790.25
426.291	790.25
426.513	790.25
426.735	768.25
426.958	765.25
427.18	765.25
427.402	739.25
427.625	728.25
427.847	721.25
428.069	723.25
428.292	756.25
428.514	728.25
428.736	727.25
428.958	725.25
429.181	710.25
429.403	713.25
429.625	708.25
429.847	718.25
430.069	713.25
430.292	723.25
430.514	723.25
430.736	716.25
430.958	701.25
431.18	715.25
431.402	732.25
431.624	705.25
431.846	731.25
432.068	716.25
432.29	733.25
432.512	740.25
432.734	732.25
432.956	718.25
433.178	729.25
433.4	738.25
433.622	739.25
433.844	744.25
434.066	752.25
434.287	765.25
434.509	772.25
434.731	805.25
434.953	824.25
435.175	832.25
435.397	808.25
435.618	785.25
435.84	791.25
436.062	755.25
436.284	735.25
436.505	730.25
436.727	721.25
436.949	722.25
437.17	717.25
437.392	735.25
437.614	749.25
437.835	710.25
438.057	721.25
438.278	709.25
438.5	715.25
438.721	692.25
438.943	709.25
439.165	688.25
439.386	712.25
439.608	715.25
439.829	733.25
440.05	740.25
440.272	739.25
440.493	742.25
440.715	743.25
440.936	762.25
441.158	777.25
441.379	791.25
441.6	819.25
441.822	854.25
442.043	825.25
442.264	805.25
442.486	789.25
442.707	808.25
442.928	821.25
443.149	826.25
443.371	803.25
443.592	845.25
443.813	824.25
444.034	840.25
444.255	869.25
444.476	894.25
444.698	959.25
444.919	988.25
445.14	1047.25
445.361	923.25
445.582	837.25
445.803	795.25
446.024	799.25
446.245	791.25
446.466	768.25
446.687	736.25
446.908	758.25
447.129	707.25
447.35	711.25
447.571	731.25
447.792	685.25
448.013	727.25
448.234	699.25
448.455	674.25
448.675	700.25
448.896	687.25
449.117	649.25
449.338	648.25
449.559	668.25
449.779	647.25
450	678.25
450.221	666.25
450.442	671.25
450.662	685.25
450.883	730.25
451.104	700.25
451.324	692.25
451.545	691.25
451.766	687.25
451.986	683.25
452.207	661.25
452.428	663.25
452.648	685.25
452.869	675.25
453.089	669.25
453.31	657.25
453.53	695.25
453.751	650.25
453.971	680.25
454.192	637.25
454.412	661.25
454.633	647.25
454.853	642.25
455.073	641.25
455.294	618.25
455.514	636.25
455.734	635.25
455.955	629.25
456.175	621.25
456.395	635.25
456.616	650.25
456.836	626.25
457.056	656.25
457.276	635.25
457.497	642.25
457.717	627.25
457.937	632.25
458.157	645.25
458.377	673.25
458.598	666.25
458.818	710.25
459.038	700.25
459.258	739.25
459.478	748.25
459.698	770.25
459.918	782.25
460.138	820.25
460.358	866.25
460.578	874.25
460.798	869.25
461.018	861.25
461.238	884.25
461.458	868.25
461.678	850.25
461.898	856.25
462.118	887.25
462.338	965.25
462.558	958.25
462.777	996.25
462.997	1060.25
463.217	1166.25
463.437	1143.25
463.657	1041.25
463.876	1022.25
464.096	1036.25
464.316	1027.25
464.536	1007.25
464.755	955.25
464.975	943.25
465.195	900.25
465.414	848.25
465.634	799.25
465.854	787.25
466.073	739.25
466.293	723.25
466.512	717.25
466.732	699.25
466.951	715.25
467.171	724.25
467.391	716.25
467.61	703.25
467.829	740.25
468.049	719.25
468.268	682.25
468.488	694.25
468.707	649.25
468.927	700.25
469.146	678.25
469.365	704.25
469.585	713.25
469.804	707.25
470.023	734.25
470.243	720.25
470.462	717.25
470.681	728.25
470.901	736.25
471.12	702.25
471.339	698.25
471.558	684.25
471.777	673.25
471.997	678.25
472.216	675.25
472.435	694.25
472.654	651.25
472.873	660.25
473.092	680.25
473.311	664.25
473.53	675.25
473.749	659.25
473.968	681.25
474.187	671.25
474.406	647.25
474.625	687.25
474.844	651.25
475.063	672.25
475.282	649.25
475.501	661.25
475.72	671.25
475.939	667.25
476.158	687.25
476.377	707.25
476.596	684.25
476.814	711.25
477.033	692.25
477.252	707.25
477.471	709.25
477.69	741.25
477.908	769.25
478.127	771.25
478.346	803.25
478.564	800.25
478.783	796.25
479.002	834.25
479.22	856.25
479.439	821.25
479.658	775.25
479.876	829.25
480.095	846.25
480.313	865.25
480.532	889.25
480.751	867.25
480.969	823.25
481.188	808.25
481.406	788.25
481.624	754.25
481.843	770.25
482.061	754.25
482.28	740.25
482.498	756.25
482.717	739.25
482.935	737.25
483.153	762.25
483.372	779.25
483.59	739.25
483.808	744.25
484.027	727.25
484.245	781.25
484.463	757.25
484.681	804.25
484.9	772.25
485.118	749.25
485.336	791.25
485.554	778.25
485.772	770.25
485.99	799.25
486.209	822.25
486.427	777.25
486.645	789.25
486.863	789.25
487.081	794.25
487.299	785.25
487.517	789.25
487.735	758.25
487.953	788.25
488.171	789.25
488.389	797.25
488.607	760.25
488.825	783.25
489.043	793.25
489.261	790.25
489.479	799.25
489.696	781.25
489.914	799.25
490.132	805.25
490.35	773.25
490.568	751.25
490.786	787.25
491.003	799.25
491.221	791.25
491.439	822.25
491.657	796.25
491.874	812.25
492.092	806.25
492.31	796.25
492.527	822.25
492.745	840.25
492.963	804.25
493.18	803.25
493.398	804.25
493.615	821.25
493.833	827.25
494.05	851.25
494.268	835.25
494.485	837.25
494.703	826.25
494.92	834.25
495.138	839.25
495.355	808.25
495.573	821.25
495.79	827.25
496.008	847.25
496.225	849.25
496.442	834.25
496.66	866.25
496.877	879.25
497.094	901.25
497.312	907.25
497.529	925.25
497.746	915.25
497.963	948.25
498.181	989.25
498.398	1028.25
498.615	1106.25
498.832	1181.25
499.049	1263.25
499.267	1339.25
499.484	1482.25
499.701	1683.25
499.918	1853.25
500.135	2103.25
500.352	2402.25
500.569	2507.25
500.786	2515.25
501.003	2304.25
501.22	2045.25
501.437	1793.25
501.654	1565.25
501.871	1425.25
502.088	1297.25
502.305	1220.25
502.522	1208.25
502.739	1148.25
502.956	1092.25
503.172	1011.25
503.389	971.25
503.606	984.25
503.823	963.25
504.04	946.25
504.256	956.25
504.473	947.25
504.69	1002.25
504.907	987.25
505.123	894.25
505.34	867.25
505.557	847.25
505.773	803.25
505.99	795.25
506.207	764.25
506.423	782.25
506.64	751.25
506.856	743.25
507.073	733.25
507.289	757.25
507.506	732.25
507.722	711.25
507.939	722.25
508.155	723.25
508.372	707.25
508.588	724.25
508.805	703.25
509.021	695.25
509.238	700.25
509.454	704.25
509.67	657.25
509.887	685.25
510.103	679.25
510.319	676.25
510.536	677.25
510.752	671.25
510.968	691.25
511.184	661.25
511.401	661.25
511.617	687.25
511.833	666.25
512.049	673.25
512.265	659.25
512.481	682.25
512.698	657.25
512.914	660.25
513.13	646.25
513.346	690.25
513.562	674.25
513.778	705.25
513.994	681.25
514.21	684.25
514.426	692.25
514.642	697.25
514.858	711.25
515.074	668.25
515.29	702.25
515.506	725.25
515.721	729.25
515.937	719.25
516.153	741.25
516.369	732.25
516.585	763.25
516.801	778.25
517.016	793.25
517.232	869.25
517.448	897.25
517.664	961.25
517.879	925.25
518.095	936.25
518.311	918.25
518.527	871.25
518.742	874.25
518.958	818.25
519.173	798.25
519.389	775.25
519.605	753.25
519.82	727.25
520.036	727.25
520.251	688.25
520.467	691.25
520.682	670.25
520.898	680.25
521.113	647.25
521.329	673.25
521.544	647.25
521.76	672.25
521.975	649.25
522.19	660.25
522.406	616.25
522.621	641.25
522.836	641.25
523.052	649.25
523.267	626.25
523.482	611.25
523.698	649.25
523.913	626.25
524.128	637.25
524.343	627.25
524.559	623.25
524.774	599.25
524.989	609.25
525.204	647.25
525.419	605.25
525.634	600.25
525.849	582.25
526.064	600.25
526.28	631.25
526.495	613.25
526.71	643.25
526.925	601.25
527.14	593.25
527.355	634.25
527.57	610.25
527.785	609.25
527.999	603.25
528.214	612.25
528.429	620.25
528.644	595.25
528.859	621.25
529.074	609.25
529.289	620.25
529.503	611.25
529.718	620.25
529.933	610.25
530.148	584.25
530.363	631.25
530.577	623.25
530.792	588.25
531.007	591.25
531.221	620.25
531.436	626.25
531.651	604.25
531.865	603.25
532.08	604.25
532.295	592.25
532.509	613.25
532.724	600.25
532.938	594.25
533.153	602.25
533.367	613.25
533.582	619.25
533.796	611.25
534.011	582.25
534.225	609.25
534.44	599.25
534.654	591.25
534.868	586.25
535.083	595.25
535.297	615.25
535.511	604.25
535.726	592.25
535.94	595.25
536.154	581.25
536.369	581.25
536.583	575.25
536.797	578.25
537.011	572.25
537.225	573.25
537.44	573.25
537.654	576.25
537.868	575.25
538.082	574.25
538.296	555.25
538.51	572.25
538.724	572.25
538.938	557.25
539.153	555.25
539.367	567.25
539.581	524.25
539.795	564.25
540.009	526.25
540.222	546.25
540.436	545.25
540.65	557.25
540.864	546.25
541.078	533.25
541.292	539.25
541.506	573.25
541.72	543.25
541.934	579.25
542.147	543.25
542.361	561.25
542.575	551.25
542.789	540.25
543.002	545.25
543.216	548.25
543.43	547.25
543.644	537.25
543.857	546.25
544.071	545.25
544.285	553.25
544.498	571.25
544.712	556.25
544.925	548.25
545.139	537.25
545.352	561.25
545.566	565.25
545.779	565.25
545.993	544.25
546.206	547.25
546.42	549.25
546.633	547.25
546.847	565.25
547.06	563.25
547.274	563.25
547.487	557.25
547.7	564.25
547.914	545.25
548.127	563.25
548.34	563.25
548.554	561.25
548.767	569.25
548.98	560.25
549.193	568.25
549.407	575.25
549.62	585.25
549.833	572.25
550.046	591.25
550.259	581.25
550.473	565.25
550.686	552.25
550.899	564.25
551.112	555.25
551.325	554.25
551.538	555.25
551.751	539.25
551.964	566.25
552.177	559.25
552.39	588.25
552.603	571.25
552.816	607.25
553.029	605.25
553.242	617.25
553.455	624.25
553.667	620.25
553.88	591.25
554.093	599.25
554.306	562.25
554.519	553.25
554.732	555.25
554.944	538.25
555.157	558.25
555.37	528.25
555.583	511.25
555.795	527.25
556.008	504.25
556.221	505.25
556.433	500.25
556.646	492.25
556.859	481.25
557.071	488.25
557.284	476.25
557.496	483.25
557.709	491.25
557.921	467.25
558.134	465.25
558.346	487.25
558.559	477.25
558.771	476.25
558.984	479.25
559.196	485.25
559.409	481.25
559.621	488.25
559.833	476.25
560.046	470.25
560.258	465.25
560.47	478.25
560.683	463.25
560.895	453.25
561.107	464.25
561.32	453.25
561.532	472.25
561.744	451.25
561.956	451.25
562.168	465.25
562.381	470.25
562.593	475.25
562.805	475.25
563.017	460.25
563.229	477.25
563.441	493.25
563.653	486.25
563.865	487.25
564.077	493.25
564.289	488.25
564.501	495.25
564.713	480.25
564.925	513.25
565.137	537.25
565.349	522.25
565.561	543.25
565.773	536.25
565.985	578.25
566.197	606.25
566.408	632.25
566.62	693.25
566.832	708.25
567.044	745.25
567.255	775.25
567.467	757.25
567.679	817.25
567.891	876.25
568.102	899.25
568.314	844.25
568.526	779.25
568.737	721.25
568.949	652.25
569.161	609.25
569.372	539.25
569.584	516.25
569.795	509.25
570.007	476.25
570.218	477.25
570.43	468.25
570.641	468.25
570.853	483.25
571.064	469.25
571.276	485.25
571.487	481.25
571.698	451.25
571.91	432.25
572.121	439.25
572.333	418.25
572.544	410.25
572.755	406.25
572.966	415.25
573.178	404.25
573.389	409.25
573.6	373.25
573.811	370.25
574.023	391.25
574.234	391.25
574.445	394.25
574.656	418.25
574.867	382.25
575.078	384.25
575.289	391.25
575.501	390.25
575.712	400.25
575.923	392.25
576.134	368.25
576.345	383.25
576.556	386.25
576.767	378.25
576.978	377.25
577.188	367.25
577.399	367.25
577.61	340.25
577.821	360.25
578.032	371.25
578.243	361.25
578.454	345.25
578.665	351.25
578.875	339.25
579.086	343.25
579.297	348.25
579.508	356.25
579.718	360.25
579.929	363.25
580.14	347.25
580.35	328.25
580.561	342.25
580.772	332.25
580.982	315.25
581.193	331.25
581.403	338.25
581.614	359.25
581.825	339.25
582.035	323.25
582.246	336.25
582.456	340.25
582.667	325.25
582.877	326.25
583.087	331.25
583.298	333.25
583.508	328.25
583.719	320.25
583.929	316.25
584.139	329.25
584.35	321.25
584.56	329.25
584.77	313.25
584.981	319.25
585.191	320.25
585.401	321.25
585.611	317.25
585.821	331.25
586.032	313.25
586.242	300.25
586.452	332.25
586.662	318.25
586.872	307.25
587.082	322.25
587.292	319.25
587.502	333.25
587.713	327.25
587.923	313.25
588.133	305.25
588.343	314.25
588.553	331.25
588.762	326.25
588.972	311.25
589.182	312.25
589.392	315.25
589.602	301.25
589.812	308.25
590.022	309.25
590.232	329.25
590.441	326.25
590.651	323.25
590.861	320.25
591.071	327.25
591.281	321.25
591.49	332.25
591.7	340.25
591.91	345.25
592.119	332.25
592.329	339.25
592.539	349.25
592.748	372.25
592.958	375.25
593.167	391.25
593.377	401.25
593.587	409.25
593.796	387.25
594.006	407.25
594.215	401.25
594.424	402.25
594.634	386.25
594.843	383.25
595.053	356.25
595.262	363.25
595.472	346.25
595.681	349.25
595.89	333.25
596.1	307.25
596.309	302.25
596.518	309.25
596.727	289.25
596.937	314.25
597.146	291.25
597.355	280.25
597.564	298.25
597.774	288.25
597.983	286.25
598.192	279.25
598.401	273.25
598.61	285.25
598.819	275.25
599.028	290.25
599.237	263.25
599.446	280.25
599.655	288.25
599.864	265.25
600.073	269.25
600.282	265.25
600.491	271.25
600.7	274.25
600.909	267.25
601.118	266.25
601.327	262.25
601.536	256.25
601.745	272.25
601.953	260.25
602.162	264.25
602.371	274.25
602.58	258.25
602.789	264.25
602.997	255.25
603.206	268.25
603.415	267.25
603.623	259.25
603.832	258.25
604.041	255.25
604.249	253.25
604.458	252.25
604.666	273.25
604.875	278.25
605.084	265.25
605.292	231.25
605.501	238.25
605.709	243.25
605.918	260.25
606.126	228.25
606.334	241.25
606.543	263.25
606.751	250.25
606.96	243.25
607.168	227.25
607.376	263.25
607.585	259.25
607.793	251.25
608.001	267.25
608.21	255.25
608.418	234.25
608.626	220.25
608.834	229.25
609.043	240.25
609.251	239.25
609.459	234.25
609.667	231.25
609.875	256.25
610.083	244.25
610.291	262.25
610.499	240.25
610.707	253.25
610.916	233.25
611.124	238.25
611.332	236.25
611.54	243.25
611.748	231.25
611.955	247.25
612.163	237.25
612.371	229.25
612.579	232.25
612.787	244.25
612.995	236.25
613.203	257.25
613.411	232.25
613.618	243.25
613.826	235.25
614.034	228.25
614.242	237.25
614.449	230.25
614.657	229.25
614.865	239.25
615.072	244.25
615.28	223.25
615.488	244.25
615.695	240.25
615.903	239.25
616.111	230.25
616.318	226.25
616.526	241.25
616.733	226.25
616.941	246.25
617.148	259.25
617.356	232.25
617.563	229.25
617.771	225.25
617.978	236.25
618.185	234.25
618.393	239.25
618.6	220.25
618.807	250.25
619.015	221.25
619.222	243.25
619.429	217.25
619.637	231.25
619.844	232.25
620.051	219.25
620.258	236.25
620.466	205.25
620.673	229.25
620.88	229.25
621.087	219.25
621.294	215.25
621.501	215.25
621.708	220.25
621.915	210.25
622.122	224.25
622.329	203.25
622.536	223.25
622.743	207.25
622.95	212.25
623.157	200.25
623.364	215.25
623.571	205.25
623.778	202.25
623.985	215.25
624.192	200.25
624.399	196.25
624.606	215.25
624.812	199.25
625.019	189.25
625.226	215.25
625.433	217.25
625.639	195.25
625.846	199.25
626.053	197.25
626.259	202.25
626.466	211.25
626.673	208.25
626.879	200.25
627.086	215.25
627.293	193.25
627.499	203.25
627.706	197.25
627.912	209.25
628.119	196.25
628.325	195.25
628.532	203.25
628.738	194.25
628.945	200.25
629.151	200.25
629.357	191.25
629.564	203.25
629.77	204.25
629.976	185.25
630.183	185.25
630.389	195.25
630.595	190.25
630.802	175.25
631.008	185.25
631.214	192.25
631.42	206.25
631.627	189.25
631.833	205.25
632.039	197.25
632.245	187.25
632.451	183.25
632.657	187.25
632.863	184.25
633.069	182.25
633.275	187.25
633.481	188.25
633.688	197.25
633.893	173.25
634.099	178.25
634.305	183.25
634.511	180.25
634.717	176.25
634.923	176.25
635.129	178.25
635.335	175.25
635.541	172.25
635.747	168.25
635.952	184.25
636.158	179.25
636.364	181.25
636.57	185.25
636.775	157.25
636.981	156.25
637.187	176.25
637.392	173.25
637.598	160.25
637.804	182.25
638.009	177.25
638.215	188.25
638.421	184.25
638.626	156.25
638.832	170.25
639.037	185.25
639.243	181.25
639.448	175.25
639.654	181.25
639.859	166.25
640.065	183.25
640.27	181.25
640.475	164.25
640.681	157.25
640.886	163.25
641.091	163.25
641.297	163.25
641.502	169.25
641.707	172.25
641.913	166.25
642.118	145.25
642.323	160.25
642.528	164.25
642.733	195.25
642.939	168.25
643.144	166.25
643.349	176.25
643.554	171.25
643.759	159.25
643.964	158.25
644.169	165.25
644.374	180.25
644.579	157.25
644.784	148.25
644.989	149.25
645.194	164.25
645.399	167.25
645.604	167.25
645.809	152.25
646.014	149.25
646.219	162.25
646.423	171.25
646.628	159.25
646.833	159.25
647.038	178.25
647.243	164.25
647.447	157.25
647.652	173.25
647.857	175.25
648.062	181.25
648.266	172.25
648.471	163.25
648.676	173.25
648.88	186.25
649.085	167.25
649.289	145.25
649.494	164.25
649.698	168.25
649.903	153.25
650.107	152.25
650.312	172.25
650.516	159.25
650.721	155.25
650.925	164.25
651.13	151.25
651.334	155.25
651.539	156.25
651.743	145.25
651.947	147.25
652.152	151.25
652.356	145.25
652.56	126.25
652.764	139.25
652.969	141.25
653.173	149.25
653.377	137.25
653.581	118.25
653.785	136.25
653.99	148.25
654.194	137.25
654.398	126.25
654.602	131.25
654.806	132.25
655.01	126.25
655.214	129.25
655.418	131.25
655.622	132.25
655.826	140.25
656.03	124.25
656.234	111.25
656.438	123.25
656.642	142.25
656.846	120.25
657.049	138.25
657.253	113.25
657.457	116.25
657.661	102.25
657.865	107.25
658.068	112.25
658.272	99.25
658.476	87.25
658.68	107.25
658.883	116.25
659.087	96.25
659.291	105.25
659.494	93.25
659.698	94.25
659.901	92.25
660.105	115.25
660.309	93.25
660.512	101.25
660.716	89.25
660.919	91.25
661.123	95.25
661.326	89.25
661.53	76.25
661.733	82.25
661.936	93.25
662.14	80.25
662.343	95.25
662.546	95.25
662.75	96.25
662.953	82.25
663.156	91.25
663.36	82.25
663.563	84.25
663.766	84.25
663.969	85.25
664.173	73.25
664.376	94.25
664.579	83.25
664.782	80.25
664.985	80.25
665.188	81.25
665.391	78.25
665.594	93.25
665.797	75.25
666	89.25
666.203	77.25
666.406	78.25
666.609	92.25
666.812	85.25
667.015	82.25
667.218	79.25
667.421	95.25
667.624	74.25
667.827	82.25
668.03	84.25
668.232	77.25
668.435	87.25
668.638	81.25
668.841	95.25
669.043	77.25
669.246	71.25
669.449	75.25
669.651	75.25
669.854	84.25
670.057	88.25
670.259	76.25
670.462	76.25
670.665	83.25
670.867	65.25
671.07	69.25
671.272	69.25
671.475	75.25
671.677	85.25
671.88	87.25
672.082	81.25
672.284	78.25
672.487	81.25
672.689	69.25
672.892	77.25
