Data from Ni(NO3)2@0.25M.TitratingCurve.Agarose3%dH2O.NegLispCup.LampEnergy10.LIBS07252019_HRD10591_18-03-52-566.txt Node
Date: Thu Jul 25 18:03:52 EDT 2019
User: cochatt
Spectrometer: HR+D1059
Trigger mode: 1
Integration Time (sec): 1.000000E-1
Scans to average: 1
Electric dark correction enabled: true
Nonlinearity correction enabled: false
Boxcar width: 0
XAxis mode: Wavelengths
Number of Pixels in Spectrum: 2048
>>>>>Begin Spectral Data<<<<<
223.165	-17.94
223.4	-17.94
223.635	-17.94
223.869	-18.94
224.104	-34.94
224.338	-5.94
224.573	-7.94
224.808	3.06
225.042	-11.94
225.277	-8.94
225.511	-5.94
225.746	16.06
225.98	10.06
226.215	2.06
226.449	14.06
226.683	11.06
226.918	20.06
227.152	36.06
227.387	44.06
227.621	43.06
227.856	56.06
228.09	54.06
228.324	52.06
228.559	70.06
228.793	66.06
229.027	78.06
229.262	67.06
229.496	86.06
229.73	85.06
229.964	88.06
230.199	111.06
230.433	100.06
230.667	95.06
230.901	117.06
231.136	94.06
231.37	100.06
231.604	120.06
231.838	103.06
232.072	124.06
232.306	116.06
232.541	100.06
232.775	134.06
233.009	119.06
233.243	114.06
233.477	107.06
233.711	126.06
233.945	106.06
234.179	118.06
234.413	99.06
234.647	109.06
234.881	104.06
235.115	112.06
235.349	103.06
235.583	130.06
235.817	114.06
236.051	110.06
236.285	100.06
236.519	97.06
236.753	102.06
236.987	100.06
237.221	110.06
237.455	107.06
237.689	107.06
237.922	106.06
238.156	93.06
238.39	106.06
238.624	120.06
238.858	112.06
239.091	111.06
239.325	111.06
239.559	123.06
239.793	120.06
240.027	138.06
240.26	116.06
240.494	103.06
240.728	101.06
240.961	104.06
241.195	124.06
241.429	126.06
241.662	112.06
241.896	114.06
242.13	116.06
242.363	104.06
242.597	124.06
242.83	123.06
243.064	127.06
243.298	118.06
243.531	133.06
243.765	124.06
243.998	130.06
244.232	134.06
244.465	128.06
244.699	120.06
244.932	131.06
245.166	124.06
245.399	131.06
245.633	128.06
245.866	134.06
246.099	122.06
246.333	126.06
246.566	126.06
246.8	141.06
247.033	127.06
247.266	135.06
247.5	140.06
247.733	145.06
247.966	155.06
248.2	156.06
248.433	153.06
248.666	146.06
248.899	143.06
249.133	146.06
249.366	150.06
249.599	159.06
249.832	160.06
250.066	158.06
250.299	158.06
250.532	142.06
250.765	160.06
250.998	165.06
251.231	172.06
251.465	156.06
251.698	158.06
251.931	172.06
252.164	175.06
252.397	167.06
252.63	169.06
252.863	171.06
253.096	167.06
253.329	186.06
253.562	171.06
253.795	179.06
254.028	179.06
254.261	185.06
254.494	175.06
254.727	182.06
254.96	174.06
255.193	187.06
255.426	197.06
255.659	189.06
255.892	203.06
256.124	204.06
256.357	200.06
256.59	200.06
256.823	213.06
257.056	206.06
257.289	206.06
257.521	210.06
257.754	199.06
257.987	199.06
258.22	211.06
258.452	212.06
258.685	215.06
258.918	210.06
259.151	194.06
259.383	212.06
259.616	211.06
259.849	212.06
260.081	214.06
260.314	232.06
260.547	221.06
260.779	227.06
261.012	235.06
261.244	218.06
261.477	231.06
261.71	207.06
261.942	216.06
262.175	228.06
262.407	222.06
262.64	231.06
262.872	222.06
263.105	234.06
263.337	232.06
263.57	230.06
263.802	224.06
264.035	227.06
264.267	237.06
264.499	246.06
264.732	219.06
264.964	219.06
265.197	235.06
265.429	240.06
265.661	253.06
265.894	235.06
266.126	244.06
266.358	250.06
266.591	235.06
266.823	247.06
267.055	247.06
267.287	230.06
267.52	248.06
267.752	246.06
267.984	248.06
268.216	253.06
268.448	246.06
268.681	254.06
268.913	232.06
269.145	239.06
269.377	236.06
269.609	246.06
269.841	266.06
270.073	256.06
270.306	262.06
270.538	253.06
270.77	254.06
271.002	279.06
271.234	247.06
271.466	245.06
271.698	245.06
271.93	263.06
272.162	255.06
272.394	272.06
272.626	268.06
272.858	243.06
273.09	262.06
273.322	270.06
273.553	264.06
273.785	275.06
274.017	264.06
274.249	258.06
274.481	255.06
274.713	278.06
274.945	280.06
275.176	257.06
275.408	263.06
275.64	273.06
275.872	271.06
276.104	265.06
276.335	281.06
276.567	277.06
276.799	281.06
277.031	279.06
277.262	262.06
277.494	263.06
277.726	274.06
277.957	275.06
278.189	269.06
278.421	276.06
278.652	276.06
278.884	282.06
279.115	283.06
279.347	286.06
279.579	285.06
279.81	266.06
280.042	290.06
280.273	278.06
280.505	290.06
280.736	268.06
280.968	288.06
281.199	269.06
281.431	292.06
281.662	289.06
281.894	282.06
282.125	278.06
282.356	288.06
282.588	298.06
282.819	296.06
283.051	302.06
283.282	291.06
283.513	296.06
283.745	290.06
283.976	290.06
284.207	286.06
284.439	286.06
284.67	297.06
284.901	300.06
285.132	296.06
285.364	287.06
285.595	299.06
285.826	300.06
286.057	300.06
286.288	278.06
286.52	290.06
286.751	271.06
286.982	299.06
287.213	302.06
287.444	284.06
287.675	308.06
287.906	310.06
288.138	286.06
288.369	297.06
288.6	297.06
288.831	298.06
289.062	302.06
289.293	300.06
289.524	286.06
289.755	296.06
289.986	308.06
290.217	294.06
290.448	296.06
290.679	299.06
290.91	300.06
291.141	309.06
291.371	287.06
291.602	292.06
291.833	294.06
292.064	302.06
292.295	300.06
292.526	310.06
292.757	292.06
292.987	300.06
293.218	305.06
293.449	316.06
293.68	312.06
293.91	293.06
294.141	298.06
294.372	302.06
294.603	295.06
294.833	322.06
295.064	278.06
295.295	287.06
295.525	302.06
295.756	293.06
295.987	299.06
296.217	309.06
296.448	325.06
296.679	309.06
296.909	312.06
297.14	319.06
297.37	317.06
297.601	306.06
297.831	294.06
298.062	314.06
298.292	318.06
298.523	324.06
298.753	310.06
298.984	333.06
299.214	327.06
299.445	318.06
299.675	310.06
299.905	330.06
300.136	319.06
300.366	348.06
300.597	349.06
300.827	346.06
301.057	333.06
301.288	356.06
301.518	346.06
301.748	337.06
301.979	343.06
302.209	332.06
302.439	347.06
302.669	314.06
302.9	322.06
303.13	315.06
303.36	330.06
303.59	307.06
303.82	352.06
304.051	345.06
304.281	348.06
304.511	339.06
304.741	331.06
304.971	351.06
305.201	367.06
305.431	358.06
305.661	352.06
305.891	334.06
306.121	342.06
306.352	329.06
306.582	332.06
306.812	338.06
307.042	339.06
307.272	332.06
307.502	339.06
307.731	353.06
307.961	338.06
308.191	357.06
308.421	359.06
308.651	352.06
308.881	347.06
309.111	331.06
309.341	342.06
309.571	339.06
309.8	349.06
310.03	369.06
310.26	374.06
310.49	366.06
310.72	350.06
310.949	354.06
311.179	348.06
311.409	353.06
311.639	350.06
311.868	364.06
312.098	352.06
312.328	364.06
312.557	371.06
312.787	356.06
313.017	372.06
313.246	371.06
313.476	366.06
313.706	398.06
313.935	418.06
314.165	390.06
314.394	390.06
314.624	379.06
314.853	390.06
315.083	382.06
315.312	388.06
315.542	407.06
315.771	413.06
316.001	410.06
316.23	389.06
316.46	398.06
316.689	389.06
316.919	389.06
317.148	392.06
317.377	410.06
317.607	395.06
317.836	397.06
318.065	395.06
318.295	436.06
318.524	405.06
318.753	390.06
318.983	436.06
319.212	396.06
319.441	414.06
319.67	414.06
319.9	417.06
320.129	414.06
320.358	422.06
320.587	421.06
320.816	429.06
321.046	427.06
321.275	418.06
321.504	455.06
321.733	444.06
321.962	442.06
322.191	432.06
322.42	444.06
322.649	442.06
322.878	436.06
323.108	451.06
323.337	455.06
323.566	475.06
323.795	478.06
324.024	453.06
324.253	467.06
324.482	474.06
324.71	478.06
324.939	472.06
325.168	490.06
325.397	482.06
325.626	498.06
325.855	501.06
326.084	508.06
326.313	501.06
326.542	499.06
326.77	513.06
326.999	483.06
327.228	502.06
327.457	523.06
327.686	526.06
327.914	502.06
328.143	527.06
328.372	503.06
328.6	507.06
328.829	492.06
329.058	526.06
329.287	535.06
329.515	519.06
329.744	518.06
329.972	527.06
330.201	572.06
330.43	538.06
330.658	549.06
330.887	544.06
331.115	556.06
331.344	567.06
331.572	570.06
331.801	573.06
332.03	589.06
332.258	603.06
332.486	596.06
332.715	612.06
332.943	607.06
333.172	612.06
333.4	648.06
333.629	665.06
333.857	667.06
334.085	672.06
334.314	656.06
334.542	659.06
334.771	670.06
334.999	659.06
335.227	666.06
335.455	682.06
335.684	652.06
335.912	659.06
336.14	653.06
336.369	675.06
336.597	684.06
336.825	670.06
337.053	673.06
337.281	686.06
337.51	679.06
337.738	656.06
337.966	647.06
338.194	653.06
338.422	648.06
338.65	622.06
338.878	626.06
339.106	648.06
339.334	633.06
339.562	628.06
339.79	598.06
340.018	606.06
340.246	579.06
340.474	614.06
340.702	632.06
340.93	603.06
341.158	618.06
341.386	621.06
341.614	650.06
341.842	635.06
342.07	593.06
342.298	597.06
342.526	605.06
342.754	621.06
342.981	601.06
343.209	627.06
343.437	638.06
343.665	656.06
343.893	649.06
344.12	657.06
344.348	651.06
344.576	661.06
344.804	685.06
345.031	651.06
345.259	632.06
345.487	619.06
345.714	620.06
345.942	649.06
346.17	636.06
346.397	620.06
346.625	599.06
346.853	589.06
347.08	594.06
347.308	577.06
347.535	591.06
347.763	586.06
347.99	580.06
348.218	579.06
348.445	578.06
348.673	594.06
348.9	566.06
349.128	597.06
349.355	598.06
349.583	615.06
349.81	571.06
350.037	575.06
350.265	558.06
350.492	580.06
350.72	553.06
350.947	598.06
351.174	582.06
351.402	587.06
351.629	591.06
351.856	595.06
352.083	598.06
352.311	580.06
352.538	614.06
352.765	636.06
352.992	574.06
353.22	566.06
353.447	555.06
353.674	579.06
353.901	559.06
354.128	551.06
354.355	558.06
354.583	562.06
354.81	553.06
355.037	572.06
355.264	568.06
355.491	559.06
355.718	550.06
355.945	563.06
356.172	545.06
356.399	575.06
356.626	597.06
356.853	605.06
357.08	570.06
357.307	562.06
357.534	559.06
357.761	554.06
357.988	555.06
358.215	536.06
358.441	546.06
358.668	528.06
358.895	550.06
359.122	558.06
359.349	558.06
359.576	562.06
359.802	536.06
360.029	539.06
360.256	534.06
360.483	550.06
360.709	548.06
360.936	574.06
361.163	560.06
361.39	560.06
361.616	556.06
361.843	566.06
362.07	600.06
362.296	585.06
362.523	564.06
362.749	544.06
362.976	546.06
363.203	560.06
363.429	524.06
363.656	560.06
363.882	562.06
364.109	554.06
364.335	554.06
364.562	543.06
364.788	532.06
365.015	543.06
365.241	535.06
365.468	543.06
365.694	539.06
365.92	539.06
366.147	539.06
366.373	560.06
366.599	535.06
366.826	552.06
367.052	538.06
367.278	559.06
367.505	540.06
367.731	543.06
367.957	549.06
368.184	555.06
368.41	535.06
368.636	550.06
368.862	536.06
369.089	546.06
369.315	549.06
369.541	550.06
369.767	563.06
369.993	556.06
370.219	557.06
370.445	564.06
370.672	567.06
370.898	568.06
371.124	574.06
371.35	570.06
371.576	565.06
371.802	581.06
372.028	557.06
372.254	563.06
372.48	571.06
372.706	610.06
372.932	582.06
373.158	579.06
373.384	572.06
373.61	546.06
373.835	562.06
374.061	558.06
374.287	581.06
374.513	580.06
374.739	600.06
374.965	599.06
375.191	613.06
375.416	597.06
375.642	597.06
375.868	586.06
376.094	592.06
376.319	536.06
376.545	568.06
376.771	588.06
376.997	563.06
377.222	545.06
377.448	556.06
377.674	566.06
377.899	548.06
378.125	562.06
378.35	551.06
378.576	565.06
378.802	561.06
379.027	547.06
379.253	532.06
379.478	541.06
379.704	528.06
379.929	546.06
380.155	528.06
380.38	534.06
380.606	556.06
380.831	546.06
381.057	556.06
381.282	527.06
381.507	553.06
381.733	556.06
381.958	548.06
382.184	560.06
382.409	553.06
382.634	576.06
382.86	562.06
383.085	537.06
383.31	566.06
383.535	566.06
383.761	575.06
383.986	578.06
384.211	580.06
384.436	583.06
384.662	600.06
384.887	603.06
385.112	599.06
385.337	605.06
385.562	619.06
385.787	604.06
386.013	659.06
386.238	656.06
386.463	598.06
386.688	622.06
386.913	637.06
387.138	636.06
387.363	614.06
387.588	632.06
387.813	612.06
388.038	609.06
388.263	626.06
388.488	621.06
388.713	626.06
388.938	630.06
389.163	603.06
389.387	613.06
389.612	589.06
389.837	631.06
390.062	624.06
390.287	614.06
390.512	604.06
390.736	634.06
390.961	626.06
391.186	623.06
391.411	646.06
391.636	662.06
391.86	666.06
392.085	669.06
392.31	676.06
392.534	678.06
392.759	662.06
392.984	643.06
393.208	670.06
393.433	655.06
393.658	634.06
393.882	628.06
394.107	652.06
394.331	666.06
394.556	644.06
394.78	686.06
395.005	679.06
395.229	660.06
395.454	678.06
395.678	704.06
395.903	650.06
396.127	677.06
396.352	682.06
396.576	648.06
396.801	678.06
397.025	674.06
397.249	699.06
397.474	734.06
397.698	712.06
397.922	735.06
398.147	698.06
398.371	730.06
398.595	738.06
398.82	783.06
399.044	810.06
399.268	854.06
399.492	912.06
399.717	941.06
399.941	980.06
400.165	925.06
400.389	893.06
400.613	845.06
400.837	842.06
401.062	810.06
401.286	802.06
401.51	787.06
401.734	757.06
401.958	782.06
402.182	791.06
402.406	770.06
402.63	782.06
402.854	774.06
403.078	782.06
403.302	807.06
403.526	791.06
403.75	796.06
403.974	818.06
404.198	830.06
404.422	836.06
404.645	836.06
404.869	819.06
405.093	847.06
405.317	813.06
405.541	831.06
405.765	826.06
405.988	846.06
406.212	837.06
406.436	843.06
406.66	890.06
406.883	886.06
407.107	906.06
407.331	930.06
407.555	946.06
407.778	935.06
408.002	952.06
408.226	929.06
408.449	918.06
408.673	891.06
408.896	882.06
409.12	877.06
409.344	907.06
409.567	866.06
409.791	884.06
410.014	874.06
410.238	859.06
410.461	899.06
410.685	843.06
410.908	842.06
411.132	852.06
411.355	843.06
411.578	846.06
411.802	832.06
412.025	830.06
412.249	844.06
412.472	836.06
412.695	851.06
412.919	845.06
413.142	808.06
413.365	831.06
413.589	836.06
413.812	826.06
414.035	839.06
414.258	792.06
414.482	801.06
414.705	818.06
414.928	825.06
415.151	824.06
415.374	826.06
415.597	802.06
415.821	809.06
416.044	812.06
416.267	835.06
416.49	805.06
416.713	798.06
416.936	820.06
417.159	819.06
417.382	785.06
417.605	768.06
417.828	788.06
418.051	790.06
418.274	798.06
418.497	824.06
418.72	820.06
418.943	826.06
419.166	858.06
419.389	943.06
419.611	898.06
419.834	869.06
420.057	847.06
420.28	827.06
420.503	827.06
420.726	817.06
420.948	820.06
421.171	809.06
421.394	810.06
421.617	824.06
421.839	839.06
422.062	808.06
422.285	815.06
422.507	815.06
422.73	824.06
422.953	825.06
423.175	826.06
423.398	860.06
423.621	851.06
423.843	851.06
424.066	851.06
424.288	834.06
424.511	831.06
424.733	818.06
424.956	838.06
425.178	852.06
425.401	840.06
425.623	849.06
425.846	843.06
426.068	828.06
426.291	803.06
426.513	798.06
426.735	822.06
426.958	807.06
427.18	785.06
427.402	815.06
427.625	838.06
427.847	782.06
428.069	782.06
428.292	814.06
428.514	781.06
428.736	805.06
428.958	801.06
429.181	774.06
429.403	768.06
429.625	794.06
429.847	789.06
430.069	788.06
430.292	800.06
430.514	777.06
430.736	791.06
430.958	765.06
431.18	770.06
431.402	770.06
431.624	795.06
431.846	762.06
432.068	785.06
432.29	808.06
432.512	785.06
432.734	800.06
432.956	815.06
433.178	803.06
433.4	790.06
433.622	807.06
433.844	826.06
434.066	808.06
434.287	805.06
434.509	823.06
434.731	818.06
434.953	841.06
435.175	857.06
435.397	895.06
435.618	830.06
435.84	803.06
436.062	805.06
436.284	828.06
436.505	810.06
436.727	807.06
436.949	795.06
437.17	794.06
437.392	764.06
437.614	789.06
437.835	770.06
438.057	793.06
438.278	750.06
438.5	811.06
438.721	766.06
438.943	826.06
439.165	790.06
439.386	791.06
439.608	811.06
439.829	795.06
440.05	797.06
440.272	814.06
440.493	803.06
440.715	807.06
440.936	823.06
441.158	827.06
441.379	830.06
441.6	878.06
441.822	898.06
442.043	891.06
442.264	853.06
442.486	852.06
442.707	824.06
442.928	860.06
443.149	875.06
443.371	863.06
443.592	898.06
443.813	888.06
444.034	877.06
444.255	899.06
444.476	934.06
444.698	938.06
444.919	977.06
445.14	1046.06
445.361	967.06
445.582	914.06
445.803	872.06
446.024	863.06
446.245	866.06
446.466	848.06
446.687	840.06
446.908	838.06
447.129	810.06
447.35	827.06
447.571	811.06
447.792	762.06
448.013	759.06
448.234	803.06
448.455	791.06
448.675	783.06
448.896	738.06
449.117	762.06
449.338	748.06
449.559	741.06
449.779	738.06
450	748.06
450.221	748.06
450.442	755.06
450.662	732.06
450.883	756.06
451.104	768.06
451.324	750.06
451.545	758.06
451.766	752.06
451.986	754.06
452.207	734.06
452.428	756.06
452.648	736.06
452.869	763.06
453.089	724.06
453.31	712.06
453.53	716.06
453.751	731.06
453.971	729.06
454.192	726.06
454.412	707.06
454.633	710.06
454.853	724.06
455.073	714.06
455.294	721.06
455.514	704.06
455.734	691.06
455.955	699.06
456.175	708.06
456.395	708.06
456.616	699.06
456.836	723.06
457.056	706.06
457.276	710.06
457.497	718.06
457.717	708.06
457.937	729.06
458.157	749.06
458.377	732.06
458.598	776.06
458.818	749.06
459.038	756.06
459.258	786.06
459.478	797.06
459.698	821.06
459.918	817.06
460.138	850.06
460.358	880.06
460.578	895.06
460.798	891.06
461.018	908.06
461.238	879.06
461.458	877.06
461.678	915.06
461.898	939.06
462.118	937.06
462.338	960.06
462.558	984.06
462.777	1012.06
462.997	1018.06
463.217	1057.06
463.437	1090.06
463.657	1069.06
463.876	1007.06
464.096	1018.06
464.316	996.06
464.536	985.06
464.755	994.06
464.975	954.06
465.195	947.06
465.414	918.06
465.634	886.06
465.854	836.06
466.073	821.06
466.293	814.06
466.512	804.06
466.732	786.06
466.951	785.06
467.171	791.06
467.391	776.06
467.61	779.06
467.829	788.06
468.049	748.06
468.268	768.06
468.488	760.06
468.707	743.06
468.927	802.06
469.146	764.06
469.365	784.06
469.585	794.06
469.804	793.06
470.023	807.06
470.243	784.06
470.462	790.06
470.681	792.06
470.901	800.06
471.12	794.06
471.339	799.06
471.558	794.06
471.777	814.06
471.997	781.06
472.216	766.06
472.435	757.06
472.654	739.06
472.873	751.06
473.092	772.06
473.311	773.06
473.53	747.06
473.749	731.06
473.968	787.06
474.187	771.06
474.406	752.06
474.625	750.06
474.844	757.06
475.063	761.06
475.282	758.06
475.501	745.06
475.72	762.06
475.939	772.06
476.158	802.06
476.377	795.06
476.596	796.06
476.814	821.06
477.033	777.06
477.252	800.06
477.471	855.06
477.69	842.06
477.908	862.06
478.127	885.06
478.346	860.06
478.564	881.06
478.783	917.06
479.002	915.06
479.22	896.06
479.439	900.06
479.658	907.06
479.876	895.06
480.095	909.06
480.313	936.06
480.532	910.06
480.751	937.06
480.969	908.06
481.188	898.06
481.406	872.06
481.624	880.06
481.843	853.06
482.061	854.06
482.28	855.06
482.498	872.06
482.717	853.06
482.935	863.06
483.153	896.06
483.372	915.06
483.59	866.06
483.808	870.06
484.027	868.06
484.245	847.06
484.463	877.06
484.681	870.06
484.9	872.06
485.118	892.06
485.336	874.06
485.554	870.06
485.772	920.06
485.99	891.06
486.209	879.06
486.427	895.06
486.645	884.06
486.863	914.06
487.081	895.06
487.299	876.06
487.517	895.06
487.735	896.06
487.953	925.06
488.171	919.06
488.389	951.06
488.607	902.06
488.825	891.06
489.043	877.06
489.261	888.06
489.479	906.06
489.696	920.06
489.914	896.06
490.132	907.06
490.35	924.06
490.568	950.06
490.786	936.06
491.003	925.06
491.221	938.06
491.439	938.06
491.657	928.06
491.874	970.06
492.092	953.06
492.31	989.06
492.527	958.06
492.745	971.06
492.963	966.06
493.18	973.06
493.398	943.06
493.615	978.06
493.833	982.06
494.05	982.06
494.268	992.06
494.485	972.06
494.703	988.06
494.92	989.06
495.138	972.06
495.355	994.06
495.573	1011.06
495.79	1013.06
496.008	1007.06
496.225	1030.06
496.442	1065.06
496.66	1052.06
496.877	1069.06
497.094	1055.06
497.312	1094.06
497.529	1103.06
497.746	1144.06
497.963	1167.06
498.181	1225.06
498.398	1244.06
498.615	1288.06
498.832	1351.06
499.049	1381.06
499.267	1453.06
499.484	1592.06
499.701	1634.06
499.918	1806.06
500.135	1877.06
500.352	2059.06
500.569	2036.06
500.786	2033.06
501.003	1947.06
501.22	1852.06
501.437	1748.06
501.654	1666.06
501.871	1562.06
502.088	1484.06
502.305	1396.06
502.522	1375.06
502.739	1312.06
502.956	1227.06
503.172	1259.06
503.389	1175.06
503.606	1139.06
503.823	1111.06
504.04	1107.06
504.256	1118.06
504.473	1107.06
504.69	1067.06
504.907	1070.06
505.123	1037.06
505.34	1024.06
505.557	989.06
505.773	928.06
505.99	938.06
506.207	902.06
506.423	922.06
506.64	918.06
506.856	911.06
507.073	873.06
507.289	870.06
507.506	871.06
507.722	859.06
507.939	889.06
508.155	868.06
508.372	866.06
508.588	842.06
508.805	829.06
509.021	821.06
509.238	848.06
509.454	822.06
509.67	825.06
509.887	822.06
510.103	814.06
510.319	828.06
510.536	814.06
510.752	782.06
510.968	789.06
511.184	786.06
511.401	775.06
511.617	780.06
511.833	786.06
512.049	803.06
512.265	808.06
512.481	792.06
512.698	758.06
512.914	787.06
513.13	790.06
513.346	806.06
513.562	787.06
513.778	780.06
513.994	798.06
514.21	800.06
514.426	810.06
514.642	798.06
514.858	799.06
515.074	806.06
515.29	809.06
515.506	826.06
515.721	837.06
515.937	847.06
516.153	852.06
516.369	842.06
516.585	842.06
516.801	894.06
517.016	928.06
517.232	921.06
517.448	956.06
517.664	949.06
517.879	965.06
518.095	975.06
518.311	987.06
518.527	934.06
518.742	945.06
518.958	903.06
519.173	902.06
519.389	890.06
519.605	850.06
519.82	832.06
520.036	835.06
520.251	814.06
520.467	776.06
520.682	788.06
520.898	786.06
521.113	771.06
521.329	785.06
521.544	768.06
521.76	757.06
521.975	756.06
522.19	751.06
522.406	759.06
522.621	728.06
522.836	750.06
523.052	752.06
523.267	742.06
523.482	739.06
523.698	738.06
523.913	745.06
524.128	739.06
524.343	732.06
524.559	739.06
524.774	734.06
524.989	726.06
525.204	715.06
525.419	732.06
525.634	713.06
525.849	725.06
526.064	714.06
526.28	717.06
526.495	711.06
526.71	711.06
526.925	695.06
527.14	715.06
527.355	726.06
527.57	690.06
527.785	704.06
527.999	716.06
528.214	714.06
528.429	705.06
528.644	711.06
528.859	714.06
529.074	723.06
529.289	744.06
529.503	742.06
529.718	709.06
529.933	707.06
530.148	707.06
530.363	719.06
530.577	703.06
530.792	699.06
531.007	703.06
531.221	687.06
531.436	721.06
531.651	702.06
531.865	683.06
532.08	694.06
532.295	701.06
532.509	711.06
532.724	702.06
532.938	692.06
533.153	701.06
533.367	704.06
533.582	720.06
533.796	711.06
534.011	702.06
534.225	697.06
534.44	691.06
534.654	695.06
534.868	698.06
535.083	696.06
535.297	694.06
535.511	666.06
535.726	661.06
535.94	671.06
536.154	659.06
536.369	647.06
536.583	634.06
536.797	654.06
537.011	664.06
537.225	656.06
537.44	656.06
537.654	663.06
537.868	671.06
538.082	648.06
538.296	672.06
538.51	629.06
538.724	642.06
538.938	638.06
539.153	628.06
539.367	644.06
539.581	644.06
539.795	616.06
540.009	645.06
540.222	636.06
540.436	658.06
540.65	660.06
540.864	642.06
541.078	642.06
541.292	649.06
541.506	648.06
541.72	678.06
541.934	663.06
542.147	687.06
542.361	664.06
542.575	636.06
542.789	662.06
543.002	636.06
543.216	618.06
543.43	621.06
543.644	631.06
543.857	640.06
544.071	665.06
544.285	664.06
544.498	663.06
544.712	654.06
544.925	648.06
545.139	656.06
545.352	659.06
545.566	654.06
545.779	652.06
545.993	661.06
546.206	653.06
546.42	660.06
546.633	660.06
546.847	682.06
547.06	637.06
547.274	679.06
547.487	674.06
547.7	654.06
547.914	669.06
548.127	672.06
548.34	676.06
548.554	666.06
548.767	665.06
548.98	656.06
549.193	677.06
549.407	668.06
549.62	650.06
549.833	692.06
550.046	664.06
550.259	653.06
550.473	654.06
550.686	670.06
550.899	650.06
551.112	650.06
551.325	643.06
551.538	683.06
551.751	646.06
551.964	640.06
552.177	647.06
552.39	665.06
552.603	695.06
552.816	664.06
553.029	667.06
553.242	670.06
553.455	711.06
553.667	687.06
553.88	667.06
554.093	671.06
554.306	682.06
554.519	673.06
554.732	639.06
554.944	621.06
555.157	618.06
555.37	632.06
555.583	603.06
555.795	608.06
556.008	591.06
556.221	579.06
556.433	590.06
556.646	567.06
556.859	569.06
557.071	578.06
557.284	583.06
557.496	554.06
557.709	590.06
557.921	581.06
558.134	575.06
558.346	562.06
558.559	573.06
558.771	548.06
558.984	567.06
559.196	568.06
559.409	571.06
559.621	557.06
559.833	546.06
560.046	562.06
560.258	548.06
560.47	560.06
560.683	552.06
560.895	554.06
561.107	548.06
561.32	558.06
561.532	564.06
561.744	560.06
561.956	567.06
562.168	558.06
562.381	558.06
562.593	556.06
562.805	566.06
563.017	564.06
563.229	551.06
563.441	556.06
563.653	587.06
563.865	565.06
564.077	578.06
564.289	581.06
564.501	580.06
564.713	568.06
564.925	594.06
565.137	597.06
565.349	605.06
565.561	620.06
565.773	632.06
565.985	658.06
566.197	661.06
566.408	709.06
566.62	710.06
566.832	743.06
567.044	763.06
567.255	758.06
567.467	788.06
567.679	772.06
567.891	789.06
568.102	759.06
568.314	741.06
568.526	747.06
568.737	702.06
568.949	686.06
569.161	647.06
569.372	626.06
569.584	580.06
569.795	569.06
570.007	575.06
570.218	578.06
570.43	538.06
570.641	522.06
570.853	519.06
571.064	524.06
571.276	548.06
571.487	525.06
571.698	502.06
571.91	489.06
572.121	513.06
572.333	491.06
572.544	478.06
572.755	480.06
572.966	467.06
573.178	464.06
573.389	458.06
573.6	461.06
573.811	452.06
574.023	460.06
574.234	454.06
574.445	438.06
574.656	419.06
574.867	450.06
575.078	454.06
575.289	434.06
575.501	433.06
575.712	432.06
575.923	432.06
576.134	442.06
576.345	436.06
576.556	445.06
576.767	412.06
576.978	423.06
577.188	414.06
577.399	420.06
577.61	419.06
577.821	422.06
578.032	415.06
578.243	418.06
578.454	399.06
578.665	415.06
578.875	390.06
579.086	380.06
579.297	372.06
579.508	385.06
579.718	378.06
579.929	395.06
580.14	388.06
580.35	377.06
580.561	394.06
580.772	389.06
580.982	386.06
581.193	392.06
581.403	379.06
581.614	388.06
581.825	382.06
582.035	362.06
582.246	381.06
582.456	378.06
582.667	372.06
582.877	381.06
583.087	380.06
583.298	390.06
583.508	366.06
583.719	368.06
583.929	365.06
584.139	375.06
584.35	367.06
584.56	367.06
584.77	348.06
584.981	355.06
585.191	365.06
585.401	376.06
585.611	368.06
585.821	365.06
586.032	359.06
586.242	371.06
586.452	356.06
586.662	357.06
586.872	357.06
587.082	351.06
587.292	349.06
587.502	360.06
587.713	368.06
587.923	358.06
588.133	371.06
588.343	367.06
588.553	367.06
588.762	362.06
588.972	379.06
589.182	388.06
589.392	375.06
589.602	358.06
589.812	376.06
590.022	372.06
590.232	355.06
590.441	361.06
590.651	374.06
590.861	362.06
591.071	364.06
591.281	370.06
591.49	393.06
591.7	373.06
591.91	390.06
592.119	381.06
592.329	375.06
592.539	390.06
592.748	398.06
592.958	400.06
593.167	398.06
593.377	378.06
593.587	386.06
593.796	419.06
594.006	382.06
594.215	399.06
594.424	409.06
594.634	404.06
594.843	401.06
595.053	383.06
595.262	383.06
595.472	381.06
595.681	363.06
595.89	355.06
596.1	354.06
596.309	342.06
596.518	334.06
596.727	332.06
596.937	336.06
597.146	344.06
597.355	334.06
597.564	325.06
597.774	330.06
597.983	317.06
598.192	341.06
598.401	319.06
598.61	296.06
598.819	306.06
599.028	336.06
599.237	308.06
599.446	317.06
599.655	316.06
599.864	321.06
600.073	288.06
600.282	299.06
600.491	311.06
600.7	305.06
600.909	315.06
601.118	295.06
601.327	292.06
601.536	284.06
601.745	286.06
601.953	308.06
602.162	296.06
602.371	289.06
602.58	312.06
602.789	309.06
602.997	290.06
603.206	294.06
603.415	297.06
603.623	302.06
603.832	282.06
604.041	302.06
604.249	295.06
604.458	275.06
604.666	271.06
604.875	276.06
605.084	278.06
605.292	270.06
605.501	299.06
605.709	289.06
605.918	301.06
606.126	298.06
606.334	298.06
606.543	277.06
606.751	284.06
606.96	289.06
607.168	285.06
607.376	286.06
607.585	298.06
607.793	276.06
608.001	267.06
608.21	288.06
608.418	275.06
608.626	266.06
608.834	290.06
609.043	292.06
609.251	291.06
609.459	276.06
609.667	264.06
609.875	268.06
610.083	278.06
610.291	268.06
610.499	273.06
610.707	268.06
610.916	282.06
611.124	271.06
611.332	268.06
611.54	279.06
611.748	258.06
611.955	272.06
612.163	247.06
612.371	265.06
612.579	265.06
612.787	283.06
612.995	273.06
613.203	267.06
613.411	256.06
613.618	259.06
613.826	264.06
614.034	275.06
614.242	274.06
614.449	248.06
614.657	256.06
614.865	252.06
615.072	262.06
615.28	255.06
615.488	261.06
615.695	262.06
615.903	276.06
616.111	265.06
616.318	261.06
616.526	243.06
616.733	278.06
616.941	252.06
617.148	271.06
617.356	265.06
617.563	258.06
617.771	266.06
617.978	255.06
618.185	268.06
618.393	261.06
618.6	253.06
618.807	252.06
619.015	269.06
619.222	258.06
619.429	258.06
619.637	253.06
619.844	254.06
620.051	248.06
620.258	248.06
620.466	215.06
620.673	241.06
620.88	223.06
621.087	249.06
621.294	225.06
621.501	261.06
621.708	254.06
621.915	244.06
622.122	267.06
622.329	242.06
622.536	239.06
622.743	244.06
622.95	260.06
623.157	244.06
623.364	241.06
623.571	242.06
623.778	223.06
623.985	241.06
624.192	233.06
624.399	232.06
624.606	226.06
624.812	237.06
625.019	215.06
625.226	216.06
625.433	248.06
625.639	209.06
625.846	230.06
626.053	222.06
626.259	226.06
626.466	226.06
626.673	226.06
626.879	232.06
627.086	233.06
627.293	226.06
627.499	238.06
627.706	237.06
627.912	221.06
628.119	226.06
628.325	222.06
628.532	218.06
628.738	233.06
628.945	224.06
629.151	212.06
629.357	223.06
629.564	226.06
629.77	220.06
629.976	207.06
630.183	206.06
630.389	216.06
630.595	216.06
630.802	211.06
631.008	231.06
631.214	213.06
631.42	215.06
631.627	222.06
631.833	216.06
632.039	204.06
632.245	208.06
632.451	201.06
632.657	217.06
632.863	201.06
633.069	208.06
633.275	199.06
633.481	203.06
633.688	199.06
633.893	200.06
634.099	203.06
634.305	207.06
634.511	202.06
634.717	200.06
634.923	197.06
635.129	187.06
635.335	192.06
635.541	204.06
635.747	202.06
635.952	188.06
636.158	207.06
636.364	190.06
636.57	205.06
636.775	217.06
636.981	204.06
637.187	217.06
637.392	190.06
637.598	169.06
637.804	194.06
638.009	189.06
638.215	195.06
638.421	198.06
638.626	189.06
638.832	191.06
639.037	197.06
639.243	190.06
639.448	198.06
639.654	197.06
639.859	181.06
640.065	192.06
640.27	181.06
640.475	184.06
640.681	180.06
640.886	206.06
641.091	165.06
641.297	191.06
641.502	182.06
641.707	178.06
641.913	194.06
642.118	178.06
642.323	184.06
642.528	192.06
642.733	199.06
642.939	194.06
643.144	194.06
643.349	179.06
643.554	182.06
643.759	168.06
643.964	178.06
644.169	194.06
644.374	194.06
644.579	184.06
644.784	198.06
644.989	173.06
645.194	178.06
645.399	192.06
645.604	169.06
645.809	180.06
646.014	185.06
646.219	182.06
646.423	190.06
646.628	184.06
646.833	177.06
647.038	187.06
647.243	170.06
647.447	181.06
647.652	169.06
647.857	168.06
648.062	199.06
648.266	191.06
648.471	187.06
648.676	178.06
648.88	191.06
649.085	202.06
649.289	195.06
649.494	166.06
649.698	176.06
649.903	168.06
650.107	179.06
650.312	169.06
650.516	180.06
650.721	167.06
650.925	160.06
651.13	165.06
651.334	159.06
651.539	162.06
651.743	156.06
651.947	162.06
652.152	172.06
652.356	162.06
652.56	152.06
652.764	159.06
652.969	125.06
653.173	158.06
653.377	169.06
653.581	150.06
653.785	154.06
653.99	158.06
654.194	155.06
654.398	153.06
654.602	152.06
654.806	150.06
655.01	148.06
655.214	134.06
655.418	130.06
655.622	142.06
655.826	134.06
656.03	133.06
656.234	138.06
656.438	141.06
656.642	119.06
656.846	133.06
657.049	124.06
657.253	128.06
657.457	118.06
657.661	127.06
657.865	122.06
658.068	122.06
658.272	98.06
658.476	123.06
658.68	118.06
658.883	120.06
659.087	111.06
659.291	113.06
659.494	111.06
659.698	94.06
659.901	115.06
660.105	115.06
660.309	109.06
660.512	88.06
660.716	96.06
660.919	94.06
661.123	96.06
661.326	91.06
661.53	94.06
661.733	100.06
661.936	95.06
662.14	85.06
662.343	91.06
662.546	83.06
662.75	77.06
662.953	102.06
663.156	75.06
663.36	87.06
663.563	62.06
663.766	73.06
663.969	83.06
664.173	91.06
664.376	86.06
664.579	83.06
664.782	90.06
664.985	90.06
665.188	92.06
665.391	90.06
665.594	97.06
665.797	86.06
666	86.06
666.203	80.06
666.406	84.06
666.609	81.06
666.812	93.06
667.015	91.06
667.218	83.06
667.421	98.06
667.624	78.06
667.827	102.06
668.03	92.06
668.232	86.06
668.435	94.06
668.638	86.06
668.841	100.06
669.043	90.06
669.246	85.06
669.449	75.06
669.651	70.06
669.854	85.06
670.057	86.06
670.259	82.06
670.462	87.06
670.665	73.06
670.867	76.06
671.07	84.06
671.272	78.06
671.475	80.06
671.677	86.06
671.88	82.06
672.082	90.06
672.284	98.06
672.487	92.06
672.689	84.06
672.892	82.06
