Data from Ni(NO3)2@0.0625M.TitratingCurve.Agarose3%dH2O.NegLispCup.LampEnergy10.LIBS07252019_HRD10591_18-14-41-570.txt Node
Date: Thu Jul 25 18:14:41 EDT 2019
User: cochatt
Spectrometer: HR+D1059
Trigger mode: 1
Integration Time (sec): 1.000000E-1
Scans to average: 1
Electric dark correction enabled: true
Nonlinearity correction enabled: false
Boxcar width: 0
XAxis mode: Wavelengths
Number of Pixels in Spectrum: 2048
>>>>>Begin Spectral Data<<<<<
223.165	-9.19
223.4	-9.19
223.635	-9.19
223.869	-20.19
224.104	-25.19
224.338	-6.19
224.573	-0.19
224.808	-9.19
225.042	-11.19
225.277	-13.19
225.511	-15.19
225.746	-1.19
225.98	14.81
226.215	-0.19
226.449	19.81
226.683	30.81
226.918	15.81
227.152	29.81
227.387	37.81
227.621	39.81
227.856	45.81
228.09	62.81
228.324	49.81
228.559	55.81
228.793	52.81
229.027	75.81
229.262	90.81
229.496	98.81
229.73	110.81
229.964	112.81
230.199	101.81
230.433	115.81
230.667	116.81
230.901	137.81
231.136	109.81
231.37	123.81
231.604	116.81
231.838	116.81
232.072	138.81
232.306	134.81
232.541	117.81
232.775	123.81
233.009	121.81
233.243	119.81
233.477	136.81
233.711	123.81
233.945	127.81
234.179	144.81
234.413	134.81
234.647	135.81
234.881	138.81
235.115	133.81
235.349	117.81
235.583	134.81
235.817	120.81
236.051	137.81
236.285	122.81
236.519	130.81
236.753	134.81
236.987	144.81
237.221	127.81
237.455	125.81
237.689	128.81
237.922	137.81
238.156	131.81
238.39	140.81
238.624	150.81
238.858	153.81
239.091	145.81
239.325	129.81
239.559	142.81
239.793	138.81
240.027	150.81
240.26	141.81
240.494	160.81
240.728	156.81
240.961	147.81
241.195	146.81
241.429	155.81
241.662	150.81
241.896	157.81
242.13	164.81
242.363	146.81
242.597	177.81
242.83	158.81
243.064	165.81
243.298	171.81
243.531	173.81
243.765	184.81
243.998	179.81
244.232	162.81
244.465	169.81
244.699	165.81
244.932	181.81
245.166	185.81
245.399	176.81
245.633	184.81
245.866	194.81
246.099	188.81
246.333	183.81
246.566	181.81
246.8	192.81
247.033	196.81
247.266	181.81
247.5	185.81
247.733	181.81
247.966	201.81
248.2	182.81
248.433	197.81
248.666	195.81
248.899	189.81
249.133	191.81
249.366	195.81
249.599	206.81
249.832	200.81
250.066	198.81
250.299	192.81
250.532	194.81
250.765	207.81
250.998	224.81
251.231	212.81
251.465	224.81
251.698	240.81
251.931	227.81
252.164	222.81
252.397	205.81
252.63	217.81
252.863	214.81
253.096	209.81
253.329	240.81
253.562	227.81
253.795	234.81
254.028	222.81
254.261	231.81
254.494	237.81
254.727	229.81
254.96	196.81
255.193	228.81
255.426	223.81
255.659	231.81
255.892	231.81
256.124	245.81
256.357	229.81
256.59	230.81
256.823	243.81
257.056	247.81
257.289	256.81
257.521	243.81
257.754	247.81
257.987	272.81
258.22	243.81
258.452	231.81
258.685	242.81
258.918	241.81
259.151	247.81
259.383	263.81
259.616	239.81
259.849	248.81
260.081	243.81
260.314	264.81
260.547	247.81
260.779	251.81
261.012	257.81
261.244	251.81
261.477	268.81
261.71	269.81
261.942	256.81
262.175	246.81
262.407	265.81
262.64	253.81
262.872	269.81
263.105	272.81
263.337	261.81
263.57	288.81
263.802	271.81
264.035	257.81
264.267	276.81
264.499	273.81
264.732	276.81
264.964	279.81
265.197	278.81
265.429	277.81
265.661	295.81
265.894	307.81
266.126	294.81
266.358	313.81
266.591	285.81
266.823	296.81
267.055	277.81
267.287	291.81
267.52	290.81
267.752	295.81
267.984	284.81
268.216	290.81
268.448	286.81
268.681	299.81
268.913	311.81
269.145	281.81
269.377	306.81
269.609	295.81
269.841	313.81
270.073	292.81
270.306	314.81
270.538	301.81
270.77	312.81
271.002	304.81
271.234	288.81
271.466	311.81
271.698	292.81
271.93	291.81
272.162	325.81
272.394	307.81
272.626	307.81
272.858	321.81
273.09	310.81
273.322	313.81
273.553	316.81
273.785	323.81
274.017	319.81
274.249	330.81
274.481	326.81
274.713	332.81
274.945	348.81
275.176	342.81
275.408	329.81
275.64	315.81
275.872	313.81
276.104	320.81
276.335	309.81
276.567	335.81
276.799	326.81
277.031	342.81
277.262	339.81
277.494	325.81
277.726	335.81
277.957	318.81
278.189	336.81
278.421	346.81
278.652	322.81
278.884	341.81
279.115	343.81
279.347	346.81
279.579	336.81
279.81	351.81
280.042	324.81
280.273	337.81
280.505	341.81
280.736	368.81
280.968	367.81
281.199	365.81
281.431	372.81
281.662	370.81
281.894	342.81
282.125	355.81
282.356	370.81
282.588	373.81
282.819	375.81
283.051	368.81
283.282	379.81
283.513	368.81
283.745	374.81
283.976	390.81
284.207	389.81
284.439	379.81
284.67	377.81
284.901	385.81
285.132	377.81
285.364	373.81
285.595	384.81
285.826	393.81
286.057	394.81
286.288	374.81
286.52	410.81
286.751	398.81
286.982	379.81
287.213	373.81
287.444	383.81
287.675	393.81
287.906	405.81
288.138	411.81
288.369	404.81
288.6	401.81
288.831	403.81
289.062	396.81
289.293	401.81
289.524	410.81
289.755	415.81
289.986	398.81
290.217	417.81
290.448	403.81
290.679	410.81
290.91	409.81
291.141	400.81
291.371	410.81
291.602	429.81
291.833	409.81
292.064	413.81
292.295	413.81
292.526	406.81
292.757	416.81
292.987	401.81
293.218	415.81
293.449	405.81
293.68	407.81
293.91	410.81
294.141	437.81
294.372	415.81
294.603	431.81
294.833	415.81
295.064	403.81
295.295	405.81
295.525	414.81
295.756	427.81
295.987	429.81
296.217	423.81
296.448	423.81
296.679	423.81
296.909	430.81
297.14	428.81
297.37	431.81
297.601	456.81
297.831	441.81
298.062	443.81
298.292	462.81
298.523	479.81
298.753	465.81
298.984	456.81
299.214	459.81
299.445	456.81
299.675	447.81
299.905	458.81
300.136	475.81
300.366	480.81
300.597	457.81
300.827	450.81
301.057	485.81
301.288	495.81
301.518	494.81
301.748	485.81
301.979	475.81
302.209	486.81
302.439	488.81
302.669	473.81
302.9	470.81
303.13	446.81
303.36	472.81
303.59	478.81
303.82	465.81
304.051	463.81
304.281	487.81
304.511	460.81
304.741	462.81
304.971	479.81
305.201	475.81
305.431	437.81
305.661	467.81
305.891	458.81
306.121	459.81
306.352	451.81
306.582	448.81
306.812	448.81
307.042	446.81
307.272	465.81
307.502	427.81
307.731	459.81
307.961	458.81
308.191	473.81
308.421	470.81
308.651	452.81
308.881	452.81
309.111	469.81
309.341	454.81
309.571	453.81
309.8	460.81
310.03	456.81
310.26	463.81
310.49	456.81
310.72	461.81
310.949	452.81
311.179	470.81
311.409	468.81
311.639	467.81
311.868	453.81
312.098	469.81
312.328	472.81
312.557	485.81
312.787	460.81
313.017	480.81
313.246	494.81
313.476	469.81
313.706	481.81
313.935	479.81
314.165	462.81
314.394	506.81
314.624	488.81
314.853	489.81
315.083	476.81
315.312	472.81
315.542	477.81
315.771	459.81
316.001	472.81
316.23	499.81
316.46	466.81
316.689	465.81
316.919	464.81
317.148	469.81
317.377	458.81
317.607	475.81
317.836	476.81
318.065	472.81
318.295	463.81
318.524	474.81
318.753	474.81
318.983	469.81
319.212	463.81
319.441	488.81
319.67	480.81
319.9	465.81
320.129	473.81
320.358	459.81
320.587	477.81
320.816	495.81
321.046	463.81
321.275	468.81
321.504	486.81
321.733	484.81
321.962	477.81
322.191	483.81
322.42	464.81
322.649	493.81
322.878	489.81
323.108	468.81
323.337	471.81
323.566	493.81
323.795	488.81
324.024	499.81
324.253	479.81
324.482	495.81
324.71	469.81
324.939	489.81
325.168	491.81
325.397	483.81
325.626	506.81
325.855	507.81
326.084	517.81
326.313	545.81
326.542	518.81
326.77	529.81
326.999	536.81
327.228	518.81
327.457	529.81
327.686	522.81
327.914	504.81
328.143	532.81
328.372	519.81
328.6	522.81
328.829	516.81
329.058	509.81
329.287	511.81
329.515	521.81
329.744	520.81
329.972	527.81
330.201	555.81
330.43	524.81
330.658	548.81
330.887	520.81
331.115	518.81
331.344	530.81
331.572	571.81
331.801	573.81
332.03	580.81
332.258	566.81
332.486	610.81
332.715	644.81
332.943	663.81
333.172	683.81
333.4	707.81
333.629	725.81
333.857	728.81
334.085	702.81
334.314	678.81
334.542	674.81
334.771	665.81
334.999	638.81
335.227	663.81
335.455	637.81
335.684	659.81
335.912	642.81
336.14	620.81
336.369	627.81
336.597	641.81
336.825	625.81
337.053	634.81
337.281	616.81
337.51	585.81
337.738	596.81
337.966	586.81
338.194	591.81
338.422	593.81
338.65	584.81
338.878	570.81
339.106	582.81
339.334	570.81
339.562	554.81
339.79	547.81
340.018	526.81
340.246	536.81
340.474	535.81
340.702	540.81
340.93	551.81
341.158	574.81
341.386	547.81
341.614	552.81
341.842	542.81
342.07	529.81
342.298	534.81
342.526	537.81
342.754	547.81
342.981	554.81
343.209	570.81
343.437	589.81
343.665	607.81
343.893	659.81
344.12	688.81
344.348	661.81
344.576	619.81
344.804	606.81
345.031	562.81
345.259	559.81
345.487	568.81
345.714	559.81
345.942	576.81
346.17	554.81
346.397	561.81
346.625	538.81
346.853	533.81
347.08	533.81
347.308	552.81
347.535	533.81
347.763	550.81
347.99	579.81
348.218	559.81
348.445	538.81
348.673	545.81
348.9	527.81
349.128	535.81
349.355	547.81
349.583	511.81
349.81	518.81
350.037	513.81
350.265	507.81
350.492	523.81
350.72	502.81
350.947	509.81
351.174	515.81
351.402	524.81
351.629	497.81
351.856	493.81
352.083	501.81
352.311	514.81
352.538	509.81
352.765	528.81
352.992	497.81
353.22	528.81
353.447	512.81
353.674	507.81
353.901	523.81
354.128	521.81
354.355	506.81
354.583	523.81
354.81	509.81
355.037	516.81
355.264	528.81
355.491	509.81
355.718	529.81
355.945	529.81
356.172	520.81
356.399	507.81
356.626	527.81
356.853	559.81
357.08	519.81
357.307	498.81
357.534	522.81
357.761	526.81
357.988	515.81
358.215	523.81
358.441	504.81
358.668	507.81
358.895	498.81
359.122	496.81
359.349	511.81
359.576	509.81
359.802	524.81
360.029	505.81
360.256	516.81
360.483	536.81
360.709	498.81
360.936	508.81
361.163	513.81
361.39	521.81
361.616	534.81
361.843	523.81
362.07	525.81
362.296	518.81
362.523	514.81
362.749	507.81
362.976	527.81
363.203	535.81
363.429	503.81
363.656	516.81
363.882	486.81
364.109	521.81
364.335	515.81
364.562	495.81
364.788	489.81
365.015	533.81
365.241	510.81
365.468	513.81
365.694	513.81
365.92	493.81
366.147	497.81
366.373	513.81
366.599	517.81
366.826	518.81
367.052	519.81
367.278	494.81
367.505	538.81
367.731	531.81
367.957	514.81
368.184	515.81
368.41	534.81
368.636	521.81
368.862	501.81
369.089	521.81
369.315	530.81
369.541	542.81
369.767	535.81
369.993	540.81
370.219	526.81
370.445	530.81
370.672	558.81
370.898	544.81
371.124	560.81
371.35	575.81
371.576	559.81
371.802	558.81
372.028	550.81
372.254	529.81
372.48	572.81
372.706	569.81
372.932	588.81
373.158	591.81
373.384	560.81
373.61	589.81
373.835	561.81
374.061	562.81
374.287	561.81
374.513	576.81
374.739	607.81
374.965	627.81
375.191	658.81
375.416	617.81
375.642	605.81
375.868	610.81
376.094	600.81
376.319	566.81
376.545	563.81
376.771	581.81
376.997	563.81
377.222	578.81
377.448	548.81
377.674	571.81
377.899	539.81
378.125	550.81
378.35	563.81
378.576	531.81
378.802	551.81
379.027	556.81
379.253	557.81
379.478	537.81
379.704	529.81
379.929	533.81
380.155	543.81
380.38	562.81
380.606	565.81
380.831	564.81
381.057	550.81
381.282	590.81
381.507	570.81
381.733	568.81
381.958	547.81
382.184	567.81
382.409	586.81
382.634	575.81
382.86	601.81
383.085	585.81
383.31	617.81
383.535	626.81
383.761	627.81
383.986	631.81
384.211	656.81
384.436	675.81
384.662	649.81
384.887	650.81
385.112	662.81
385.337	689.81
385.562	682.81
385.787	705.81
386.013	698.81
386.238	680.81
386.463	685.81
386.688	694.81
386.913	667.81
387.138	666.81
387.363	635.81
387.588	644.81
387.813	690.81
388.038	641.81
388.263	652.81
388.488	655.81
388.713	673.81
388.938	674.81
389.163	647.81
389.387	650.81
389.612	643.81
389.837	651.81
390.062	631.81
390.287	672.81
390.512	632.81
390.736	655.81
390.961	680.81
391.186	693.81
391.411	701.81
391.636	740.81
391.86	756.81
392.085	763.81
392.31	761.81
392.534	764.81
392.759	734.81
392.984	694.81
393.208	709.81
393.433	724.81
393.658	720.81
393.882	708.81
394.107	747.81
394.331	730.81
394.556	740.81
394.78	734.81
395.005	730.81
395.229	722.81
395.454	755.81
395.678	770.81
395.903	755.81
396.127	742.81
396.352	725.81
396.576	691.81
396.801	715.81
397.025	701.81
397.249	713.81
397.474	754.81
397.698	749.81
397.922	754.81
398.147	743.81
398.371	775.81
398.595	791.81
398.82	807.81
399.044	855.81
399.268	1014.81
399.492	1175.81
399.717	1334.81
399.941	1382.81
400.165	1154.81
400.389	1012.81
400.613	919.81
400.837	883.81
401.062	846.81
401.286	810.81
401.51	787.81
401.734	831.81
401.958	861.81
402.182	858.81
402.406	885.81
402.63	879.81
402.854	910.81
403.078	926.81
403.302	965.81
403.526	977.81
403.75	1007.81
403.974	1055.81
404.198	1006.81
404.422	1040.81
404.645	995.81
404.869	997.81
405.093	978.81
405.317	933.81
405.541	924.81
405.765	950.81
405.988	945.81
406.212	914.81
406.436	935.81
406.66	962.81
406.883	955.81
407.107	1013.81
407.331	1100.81
407.555	1122.81
407.778	1146.81
408.002	1085.81
408.226	1029.81
408.449	1040.81
408.673	987.81
408.896	963.81
409.12	959.81
409.344	982.81
409.567	990.81
409.791	1009.81
410.014	988.81
410.238	976.81
410.461	972.81
410.685	987.81
410.908	930.81
411.132	901.81
411.355	866.81
411.578	881.81
411.802	877.81
412.025	900.81
412.249	897.81
412.472	890.81
412.695	861.81
412.919	808.81
413.142	842.81
413.365	862.81
413.589	833.81
413.812	859.81
414.035	823.81
414.258	848.81
414.482	844.81
414.705	871.81
414.928	854.81
415.151	871.81
415.374	882.81
415.597	869.81
415.821	855.81
416.044	834.81
416.267	835.81
416.49	833.81
416.713	824.81
416.936	850.81
417.159	846.81
417.382	822.81
417.605	818.81
417.828	829.81
418.051	854.81
418.274	865.81
418.497	829.81
418.72	882.81
418.943	855.81
419.166	923.81
419.389	982.81
419.611	952.81
419.834	919.81
420.057	883.81
420.28	858.81
420.503	826.81
420.726	820.81
420.948	818.81
421.171	823.81
421.394	831.81
421.617	842.81
421.839	851.81
422.062	856.81
422.285	817.81
422.507	862.81
422.73	883.81
422.953	865.81
423.175	883.81
423.398	914.81
423.621	936.81
423.843	908.81
424.066	907.81
424.288	918.81
424.511	913.81
424.733	891.81
424.956	900.81
425.178	853.81
425.401	864.81
425.623	827.81
425.846	820.81
426.068	834.81
426.291	801.81
426.513	786.81
426.735	783.81
426.958	794.81
427.18	744.81
427.402	741.81
427.625	757.81
427.847	775.81
428.069	757.81
428.292	769.81
428.514	774.81
428.736	719.81
428.958	721.81
429.181	755.81
429.403	757.81
429.625	731.81
429.847	736.81
430.069	707.81
430.292	717.81
430.514	731.81
430.736	733.81
430.958	733.81
431.18	709.81
431.402	735.81
431.624	723.81
431.846	757.81
432.068	772.81
432.29	772.81
432.512	755.81
432.734	767.81
432.956	746.81
433.178	760.81
433.4	751.81
433.622	746.81
433.844	756.81
434.066	760.81
434.287	798.81
434.509	825.81
434.731	801.81
434.953	851.81
435.175	879.81
435.397	865.81
435.618	810.81
435.84	772.81
436.062	783.81
436.284	750.81
436.505	753.81
436.727	753.81
436.949	770.81
437.17	785.81
437.392	751.81
437.614	745.81
437.835	703.81
438.057	726.81
438.278	716.81
438.5	708.81
438.721	717.81
438.943	731.81
439.165	703.81
439.386	742.81
439.608	773.81
439.829	766.81
440.05	775.81
440.272	762.81
440.493	761.81
440.715	768.81
440.936	811.81
441.158	803.81
441.379	815.81
441.6	857.81
441.822	882.81
442.043	853.81
442.264	874.81
442.486	832.81
442.707	832.81
442.928	851.81
443.149	870.81
443.371	835.81
443.592	818.81
443.813	853.81
444.034	870.81
444.255	907.81
444.476	935.81
444.698	1005.81
444.919	1073.81
445.14	1088.81
445.361	969.81
445.582	892.81
445.803	841.81
446.024	816.81
446.245	801.81
446.466	789.81
446.687	756.81
446.908	774.81
447.129	761.81
447.35	733.81
447.571	715.81
447.792	713.81
448.013	709.81
448.234	686.81
448.455	703.81
448.675	688.81
448.896	722.81
449.117	685.81
449.338	682.81
449.559	663.81
449.779	688.81
450	681.81
450.221	693.81
450.442	718.81
450.662	704.81
450.883	708.81
451.104	730.81
451.324	736.81
451.545	723.81
451.766	704.81
451.986	712.81
452.207	687.81
452.428	701.81
452.648	683.81
452.869	703.81
453.089	687.81
453.31	694.81
453.53	671.81
453.751	674.81
453.971	651.81
454.192	692.81
454.412	687.81
454.633	680.81
454.853	675.81
455.073	669.81
455.294	658.81
455.514	659.81
455.734	660.81
455.955	658.81
456.175	655.81
456.395	641.81
456.616	664.81
456.836	685.81
457.056	655.81
457.276	641.81
457.497	649.81
457.717	664.81
457.937	654.81
458.157	679.81
458.377	672.81
458.598	663.81
458.818	689.81
459.038	726.81
459.258	756.81
459.478	768.81
459.698	778.81
459.918	827.81
460.138	867.81
460.358	922.81
460.578	920.81
460.798	923.81
461.018	919.81
461.238	903.81
461.458	886.81
461.678	891.81
461.898	896.81
462.118	921.81
462.338	970.81
462.558	1012.81
462.777	1015.81
462.997	1139.81
463.217	1266.81
463.437	1286.81
463.657	1143.81
463.876	1060.81
464.096	1088.81
464.316	1069.81
464.536	1093.81
464.755	1045.81
464.975	996.81
465.195	968.81
465.414	898.81
465.634	813.81
465.854	809.81
466.073	750.81
466.293	777.81
466.512	763.81
466.732	743.81
466.951	741.81
467.171	726.81
467.391	752.81
467.61	742.81
467.829	741.81
468.049	726.81
468.268	669.81
468.488	687.81
468.707	694.81
468.927	692.81
469.146	699.81
469.365	694.81
469.585	704.81
469.804	718.81
470.023	735.81
470.243	730.81
470.462	761.81
470.681	780.81
470.901	771.81
471.12	741.81
471.339	740.81
471.558	717.81
471.777	724.81
471.997	722.81
472.216	718.81
472.435	682.81
472.654	681.81
472.873	679.81
473.092	675.81
473.311	652.81
473.53	665.81
473.749	665.81
473.968	691.81
474.187	643.81
474.406	655.81
474.625	669.81
474.844	649.81
475.063	696.81
475.282	669.81
475.501	695.81
475.72	698.81
475.939	707.81
476.158	697.81
476.377	698.81
476.596	718.81
476.814	713.81
477.033	718.81
477.252	740.81
477.471	775.81
477.69	744.81
477.908	782.81
478.127	811.81
478.346	806.81
478.564	823.81
478.783	823.81
479.002	859.81
479.22	854.81
479.439	827.81
479.658	849.81
479.876	848.81
480.095	856.81
480.313	893.81
480.532	929.81
480.751	925.81
480.969	866.81
481.188	861.81
481.406	814.81
481.624	807.81
481.843	787.81
482.061	786.81
482.28	761.81
482.498	778.81
482.717	770.81
482.935	792.81
483.153	784.81
483.372	792.81
483.59	787.81
483.808	793.81
484.027	789.81
484.245	790.81
484.463	760.81
484.681	799.81
484.9	805.81
485.118	823.81
485.336	789.81
485.554	806.81
485.772	816.81
485.99	824.81
486.209	838.81
486.427	831.81
486.645	819.81
486.863	838.81
487.081	830.81
487.299	821.81
487.517	813.81
487.735	822.81
487.953	808.81
488.171	810.81
488.389	798.81
488.607	806.81
488.825	807.81
489.043	801.81
489.261	803.81
489.479	814.81
489.696	807.81
489.914	793.81
490.132	817.81
490.35	822.81
490.568	799.81
490.786	807.81
491.003	795.81
491.221	826.81
491.439	825.81
491.657	822.81
491.874	833.81
492.092	814.81
492.31	835.81
492.527	848.81
492.745	795.81
492.963	841.81
493.18	829.81
493.398	859.81
493.615	871.81
493.833	849.81
494.05	855.81
494.268	851.81
494.485	875.81
494.703	866.81
494.92	866.81
495.138	851.81
495.355	856.81
495.573	875.81
495.79	840.81
496.008	897.81
496.225	856.81
496.442	884.81
496.66	859.81
496.877	901.81
497.094	938.81
497.312	921.81
497.529	938.81
497.746	955.81
497.963	987.81
498.181	1032.81
498.398	1059.81
498.615	1165.81
498.832	1217.81
499.049	1323.81
499.267	1422.81
499.484	1579.81
499.701	1808.81
499.918	1928.81
500.135	2278.81
500.352	2734.81
500.569	2803.81
500.786	2816.81
501.003	2587.81
501.22	2225.81
501.437	1971.81
501.654	1712.81
501.871	1516.81
502.088	1402.81
502.305	1293.81
502.522	1227.81
502.739	1183.81
502.956	1111.81
503.172	1048.81
503.389	1030.81
503.606	986.81
503.823	1001.81
504.04	989.81
504.256	981.81
504.473	995.81
504.69	1076.81
504.907	1046.81
505.123	938.81
505.34	897.81
505.557	883.81
505.773	831.81
505.99	809.81
506.207	810.81
506.423	793.81
506.64	794.81
506.856	777.81
507.073	780.81
507.289	768.81
507.506	749.81
507.722	753.81
507.939	741.81
508.155	757.81
508.372	733.81
508.588	725.81
508.805	737.81
509.021	725.81
509.238	714.81
509.454	742.81
509.67	705.81
509.887	693.81
510.103	691.81
510.319	734.81
510.536	723.81
510.752	701.81
510.968	703.81
511.184	694.81
511.401	697.81
511.617	717.81
511.833	674.81
512.049	686.81
512.265	693.81
512.481	687.81
512.698	696.81
512.914	685.81
513.13	687.81
513.346	702.81
513.562	682.81
513.778	702.81
513.994	696.81
514.21	702.81
514.426	696.81
514.642	706.81
514.858	721.81
515.074	733.81
515.29	719.81
515.506	729.81
515.721	738.81
515.937	740.81
516.153	751.81
516.369	767.81
516.585	810.81
516.801	833.81
517.016	881.81
517.232	912.81
517.448	966.81
517.664	981.81
517.879	1019.81
518.095	976.81
518.311	981.81
518.527	943.81
518.742	904.81
518.958	870.81
519.173	834.81
519.389	847.81
519.605	762.81
519.82	753.81
520.036	739.81
520.251	741.81
520.467	721.81
520.682	717.81
520.898	734.81
521.113	693.81
521.329	695.81
521.544	674.81
521.76	690.81
521.975	669.81
522.19	695.81
522.406	657.81
522.621	666.81
522.836	659.81
523.052	674.81
523.267	680.81
523.482	666.81
523.698	665.81
523.913	662.81
524.128	664.81
524.343	643.81
524.559	677.81
524.774	639.81
524.989	671.81
525.204	643.81
525.419	645.81
525.634	646.81
525.849	654.81
526.064	650.81
526.28	645.81
526.495	650.81
526.71	625.81
526.925	655.81
527.14	617.81
527.355	635.81
527.57	637.81
527.785	640.81
527.999	628.81
528.214	641.81
528.429	663.81
528.644	639.81
528.859	664.81
529.074	641.81
529.289	643.81
529.503	635.81
529.718	641.81
529.933	628.81
530.148	633.81
530.363	647.81
530.577	650.81
530.792	637.81
531.007	639.81
531.221	631.81
531.436	642.81
531.651	640.81
531.865	658.81
532.08	668.81
532.295	675.81
532.509	630.81
532.724	643.81
532.938	645.81
533.153	648.81
533.367	653.81
533.582	628.81
533.796	637.81
534.011	631.81
534.225	639.81
534.44	637.81
534.654	627.81
534.868	654.81
535.083	631.81
535.297	632.81
535.511	617.81
535.726	629.81
535.94	621.81
536.154	628.81
536.369	614.81
536.583	589.81
536.797	590.81
537.011	600.81
537.225	596.81
537.44	571.81
537.654	583.81
537.868	622.81
538.082	601.81
538.296	587.81
538.51	577.81
538.724	612.81
538.938	584.81
539.153	559.81
539.367	589.81
539.581	581.81
539.795	604.81
540.009	567.81
540.222	588.81
540.436	583.81
540.65	581.81
540.864	569.81
541.078	578.81
541.292	598.81
541.506	605.81
541.72	585.81
541.934	577.81
542.147	576.81
542.361	562.81
542.575	567.81
542.789	570.81
543.002	579.81
543.216	557.81
543.43	581.81
543.644	575.81
543.857	566.81
544.071	557.81
544.285	566.81
544.498	582.81
544.712	574.81
544.925	590.81
545.139	581.81
545.352	582.81
545.566	581.81
545.779	584.81
545.993	576.81
546.206	607.81
546.42	591.81
546.633	591.81
546.847	597.81
547.06	598.81
547.274	583.81
547.487	579.81
547.7	566.81
547.914	586.81
548.127	598.81
548.34	603.81
548.554	591.81
548.767	590.81
548.98	601.81
549.193	597.81
549.407	581.81
549.62	597.81
549.833	610.81
550.046	617.81
550.259	593.81
550.473	556.81
550.686	584.81
550.899	589.81
551.112	573.81
551.325	563.81
551.538	603.81
551.751	577.81
551.964	559.81
552.177	592.81
552.39	604.81
552.603	613.81
552.816	625.81
553.029	621.81
553.242	654.81
553.455	651.81
553.667	691.81
553.88	663.81
554.093	619.81
554.306	638.81
554.519	593.81
554.732	595.81
554.944	576.81
555.157	581.81
555.37	571.81
555.583	537.81
555.795	553.81
556.008	529.81
556.221	536.81
556.433	530.81
556.646	530.81
556.859	536.81
557.071	523.81
557.284	504.81
557.496	515.81
557.709	495.81
557.921	493.81
558.134	521.81
558.346	520.81
558.559	503.81
558.771	487.81
558.984	515.81
559.196	490.81
559.409	501.81
559.621	487.81
559.833	500.81
560.046	487.81
560.258	476.81
560.47	504.81
560.683	483.81
560.895	487.81
561.107	475.81
561.32	492.81
561.532	505.81
561.744	476.81
561.956	479.81
562.168	490.81
562.381	487.81
562.593	483.81
562.805	495.81
563.017	506.81
563.229	500.81
563.441	524.81
563.653	519.81
563.865	501.81
564.077	492.81
564.289	505.81
564.501	496.81
564.713	518.81
564.925	495.81
565.137	523.81
565.349	532.81
565.561	558.81
565.773	571.81
565.985	593.81
566.197	638.81
566.408	689.81
566.62	739.81
566.832	840.81
567.044	828.81
567.255	801.81
567.467	846.81
567.679	909.81
567.891	981.81
568.102	1033.81
568.314	995.81
568.526	859.81
568.737	765.81
568.949	688.81
569.161	636.81
569.372	602.81
569.584	563.81
569.795	526.81
570.007	521.81
570.218	527.81
570.43	513.81
570.641	503.81
570.853	492.81
571.064	495.81
571.276	531.81
571.487	497.81
571.698	485.81
571.91	460.81
572.121	472.81
572.333	449.81
572.544	433.81
572.755	451.81
572.966	426.81
573.178	418.81
573.389	431.81
573.6	429.81
573.811	424.81
574.023	441.81
574.234	407.81
574.445	407.81
574.656	431.81
574.867	408.81
575.078	410.81
575.289	432.81
575.501	418.81
575.712	406.81
575.923	399.81
576.134	389.81
576.345	397.81
576.556	390.81
576.767	393.81
576.978	387.81
577.188	385.81
577.399	374.81
577.61	370.81
577.821	386.81
578.032	374.81
578.243	357.81
578.454	377.81
578.665	376.81
578.875	353.81
579.086	371.81
579.297	340.81
579.508	347.81
579.718	366.81
579.929	365.81
580.14	366.81
580.35	354.81
580.561	340.81
580.772	364.81
580.982	356.81
581.193	357.81
581.403	347.81
581.614	370.81
581.825	337.81
582.035	340.81
582.246	357.81
582.456	341.81
582.667	362.81
582.877	340.81
583.087	352.81
583.298	350.81
583.508	361.81
583.719	345.81
583.929	360.81
584.139	336.81
584.35	316.81
584.56	342.81
584.77	340.81
584.981	335.81
585.191	345.81
585.401	347.81
585.611	327.81
585.821	349.81
586.032	359.81
586.242	336.81
586.452	330.81
586.662	352.81
586.872	349.81
587.082	355.81
587.292	357.81
587.502	341.81
587.713	344.81
587.923	327.81
588.133	334.81
588.343	343.81
588.553	334.81
588.762	353.81
588.972	344.81
589.182	349.81
589.392	338.81
589.602	329.81
589.812	330.81
590.022	343.81
590.232	332.81
590.441	326.81
590.651	339.81
590.861	341.81
591.071	359.81
591.281	353.81
591.49	354.81
591.7	343.81
591.91	363.81
592.119	357.81
592.329	383.81
592.539	384.81
592.748	383.81
592.958	396.81
593.167	422.81
593.377	415.81
593.587	429.81
593.796	426.81
594.006	434.81
594.215	447.81
594.424	457.81
594.634	437.81
594.843	406.81
595.053	397.81
595.262	377.81
595.472	369.81
595.681	374.81
595.89	349.81
596.1	339.81
596.309	326.81
596.518	313.81
596.727	327.81
596.937	305.81
597.146	294.81
597.355	303.81
597.564	317.81
597.774	289.81
597.983	305.81
598.192	304.81
598.401	303.81
598.61	307.81
598.819	294.81
599.028	288.81
599.237	288.81
599.446	294.81
599.655	288.81
599.864	302.81
600.073	281.81
600.282	277.81
600.491	267.81
600.7	277.81
600.909	281.81
601.118	288.81
601.327	278.81
601.536	307.81
601.745	289.81
601.953	281.81
602.162	269.81
602.371	264.81
602.58	272.81
602.789	287.81
602.997	282.81
603.206	290.81
603.415	271.81
603.623	257.81
603.832	272.81
604.041	274.81
604.249	267.81
604.458	284.81
604.666	278.81
604.875	260.81
605.084	273.81
605.292	243.81
605.501	261.81
605.709	272.81
605.918	267.81
606.126	277.81
606.334	262.81
606.543	255.81
606.751	255.81
606.96	280.81
607.168	263.81
607.376	250.81
607.585	261.81
607.793	253.81
608.001	261.81
608.21	245.81
608.418	275.81
608.626	244.81
608.834	260.81
609.043	277.81
609.251	286.81
609.459	264.81
609.667	261.81
609.875	261.81
610.083	232.81
610.291	250.81
610.499	256.81
610.707	270.81
610.916	259.81
611.124	261.81
611.332	272.81
611.54	258.81
611.748	247.81
611.955	273.81
612.163	246.81
612.371	248.81
612.579	249.81
612.787	255.81
612.995	246.81
613.203	251.81
613.411	248.81
613.618	224.81
613.826	251.81
614.034	243.81
614.242	256.81
614.449	244.81
614.657	251.81
614.865	238.81
615.072	247.81
615.28	244.81
615.488	245.81
615.695	256.81
615.903	232.81
616.111	231.81
616.318	257.81
616.526	263.81
616.733	251.81
616.941	263.81
617.148	246.81
617.356	241.81
617.563	244.81
617.771	249.81
617.978	275.81
618.185	255.81
618.393	227.81
618.6	272.81
618.807	250.81
619.015	249.81
619.222	257.81
619.429	248.81
619.637	243.81
619.844	233.81
620.051	242.81
620.258	230.81
620.466	231.81
620.673	223.81
620.88	230.81
621.087	232.81
621.294	238.81
621.501	246.81
621.708	234.81
621.915	226.81
622.122	226.81
622.329	231.81
622.536	238.81
622.743	227.81
622.95	209.81
623.157	247.81
623.364	226.81
623.571	215.81
623.778	211.81
623.985	231.81
624.192	223.81
624.399	217.81
624.606	214.81
624.812	224.81
625.019	219.81
625.226	233.81
625.433	215.81
625.639	217.81
625.846	212.81
626.053	206.81
626.259	224.81
626.466	221.81
626.673	201.81
626.879	207.81
627.086	197.81
627.293	210.81
627.499	213.81
627.706	211.81
627.912	216.81
628.119	206.81
628.325	214.81
628.532	210.81
628.738	201.81
628.945	212.81
629.151	202.81
629.357	217.81
629.564	202.81
629.77	201.81
629.976	196.81
630.183	205.81
630.389	206.81
630.595	191.81
630.802	201.81
631.008	174.81
631.214	178.81
631.42	205.81
631.627	202.81
631.833	186.81
632.039	189.81
632.245	179.81
632.451	190.81
632.657	200.81
632.863	190.81
633.069	174.81
633.275	186.81
633.481	190.81
633.688	189.81
633.893	182.81
634.099	188.81
634.305	181.81
634.511	192.81
634.717	197.81
634.923	169.81
635.129	182.81
635.335	193.81
635.541	181.81
635.747	186.81
635.952	190.81
636.158	176.81
636.364	196.81
636.57	194.81
636.775	175.81
636.981	187.81
637.187	183.81
637.392	186.81
637.598	176.81
637.804	175.81
638.009	189.81
638.215	184.81
638.421	177.81
638.626	182.81
638.832	182.81
639.037	168.81
639.243	173.81
639.448	182.81
639.654	172.81
639.859	175.81
640.065	169.81
640.27	161.81
640.475	170.81
640.681	183.81
640.886	188.81
641.091	173.81
641.297	178.81
641.502	181.81
641.707	171.81
641.913	180.81
642.118	168.81
642.323	171.81
642.528	177.81
642.733	154.81
642.939	183.81
643.144	171.81
643.349	165.81
643.554	165.81
643.759	167.81
643.964	154.81
644.169	171.81
644.374	167.81
644.579	146.81
644.784	152.81
644.989	189.81
645.194	165.81
645.399	157.81
645.604	178.81
645.809	158.81
646.014	149.81
646.219	167.81
646.423	171.81
646.628	163.81
646.833	177.81
647.038	176.81
647.243	193.81
647.447	177.81
647.652	172.81
647.857	167.81
648.062	182.81
648.266	183.81
648.471	179.81
648.676	190.81
648.88	183.81
649.085	169.81
649.289	188.81
649.494	169.81
649.698	160.81
649.903	162.81
650.107	164.81
650.312	152.81
650.516	156.81
650.721	151.81
650.925	155.81
651.13	158.81
651.334	164.81
651.539	165.81
651.743	153.81
651.947	145.81
652.152	137.81
652.356	145.81
652.56	144.81
652.764	147.81
652.969	151.81
653.173	139.81
653.377	126.81
653.581	130.81
653.785	138.81
653.99	125.81
654.194	125.81
654.398	120.81
654.602	127.81
654.806	131.81
655.01	120.81
655.214	112.81
655.418	125.81
655.622	134.81
655.826	120.81
656.03	131.81
656.234	131.81
656.438	128.81
656.642	127.81
656.846	131.81
657.049	125.81
657.253	117.81
657.457	106.81
657.661	112.81
657.865	117.81
658.068	98.81
658.272	97.81
658.476	100.81
658.68	104.81
658.883	96.81
659.087	84.81
659.291	101.81
659.494	109.81
659.698	108.81
659.901	100.81
660.105	87.81
660.309	101.81
660.512	89.81
660.716	101.81
660.919	82.81
661.123	82.81
661.326	70.81
661.53	83.81
661.733	81.81
661.936	82.81
662.14	77.81
662.343	69.81
662.546	78.81
662.75	75.81
662.953	94.81
663.156	79.81
663.36	74.81
663.563	86.81
663.766	83.81
663.969	87.81
664.173	85.81
664.376	77.81
664.579	82.81
664.782	87.81
664.985	79.81
665.188	72.81
665.391	95.81
665.594	79.81
665.797	70.81
666	72.81
666.203	83.81
666.406	79.81
666.609	74.81
666.812	71.81
667.015	68.81
667.218	81.81
667.421	90.81
667.624	84.81
667.827	83.81
668.03	82.81
668.232	72.81
668.435	62.81
668.638	67.81
668.841	82.81
669.043	88.81
669.246	85.81
669.449	79.81
669.651	81.81
669.854	74.81
670.057	63.81
670.259	70.81
670.462	80.81
670.665	71.81
670.867	61.81
671.07	73.81
671.272	75.81
671.475	71.81
671.677	75.81
671.88	70.81
672.082	81.81
672.284	65.81
672.487	65.81
672.689	74.81
672.892	90.81
