Data from Ni(NO3)2Standard.Agarose3%.GreenCap.LampEnergy5.5.E.O_HRD10591_14-42-33-188.txt Node
Date: Mon Jul 22 14:42:33 EDT 2019
User: cochatt
Spectrometer: HR+D1059
Trigger mode: 1
Integration Time (sec): 1.000000E-1
Scans to average: 1
Electric dark correction enabled: true
Nonlinearity correction enabled: false
Boxcar width: 0
XAxis mode: Wavelengths
Number of Pixels in Spectrum: 2048
>>>>>Begin Spectral Data<<<<<
223.165	-11.62
223.4	-11.62
223.635	-11.62
223.869	-14.62
224.104	-12.62
224.338	-20.62
224.573	-20.62
224.808	-16.62
225.042	0.38
225.277	-11.62
225.511	1.38
225.746	11.38
225.98	-1.62
226.215	8.38
226.449	14.38
226.683	9.38
226.918	34.38
227.152	30.38
227.387	29.38
227.621	45.38
227.856	44.38
228.09	34.38
228.324	40.38
228.559	62.38
228.793	60.38
229.027	52.38
229.262	71.38
229.496	61.38
229.73	60.38
229.964	77.38
230.199	75.38
230.433	83.38
230.667	85.38
230.901	82.38
231.136	77.38
231.37	87.38
231.604	79.38
231.838	68.38
232.072	83.38
232.306	84.38
232.541	93.38
232.775	81.38
233.009	90.38
233.243	82.38
233.477	77.38
233.711	77.38
233.945	95.38
234.179	76.38
234.413	77.38
234.647	86.38
234.881	81.38
235.115	78.38
235.349	87.38
235.583	58.38
235.817	88.38
236.051	78.38
236.285	79.38
236.519	73.38
236.753	73.38
236.987	75.38
237.221	72.38
237.455	71.38
237.689	73.38
237.922	71.38
238.156	77.38
238.39	79.38
238.624	66.38
238.858	81.38
239.091	85.38
239.325	83.38
239.559	77.38
239.793	88.38
240.027	80.38
240.26	85.38
240.494	78.38
240.728	76.38
240.961	62.38
241.195	81.38
241.429	61.38
241.662	79.38
241.896	76.38
242.13	76.38
242.363	84.38
242.597	74.38
242.83	76.38
243.064	76.38
243.298	76.38
243.531	76.38
243.765	87.38
243.998	86.38
244.232	77.38
244.465	81.38
244.699	81.38
244.932	64.38
245.166	91.38
245.399	86.38
245.633	77.38
245.866	70.38
246.099	84.38
246.333	78.38
246.566	77.38
246.8	78.38
247.033	87.38
247.266	85.38
247.5	87.38
247.733	84.38
247.966	69.38
248.2	78.38
248.433	97.38
248.666	87.38
248.899	73.38
249.133	69.38
249.366	89.38
249.599	63.38
249.832	87.38
250.066	99.38
250.299	87.38
250.532	80.38
250.765	69.38
250.998	74.38
251.231	64.38
251.465	71.38
251.698	76.38
251.931	88.38
252.164	86.38
252.397	66.38
252.63	81.38
252.863	88.38
253.096	75.38
253.329	78.38
253.562	73.38
253.795	87.38
254.028	83.38
254.261	69.38
254.494	90.38
254.727	63.38
254.96	76.38
255.193	81.38
255.426	82.38
255.659	79.38
255.892	82.38
256.124	80.38
256.357	80.38
256.59	86.38
256.823	62.38
257.056	83.38
257.289	89.38
257.521	80.38
257.754	81.38
257.987	86.38
258.22	93.38
258.452	90.38
258.685	80.38
258.918	93.38
259.151	83.38
259.383	97.38
259.616	102.38
259.849	75.38
260.081	91.38
260.314	83.38
260.547	82.38
260.779	74.38
261.012	89.38
261.244	67.38
261.477	98.38
261.71	72.38
261.942	82.38
262.175	79.38
262.407	71.38
262.64	84.38
262.872	74.38
263.105	82.38
263.337	92.38
263.57	79.38
263.802	78.38
264.035	93.38
264.267	84.38
264.499	82.38
264.732	81.38
264.964	79.38
265.197	85.38
265.429	82.38
265.661	77.38
265.894	81.38
266.126	75.38
266.358	92.38
266.591	78.38
266.823	70.38
267.055	86.38
267.287	93.38
267.52	90.38
267.752	84.38
267.984	91.38
268.216	80.38
268.448	84.38
268.681	75.38
268.913	78.38
269.145	99.38
269.377	92.38
269.609	83.38
269.841	76.38
270.073	72.38
270.306	86.38
270.538	71.38
270.77	71.38
271.002	81.38
271.234	77.38
271.466	77.38
271.698	78.38
271.93	86.38
272.162	70.38
272.394	95.38
272.626	83.38
272.858	85.38
273.09	90.38
273.322	90.38
273.553	77.38
273.785	84.38
274.017	68.38
274.249	81.38
274.481	70.38
274.713	87.38
274.945	86.38
275.176	89.38
275.408	93.38
275.64	89.38
275.872	78.38
276.104	88.38
276.335	80.38
276.567	78.38
276.799	86.38
277.031	74.38
277.262	79.38
277.494	68.38
277.726	90.38
277.957	79.38
278.189	89.38
278.421	83.38
278.652	89.38
278.884	87.38
279.115	81.38
279.347	96.38
279.579	93.38
279.81	63.38
280.042	91.38
280.273	89.38
280.505	79.38
280.736	89.38
280.968	85.38
281.199	87.38
281.431	78.38
281.662	87.38
281.894	83.38
282.125	98.38
282.356	104.38
282.588	84.38
282.819	92.38
283.051	94.38
283.282	98.38
283.513	98.38
283.745	83.38
283.976	91.38
284.207	78.38
284.439	81.38
284.67	80.38
284.901	77.38
285.132	90.38
285.364	90.38
285.595	81.38
285.826	88.38
286.057	87.38
286.288	86.38
286.52	90.38
286.751	72.38
286.982	97.38
287.213	88.38
287.444	85.38
287.675	88.38
287.906	91.38
288.138	88.38
288.369	79.38
288.6	77.38
288.831	71.38
289.062	85.38
289.293	84.38
289.524	76.38
289.755	72.38
289.986	96.38
290.217	91.38
290.448	78.38
290.679	88.38
290.91	89.38
291.141	93.38
291.371	82.38
291.602	92.38
291.833	83.38
292.064	101.38
292.295	90.38
292.526	87.38
292.757	70.38
292.987	88.38
293.218	82.38
293.449	76.38
293.68	87.38
293.91	73.38
294.141	84.38
294.372	85.38
294.603	81.38
294.833	83.38
295.064	84.38
295.295	89.38
295.525	84.38
295.756	96.38
295.987	94.38
296.217	77.38
296.448	94.38
296.679	86.38
296.909	88.38
297.14	90.38
297.37	83.38
297.601	94.38
297.831	80.38
298.062	90.38
298.292	77.38
298.523	91.38
298.753	86.38
298.984	100.38
299.214	71.38
299.445	96.38
299.675	78.38
299.905	91.38
300.136	84.38
300.366	91.38
300.597	76.38
300.827	76.38
301.057	98.38
301.288	78.38
301.518	82.38
301.748	101.38
301.979	94.38
302.209	87.38
302.439	71.38
302.669	84.38
302.9	77.38
303.13	94.38
303.36	100.38
303.59	78.38
303.82	82.38
304.051	78.38
304.281	93.38
304.511	94.38
304.741	85.38
304.971	80.38
305.201	90.38
305.431	100.38
305.661	75.38
305.891	95.38
306.121	94.38
306.352	87.38
306.582	63.38
306.812	103.38
307.042	100.38
307.272	94.38
307.502	91.38
307.731	89.38
307.961	81.38
308.191	84.38
308.421	88.38
308.651	82.38
308.881	80.38
309.111	91.38
309.341	93.38
309.571	97.38
309.8	100.38
310.03	80.38
310.26	78.38
310.49	80.38
310.72	82.38
310.949	93.38
311.179	79.38
311.409	102.38
311.639	105.38
311.868	90.38
312.098	96.38
312.328	99.38
312.557	69.38
312.787	76.38
313.017	96.38
313.246	97.38
313.476	92.38
313.706	91.38
313.935	93.38
314.165	94.38
314.394	90.38
314.624	86.38
314.853	80.38
315.083	75.38
315.312	85.38
315.542	90.38
315.771	83.38
316.001	87.38
316.23	86.38
316.46	90.38
316.689	84.38
316.919	74.38
317.148	105.38
317.377	108.38
317.607	82.38
317.836	87.38
318.065	96.38
318.295	92.38
318.524	81.38
318.753	82.38
318.983	95.38
319.212	77.38
319.441	81.38
319.67	98.38
319.9	83.38
320.129	107.38
320.358	91.38
320.587	85.38
320.816	100.38
321.046	72.38
321.275	77.38
321.504	87.38
321.733	77.38
321.962	104.38
322.191	103.38
322.42	100.38
322.649	94.38
322.878	101.38
323.108	88.38
323.337	93.38
323.566	105.38
323.795	92.38
324.024	77.38
324.253	91.38
324.482	81.38
324.71	88.38
324.939	91.38
325.168	88.38
325.397	79.38
325.626	84.38
325.855	78.38
326.084	81.38
326.313	86.38
326.542	80.38
326.77	86.38
326.999	87.38
327.228	85.38
327.457	83.38
327.686	84.38
327.914	98.38
328.143	96.38
328.372	97.38
328.6	92.38
328.829	80.38
329.058	91.38
329.287	93.38
329.515	86.38
329.744	85.38
329.972	72.38
330.201	76.38
330.43	104.38
330.658	74.38
330.887	85.38
331.115	85.38
331.344	84.38
331.572	86.38
331.801	105.38
332.03	80.38
332.258	104.38
332.486	85.38
332.715	90.38
332.943	86.38
333.172	86.38
333.4	94.38
333.629	87.38
333.857	95.38
334.085	82.38
334.314	80.38
334.542	89.38
334.771	100.38
334.999	89.38
335.227	103.38
335.455	80.38
335.684	78.38
335.912	99.38
336.14	87.38
336.369	91.38
336.597	98.38
336.825	97.38
337.053	84.38
337.281	84.38
337.51	80.38
337.738	84.38
337.966	83.38
338.194	85.38
338.422	91.38
338.65	90.38
338.878	85.38
339.106	97.38
339.334	87.38
339.562	105.38
339.79	98.38
340.018	87.38
340.246	83.38
340.474	97.38
340.702	87.38
340.93	94.38
341.158	78.38
341.386	90.38
341.614	82.38
341.842	78.38
342.07	80.38
342.298	86.38
342.526	72.38
342.754	81.38
342.981	81.38
343.209	87.38
343.437	104.38
343.665	91.38
343.893	91.38
344.12	98.38
344.348	91.38
344.576	77.38
344.804	80.38
345.031	97.38
345.259	82.38
345.487	86.38
345.714	94.38
345.942	91.38
346.17	93.38
346.397	89.38
346.625	99.38
346.853	91.38
347.08	73.38
347.308	69.38
347.535	102.38
347.763	80.38
347.99	77.38
348.218	82.38
348.445	84.38
348.673	97.38
348.9	84.38
349.128	81.38
349.355	78.38
349.583	91.38
349.81	92.38
350.037	88.38
350.265	82.38
350.492	87.38
350.72	83.38
350.947	81.38
351.174	99.38
351.402	83.38
351.629	94.38
351.856	87.38
352.083	82.38
352.311	78.38
352.538	74.38
352.765	94.38
352.992	88.38
353.22	83.38
353.447	78.38
353.674	88.38
353.901	100.38
354.128	93.38
354.355	85.38
354.583	99.38
354.81	61.38
355.037	90.38
355.264	98.38
355.491	93.38
355.718	82.38
355.945	93.38
356.172	87.38
356.399	82.38
356.626	81.38
356.853	83.38
357.08	85.38
357.307	89.38
357.534	80.38
357.761	88.38
357.988	94.38
358.215	77.38
358.441	104.38
358.668	88.38
358.895	90.38
359.122	90.38
359.349	98.38
359.576	91.38
359.802	89.38
360.029	107.38
360.256	77.38
360.483	93.38
360.709	78.38
360.936	89.38
361.163	99.38
361.39	78.38
361.616	90.38
361.843	91.38
362.07	104.38
362.296	89.38
362.523	88.38
362.749	83.38
362.976	76.38
363.203	89.38
363.429	89.38
363.656	82.38
363.882	93.38
364.109	79.38
364.335	86.38
364.562	90.38
364.788	91.38
365.015	93.38
365.241	87.38
365.468	89.38
365.694	77.38
365.92	89.38
366.147	102.38
366.373	81.38
366.599	93.38
366.826	88.38
367.052	90.38
367.278	74.38
367.505	92.38
367.731	77.38
367.957	81.38
368.184	90.38
368.41	77.38
368.636	98.38
368.862	102.38
369.089	88.38
369.315	81.38
369.541	85.38
369.767	96.38
369.993	94.38
370.219	81.38
370.445	83.38
370.672	78.38
370.898	82.38
371.124	82.38
371.35	84.38
371.576	89.38
371.802	78.38
372.028	77.38
372.254	95.38
372.48	85.38
372.706	84.38
372.932	87.38
373.158	77.38
373.384	97.38
373.61	98.38
373.835	82.38
374.061	98.38
374.287	95.38
374.513	86.38
374.739	90.38
374.965	93.38
375.191	72.38
375.416	84.38
375.642	87.38
375.868	92.38
376.094	71.38
376.319	69.38
376.545	80.38
376.771	78.38
376.997	85.38
377.222	83.38
377.448	93.38
377.674	82.38
377.899	100.38
378.125	92.38
378.35	89.38
378.576	82.38
378.802	82.38
379.027	95.38
379.253	98.38
379.478	79.38
379.704	87.38
379.929	89.38
380.155	84.38
380.38	95.38
380.606	110.38
380.831	90.38
381.057	72.38
381.282	72.38
381.507	80.38
381.733	86.38
381.958	85.38
382.184	91.38
382.409	86.38
382.634	94.38
382.86	83.38
383.085	90.38
383.31	83.38
383.535	93.38
383.761	97.38
383.986	101.38
384.211	93.38
384.436	84.38
384.662	82.38
384.887	84.38
385.112	94.38
385.337	84.38
385.562	78.38
385.787	86.38
386.013	94.38
386.238	86.38
386.463	91.38
386.688	92.38
386.913	93.38
387.138	72.38
387.363	95.38
387.588	81.38
387.813	86.38
388.038	77.38
388.263	80.38
388.488	97.38
388.713	96.38
388.938	81.38
389.163	81.38
389.387	75.38
389.612	88.38
389.837	78.38
390.062	95.38
390.287	98.38
390.512	95.38
390.736	99.38
390.961	90.38
391.186	80.38
391.411	92.38
391.636	85.38
391.86	77.38
392.085	86.38
392.31	83.38
392.534	99.38
392.759	76.38
392.984	83.38
393.208	89.38
393.433	86.38
393.658	80.38
393.882	100.38
394.107	86.38
394.331	93.38
394.556	86.38
394.78	100.38
395.005	83.38
395.229	93.38
395.454	85.38
395.678	71.38
395.903	84.38
396.127	97.38
396.352	98.38
396.576	84.38
396.801	82.38
397.025	96.38
397.249	89.38
397.474	92.38
397.698	92.38
397.922	77.38
398.147	95.38
398.371	74.38
398.595	88.38
398.82	106.38
399.044	93.38
399.268	84.38
399.492	105.38
399.717	88.38
399.941	82.38
400.165	83.38
400.389	96.38
400.613	70.38
400.837	79.38
401.062	78.38
401.286	81.38
401.51	85.38
401.734	90.38
401.958	92.38
402.182	82.38
402.406	78.38
402.63	89.38
402.854	84.38
403.078	83.38
403.302	83.38
403.526	78.38
403.75	90.38
403.974	76.38
404.198	86.38
404.422	92.38
404.645	80.38
404.869	98.38
405.093	85.38
405.317	93.38
405.541	83.38
405.765	85.38
405.988	80.38
406.212	102.38
406.436	85.38
406.66	80.38
406.883	90.38
407.107	101.38
407.331	76.38
407.555	87.38
407.778	89.38
408.002	90.38
408.226	94.38
408.449	85.38
408.673	75.38
408.896	93.38
409.12	90.38
409.344	66.38
409.567	106.38
409.791	93.38
410.014	79.38
410.238	91.38
410.461	85.38
410.685	85.38
410.908	84.38
411.132	87.38
411.355	87.38
411.578	78.38
411.802	83.38
412.025	98.38
412.249	80.38
412.472	80.38
412.695	87.38
412.919	78.38
413.142	88.38
413.365	88.38
413.589	97.38
413.812	73.38
414.035	77.38
414.258	80.38
414.482	81.38
414.705	88.38
414.928	78.38
415.151	84.38
415.374	89.38
415.597	98.38
415.821	93.38
416.044	75.38
416.267	78.38
416.49	87.38
416.713	93.38
416.936	82.38
417.159	81.38
417.382	92.38
417.605	86.38
417.828	75.38
418.051	86.38
418.274	94.38
418.497	105.38
418.72	86.38
418.943	82.38
419.166	85.38
419.389	98.38
419.611	91.38
419.834	82.38
420.057	85.38
420.28	89.38
420.503	83.38
420.726	92.38
420.948	95.38
421.171	81.38
421.394	91.38
421.617	86.38
421.839	89.38
422.062	94.38
422.285	92.38
422.507	88.38
422.73	83.38
422.953	102.38
423.175	87.38
423.398	75.38
423.621	91.38
423.843	84.38
424.066	78.38
424.288	80.38
424.511	88.38
424.733	90.38
424.956	85.38
425.178	92.38
425.401	85.38
425.623	81.38
425.846	88.38
426.068	76.38
426.291	86.38
426.513	96.38
426.735	83.38
426.958	90.38
427.18	80.38
427.402	74.38
427.625	72.38
427.847	77.38
428.069	83.38
428.292	77.38
428.514	99.38
428.736	89.38
428.958	84.38
429.181	83.38
429.403	92.38
429.625	84.38
429.847	75.38
430.069	90.38
430.292	97.38
430.514	95.38
430.736	88.38
430.958	85.38
431.18	76.38
431.402	92.38
431.624	82.38
431.846	79.38
432.068	96.38
432.29	89.38
432.512	94.38
432.734	76.38
432.956	92.38
433.178	73.38
433.4	72.38
433.622	89.38
433.844	88.38
434.066	76.38
434.287	80.38
434.509	88.38
434.731	84.38
434.953	78.38
435.175	75.38
435.397	96.38
435.618	88.38
435.84	80.38
436.062	78.38
436.284	81.38
436.505	93.38
436.727	92.38
436.949	64.38
437.17	75.38
437.392	83.38
437.614	87.38
437.835	80.38
438.057	81.38
438.278	94.38
438.5	77.38
438.721	84.38
438.943	84.38
439.165	84.38
439.386	94.38
439.608	90.38
439.829	81.38
440.05	88.38
440.272	80.38
440.493	84.38
440.715	82.38
440.936	90.38
441.158	78.38
441.379	107.38
441.6	77.38
441.822	100.38
442.043	76.38
442.264	94.38
442.486	91.38
442.707	95.38
442.928	83.38
443.149	94.38
443.371	95.38
443.592	87.38
443.813	89.38
444.034	89.38
444.255	85.38
444.476	79.38
444.698	95.38
444.919	77.38
445.14	203.38
445.361	138.38
445.582	105.38
445.803	90.38
446.024	87.38
446.245	81.38
446.466	86.38
446.687	89.38
446.908	89.38
447.129	93.38
447.35	74.38
447.571	107.38
447.792	88.38
448.013	85.38
448.234	82.38
448.455	90.38
448.675	82.38
448.896	85.38
449.117	85.38
449.338	96.38
449.559	85.38
449.779	86.38
450	86.38
450.221	81.38
450.442	97.38
450.662	98.38
450.883	78.38
451.104	77.38
451.324	86.38
451.545	82.38
451.766	94.38
451.986	83.38
452.207	84.38
452.428	82.38
452.648	84.38
452.869	89.38
453.089	86.38
453.31	72.38
453.53	91.38
453.751	97.38
453.971	96.38
454.192	109.38
454.412	81.38
454.633	88.38
454.853	75.38
455.073	89.38
455.294	82.38
455.514	91.38
455.734	78.38
455.955	95.38
456.175	91.38
456.395	81.38
456.616	85.38
456.836	85.38
457.056	93.38
457.276	83.38
457.497	98.38
457.717	87.38
457.937	85.38
458.157	82.38
458.377	82.38
458.598	97.38
458.818	82.38
459.038	81.38
459.258	81.38
459.478	76.38
459.698	88.38
459.918	68.38
460.138	75.38
460.358	95.38
460.578	99.38
460.798	85.38
461.018	84.38
461.238	93.38
461.458	83.38
461.678	88.38
461.898	88.38
462.118	102.38
462.338	92.38
462.558	76.38
462.777	87.38
462.997	80.38
463.217	98.38
463.437	92.38
463.657	81.38
463.876	83.38
464.096	84.38
464.316	89.38
464.536	86.38
464.755	92.38
464.975	81.38
465.195	83.38
465.414	77.38
465.634	77.38
465.854	88.38
466.073	96.38
466.293	94.38
466.512	89.38
466.732	93.38
466.951	99.38
467.171	79.38
467.391	90.38
467.61	81.38
467.829	85.38
468.049	102.38
468.268	88.38
468.488	81.38
468.707	78.38
468.927	95.38
469.146	103.38
469.365	85.38
469.585	89.38
469.804	87.38
470.023	100.38
470.243	90.38
470.462	93.38
470.681	90.38
470.901	93.38
471.12	85.38
471.339	84.38
471.558	73.38
471.777	90.38
471.997	93.38
472.216	91.38
472.435	87.38
472.654	93.38
472.873	85.38
473.092	91.38
473.311	74.38
473.53	94.38
473.749	87.38
473.968	80.38
474.187	74.38
474.406	95.38
474.625	104.38
474.844	84.38
475.063	82.38
475.282	79.38
475.501	84.38
475.72	83.38
475.939	89.38
476.158	79.38
476.377	88.38
476.596	85.38
476.814	96.38
477.033	89.38
477.252	88.38
477.471	84.38
477.69	103.38
477.908	88.38
478.127	98.38
478.346	89.38
478.564	99.38
478.783	89.38
479.002	105.38
479.22	81.38
479.439	104.38
479.658	90.38
479.876	74.38
480.095	85.38
480.313	94.38
480.532	101.38
480.751	98.38
480.969	83.38
481.188	88.38
481.406	85.38
481.624	91.38
481.843	91.38
482.061	94.38
482.28	97.38
482.498	101.38
482.717	88.38
482.935	91.38
483.153	80.38
483.372	85.38
483.59	94.38
483.808	78.38
484.027	79.38
484.245	68.38
484.463	84.38
484.681	89.38
484.9	84.38
485.118	95.38
485.336	80.38
485.554	83.38
485.772	105.38
485.99	88.38
486.209	91.38
486.427	91.38
486.645	81.38
486.863	91.38
487.081	87.38
487.299	96.38
487.517	94.38
487.735	93.38
487.953	101.38
488.171	108.38
488.389	97.38
488.607	97.38
488.825	89.38
489.043	93.38
489.261	97.38
489.479	78.38
489.696	100.38
489.914	105.38
490.132	91.38
490.35	94.38
490.568	101.38
490.786	97.38
491.003	90.38
491.221	99.38
491.439	93.38
491.657	95.38
491.874	95.38
492.092	97.38
492.31	100.38
492.527	101.38
492.745	91.38
492.963	100.38
493.18	85.38
493.398	86.38
493.615	94.38
493.833	97.38
494.05	90.38
494.268	93.38
494.485	87.38
494.703	100.38
494.92	108.38
495.138	105.38
495.355	98.38
495.573	91.38
495.79	100.38
496.008	100.38
496.225	100.38
496.442	97.38
496.66	105.38
496.877	107.38
497.094	92.38
497.312	107.38
497.529	97.38
497.746	101.38
497.963	90.38
498.181	96.38
498.398	81.38
498.615	105.38
498.832	97.38
499.049	88.38
499.267	102.38
499.484	88.38
499.701	85.38
499.918	101.38
500.135	106.38
500.352	115.38
500.569	117.38
500.786	117.38
501.003	119.38
501.22	104.38
501.437	91.38
501.654	102.38
501.871	104.38
502.088	101.38
502.305	86.38
502.522	93.38
502.739	97.38
502.956	94.38
503.172	81.38
503.389	97.38
503.606	90.38
503.823	100.38
504.04	91.38
504.256	90.38
504.473	95.38
504.69	93.38
504.907	97.38
505.123	108.38
505.34	105.38
505.557	85.38
505.773	97.38
505.99	88.38
506.207	82.38
506.423	91.38
506.64	83.38
506.856	100.38
507.073	108.38
507.289	97.38
507.506	96.38
507.722	88.38
507.939	103.38
508.155	85.38
508.372	91.38
508.588	94.38
508.805	100.38
509.021	76.38
509.238	94.38
509.454	78.38
509.67	91.38
509.887	94.38
510.103	92.38
510.319	108.38
510.536	87.38
510.752	91.38
510.968	92.38
511.184	92.38
511.401	82.38
511.617	86.38
511.833	88.38
512.049	88.38
512.265	97.38
512.481	85.38
512.698	81.38
512.914	85.38
513.13	96.38
513.346	90.38
513.562	94.38
513.778	96.38
513.994	102.38
514.21	77.38
514.426	93.38
514.642	96.38
514.858	94.38
515.074	97.38
515.29	88.38
515.506	94.38
515.721	104.38
515.937	85.38
516.153	97.38
516.369	87.38
516.585	95.38
516.801	91.38
517.016	91.38
517.232	77.38
517.448	94.38
517.664	114.38
517.879	95.38
518.095	96.38
518.311	96.38
518.527	77.38
518.742	83.38
518.958	92.38
519.173	103.38
519.389	95.38
519.605	89.38
519.82	93.38
520.036	97.38
520.251	101.38
520.467	91.38
520.682	77.38
520.898	82.38
521.113	91.38
521.329	82.38
521.544	88.38
521.76	94.38
521.975	98.38
522.19	91.38
522.406	95.38
522.621	86.38
522.836	85.38
523.052	87.38
523.267	85.38
523.482	92.38
523.698	93.38
523.913	100.38
524.128	86.38
524.343	89.38
524.559	94.38
524.774	90.38
524.989	101.38
525.204	100.38
525.419	96.38
525.634	87.38
525.849	86.38
526.064	94.38
526.28	86.38
526.495	78.38
526.71	97.38
526.925	73.38
527.14	78.38
527.355	89.38
527.57	83.38
527.785	86.38
527.999	87.38
528.214	87.38
528.429	92.38
528.644	82.38
528.859	97.38
529.074	97.38
529.289	98.38
529.503	97.38
529.718	93.38
529.933	77.38
530.148	90.38
530.363	84.38
530.577	97.38
530.792	99.38
531.007	93.38
531.221	75.38
531.436	78.38
531.651	83.38
531.865	87.38
532.08	76.38
532.295	77.38
532.509	89.38
532.724	81.38
532.938	84.38
533.153	88.38
533.367	93.38
533.582	98.38
533.796	97.38
534.011	89.38
534.225	86.38
534.44	85.38
534.654	84.38
534.868	98.38
535.083	89.38
535.297	95.38
535.511	91.38
535.726	86.38
535.94	90.38
536.154	89.38
536.369	92.38
536.583	95.38
536.797	102.38
537.011	92.38
537.225	89.38
537.44	81.38
537.654	88.38
537.868	79.38
538.082	102.38
538.296	75.38
538.51	84.38
538.724	90.38
538.938	94.38
539.153	83.38
539.367	88.38
539.581	92.38
539.795	85.38
540.009	90.38
540.222	97.38
540.436	89.38
540.65	81.38
540.864	82.38
541.078	91.38
541.292	100.38
541.506	91.38
541.72	92.38
541.934	99.38
542.147	96.38
542.361	95.38
542.575	88.38
542.789	89.38
543.002	83.38
543.216	91.38
543.43	91.38
543.644	91.38
543.857	97.38
544.071	93.38
544.285	85.38
544.498	94.38
544.712	109.38
544.925	92.38
545.139	89.38
545.352	100.38
545.566	77.38
545.779	93.38
545.993	88.38
546.206	82.38
546.42	93.38
546.633	91.38
546.847	84.38
547.06	99.38
547.274	94.38
547.487	104.38
547.7	93.38
547.914	101.38
548.127	85.38
548.34	97.38
548.554	92.38
548.767	87.38
548.98	94.38
549.193	118.38
549.407	95.38
549.62	90.38
549.833	83.38
550.046	88.38
550.259	86.38
550.473	94.38
550.686	103.38
550.899	95.38
551.112	88.38
551.325	97.38
551.538	87.38
551.751	98.38
551.964	102.38
552.177	99.38
552.39	82.38
552.603	94.38
552.816	88.38
553.029	105.38
553.242	93.38
553.455	90.38
553.667	85.38
553.88	74.38
554.093	109.38
554.306	93.38
554.519	72.38
554.732	87.38
554.944	91.38
555.157	83.38
555.37	90.38
555.583	93.38
555.795	86.38
556.008	91.38
556.221	82.38
556.433	83.38
556.646	88.38
556.859	101.38
557.071	84.38
557.284	83.38
557.496	90.38
557.709	88.38
557.921	83.38
558.134	77.38
558.346	98.38
558.559	88.38
558.771	86.38
558.984	85.38
559.196	84.38
559.409	90.38
559.621	81.38
559.833	82.38
560.046	93.38
560.258	79.38
560.47	94.38
560.683	85.38
560.895	84.38
561.107	86.38
561.32	97.38
561.532	90.38
561.744	86.38
561.956	79.38
562.168	87.38
562.381	94.38
562.593	80.38
562.805	88.38
563.017	88.38
563.229	97.38
563.441	75.38
563.653	94.38
563.865	84.38
564.077	94.38
564.289	93.38
564.501	89.38
564.713	71.38
564.925	92.38
565.137	103.38
565.349	98.38
565.561	92.38
565.773	93.38
565.985	97.38
566.197	96.38
566.408	89.38
566.62	96.38
566.832	85.38
567.044	107.38
567.255	85.38
567.467	85.38
567.679	81.38
567.891	97.38
568.102	100.38
568.314	90.38
568.526	89.38
568.737	102.38
568.949	107.38
569.161	79.38
569.372	96.38
569.584	89.38
569.795	86.38
570.007	99.38
570.218	83.38
570.43	96.38
570.641	72.38
570.853	100.38
571.064	92.38
571.276	90.38
571.487	81.38
571.698	90.38
571.91	89.38
572.121	88.38
572.333	88.38
572.544	88.38
572.755	94.38
572.966	85.38
573.178	77.38
573.389	82.38
573.6	75.38
573.811	83.38
574.023	86.38
574.234	78.38
574.445	88.38
574.656	75.38
574.867	97.38
575.078	88.38
575.289	80.38
575.501	86.38
575.712	77.38
575.923	86.38
576.134	84.38
576.345	82.38
576.556	84.38
576.767	91.38
576.978	76.38
577.188	90.38
577.399	84.38
577.61	90.38
577.821	76.38
578.032	87.38
578.243	81.38
578.454	95.38
578.665	94.38
578.875	74.38
579.086	87.38
579.297	92.38
579.508	87.38
579.718	91.38
579.929	79.38
580.14	98.38
580.35	98.38
580.561	108.38
580.772	94.38
580.982	91.38
581.193	91.38
581.403	88.38
581.614	73.38
581.825	75.38
582.035	88.38
582.246	77.38
582.456	85.38
582.667	84.38
582.877	95.38
583.087	87.38
583.298	87.38
583.508	98.38
583.719	93.38
583.929	86.38
584.139	76.38
584.35	96.38
584.56	88.38
584.77	84.38
584.981	88.38
585.191	85.38
585.401	77.38
585.611	98.38
585.821	83.38
586.032	88.38
586.242	77.38
586.452	90.38
586.662	90.38
586.872	98.38
587.082	81.38
587.292	88.38
587.502	88.38
587.713	92.38
587.923	87.38
588.133	94.38
588.343	85.38
588.553	84.38
588.762	92.38
588.972	93.38
589.182	89.38
589.392	87.38
589.602	80.38
589.812	93.38
590.022	92.38
590.232	78.38
590.441	99.38
590.651	80.38
590.861	91.38
591.071	86.38
591.281	77.38
591.49	84.38
591.7	75.38
591.91	92.38
592.119	78.38
592.329	98.38
592.539	93.38
592.748	85.38
592.958	92.38
593.167	95.38
593.377	99.38
593.587	109.38
593.796	91.38
594.006	83.38
594.215	99.38
594.424	89.38
594.634	96.38
594.843	89.38
595.053	90.38
595.262	77.38
595.472	88.38
595.681	92.38
595.89	84.38
596.1	92.38
596.309	86.38
596.518	93.38
596.727	87.38
596.937	80.38
597.146	92.38
597.355	94.38
597.564	99.38
597.774	82.38
597.983	85.38
598.192	79.38
598.401	86.38
598.61	92.38
598.819	89.38
599.028	79.38
599.237	75.38
599.446	97.38
599.655	79.38
599.864	85.38
600.073	86.38
600.282	85.38
600.491	87.38
600.7	75.38
600.909	86.38
601.118	81.38
601.327	94.38
601.536	85.38
601.745	73.38
601.953	85.38
602.162	88.38
602.371	86.38
602.58	94.38
602.789	88.38
602.997	90.38
603.206	96.38
603.415	67.38
603.623	85.38
603.832	81.38
604.041	70.38
604.249	82.38
604.458	81.38
604.666	88.38
604.875	89.38
605.084	80.38
605.292	88.38
605.501	100.38
605.709	87.38
605.918	82.38
606.126	83.38
606.334	90.38
606.543	94.38
606.751	83.38
606.96	80.38
607.168	82.38
607.376	98.38
607.585	95.38
607.793	102.38
608.001	86.38
608.21	103.38
608.418	67.38
608.626	70.38
608.834	78.38
609.043	75.38
609.251	101.38
609.459	98.38
609.667	97.38
609.875	78.38
610.083	88.38
610.291	74.38
610.499	103.38
610.707	87.38
610.916	105.38
611.124	82.38
611.332	97.38
611.54	93.38
611.748	83.38
611.955	86.38
612.163	91.38
612.371	85.38
612.579	77.38
612.787	72.38
612.995	84.38
613.203	98.38
613.411	85.38
613.618	81.38
613.826	67.38
614.034	86.38
614.242	93.38
614.449	86.38
614.657	68.38
614.865	95.38
615.072	81.38
615.28	90.38
615.488	76.38
615.695	93.38
615.903	77.38
616.111	91.38
616.318	103.38
616.526	94.38
616.733	88.38
616.941	81.38
617.148	92.38
617.356	73.38
617.563	89.38
617.771	69.38
617.978	78.38
618.185	90.38
618.393	101.38
618.6	83.38
618.807	76.38
619.015	101.38
619.222	93.38
619.429	93.38
619.637	86.38
619.844	83.38
620.051	97.38
620.258	72.38
620.466	79.38
620.673	82.38
620.88	84.38
621.087	88.38
621.294	78.38
621.501	99.38
621.708	76.38
621.915	85.38
622.122	84.38
622.329	89.38
622.536	85.38
622.743	83.38
622.95	87.38
623.157	74.38
623.364	86.38
623.571	86.38
623.778	85.38
623.985	92.38
624.192	69.38
624.399	71.38
624.606	91.38
624.812	76.38
625.019	86.38
625.226	86.38
625.433	85.38
625.639	87.38
625.846	74.38
626.053	82.38
626.259	82.38
626.466	91.38
626.673	77.38
626.879	74.38
627.086	83.38
627.293	80.38
627.499	83.38
627.706	94.38
627.912	76.38
628.119	85.38
628.325	95.38
628.532	88.38
628.738	88.38
628.945	82.38
629.151	75.38
629.357	82.38
629.564	80.38
629.77	75.38
629.976	83.38
630.183	70.38
630.389	73.38
630.595	81.38
630.802	81.38
631.008	77.38
631.214	91.38
631.42	85.38
631.627	100.38
631.833	65.38
632.039	88.38
632.245	95.38
632.451	85.38
632.657	106.38
632.863	92.38
633.069	90.38
633.275	68.38
633.481	81.38
633.688	78.38
633.893	101.38
634.099	88.38
634.305	81.38
634.511	94.38
634.717	82.38
634.923	86.38
635.129	89.38
635.335	92.38
635.541	76.38
635.747	91.38
635.952	84.38
636.158	84.38
636.364	86.38
636.57	75.38
636.775	76.38
636.981	84.38
637.187	73.38
637.392	91.38
637.598	82.38
637.804	85.38
638.009	73.38
638.215	71.38
638.421	82.38
638.626	77.38
638.832	78.38
639.037	96.38
639.243	75.38
639.448	91.38
639.654	86.38
639.859	74.38
640.065	82.38
640.27	85.38
640.475	94.38
640.681	92.38
640.886	88.38
641.091	90.38
641.297	96.38
641.502	72.38
641.707	83.38
641.913	95.38
642.118	74.38
642.323	73.38
642.528	89.38
642.733	88.38
642.939	81.38
643.144	87.38
643.349	90.38
643.554	90.38
643.759	91.38
643.964	83.38
644.169	81.38
644.374	81.38
644.579	82.38
644.784	83.38
644.989	76.38
645.194	102.38
645.399	89.38
645.604	78.38
645.809	72.38
646.014	96.38
646.219	101.38
646.423	92.38
646.628	83.38
646.833	83.38
647.038	90.38
647.243	95.38
647.447	95.38
647.652	85.38
647.857	86.38
648.062	89.38
648.266	104.38
648.471	88.38
648.676	98.38
648.88	80.38
649.085	69.38
649.289	66.38
649.494	82.38
649.698	83.38
649.903	87.38
650.107	88.38
650.312	95.38
650.516	86.38
650.721	83.38
650.925	87.38
651.13	72.38
651.334	92.38
651.539	86.38
651.743	92.38
651.947	86.38
652.152	92.38
652.356	86.38
652.56	72.38
652.764	67.38
652.969	88.38
653.173	81.38
653.377	93.38
653.581	81.38
653.785	91.38
653.99	65.38
654.194	103.38
654.398	94.38
654.602	71.38
654.806	87.38
655.01	84.38
655.214	83.38
655.418	84.38
655.622	93.38
655.826	87.38
656.03	86.38
656.234	88.38
656.438	82.38
656.642	71.38
656.846	80.38
657.049	90.38
657.253	83.38
657.457	76.38
657.661	77.38
657.865	80.38
658.068	69.38
658.272	76.38
658.476	84.38
658.68	82.38
658.883	86.38
659.087	83.38
659.291	83.38
659.494	86.38
659.698	90.38
659.901	80.38
660.105	77.38
660.309	82.38
660.512	70.38
660.716	86.38
660.919	86.38
661.123	95.38
661.326	83.38
661.53	88.38
661.733	84.38
661.936	89.38
662.14	88.38
662.343	82.38
662.546	85.38
662.75	81.38
662.953	92.38
663.156	84.38
663.36	76.38
663.563	89.38
663.766	75.38
663.969	75.38
664.173	83.38
664.376	94.38
664.579	84.38
664.782	82.38
664.985	73.38
665.188	74.38
665.391	80.38
665.594	82.38
665.797	85.38
666	83.38
666.203	91.38
666.406	85.38
666.609	83.38
666.812	78.38
667.015	89.38
667.218	87.38
667.421	82.38
667.624	74.38
667.827	82.38
668.03	81.38
668.232	98.38
668.435	84.38
668.638	91.38
668.841	84.38
669.043	79.38
669.246	63.38
669.449	93.38
669.651	89.38
669.854	92.38
670.057	67.38
670.259	75.38
670.462	78.38
670.665	88.38
670.867	94.38
671.07	68.38
671.272	71.38
671.475	86.38
671.677	86.38
671.88	82.38
672.082	69.38
672.284	81.38
672.487	79.38
672.689	85.38
672.892	75.38
