Data from Ni(NO3)2Standard.Agarose3%.GreenCap.LampEnergy5.5.E.O_HRD10591_14-42-55-188.txt Node
Date: Mon Jul 22 14:42:55 EDT 2019
User: cochatt
Spectrometer: HR+D1059
Trigger mode: 1
Integration Time (sec): 1.000000E-1
Scans to average: 1
Electric dark correction enabled: true
Nonlinearity correction enabled: false
Boxcar width: 0
XAxis mode: Wavelengths
Number of Pixels in Spectrum: 2048
>>>>>Begin Spectral Data<<<<<
223.165	-12.25
223.4	-12.25
223.635	-12.25
223.869	-32.25
224.104	-19.25
224.338	-30.25
224.573	-14.25
224.808	-11.25
225.042	-15.25
225.277	11.75
225.511	-2.25
225.746	6.75
225.98	8.75
226.215	22.75
226.449	24.75
226.683	15.75
226.918	22.75
227.152	23.75
227.387	25.75
227.621	45.75
227.856	49.75
228.09	52.75
228.324	58.75
228.559	53.75
228.793	52.75
229.027	54.75
229.262	63.75
229.496	58.75
229.73	70.75
229.964	80.75
230.199	74.75
230.433	80.75
230.667	60.75
230.901	67.75
231.136	73.75
231.37	71.75
231.604	93.75
231.838	80.75
232.072	84.75
232.306	90.75
232.541	92.75
232.775	96.75
233.009	86.75
233.243	85.75
233.477	85.75
233.711	65.75
233.945	96.75
234.179	84.75
234.413	87.75
234.647	66.75
234.881	91.75
235.115	91.75
235.349	88.75
235.583	66.75
235.817	85.75
236.051	90.75
236.285	86.75
236.519	86.75
236.753	78.75
236.987	65.75
237.221	65.75
237.455	74.75
237.689	93.75
237.922	80.75
238.156	79.75
238.39	65.75
238.624	68.75
238.858	81.75
239.091	78.75
239.325	95.75
239.559	82.75
239.793	71.75
240.027	70.75
240.26	70.75
240.494	78.75
240.728	70.75
240.961	86.75
241.195	81.75
241.429	85.75
241.662	85.75
241.896	70.75
242.13	70.75
242.363	71.75
242.597	68.75
242.83	68.75
243.064	77.75
243.298	78.75
243.531	80.75
243.765	88.75
243.998	89.75
244.232	90.75
244.465	78.75
244.699	82.75
244.932	79.75
245.166	67.75
245.399	89.75
245.633	88.75
245.866	64.75
246.099	80.75
246.333	87.75
246.566	72.75
246.8	75.75
247.033	75.75
247.266	64.75
247.5	69.75
247.733	80.75
247.966	89.75
248.2	78.75
248.433	81.75
248.666	74.75
248.899	91.75
249.133	74.75
249.366	90.75
249.599	74.75
249.832	66.75
250.066	69.75
250.299	91.75
250.532	76.75
250.765	80.75
250.998	97.75
251.231	80.75
251.465	91.75
251.698	96.75
251.931	75.75
252.164	88.75
252.397	90.75
252.63	66.75
252.863	88.75
253.096	96.75
253.329	73.75
253.562	69.75
253.795	83.75
254.028	86.75
254.261	83.75
254.494	85.75
254.727	91.75
254.96	83.75
255.193	86.75
255.426	78.75
255.659	74.75
255.892	76.75
256.124	64.75
256.357	77.75
256.59	82.75
256.823	83.75
257.056	92.75
257.289	90.75
257.521	76.75
257.754	84.75
257.987	74.75
258.22	72.75
258.452	79.75
258.685	72.75
258.918	86.75
259.151	89.75
259.383	96.75
259.616	90.75
259.849	68.75
260.081	82.75
260.314	78.75
260.547	71.75
260.779	82.75
261.012	82.75
261.244	80.75
261.477	99.75
261.71	83.75
261.942	79.75
262.175	91.75
262.407	82.75
262.64	75.75
262.872	77.75
263.105	82.75
263.337	78.75
263.57	89.75
263.802	89.75
264.035	89.75
264.267	78.75
264.499	74.75
264.732	77.75
264.964	85.75
265.197	91.75
265.429	85.75
265.661	86.75
265.894	84.75
266.126	87.75
266.358	93.75
266.591	83.75
266.823	89.75
267.055	78.75
267.287	89.75
267.52	82.75
267.752	84.75
267.984	78.75
268.216	78.75
268.448	77.75
268.681	81.75
268.913	77.75
269.145	84.75
269.377	93.75
269.609	71.75
269.841	92.75
270.073	69.75
270.306	68.75
270.538	70.75
270.77	84.75
271.002	84.75
271.234	92.75
271.466	87.75
271.698	83.75
271.93	84.75
272.162	86.75
272.394	90.75
272.626	85.75
272.858	56.75
273.09	74.75
273.322	89.75
273.553	75.75
273.785	89.75
274.017	71.75
274.249	80.75
274.481	87.75
274.713	83.75
274.945	75.75
275.176	78.75
275.408	75.75
275.64	79.75
275.872	88.75
276.104	86.75
276.335	86.75
276.567	76.75
276.799	75.75
277.031	91.75
277.262	81.75
277.494	82.75
277.726	90.75
277.957	77.75
278.189	85.75
278.421	76.75
278.652	88.75
278.884	82.75
279.115	84.75
279.347	81.75
279.579	94.75
279.81	78.75
280.042	90.75
280.273	87.75
280.505	87.75
280.736	89.75
280.968	91.75
281.199	84.75
281.431	98.75
281.662	78.75
281.894	91.75
282.125	87.75
282.356	104.75
282.588	88.75
282.819	108.75
283.051	80.75
283.282	86.75
283.513	85.75
283.745	86.75
283.976	82.75
284.207	84.75
284.439	100.75
284.67	89.75
284.901	74.75
285.132	81.75
285.364	86.75
285.595	74.75
285.826	86.75
286.057	89.75
286.288	89.75
286.52	80.75
286.751	69.75
286.982	80.75
287.213	99.75
287.444	92.75
287.675	84.75
287.906	82.75
288.138	92.75
288.369	83.75
288.6	89.75
288.831	91.75
289.062	97.75
289.293	100.75
289.524	93.75
289.755	94.75
289.986	83.75
290.217	76.75
290.448	92.75
290.679	80.75
290.91	83.75
291.141	69.75
291.371	77.75
291.602	91.75
291.833	74.75
292.064	98.75
292.295	96.75
292.526	90.75
292.757	85.75
292.987	92.75
293.218	83.75
293.449	83.75
293.68	77.75
293.91	85.75
294.141	88.75
294.372	81.75
294.603	68.75
294.833	88.75
295.064	87.75
295.295	83.75
295.525	97.75
295.756	88.75
295.987	75.75
296.217	92.75
296.448	76.75
296.679	84.75
296.909	79.75
297.14	102.75
297.37	75.75
297.601	86.75
297.831	92.75
298.062	97.75
298.292	82.75
298.523	74.75
298.753	80.75
298.984	79.75
299.214	82.75
299.445	85.75
299.675	91.75
299.905	95.75
300.136	101.75
300.366	82.75
300.597	81.75
300.827	83.75
301.057	86.75
301.288	84.75
301.518	67.75
301.748	91.75
301.979	82.75
302.209	91.75
302.439	82.75
302.669	96.75
302.9	88.75
303.13	104.75
303.36	89.75
303.59	85.75
303.82	107.75
304.051	88.75
304.281	80.75
304.511	84.75
304.741	102.75
304.971	83.75
305.201	92.75
305.431	74.75
305.661	75.75
305.891	80.75
306.121	92.75
306.352	98.75
306.582	80.75
306.812	95.75
307.042	90.75
307.272	89.75
307.502	94.75
307.731	81.75
307.961	92.75
308.191	90.75
308.421	83.75
308.651	80.75
308.881	86.75
309.111	101.75
309.341	81.75
309.571	83.75
309.8	91.75
310.03	86.75
310.26	80.75
310.49	86.75
310.72	89.75
310.949	95.75
311.179	86.75
311.409	96.75
311.639	84.75
311.868	91.75
312.098	73.75
312.328	92.75
312.557	93.75
312.787	83.75
313.017	91.75
313.246	85.75
313.476	89.75
313.706	84.75
313.935	77.75
314.165	80.75
314.394	86.75
314.624	88.75
314.853	89.75
315.083	89.75
315.312	76.75
315.542	80.75
315.771	87.75
316.001	74.75
316.23	94.75
316.46	96.75
316.689	93.75
316.919	75.75
317.148	93.75
317.377	76.75
317.607	80.75
317.836	82.75
318.065	77.75
318.295	93.75
318.524	82.75
318.753	98.75
318.983	90.75
319.212	100.75
319.441	74.75
319.67	77.75
319.9	71.75
320.129	87.75
320.358	103.75
320.587	80.75
320.816	77.75
321.046	73.75
321.275	92.75
321.504	92.75
321.733	104.75
321.962	90.75
322.191	83.75
322.42	98.75
322.649	77.75
322.878	93.75
323.108	90.75
323.337	83.75
323.566	96.75
323.795	87.75
324.024	86.75
324.253	93.75
324.482	93.75
324.71	92.75
324.939	82.75
325.168	86.75
325.397	84.75
325.626	93.75
325.855	83.75
326.084	87.75
326.313	97.75
326.542	82.75
326.77	91.75
326.999	100.75
327.228	75.75
327.457	93.75
327.686	89.75
327.914	76.75
328.143	86.75
328.372	90.75
328.6	81.75
328.829	90.75
329.058	97.75
329.287	89.75
329.515	96.75
329.744	100.75
329.972	82.75
330.201	88.75
330.43	81.75
330.658	58.75
330.887	84.75
331.115	78.75
331.344	88.75
331.572	92.75
331.801	84.75
332.03	91.75
332.258	92.75
332.486	74.75
332.715	85.75
332.943	83.75
333.172	93.75
333.4	97.75
333.629	93.75
333.857	83.75
334.085	74.75
334.314	86.75
334.542	91.75
334.771	78.75
334.999	89.75
335.227	90.75
335.455	79.75
335.684	80.75
335.912	87.75
336.14	74.75
336.369	100.75
336.597	91.75
336.825	92.75
337.053	87.75
337.281	100.75
337.51	76.75
337.738	98.75
337.966	98.75
338.194	83.75
338.422	82.75
338.65	93.75
338.878	87.75
339.106	81.75
339.334	78.75
339.562	79.75
339.79	78.75
340.018	81.75
340.246	83.75
340.474	83.75
340.702	88.75
340.93	85.75
341.158	85.75
341.386	92.75
341.614	90.75
341.842	83.75
342.07	86.75
342.298	97.75
342.526	94.75
342.754	84.75
342.981	87.75
343.209	95.75
343.437	89.75
343.665	73.75
343.893	86.75
344.12	78.75
344.348	92.75
344.576	89.75
344.804	83.75
345.031	91.75
345.259	82.75
345.487	89.75
345.714	94.75
345.942	91.75
346.17	87.75
346.397	96.75
346.625	103.75
346.853	74.75
347.08	80.75
347.308	74.75
347.535	97.75
347.763	93.75
347.99	90.75
348.218	78.75
348.445	82.75
348.673	80.75
348.9	90.75
349.128	108.75
349.355	80.75
349.583	81.75
349.81	90.75
350.037	89.75
350.265	92.75
350.492	89.75
350.72	88.75
350.947	78.75
351.174	89.75
351.402	80.75
351.629	75.75
351.856	80.75
352.083	75.75
352.311	85.75
352.538	90.75
352.765	76.75
352.992	83.75
353.22	72.75
353.447	82.75
353.674	94.75
353.901	94.75
354.128	82.75
354.355	78.75
354.583	75.75
354.81	82.75
355.037	88.75
355.264	102.75
355.491	97.75
355.718	88.75
355.945	87.75
356.172	93.75
356.399	78.75
356.626	77.75
356.853	90.75
357.08	87.75
357.307	83.75
357.534	88.75
357.761	82.75
357.988	81.75
358.215	70.75
358.441	86.75
358.668	86.75
358.895	86.75
359.122	93.75
359.349	90.75
359.576	76.75
359.802	94.75
360.029	92.75
360.256	96.75
360.483	77.75
360.709	70.75
360.936	97.75
361.163	82.75
361.39	75.75
361.616	89.75
361.843	87.75
362.07	83.75
362.296	72.75
362.523	78.75
362.749	80.75
362.976	92.75
363.203	76.75
363.429	81.75
363.656	86.75
363.882	76.75
364.109	89.75
364.335	87.75
364.562	86.75
364.788	87.75
365.015	75.75
365.241	82.75
365.468	86.75
365.694	82.75
365.92	87.75
366.147	74.75
366.373	84.75
366.599	86.75
366.826	90.75
367.052	69.75
367.278	83.75
367.505	80.75
367.731	86.75
367.957	89.75
368.184	70.75
368.41	95.75
368.636	89.75
368.862	77.75
369.089	73.75
369.315	93.75
369.541	90.75
369.767	78.75
369.993	96.75
370.219	86.75
370.445	78.75
370.672	90.75
370.898	77.75
371.124	90.75
371.35	84.75
371.576	101.75
371.802	90.75
372.028	85.75
372.254	79.75
372.48	89.75
372.706	88.75
372.932	95.75
373.158	80.75
373.384	87.75
373.61	77.75
373.835	85.75
374.061	83.75
374.287	84.75
374.513	86.75
374.739	98.75
374.965	88.75
375.191	85.75
375.416	91.75
375.642	89.75
375.868	81.75
376.094	73.75
376.319	86.75
376.545	79.75
376.771	93.75
376.997	94.75
377.222	77.75
377.448	74.75
377.674	100.75
377.899	83.75
378.125	82.75
378.35	88.75
378.576	87.75
378.802	93.75
379.027	89.75
379.253	96.75
379.478	98.75
379.704	87.75
379.929	95.75
380.155	83.75
380.38	90.75
380.606	82.75
380.831	74.75
381.057	88.75
381.282	80.75
381.507	79.75
381.733	84.75
381.958	87.75
382.184	86.75
382.409	89.75
382.634	96.75
382.86	84.75
383.085	89.75
383.31	83.75
383.535	81.75
383.761	89.75
383.986	80.75
384.211	75.75
384.436	84.75
384.662	74.75
384.887	85.75
385.112	84.75
385.337	86.75
385.562	94.75
385.787	86.75
386.013	82.75
386.238	78.75
386.463	75.75
386.688	84.75
386.913	78.75
387.138	91.75
387.363	83.75
387.588	88.75
387.813	78.75
388.038	70.75
388.263	91.75
388.488	79.75
388.713	80.75
388.938	91.75
389.163	93.75
389.387	87.75
389.612	83.75
389.837	86.75
390.062	96.75
390.287	81.75
390.512	85.75
390.736	82.75
390.961	88.75
391.186	88.75
391.411	74.75
391.636	82.75
391.86	86.75
392.085	94.75
392.31	70.75
392.534	83.75
392.759	92.75
392.984	98.75
393.208	92.75
393.433	88.75
393.658	78.75
393.882	90.75
394.107	75.75
394.331	84.75
394.556	85.75
394.78	81.75
395.005	79.75
395.229	72.75
395.454	89.75
395.678	82.75
395.903	96.75
396.127	97.75
396.352	78.75
396.576	93.75
396.801	83.75
397.025	80.75
397.249	85.75
397.474	89.75
397.698	71.75
397.922	84.75
398.147	89.75
398.371	87.75
398.595	89.75
398.82	95.75
399.044	83.75
399.268	82.75
399.492	90.75
399.717	96.75
399.941	96.75
400.165	90.75
400.389	84.75
400.613	86.75
400.837	88.75
401.062	84.75
401.286	76.75
401.51	93.75
401.734	84.75
401.958	98.75
402.182	104.75
402.406	87.75
402.63	70.75
402.854	79.75
403.078	82.75
403.302	90.75
403.526	90.75
403.75	88.75
403.974	82.75
404.198	89.75
404.422	78.75
404.645	84.75
404.869	84.75
405.093	81.75
405.317	94.75
405.541	92.75
405.765	83.75
405.988	86.75
406.212	95.75
406.436	72.75
406.66	88.75
406.883	85.75
407.107	75.75
407.331	86.75
407.555	87.75
407.778	90.75
408.002	86.75
408.226	82.75
408.449	73.75
408.673	80.75
408.896	80.75
409.12	94.75
409.344	85.75
409.567	87.75
409.791	73.75
410.014	92.75
410.238	92.75
410.461	72.75
410.685	79.75
410.908	81.75
411.132	103.75
411.355	78.75
411.578	75.75
411.802	83.75
412.025	91.75
412.249	81.75
412.472	83.75
412.695	90.75
412.919	86.75
413.142	84.75
413.365	77.75
413.589	86.75
413.812	84.75
414.035	85.75
414.258	72.75
414.482	82.75
414.705	85.75
414.928	83.75
415.151	97.75
415.374	75.75
415.597	82.75
415.821	81.75
416.044	92.75
416.267	79.75
416.49	84.75
416.713	82.75
416.936	86.75
417.159	82.75
417.382	75.75
417.605	84.75
417.828	93.75
418.051	93.75
418.274	77.75
418.497	74.75
418.72	88.75
418.943	80.75
419.166	77.75
419.389	90.75
419.611	84.75
419.834	81.75
420.057	82.75
420.28	83.75
420.503	79.75
420.726	97.75
420.948	99.75
421.171	92.75
421.394	94.75
421.617	74.75
421.839	83.75
422.062	90.75
422.285	82.75
422.507	71.75
422.73	84.75
422.953	88.75
423.175	78.75
423.398	91.75
423.621	90.75
423.843	87.75
424.066	77.75
424.288	74.75
424.511	80.75
424.733	67.75
424.956	88.75
425.178	82.75
425.401	91.75
425.623	94.75
425.846	93.75
426.068	73.75
426.291	90.75
426.513	81.75
426.735	76.75
426.958	94.75
427.18	76.75
427.402	78.75
427.625	89.75
427.847	98.75
428.069	69.75
428.292	70.75
428.514	87.75
428.736	84.75
428.958	77.75
429.181	81.75
429.403	84.75
429.625	86.75
429.847	82.75
430.069	78.75
430.292	83.75
430.514	84.75
430.736	83.75
430.958	83.75
431.18	78.75
431.402	91.75
431.624	85.75
431.846	69.75
432.068	81.75
432.29	74.75
432.512	72.75
432.734	89.75
432.956	83.75
433.178	86.75
433.4	92.75
433.622	86.75
433.844	82.75
434.066	84.75
434.287	88.75
434.509	83.75
434.731	87.75
434.953	85.75
435.175	86.75
435.397	85.75
435.618	68.75
435.84	84.75
436.062	100.75
436.284	84.75
436.505	89.75
436.727	82.75
436.949	97.75
437.17	80.75
437.392	75.75
437.614	70.75
437.835	94.75
438.057	79.75
438.278	78.75
438.5	88.75
438.721	82.75
438.943	75.75
439.165	89.75
439.386	90.75
439.608	97.75
439.829	89.75
440.05	80.75
440.272	79.75
440.493	71.75
440.715	78.75
440.936	95.75
441.158	85.75
441.379	64.75
441.6	89.75
441.822	87.75
442.043	86.75
442.264	97.75
442.486	76.75
442.707	95.75
442.928	87.75
443.149	84.75
443.371	83.75
443.592	84.75
443.813	88.75
444.034	81.75
444.255	98.75
444.476	84.75
444.698	85.75
444.919	89.75
445.14	190.75
445.361	132.75
445.582	100.75
445.803	84.75
446.024	89.75
446.245	91.75
446.466	83.75
446.687	93.75
446.908	82.75
447.129	92.75
447.35	78.75
447.571	89.75
447.792	76.75
448.013	80.75
448.234	75.75
448.455	82.75
448.675	90.75
448.896	80.75
449.117	90.75
449.338	72.75
449.559	93.75
449.779	89.75
450	91.75
450.221	98.75
450.442	93.75
450.662	77.75
450.883	74.75
451.104	82.75
451.324	85.75
451.545	77.75
451.766	85.75
451.986	93.75
452.207	90.75
452.428	80.75
452.648	88.75
452.869	95.75
453.089	73.75
453.31	82.75
453.53	74.75
453.751	86.75
453.971	95.75
454.192	71.75
454.412	78.75
454.633	86.75
454.853	91.75
455.073	85.75
455.294	76.75
455.514	78.75
455.734	83.75
455.955	78.75
456.175	74.75
456.395	98.75
456.616	79.75
456.836	98.75
457.056	84.75
457.276	88.75
457.497	81.75
457.717	80.75
457.937	76.75
458.157	91.75
458.377	82.75
458.598	91.75
458.818	113.75
459.038	91.75
459.258	84.75
459.478	81.75
459.698	81.75
459.918	83.75
460.138	81.75
460.358	83.75
460.578	105.75
460.798	88.75
461.018	77.75
461.238	87.75
461.458	81.75
461.678	74.75
461.898	90.75
462.118	82.75
462.338	90.75
462.558	86.75
462.777	87.75
462.997	85.75
463.217	92.75
463.437	62.75
463.657	82.75
463.876	87.75
464.096	95.75
464.316	83.75
464.536	80.75
464.755	82.75
464.975	73.75
465.195	89.75
465.414	77.75
465.634	83.75
465.854	72.75
466.073	75.75
466.293	74.75
466.512	83.75
466.732	92.75
466.951	90.75
467.171	96.75
467.391	82.75
467.61	72.75
467.829	90.75
468.049	87.75
468.268	86.75
468.488	83.75
468.707	85.75
468.927	82.75
469.146	82.75
469.365	87.75
469.585	91.75
469.804	90.75
470.023	83.75
470.243	92.75
470.462	89.75
470.681	94.75
470.901	82.75
471.12	91.75
471.339	84.75
471.558	109.75
471.777	80.75
471.997	87.75
472.216	78.75
472.435	94.75
472.654	81.75
472.873	74.75
473.092	76.75
473.311	86.75
473.53	72.75
473.749	93.75
473.968	88.75
474.187	75.75
474.406	87.75
474.625	78.75
474.844	88.75
475.063	89.75
475.282	84.75
475.501	85.75
475.72	89.75
475.939	81.75
476.158	88.75
476.377	82.75
476.596	88.75
476.814	84.75
477.033	77.75
477.252	86.75
477.471	78.75
477.69	96.75
477.908	93.75
478.127	89.75
478.346	80.75
478.564	76.75
478.783	83.75
479.002	82.75
479.22	85.75
479.439	91.75
479.658	102.75
479.876	84.75
480.095	80.75
480.313	86.75
480.532	87.75
480.751	88.75
480.969	92.75
481.188	82.75
481.406	90.75
481.624	93.75
481.843	86.75
482.061	85.75
482.28	93.75
482.498	86.75
482.717	72.75
482.935	100.75
483.153	89.75
483.372	91.75
483.59	97.75
483.808	105.75
484.027	86.75
484.245	82.75
484.463	84.75
484.681	106.75
484.9	92.75
485.118	104.75
485.336	82.75
485.554	84.75
485.772	78.75
485.99	76.75
486.209	92.75
486.427	90.75
486.645	92.75
486.863	79.75
487.081	92.75
487.299	89.75
487.517	93.75
487.735	82.75
487.953	95.75
488.171	95.75
488.389	89.75
488.607	80.75
488.825	115.75
489.043	92.75
489.261	97.75
489.479	84.75
489.696	98.75
489.914	97.75
490.132	97.75
490.35	88.75
490.568	96.75
490.786	100.75
491.003	88.75
491.221	100.75
491.439	86.75
491.657	100.75
491.874	109.75
492.092	90.75
492.31	81.75
492.527	69.75
492.745	84.75
492.963	93.75
493.18	88.75
493.398	99.75
493.615	91.75
493.833	92.75
494.05	85.75
494.268	91.75
494.485	83.75
494.703	99.75
494.92	94.75
495.138	94.75
495.355	91.75
495.573	96.75
495.79	102.75
496.008	87.75
496.225	83.75
496.442	65.75
496.66	98.75
496.877	88.75
497.094	108.75
497.312	98.75
497.529	83.75
497.746	98.75
497.963	94.75
498.181	89.75
498.398	76.75
498.615	94.75
498.832	96.75
499.049	86.75
499.267	91.75
499.484	83.75
499.701	102.75
499.918	92.75
500.135	121.75
500.352	112.75
500.569	106.75
500.786	126.75
501.003	114.75
501.22	109.75
501.437	104.75
501.654	98.75
501.871	97.75
502.088	94.75
502.305	102.75
502.522	93.75
502.739	109.75
502.956	90.75
503.172	94.75
503.389	102.75
503.606	91.75
503.823	84.75
504.04	86.75
504.256	101.75
504.473	77.75
504.69	103.75
504.907	101.75
505.123	97.75
505.34	119.75
505.557	88.75
505.773	102.75
505.99	71.75
506.207	83.75
506.423	100.75
506.64	112.75
506.856	90.75
507.073	91.75
507.289	92.75
507.506	100.75
507.722	97.75
507.939	89.75
508.155	96.75
508.372	90.75
508.588	89.75
508.805	93.75
509.021	66.75
509.238	83.75
509.454	93.75
509.67	89.75
509.887	103.75
510.103	84.75
510.319	91.75
510.536	88.75
510.752	79.75
510.968	73.75
511.184	93.75
511.401	81.75
511.617	77.75
511.833	89.75
512.049	81.75
512.265	87.75
512.481	91.75
512.698	89.75
512.914	91.75
513.13	91.75
513.346	87.75
513.562	88.75
513.778	105.75
513.994	92.75
514.21	94.75
514.426	103.75
514.642	91.75
514.858	92.75
515.074	99.75
515.29	86.75
515.506	88.75
515.721	82.75
515.937	97.75
516.153	86.75
516.369	82.75
516.585	89.75
516.801	87.75
517.016	96.75
517.232	96.75
517.448	90.75
517.664	87.75
517.879	96.75
518.095	88.75
518.311	91.75
518.527	89.75
518.742	67.75
518.958	85.75
519.173	104.75
519.389	93.75
519.605	97.75
519.82	82.75
520.036	107.75
520.251	85.75
520.467	98.75
520.682	93.75
520.898	86.75
521.113	90.75
521.329	80.75
521.544	87.75
521.76	85.75
521.975	96.75
522.19	100.75
522.406	93.75
522.621	96.75
522.836	97.75
523.052	92.75
523.267	88.75
523.482	83.75
523.698	87.75
523.913	91.75
524.128	83.75
524.343	81.75
524.559	106.75
524.774	93.75
524.989	90.75
525.204	94.75
525.419	77.75
525.634	91.75
525.849	92.75
526.064	100.75
526.28	98.75
526.495	72.75
526.71	90.75
526.925	86.75
527.14	84.75
527.355	91.75
527.57	86.75
527.785	94.75
527.999	88.75
528.214	101.75
528.429	86.75
528.644	89.75
528.859	98.75
529.074	88.75
529.289	94.75
529.503	86.75
529.718	86.75
529.933	92.75
530.148	82.75
530.363	88.75
530.577	89.75
530.792	92.75
531.007	92.75
531.221	100.75
531.436	92.75
531.651	95.75
531.865	98.75
532.08	81.75
532.295	95.75
532.509	91.75
532.724	90.75
532.938	76.75
533.153	77.75
533.367	96.75
533.582	88.75
533.796	90.75
534.011	85.75
534.225	82.75
534.44	91.75
534.654	94.75
534.868	84.75
535.083	90.75
535.297	100.75
535.511	85.75
535.726	91.75
535.94	80.75
536.154	94.75
536.369	89.75
536.583	88.75
536.797	89.75
537.011	86.75
537.225	89.75
537.44	107.75
537.654	92.75
537.868	98.75
538.082	97.75
538.296	86.75
538.51	92.75
538.724	96.75
538.938	95.75
539.153	80.75
539.367	91.75
539.581	93.75
539.795	78.75
540.009	93.75
540.222	88.75
540.436	102.75
540.65	88.75
540.864	82.75
541.078	92.75
541.292	108.75
541.506	104.75
541.72	78.75
541.934	92.75
542.147	91.75
542.361	101.75
542.575	71.75
542.789	97.75
543.002	77.75
543.216	89.75
543.43	88.75
543.644	96.75
543.857	94.75
544.071	97.75
544.285	87.75
544.498	94.75
544.712	93.75
544.925	94.75
545.139	78.75
545.352	88.75
545.566	90.75
545.779	87.75
545.993	87.75
546.206	94.75
546.42	91.75
546.633	91.75
546.847	100.75
547.06	89.75
547.274	75.75
547.487	96.75
547.7	74.75
547.914	81.75
548.127	83.75
548.34	104.75
548.554	88.75
548.767	85.75
548.98	86.75
549.193	97.75
549.407	91.75
549.62	94.75
549.833	85.75
550.046	89.75
550.259	89.75
550.473	84.75
550.686	91.75
550.899	89.75
551.112	83.75
551.325	93.75
551.538	84.75
551.751	71.75
551.964	106.75
552.177	94.75
552.39	102.75
552.603	102.75
552.816	80.75
553.029	91.75
553.242	96.75
553.455	87.75
553.667	94.75
553.88	96.75
554.093	88.75
554.306	91.75
554.519	93.75
554.732	90.75
554.944	89.75
555.157	86.75
555.37	91.75
555.583	85.75
555.795	104.75
556.008	86.75
556.221	97.75
556.433	94.75
556.646	98.75
556.859	90.75
557.071	99.75
557.284	93.75
557.496	84.75
557.709	89.75
557.921	81.75
558.134	94.75
558.346	82.75
558.559	95.75
558.771	87.75
558.984	89.75
559.196	101.75
559.409	71.75
559.621	88.75
559.833	93.75
560.046	79.75
560.258	91.75
560.47	91.75
560.683	73.75
560.895	94.75
561.107	86.75
561.32	85.75
561.532	89.75
561.744	96.75
561.956	106.75
562.168	85.75
562.381	80.75
562.593	99.75
562.805	83.75
563.017	100.75
563.229	94.75
563.441	87.75
563.653	77.75
563.865	96.75
564.077	84.75
564.289	89.75
564.501	94.75
564.713	88.75
564.925	83.75
565.137	80.75
565.349	92.75
565.561	94.75
565.773	99.75
565.985	95.75
566.197	96.75
566.408	89.75
566.62	78.75
566.832	82.75
567.044	89.75
567.255	110.75
567.467	94.75
567.679	91.75
567.891	100.75
568.102	81.75
568.314	83.75
568.526	100.75
568.737	93.75
568.949	83.75
569.161	93.75
569.372	99.75
569.584	87.75
569.795	91.75
570.007	94.75
570.218	105.75
570.43	85.75
570.641	86.75
570.853	94.75
571.064	97.75
571.276	79.75
571.487	93.75
571.698	87.75
571.91	99.75
572.121	90.75
572.333	85.75
572.544	79.75
572.755	85.75
572.966	87.75
573.178	83.75
573.389	86.75
573.6	91.75
573.811	88.75
574.023	92.75
574.234	78.75
574.445	93.75
574.656	85.75
574.867	103.75
575.078	93.75
575.289	75.75
575.501	72.75
575.712	84.75
575.923	84.75
576.134	82.75
576.345	94.75
576.556	85.75
576.767	87.75
576.978	91.75
577.188	78.75
577.399	82.75
577.61	82.75
577.821	96.75
578.032	94.75
578.243	74.75
578.454	84.75
578.665	93.75
578.875	102.75
579.086	89.75
579.297	79.75
579.508	85.75
579.718	79.75
579.929	81.75
580.14	76.75
580.35	82.75
580.561	87.75
580.772	96.75
580.982	96.75
581.193	94.75
581.403	96.75
581.614	85.75
581.825	80.75
582.035	101.75
582.246	83.75
582.456	84.75
582.667	89.75
582.877	99.75
583.087	77.75
583.298	90.75
583.508	90.75
583.719	84.75
583.929	86.75
584.139	81.75
584.35	81.75
584.56	78.75
584.77	68.75
584.981	105.75
585.191	87.75
585.401	96.75
585.611	81.75
585.821	97.75
586.032	92.75
586.242	82.75
586.452	80.75
586.662	83.75
586.872	77.75
587.082	94.75
587.292	85.75
587.502	81.75
587.713	92.75
587.923	81.75
588.133	86.75
588.343	93.75
588.553	84.75
588.762	99.75
588.972	93.75
589.182	102.75
589.392	79.75
589.602	92.75
589.812	83.75
590.022	83.75
590.232	88.75
590.441	81.75
590.651	63.75
590.861	86.75
591.071	72.75
591.281	72.75
591.49	89.75
591.7	97.75
591.91	86.75
592.119	86.75
592.329	85.75
592.539	84.75
592.748	88.75
592.958	102.75
593.167	60.75
593.377	85.75
593.587	94.75
593.796	95.75
594.006	91.75
594.215	91.75
594.424	81.75
594.634	78.75
594.843	91.75
595.053	92.75
595.262	92.75
595.472	76.75
595.681	108.75
595.89	85.75
596.1	95.75
596.309	82.75
596.518	82.75
596.727	91.75
596.937	70.75
597.146	86.75
597.355	83.75
597.564	83.75
597.774	99.75
597.983	69.75
598.192	91.75
598.401	90.75
598.61	85.75
598.819	91.75
599.028	96.75
599.237	86.75
599.446	73.75
599.655	84.75
599.864	76.75
600.073	84.75
600.282	89.75
600.491	91.75
600.7	78.75
600.909	83.75
601.118	91.75
601.327	87.75
601.536	78.75
601.745	95.75
601.953	107.75
602.162	84.75
602.371	76.75
602.58	78.75
602.789	88.75
602.997	92.75
603.206	83.75
603.415	94.75
603.623	80.75
603.832	84.75
604.041	81.75
604.249	77.75
604.458	87.75
604.666	80.75
604.875	89.75
605.084	92.75
605.292	83.75
605.501	93.75
605.709	88.75
605.918	83.75
606.126	84.75
606.334	78.75
606.543	88.75
606.751	97.75
606.96	88.75
607.168	88.75
607.376	90.75
607.585	77.75
607.793	78.75
608.001	82.75
608.21	89.75
608.418	100.75
608.626	89.75
608.834	86.75
609.043	82.75
609.251	85.75
609.459	83.75
609.667	85.75
609.875	85.75
610.083	82.75
610.291	94.75
610.499	84.75
610.707	84.75
610.916	92.75
611.124	92.75
611.332	92.75
611.54	100.75
611.748	88.75
611.955	92.75
612.163	68.75
612.371	93.75
612.579	74.75
612.787	105.75
612.995	94.75
613.203	80.75
613.411	76.75
613.618	77.75
613.826	88.75
614.034	57.75
614.242	88.75
614.449	73.75
614.657	89.75
614.865	95.75
615.072	99.75
615.28	90.75
615.488	88.75
615.695	83.75
615.903	74.75
616.111	81.75
616.318	99.75
616.526	108.75
616.733	102.75
616.941	94.75
617.148	81.75
617.356	86.75
617.563	89.75
617.771	99.75
617.978	82.75
618.185	93.75
618.393	92.75
618.6	90.75
618.807	83.75
619.015	84.75
619.222	92.75
619.429	84.75
619.637	82.75
619.844	93.75
620.051	99.75
620.258	81.75
620.466	91.75
620.673	90.75
620.88	75.75
621.087	83.75
621.294	83.75
621.501	85.75
621.708	84.75
621.915	77.75
622.122	84.75
622.329	86.75
622.536	87.75
622.743	92.75
622.95	80.75
623.157	81.75
623.364	89.75
623.571	75.75
623.778	96.75
623.985	82.75
624.192	97.75
624.399	92.75
624.606	77.75
624.812	76.75
625.019	77.75
625.226	75.75
625.433	88.75
625.639	88.75
625.846	97.75
626.053	89.75
626.259	88.75
626.466	87.75
626.673	85.75
626.879	87.75
627.086	86.75
627.293	90.75
627.499	82.75
627.706	78.75
627.912	85.75
628.119	72.75
628.325	94.75
628.532	95.75
628.738	88.75
628.945	80.75
629.151	85.75
629.357	91.75
629.564	69.75
629.77	78.75
629.976	84.75
630.183	97.75
630.389	86.75
630.595	94.75
630.802	87.75
631.008	84.75
631.214	82.75
631.42	88.75
631.627	80.75
631.833	76.75
632.039	80.75
632.245	87.75
632.451	77.75
632.657	83.75
632.863	92.75
633.069	68.75
633.275	88.75
633.481	91.75
633.688	85.75
633.893	93.75
634.099	87.75
634.305	77.75
634.511	88.75
634.717	76.75
634.923	80.75
635.129	86.75
635.335	77.75
635.541	100.75
635.747	75.75
635.952	92.75
636.158	77.75
636.364	86.75
636.57	84.75
636.775	91.75
636.981	103.75
637.187	85.75
637.392	70.75
637.598	76.75
637.804	89.75
638.009	76.75
638.215	84.75
638.421	76.75
638.626	74.75
638.832	79.75
639.037	72.75
639.243	92.75
639.448	77.75
639.654	79.75
639.859	88.75
640.065	74.75
640.27	95.75
640.475	94.75
640.681	72.75
640.886	85.75
641.091	90.75
641.297	82.75
641.502	87.75
641.707	86.75
641.913	79.75
642.118	75.75
642.323	90.75
642.528	93.75
642.733	101.75
642.939	86.75
643.144	93.75
643.349	80.75
643.554	75.75
643.759	84.75
643.964	76.75
644.169	82.75
644.374	82.75
644.579	100.75
644.784	97.75
644.989	81.75
645.194	89.75
645.399	75.75
645.604	98.75
645.809	80.75
646.014	95.75
646.219	74.75
646.423	81.75
646.628	73.75
646.833	84.75
647.038	82.75
647.243	95.75
647.447	91.75
647.652	90.75
647.857	91.75
648.062	80.75
648.266	84.75
648.471	76.75
648.676	93.75
648.88	74.75
649.085	68.75
649.289	82.75
649.494	97.75
649.698	87.75
649.903	85.75
650.107	69.75
650.312	93.75
650.516	78.75
650.721	82.75
650.925	83.75
651.13	80.75
651.334	76.75
651.539	92.75
651.743	81.75
651.947	73.75
652.152	86.75
652.356	74.75
652.56	85.75
652.764	82.75
652.969	89.75
653.173	75.75
653.377	81.75
653.581	91.75
653.785	81.75
653.99	97.75
654.194	84.75
654.398	78.75
654.602	82.75
654.806	84.75
655.01	79.75
655.214	98.75
655.418	73.75
655.622	71.75
655.826	79.75
656.03	77.75
656.234	89.75
656.438	88.75
656.642	90.75
656.846	75.75
657.049	85.75
657.253	90.75
657.457	78.75
657.661	87.75
657.865	81.75
658.068	78.75
658.272	76.75
658.476	80.75
658.68	83.75
658.883	93.75
659.087	92.75
659.291	86.75
659.494	86.75
659.698	77.75
659.901	78.75
660.105	97.75
660.309	81.75
660.512	91.75
660.716	86.75
660.919	83.75
661.123	85.75
661.326	87.75
661.53	88.75
661.733	89.75
661.936	89.75
662.14	89.75
662.343	91.75
662.546	89.75
662.75	93.75
662.953	89.75
663.156	83.75
663.36	85.75
663.563	88.75
663.766	84.75
663.969	70.75
664.173	94.75
664.376	84.75
664.579	87.75
664.782	86.75
664.985	95.75
665.188	90.75
665.391	79.75
665.594	84.75
665.797	70.75
666	88.75
666.203	74.75
666.406	72.75
666.609	69.75
666.812	74.75
667.015	80.75
667.218	88.75
667.421	76.75
667.624	86.75
667.827	84.75
668.03	74.75
668.232	81.75
668.435	81.75
668.638	82.75
668.841	87.75
669.043	87.75
669.246	99.75
669.449	81.75
669.651	68.75
669.854	88.75
670.057	86.75
670.259	89.75
670.462	85.75
670.665	93.75
670.867	85.75
671.07	70.75
671.272	85.75
671.475	93.75
671.677	70.75
671.88	74.75
672.082	102.75
672.284	87.75
672.487	95.75
672.689	94.75
672.892	80.75
