Data from Ni(NO3)2@0.5M.TitratingCurve.Agarose3%dH2O.NegLispCup.LampEnergy10.LIBS07252019_HRD10591_17-57-18-564.txt Node
Date: Thu Jul 25 17:57:18 EDT 2019
User: cochatt
Spectrometer: HR+D1059
Trigger mode: 1
Integration Time (sec): 1.000000E-1
Scans to average: 1
Electric dark correction enabled: true
Nonlinearity correction enabled: false
Boxcar width: 0
XAxis mode: Wavelengths
Number of Pixels in Spectrum: 2048
>>>>>Begin Spectral Data<<<<<
223.165	-10.5
223.4	-10.5
223.635	-10.5
223.869	-17.5
224.104	-3.5
224.338	-5.5
224.573	-9.5
224.808	-19.5
225.042	-10.5
225.277	-14.5
225.511	-2.5
225.746	2.5
225.98	6.5
226.215	-0.5
226.449	11.5
226.683	13.5
226.918	23.5
227.152	36.5
227.387	38.5
227.621	29.5
227.856	40.5
228.09	60.5
228.324	65.5
228.559	45.5
228.793	75.5
229.027	137.5
229.262	152.5
229.496	167.5
229.73	178.5
229.964	187.5
230.199	222.5
230.433	215.5
230.667	212.5
230.901	202.5
231.136	198.5
231.37	213.5
231.604	219.5
231.838	245.5
232.072	246.5
232.306	219.5
232.541	202.5
232.775	201.5
233.009	191.5
233.243	189.5
233.477	205.5
233.711	196.5
233.945	200.5
234.179	212.5
234.413	196.5
234.647	206.5
234.881	206.5
235.115	220.5
235.349	212.5
235.583	199.5
235.817	211.5
236.051	218.5
236.285	199.5
236.519	199.5
236.753	206.5
236.987	214.5
237.221	215.5
237.455	218.5
237.689	211.5
237.922	209.5
238.156	238.5
238.39	234.5
238.624	230.5
238.858	247.5
239.091	245.5
239.325	226.5
239.559	239.5
239.793	284.5
240.027	275.5
240.26	253.5
240.494	248.5
240.728	246.5
240.961	241.5
241.195	249.5
241.429	263.5
241.662	254.5
241.896	294.5
242.13	307.5
242.363	269.5
242.597	239.5
242.83	257.5
243.064	277.5
243.298	281.5
243.531	271.5
243.765	291.5
243.998	282.5
244.232	285.5
244.465	292.5
244.699	301.5
244.932	281.5
245.166	301.5
245.399	321.5
245.633	306.5
245.866	299.5
246.099	300.5
246.333	300.5
246.566	311.5
246.8	313.5
247.033	318.5
247.266	319.5
247.5	322.5
247.733	317.5
247.966	341.5
248.2	333.5
248.433	333.5
248.666	326.5
248.899	351.5
249.133	338.5
249.366	358.5
249.599	370.5
249.832	353.5
250.066	367.5
250.299	375.5
250.532	358.5
250.765	361.5
250.998	383.5
251.231	391.5
251.465	413.5
251.698	397.5
251.931	391.5
252.164	390.5
252.397	407.5
252.63	407.5
252.863	418.5
253.096	408.5
253.329	422.5
253.562	405.5
253.795	429.5
254.028	420.5
254.261	421.5
254.494	424.5
254.727	433.5
254.96	436.5
255.193	442.5
255.426	433.5
255.659	441.5
255.892	463.5
256.124	456.5
256.357	448.5
256.59	500.5
256.823	478.5
257.056	462.5
257.289	460.5
257.521	464.5
257.754	481.5
257.987	471.5
258.22	473.5
258.452	487.5
258.685	487.5
258.918	488.5
259.151	475.5
259.383	493.5
259.616	476.5
259.849	493.5
260.081	500.5
260.314	501.5
260.547	513.5
260.779	504.5
261.012	526.5
261.244	513.5
261.477	529.5
261.71	537.5
261.942	524.5
262.175	524.5
262.407	553.5
262.64	538.5
262.872	539.5
263.105	535.5
263.337	542.5
263.57	547.5
263.802	554.5
264.035	533.5
264.267	573.5
264.499	550.5
264.732	568.5
264.964	551.5
265.197	573.5
265.429	549.5
265.661	562.5
265.894	582.5
266.126	571.5
266.358	582.5
266.591	587.5
266.823	573.5
267.055	565.5
267.287	595.5
267.52	561.5
267.752	606.5
267.984	606.5
268.216	592.5
268.448	599.5
268.681	615.5
268.913	612.5
269.145	600.5
269.377	588.5
269.609	598.5
269.841	621.5
270.073	599.5
270.306	630.5
270.538	634.5
270.77	627.5
271.002	641.5
271.234	616.5
271.466	619.5
271.698	633.5
271.93	638.5
272.162	634.5
272.394	651.5
272.626	628.5
272.858	649.5
273.09	673.5
273.322	639.5
273.553	666.5
273.785	651.5
274.017	643.5
274.249	655.5
274.481	659.5
274.713	676.5
274.945	661.5
275.176	647.5
275.408	678.5
275.64	682.5
275.872	651.5
276.104	668.5
276.335	677.5
276.567	668.5
276.799	693.5
277.031	703.5
277.262	675.5
277.494	676.5
277.726	699.5
277.957	697.5
278.189	682.5
278.421	681.5
278.652	707.5
278.884	714.5
279.115	687.5
279.347	723.5
279.579	711.5
279.81	710.5
280.042	704.5
280.273	732.5
280.505	700.5
280.736	712.5
280.968	720.5
281.199	742.5
281.431	722.5
281.662	717.5
281.894	725.5
282.125	701.5
282.356	738.5
282.588	733.5
282.819	725.5
283.051	725.5
283.282	726.5
283.513	734.5
283.745	773.5
283.976	722.5
284.207	748.5
284.439	753.5
284.67	756.5
284.901	766.5
285.132	773.5
285.364	793.5
285.595	760.5
285.826	759.5
286.057	785.5
286.288	769.5
286.52	777.5
286.751	777.5
286.982	779.5
287.213	789.5
287.444	773.5
287.675	788.5
287.906	781.5
288.138	802.5
288.369	805.5
288.6	788.5
288.831	810.5
289.062	812.5
289.293	805.5
289.524	798.5
289.755	802.5
289.986	796.5
290.217	814.5
290.448	798.5
290.679	813.5
290.91	796.5
291.141	772.5
291.371	788.5
291.602	805.5
291.833	796.5
292.064	821.5
292.295	782.5
292.526	816.5
292.757	822.5
292.987	815.5
293.218	807.5
293.449	815.5
293.68	834.5
293.91	819.5
294.141	820.5
294.372	805.5
294.603	826.5
294.833	817.5
295.064	817.5
295.295	815.5
295.525	823.5
295.756	827.5
295.987	818.5
296.217	831.5
296.448	817.5
296.679	845.5
296.909	791.5
297.14	873.5
297.37	822.5
297.601	857.5
297.831	833.5
298.062	847.5
298.292	836.5
298.523	862.5
298.753	887.5
298.984	849.5
299.214	858.5
299.445	860.5
299.675	891.5
299.905	880.5
300.136	853.5
300.366	882.5
300.597	923.5
300.827	908.5
301.057	890.5
301.288	889.5
301.518	903.5
301.748	918.5
301.979	904.5
302.209	918.5
302.439	935.5
302.669	890.5
302.9	903.5
303.13	909.5
303.36	913.5
303.59	894.5
303.82	924.5
304.051	937.5
304.281	961.5
304.511	912.5
304.741	958.5
304.971	957.5
305.201	940.5
305.431	982.5
305.661	981.5
305.891	970.5
306.121	965.5
306.352	959.5
306.582	963.5
306.812	910.5
307.042	946.5
307.272	959.5
307.502	951.5
307.731	927.5
307.961	955.5
308.191	957.5
308.421	962.5
308.651	953.5
308.881	923.5
309.111	952.5
309.341	953.5
309.571	985.5
309.8	971.5
310.03	971.5
310.26	1014.5
310.49	1002.5
310.72	982.5
310.949	981.5
311.179	986.5
311.409	982.5
311.639	989.5
311.868	1000.5
312.098	996.5
312.328	1026.5
312.557	1044.5
312.787	1022.5
313.017	1009.5
313.246	1027.5
313.476	1041.5
313.706	1077.5
313.935	1049.5
314.165	1036.5
314.394	1030.5
314.624	1029.5
314.853	1050.5
315.083	1035.5
315.312	1049.5
315.542	1055.5
315.771	1060.5
316.001	1034.5
316.23	1052.5
316.46	1059.5
316.689	1081.5
316.919	1083.5
317.148	1083.5
317.377	1068.5
317.607	1076.5
317.836	1090.5
318.065	1057.5
318.295	1063.5
318.524	1106.5
318.753	1088.5
318.983	1116.5
319.212	1086.5
319.441	1101.5
319.67	1109.5
319.9	1109.5
320.129	1108.5
320.358	1117.5
320.587	1110.5
320.816	1121.5
321.046	1148.5
321.275	1155.5
321.504	1133.5
321.733	1161.5
321.962	1153.5
322.191	1177.5
322.42	1138.5
322.649	1159.5
322.878	1171.5
323.108	1164.5
323.337	1177.5
323.566	1187.5
323.795	1187.5
324.024	1167.5
324.253	1175.5
324.482	1183.5
324.71	1172.5
324.939	1185.5
325.168	1173.5
325.397	1217.5
325.626	1182.5
325.855	1182.5
326.084	1221.5
326.313	1199.5
326.542	1237.5
326.77	1228.5
326.999	1236.5
327.228	1219.5
327.457	1220.5
327.686	1209.5
327.914	1230.5
328.143	1254.5
328.372	1249.5
328.6	1229.5
328.829	1210.5
329.058	1224.5
329.287	1228.5
329.515	1231.5
329.744	1251.5
329.972	1235.5
330.201	1242.5
330.43	1301.5
330.658	1265.5
330.887	1295.5
331.115	1269.5
331.344	1308.5
331.572	1301.5
331.801	1326.5
332.03	1322.5
332.258	1326.5
332.486	1288.5
332.715	1304.5
332.943	1307.5
333.172	1325.5
333.4	1310.5
333.629	1309.5
333.857	1343.5
334.085	1343.5
334.314	1363.5
334.542	1353.5
334.771	1369.5
334.999	1375.5
335.227	1364.5
335.455	1377.5
335.684	1375.5
335.912	1371.5
336.14	1342.5
336.369	1389.5
336.597	1398.5
336.825	1403.5
337.053	1411.5
337.281	1382.5
337.51	1365.5
337.738	1370.5
337.966	1377.5
338.194	1401.5
338.422	1413.5
338.65	1382.5
338.878	1358.5
339.106	1367.5
339.334	1391.5
339.562	1403.5
339.79	1357.5
340.018	1355.5
340.246	1364.5
340.474	1335.5
340.702	1339.5
340.93	1365.5
341.158	1372.5
341.386	1381.5
341.614	1413.5
341.842	1371.5
342.07	1355.5
342.298	1365.5
342.526	1353.5
342.754	1322.5
342.981	1351.5
343.209	1357.5
343.437	1395.5
343.665	1371.5
343.893	1344.5
344.12	1386.5
344.348	1373.5
344.576	1391.5
344.804	1405.5
345.031	1353.5
345.259	1391.5
345.487	1379.5
345.714	1377.5
345.942	1373.5
346.17	1402.5
346.397	1371.5
346.625	1350.5
346.853	1317.5
347.08	1323.5
347.308	1302.5
347.535	1343.5
347.763	1296.5
347.99	1319.5
348.218	1295.5
348.445	1307.5
348.673	1314.5
348.9	1325.5
349.128	1328.5
349.355	1348.5
349.583	1369.5
349.81	1313.5
350.037	1309.5
350.265	1314.5
350.492	1293.5
350.72	1319.5
350.947	1325.5
351.174	1330.5
351.402	1369.5
351.629	1359.5
351.856	1356.5
352.083	1339.5
352.311	1349.5
352.538	1390.5
352.765	1381.5
352.992	1285.5
353.22	1284.5
353.447	1296.5
353.674	1252.5
353.901	1295.5
354.128	1278.5
354.355	1251.5
354.583	1301.5
354.81	1273.5
355.037	1273.5
355.264	1255.5
355.491	1261.5
355.718	1265.5
355.945	1272.5
356.172	1296.5
356.399	1300.5
356.626	1295.5
356.853	1314.5
357.08	1292.5
357.307	1298.5
357.534	1265.5
357.761	1273.5
357.988	1280.5
358.215	1271.5
358.441	1271.5
358.668	1262.5
358.895	1301.5
359.122	1269.5
359.349	1303.5
359.576	1281.5
359.802	1311.5
360.029	1298.5
360.256	1303.5
360.483	1254.5
360.709	1265.5
360.936	1290.5
361.163	1294.5
361.39	1294.5
361.616	1311.5
361.843	1315.5
362.07	1349.5
362.296	1348.5
362.523	1332.5
362.749	1258.5
362.976	1277.5
363.203	1283.5
363.429	1250.5
363.656	1265.5
363.882	1268.5
364.109	1275.5
364.335	1273.5
364.562	1290.5
364.788	1305.5
365.015	1287.5
365.241	1244.5
365.468	1275.5
365.694	1287.5
365.92	1247.5
366.147	1307.5
366.373	1321.5
366.599	1271.5
366.826	1265.5
367.052	1281.5
367.278	1244.5
367.505	1304.5
367.731	1304.5
367.957	1291.5
368.184	1294.5
368.41	1285.5
368.636	1289.5
368.862	1292.5
369.089	1305.5
369.315	1309.5
369.541	1293.5
369.767	1293.5
369.993	1292.5
370.219	1307.5
370.445	1297.5
370.672	1337.5
370.898	1349.5
371.124	1308.5
371.35	1331.5
371.576	1343.5
371.802	1359.5
372.028	1334.5
372.254	1326.5
372.48	1303.5
372.706	1348.5
372.932	1291.5
373.158	1293.5
373.384	1343.5
373.61	1305.5
373.835	1353.5
374.061	1312.5
374.287	1333.5
374.513	1301.5
374.739	1358.5
374.965	1303.5
375.191	1305.5
375.416	1296.5
375.642	1291.5
375.868	1323.5
376.094	1320.5
376.319	1297.5
376.545	1286.5
376.771	1284.5
376.997	1285.5
377.222	1292.5
377.448	1292.5
377.674	1288.5
377.899	1250.5
378.125	1285.5
378.35	1301.5
378.576	1292.5
378.802	1279.5
379.027	1272.5
379.253	1277.5
379.478	1253.5
379.704	1258.5
379.929	1277.5
380.155	1253.5
380.38	1296.5
380.606	1257.5
380.831	1280.5
381.057	1299.5
381.282	1261.5
381.507	1283.5
381.733	1267.5
381.958	1311.5
382.184	1274.5
382.409	1293.5
382.634	1309.5
382.86	1290.5
383.085	1317.5
383.31	1311.5
383.535	1336.5
383.761	1313.5
383.986	1293.5
384.211	1332.5
384.436	1304.5
384.662	1325.5
384.887	1366.5
385.112	1299.5
385.337	1351.5
385.562	1339.5
385.787	1327.5
386.013	1354.5
386.238	1356.5
386.463	1382.5
386.688	1364.5
386.913	1340.5
387.138	1346.5
387.363	1369.5
387.588	1366.5
387.813	1335.5
388.038	1379.5
388.263	1341.5
388.488	1366.5
388.713	1397.5
388.938	1360.5
389.163	1368.5
389.387	1380.5
389.612	1363.5
389.837	1365.5
390.062	1339.5
390.287	1386.5
390.512	1365.5
390.736	1345.5
390.961	1384.5
391.186	1375.5
391.411	1390.5
391.636	1364.5
391.86	1365.5
392.085	1410.5
392.31	1379.5
392.534	1385.5
392.759	1383.5
392.984	1381.5
393.208	1384.5
393.433	1387.5
393.658	1404.5
393.882	1393.5
394.107	1380.5
394.331	1397.5
394.556	1349.5
394.78	1371.5
395.005	1415.5
395.229	1393.5
395.454	1416.5
395.678	1414.5
395.903	1404.5
396.127	1396.5
396.352	1422.5
396.576	1422.5
396.801	1376.5
397.025	1407.5
397.249	1419.5
397.474	1416.5
397.698	1423.5
397.922	1436.5
398.147	1407.5
398.371	1410.5
398.595	1444.5
398.82	1473.5
399.044	1469.5
399.268	1496.5
399.492	1551.5
399.717	1524.5
399.941	1538.5
400.165	1554.5
400.389	1543.5
400.613	1535.5
400.837	1508.5
401.062	1513.5
401.286	1504.5
401.51	1477.5
401.734	1452.5
401.958	1483.5
402.182	1484.5
402.406	1447.5
402.63	1511.5
402.854	1486.5
403.078	1494.5
403.302	1474.5
403.526	1476.5
403.75	1478.5
403.974	1483.5
404.198	1481.5
404.422	1529.5
404.645	1450.5
404.869	1462.5
405.093	1471.5
405.317	1512.5
405.541	1528.5
405.765	1509.5
405.988	1521.5
406.212	1523.5
406.436	1532.5
406.66	1541.5
406.883	1510.5
407.107	1569.5
407.331	1566.5
407.555	1585.5
407.778	1589.5
408.002	1575.5
408.226	1603.5
408.449	1615.5
408.673	1596.5
408.896	1593.5
409.12	1575.5
409.344	1588.5
409.567	1547.5
409.791	1540.5
410.014	1537.5
410.238	1525.5
410.461	1527.5
410.685	1539.5
410.908	1535.5
411.132	1513.5
411.355	1507.5
411.578	1539.5
411.802	1533.5
412.025	1522.5
412.249	1529.5
412.472	1477.5
412.695	1491.5
412.919	1506.5
413.142	1484.5
413.365	1516.5
413.589	1517.5
413.812	1525.5
414.035	1473.5
414.258	1513.5
414.482	1484.5
414.705	1430.5
414.928	1483.5
415.151	1475.5
415.374	1438.5
415.597	1447.5
415.821	1468.5
416.044	1440.5
416.267	1447.5
416.49	1449.5
416.713	1475.5
416.936	1470.5
417.159	1411.5
417.382	1455.5
417.605	1422.5
417.828	1436.5
418.051	1459.5
418.274	1430.5
418.497	1403.5
418.72	1413.5
418.943	1385.5
419.166	1454.5
419.389	1571.5
419.611	1506.5
419.834	1498.5
420.057	1500.5
420.28	1461.5
420.503	1410.5
420.726	1418.5
420.948	1415.5
421.171	1402.5
421.394	1430.5
421.617	1428.5
421.839	1416.5
422.062	1437.5
422.285	1422.5
422.507	1429.5
422.73	1423.5
422.953	1427.5
423.175	1425.5
423.398	1378.5
423.621	1434.5
423.843	1407.5
424.066	1405.5
424.288	1436.5
424.511	1415.5
424.733	1427.5
424.956	1415.5
425.178	1433.5
425.401	1441.5
425.623	1487.5
425.846	1426.5
426.068	1413.5
426.291	1414.5
426.513	1419.5
426.735	1415.5
426.958	1439.5
427.18	1401.5
427.402	1427.5
427.625	1439.5
427.847	1400.5
428.069	1394.5
428.292	1435.5
428.514	1437.5
428.736	1410.5
428.958	1468.5
429.181	1392.5
429.403	1407.5
429.625	1422.5
429.847	1412.5
430.069	1438.5
430.292	1422.5
430.514	1413.5
430.736	1411.5
430.958	1449.5
431.18	1408.5
431.402	1431.5
431.624	1383.5
431.846	1425.5
432.068	1413.5
432.29	1417.5
432.512	1414.5
432.734	1433.5
432.956	1414.5
433.178	1448.5
433.4	1465.5
433.622	1468.5
433.844	1462.5
434.066	1443.5
434.287	1450.5
434.509	1399.5
434.731	1417.5
434.953	1440.5
435.175	1510.5
435.397	1493.5
435.618	1413.5
435.84	1442.5
436.062	1417.5
436.284	1419.5
436.505	1437.5
436.727	1437.5
436.949	1414.5
437.17	1434.5
437.392	1419.5
437.614	1432.5
437.835	1371.5
438.057	1367.5
438.278	1367.5
438.5	1383.5
438.721	1395.5
438.943	1382.5
439.165	1403.5
439.386	1386.5
439.608	1427.5
439.829	1424.5
440.05	1421.5
440.272	1440.5
440.493	1412.5
440.715	1466.5
440.936	1400.5
441.158	1431.5
441.379	1445.5
441.6	1465.5
441.822	1473.5
442.043	1434.5
442.264	1469.5
442.486	1441.5
442.707	1468.5
442.928	1439.5
443.149	1427.5
443.371	1473.5
443.592	1516.5
443.813	1524.5
444.034	1445.5
444.255	1423.5
444.476	1442.5
444.698	1466.5
444.919	1480.5
445.14	1611.5
445.361	1541.5
445.582	1478.5
445.803	1433.5
446.024	1421.5
446.245	1438.5
446.466	1431.5
446.687	1385.5
446.908	1405.5
447.129	1360.5
447.35	1377.5
447.571	1387.5
447.792	1357.5
448.013	1349.5
448.234	1318.5
448.455	1313.5
448.675	1315.5
448.896	1332.5
449.117	1305.5
449.338	1366.5
449.559	1309.5
449.779	1353.5
450	1327.5
450.221	1291.5
450.442	1300.5
450.662	1297.5
450.883	1313.5
451.104	1358.5
451.324	1299.5
451.545	1294.5
451.766	1300.5
451.986	1302.5
452.207	1308.5
452.428	1293.5
452.648	1330.5
452.869	1276.5
453.089	1277.5
453.31	1338.5
453.53	1259.5
453.751	1287.5
453.971	1313.5
454.192	1284.5
454.412	1298.5
454.633	1314.5
454.853	1272.5
455.073	1256.5
455.294	1268.5
455.514	1278.5
455.734	1303.5
455.955	1300.5
456.175	1308.5
456.395	1260.5
456.616	1252.5
456.836	1285.5
457.056	1245.5
457.276	1242.5
457.497	1298.5
457.717	1279.5
457.937	1284.5
458.157	1265.5
458.377	1290.5
458.598	1297.5
458.818	1322.5
459.038	1279.5
459.258	1344.5
459.478	1404.5
459.698	1487.5
459.918	1437.5
460.138	1401.5
460.358	1402.5
460.578	1426.5
460.798	1484.5
461.018	1494.5
461.238	1427.5
461.458	1381.5
461.678	1400.5
461.898	1413.5
462.118	1388.5
462.338	1450.5
462.558	1459.5
462.777	1476.5
462.997	1515.5
463.217	1533.5
463.437	1567.5
463.657	1542.5
463.876	1490.5
464.096	1441.5
464.316	1440.5
464.536	1465.5
464.755	1466.5
464.975	1446.5
465.195	1417.5
465.414	1423.5
465.634	1420.5
465.854	1386.5
466.073	1383.5
466.293	1369.5
466.512	1361.5
466.732	1328.5
466.951	1398.5
467.171	1353.5
467.391	1345.5
467.61	1363.5
467.829	1353.5
468.049	1365.5
468.268	1339.5
468.488	1335.5
468.707	1366.5
468.927	1336.5
469.146	1379.5
469.365	1369.5
469.585	1346.5
469.804	1398.5
470.023	1392.5
470.243	1380.5
470.462	1371.5
470.681	1393.5
470.901	1391.5
471.12	1353.5
471.339	1404.5
471.558	1363.5
471.777	1395.5
471.997	1370.5
472.216	1358.5
472.435	1358.5
472.654	1346.5
472.873	1359.5
473.092	1394.5
473.311	1393.5
473.53	1402.5
473.749	1396.5
473.968	1405.5
474.187	1393.5
474.406	1359.5
474.625	1440.5
474.844	1435.5
475.063	1442.5
475.282	1474.5
475.501	1438.5
475.72	1426.5
475.939	1441.5
476.158	1475.5
476.377	1484.5
476.596	1447.5
476.814	1483.5
477.033	1481.5
477.252	1506.5
477.471	1545.5
477.69	1527.5
477.908	1509.5
478.127	1562.5
478.346	1550.5
478.564	1556.5
478.783	1555.5
479.002	1614.5
479.22	1673.5
479.439	1618.5
479.658	1631.5
479.876	1608.5
480.095	1624.5
480.313	1637.5
480.532	1621.5
480.751	1634.5
480.969	1620.5
481.188	1643.5
481.406	1601.5
481.624	1628.5
481.843	1620.5
482.061	1645.5
482.28	1646.5
482.498	1621.5
482.717	1690.5
482.935	1667.5
483.153	1693.5
483.372	1736.5
483.59	1728.5
483.808	1706.5
484.027	1716.5
484.245	1711.5
484.463	1697.5
484.681	1734.5
484.9	1697.5
485.118	1715.5
485.336	1698.5
485.554	1719.5
485.772	1716.5
485.99	1701.5
486.209	1728.5
486.427	1737.5
486.645	1728.5
486.863	1713.5
487.081	1742.5
487.299	1729.5
487.517	1731.5
487.735	1754.5
487.953	1787.5
488.171	1781.5
488.389	1751.5
488.607	1733.5
488.825	1737.5
489.043	1758.5
489.261	1710.5
489.479	1739.5
489.696	1744.5
489.914	1735.5
490.132	1707.5
490.35	1739.5
490.568	1708.5
490.786	1756.5
491.003	1774.5
491.221	1778.5
491.439	1820.5
491.657	1764.5
491.874	1788.5
492.092	1788.5
492.31	1802.5
492.527	1795.5
492.745	1786.5
492.963	1804.5
493.18	1747.5
493.398	1785.5
493.615	1763.5
493.833	1781.5
494.05	1809.5
494.268	1784.5
494.485	1766.5
494.703	1793.5
494.92	1773.5
495.138	1774.5
495.355	1801.5
495.573	1804.5
495.79	1793.5
496.008	1772.5
496.225	1806.5
496.442	1846.5
496.66	1812.5
496.877	1873.5
497.094	1822.5
497.312	1831.5
497.529	1862.5
497.746	1869.5
497.963	1883.5
498.181	1934.5
498.398	1897.5
498.615	1964.5
498.832	1963.5
499.049	2014.5
499.267	2000.5
499.484	2078.5
499.701	2045.5
499.918	2119.5
500.135	2191.5
500.352	2203.5
500.569	2163.5
500.786	2111.5
501.003	2156.5
501.22	2159.5
501.437	2111.5
501.654	2041.5
501.871	2041.5
502.088	2023.5
502.305	1969.5
502.522	1990.5
502.739	1924.5
502.956	1932.5
503.172	1854.5
503.389	1847.5
503.606	1832.5
503.823	1823.5
504.04	1788.5
504.256	1797.5
504.473	1761.5
504.69	1750.5
504.907	1709.5
505.123	1737.5
505.34	1697.5
505.557	1690.5
505.773	1667.5
505.99	1665.5
506.207	1609.5
506.423	1605.5
506.64	1603.5
506.856	1584.5
507.073	1575.5
507.289	1623.5
507.506	1579.5
507.722	1573.5
507.939	1558.5
508.155	1561.5
508.372	1535.5
508.588	1542.5
508.805	1548.5
509.021	1521.5
509.238	1521.5
509.454	1532.5
509.67	1513.5
509.887	1473.5
510.103	1477.5
510.319	1442.5
510.536	1429.5
510.752	1436.5
510.968	1452.5
511.184	1432.5
511.401	1482.5
511.617	1451.5
511.833	1446.5
512.049	1422.5
512.265	1427.5
512.481	1447.5
512.698	1469.5
512.914	1451.5
513.13	1467.5
513.346	1470.5
513.562	1435.5
513.778	1421.5
513.994	1457.5
514.21	1419.5
514.426	1442.5
514.642	1432.5
514.858	1445.5
515.074	1438.5
515.29	1421.5
515.506	1435.5
515.721	1461.5
515.937	1468.5
516.153	1434.5
516.369	1480.5
516.585	1477.5
516.801	1459.5
517.016	1486.5
517.232	1485.5
517.448	1481.5
517.664	1464.5
517.879	1470.5
518.095	1447.5
518.311	1480.5
518.527	1443.5
518.742	1461.5
518.958	1458.5
519.173	1394.5
519.389	1404.5
519.605	1423.5
519.82	1405.5
520.036	1431.5
520.251	1382.5
520.467	1383.5
520.682	1385.5
520.898	1381.5
521.113	1384.5
521.329	1364.5
521.544	1341.5
521.76	1346.5
521.975	1337.5
522.19	1348.5
522.406	1357.5
522.621	1361.5
522.836	1334.5
523.052	1345.5
523.267	1334.5
523.482	1310.5
523.698	1331.5
523.913	1274.5
524.128	1335.5
524.343	1317.5
524.559	1303.5
524.774	1309.5
524.989	1325.5
525.204	1323.5
525.419	1266.5
525.634	1296.5
525.849	1307.5
526.064	1287.5
526.28	1280.5
526.495	1254.5
526.71	1299.5
526.925	1245.5
527.14	1253.5
527.355	1285.5
527.57	1276.5
527.785	1297.5
527.999	1274.5
528.214	1271.5
528.429	1270.5
528.644	1281.5
528.859	1297.5
529.074	1275.5
529.289	1276.5
529.503	1242.5
529.718	1277.5
529.933	1276.5
530.148	1255.5
530.363	1270.5
530.577	1250.5
530.792	1207.5
531.007	1220.5
531.221	1230.5
531.436	1203.5
531.651	1190.5
531.865	1210.5
532.08	1207.5
532.295	1223.5
532.509	1221.5
532.724	1252.5
532.938	1219.5
533.153	1231.5
533.367	1216.5
533.582	1233.5
533.796	1199.5
534.011	1218.5
534.225	1205.5
534.44	1168.5
534.654	1165.5
534.868	1178.5
535.083	1189.5
535.297	1160.5
535.511	1187.5
535.726	1157.5
535.94	1211.5
536.154	1165.5
536.369	1172.5
536.583	1180.5
536.797	1146.5
537.011	1137.5
537.225	1130.5
537.44	1159.5
537.654	1164.5
537.868	1161.5
538.082	1133.5
538.296	1137.5
538.51	1124.5
538.724	1125.5
538.938	1158.5
539.153	1134.5
539.367	1141.5
539.581	1130.5
539.795	1115.5
540.009	1101.5
540.222	1113.5
540.436	1087.5
540.65	1091.5
540.864	1148.5
541.078	1123.5
541.292	1113.5
541.506	1129.5
541.72	1132.5
541.934	1150.5
542.147	1131.5
542.361	1159.5
542.575	1117.5
542.789	1075.5
543.002	1114.5
543.216	1121.5
543.43	1103.5
543.644	1087.5
543.857	1085.5
544.071	1108.5
544.285	1119.5
544.498	1107.5
544.712	1096.5
544.925	1111.5
545.139	1103.5
545.352	1075.5
545.566	1081.5
545.779	1085.5
545.993	1110.5
546.206	1117.5
546.42	1091.5
546.633	1115.5
546.847	1103.5
547.06	1105.5
547.274	1105.5
547.487	1115.5
547.7	1121.5
547.914	1100.5
548.127	1077.5
548.34	1075.5
548.554	1068.5
548.767	1068.5
548.98	1083.5
549.193	1081.5
549.407	1070.5
549.62	1109.5
549.833	1074.5
550.046	1049.5
550.259	1025.5
550.473	1031.5
550.686	1043.5
550.899	1065.5
551.112	1032.5
551.325	1051.5
551.538	1034.5
551.751	1022.5
551.964	1020.5
552.177	1035.5
552.39	1053.5
552.603	1045.5
552.816	1055.5
553.029	1039.5
553.242	1046.5
553.455	1040.5
553.667	1045.5
553.88	1032.5
554.093	983.5
554.306	1013.5
554.519	1017.5
554.732	998.5
554.944	997.5
555.157	989.5
555.37	980.5
555.583	973.5
555.795	989.5
556.008	949.5
556.221	945.5
556.433	943.5
556.646	964.5
556.859	935.5
557.071	947.5
557.284	946.5
557.496	942.5
557.709	949.5
557.921	924.5
558.134	951.5
558.346	928.5
558.559	937.5
558.771	939.5
558.984	899.5
559.196	919.5
559.409	923.5
559.621	927.5
559.833	919.5
560.046	894.5
560.258	893.5
560.47	898.5
560.683	898.5
560.895	905.5
561.107	890.5
561.32	878.5
561.532	917.5
561.744	907.5
561.956	892.5
562.168	889.5
562.381	928.5
562.593	886.5
562.805	883.5
563.017	892.5
563.229	890.5
563.441	873.5
563.653	918.5
563.865	919.5
564.077	914.5
564.289	893.5
564.501	899.5
564.713	896.5
564.925	920.5
565.137	921.5
565.349	902.5
565.561	909.5
565.773	917.5
565.985	938.5
566.197	928.5
566.408	943.5
566.62	911.5
566.832	917.5
567.044	933.5
567.255	930.5
567.467	959.5
567.679	908.5
567.891	942.5
568.102	934.5
568.314	895.5
568.526	885.5
568.737	863.5
568.949	873.5
569.161	859.5
569.372	843.5
569.584	852.5
569.795	843.5
570.007	831.5
570.218	807.5
570.43	821.5
570.641	800.5
570.853	823.5
571.064	808.5
571.276	795.5
571.487	781.5
571.698	787.5
571.91	761.5
572.121	753.5
572.333	761.5
572.544	717.5
572.755	747.5
572.966	750.5
573.178	721.5
573.389	724.5
573.6	714.5
573.811	729.5
574.023	707.5
574.234	726.5
574.445	695.5
574.656	683.5
574.867	692.5
575.078	675.5
575.289	719.5
575.501	694.5
575.712	690.5
575.923	683.5
576.134	669.5
576.345	672.5
576.556	663.5
576.767	664.5
576.978	675.5
577.188	673.5
577.399	664.5
577.61	658.5
577.821	644.5
578.032	645.5
578.243	629.5
578.454	652.5
578.665	655.5
578.875	651.5
579.086	639.5
579.297	630.5
579.508	645.5
579.718	651.5
579.929	627.5
580.14	626.5
580.35	625.5
580.561	632.5
580.772	634.5
580.982	621.5
581.193	619.5
581.403	641.5
581.614	616.5
581.825	610.5
582.035	619.5
582.246	625.5
582.456	588.5
582.667	606.5
582.877	601.5
583.087	599.5
583.298	587.5
583.508	588.5
583.719	578.5
583.929	601.5
584.139	576.5
584.35	567.5
584.56	600.5
584.77	579.5
584.981	579.5
585.191	591.5
585.401	569.5
585.611	582.5
585.821	558.5
586.032	565.5
586.242	606.5
586.452	558.5
586.662	573.5
586.872	560.5
587.082	583.5
587.292	567.5
587.502	556.5
587.713	556.5
587.923	572.5
588.133	552.5
588.343	569.5
588.553	556.5
588.762	557.5
588.972	566.5
589.182	611.5
589.392	601.5
589.602	556.5
589.812	575.5
590.022	585.5
590.232	540.5
590.441	561.5
590.651	559.5
590.861	537.5
591.071	542.5
591.281	540.5
591.49	541.5
591.7	555.5
591.91	574.5
592.119	549.5
592.329	527.5
592.539	552.5
592.748	561.5
592.958	533.5
593.167	521.5
593.377	542.5
593.587	541.5
593.796	552.5
594.006	530.5
594.215	534.5
594.424	559.5
594.634	538.5
594.843	528.5
595.053	524.5
595.262	524.5
595.472	530.5
595.681	502.5
595.89	531.5
596.1	519.5
596.309	499.5
596.518	522.5
596.727	497.5
596.937	508.5
597.146	486.5
597.355	504.5
597.564	492.5
597.774	485.5
597.983	491.5
598.192	489.5
598.401	486.5
598.61	471.5
598.819	483.5
599.028	478.5
599.237	481.5
599.446	467.5
599.655	460.5
599.864	466.5
600.073	467.5
600.282	458.5
600.491	451.5
600.7	459.5
600.909	430.5
601.118	461.5
601.327	462.5
601.536	485.5
601.745	462.5
601.953	486.5
602.162	468.5
602.371	444.5
602.58	463.5
602.789	455.5
602.997	445.5
603.206	440.5
603.415	448.5
603.623	447.5
603.832	437.5
604.041	454.5
604.249	437.5
604.458	439.5
604.666	434.5
604.875	429.5
605.084	439.5
605.292	427.5
605.501	436.5
605.709	417.5
605.918	411.5
606.126	430.5
606.334	433.5
606.543	425.5
606.751	422.5
606.96	402.5
607.168	425.5
607.376	414.5
607.585	425.5
607.793	425.5
608.001	427.5
608.21	404.5
608.418	412.5
608.626	422.5
608.834	406.5
609.043	416.5
609.251	408.5
609.459	410.5
609.667	430.5
609.875	406.5
610.083	426.5
610.291	406.5
610.499	412.5
610.707	405.5
610.916	385.5
611.124	409.5
611.332	392.5
611.54	415.5
611.748	391.5
611.955	397.5
612.163	410.5
612.371	405.5
612.579	383.5
612.787	397.5
612.995	419.5
613.203	390.5
613.411	392.5
613.618	402.5
613.826	389.5
614.034	392.5
614.242	398.5
614.449	377.5
614.657	387.5
614.865	393.5
615.072	388.5
615.28	379.5
615.488	398.5
615.695	398.5
615.903	389.5
616.111	397.5
616.318	408.5
616.526	386.5
616.733	372.5
616.941	369.5
617.148	372.5
617.356	395.5
617.563	395.5
617.771	397.5
617.978	373.5
618.185	364.5
618.393	373.5
618.6	415.5
618.807	381.5
619.015	377.5
619.222	363.5
619.429	373.5
619.637	389.5
619.844	378.5
620.051	389.5
620.258	379.5
620.466	366.5
620.673	357.5
620.88	351.5
621.087	361.5
621.294	367.5
621.501	366.5
621.708	366.5
621.915	348.5
622.122	357.5
622.329	354.5
622.536	341.5
622.743	363.5
622.95	372.5
623.157	371.5
623.364	347.5
623.571	345.5
623.778	360.5
623.985	361.5
624.192	348.5
624.399	352.5
624.606	340.5
624.812	353.5
625.019	348.5
625.226	331.5
625.433	353.5
625.639	333.5
625.846	338.5
626.053	335.5
626.259	349.5
626.466	330.5
626.673	320.5
626.879	314.5
627.086	322.5
627.293	344.5
627.499	335.5
627.706	345.5
627.912	322.5
628.119	328.5
628.325	333.5
628.532	324.5
628.738	311.5
628.945	334.5
629.151	324.5
629.357	313.5
629.564	293.5
629.77	327.5
629.976	308.5
630.183	318.5
630.389	314.5
630.595	322.5
630.802	321.5
631.008	310.5
631.214	322.5
631.42	327.5
631.627	307.5
631.833	297.5
632.039	302.5
632.245	310.5
632.451	297.5
632.657	305.5
632.863	303.5
633.069	307.5
633.275	301.5
633.481	301.5
633.688	289.5
633.893	298.5
634.099	313.5
634.305	307.5
634.511	307.5
634.717	315.5
634.923	286.5
635.129	309.5
635.335	294.5
635.541	285.5
635.747	291.5
635.952	290.5
636.158	289.5
636.364	307.5
636.57	279.5
636.775	264.5
636.981	278.5
637.187	279.5
637.392	277.5
637.598	293.5
637.804	281.5
638.009	276.5
638.215	281.5
638.421	278.5
638.626	282.5
638.832	276.5
639.037	271.5
639.243	306.5
639.448	277.5
639.654	289.5
639.859	269.5
640.065	265.5
640.27	280.5
640.475	298.5
640.681	281.5
640.886	273.5
641.091	273.5
641.297	291.5
641.502	259.5
641.707	272.5
641.913	280.5
642.118	274.5
642.323	287.5
642.528	284.5
642.733	265.5
642.939	275.5
643.144	286.5
643.349	265.5
643.554	271.5
643.759	276.5
643.964	268.5
644.169	259.5
644.374	268.5
644.579	261.5
644.784	261.5
644.989	253.5
645.194	270.5
645.399	273.5
645.604	269.5
645.809	288.5
646.014	300.5
646.219	277.5
646.423	287.5
646.628	277.5
646.833	281.5
647.038	282.5
647.243	275.5
647.447	264.5
647.652	279.5
647.857	297.5
648.062	276.5
648.266	278.5
648.471	290.5
648.676	312.5
648.88	293.5
649.085	283.5
649.289	296.5
649.494	283.5
649.698	273.5
649.903	284.5
650.107	276.5
650.312	272.5
650.516	287.5
650.721	276.5
650.925	267.5
651.13	269.5
651.334	275.5
651.539	259.5
651.743	272.5
651.947	281.5
652.152	293.5
652.356	263.5
652.56	259.5
652.764	264.5
652.969	267.5
653.173	269.5
653.377	265.5
653.581	261.5
653.785	263.5
653.99	261.5
654.194	238.5
654.398	260.5
654.602	259.5
654.806	233.5
655.01	261.5
655.214	259.5
655.418	259.5
655.622	265.5
655.826	270.5
656.03	268.5
656.234	268.5
656.438	265.5
656.642	257.5
656.846	259.5
657.049	242.5
657.253	253.5
657.457	210.5
657.661	219.5
657.865	212.5
658.068	191.5
658.272	181.5
658.476	171.5
658.68	183.5
658.883	178.5
659.087	159.5
659.291	149.5
659.494	147.5
659.698	165.5
659.901	137.5
660.105	133.5
660.309	122.5
660.512	118.5
660.716	121.5
660.919	108.5
661.123	125.5
661.326	119.5
661.53	106.5
661.733	109.5
661.936	105.5
662.14	98.5
662.343	98.5
662.546	106.5
662.75	98.5
662.953	102.5
663.156	107.5
663.36	93.5
663.563	95.5
663.766	76.5
663.969	75.5
664.173	74.5
664.376	90.5
664.579	85.5
664.782	84.5
664.985	93.5
665.188	87.5
665.391	71.5
665.594	92.5
665.797	90.5
666	90.5
666.203	82.5
666.406	72.5
666.609	69.5
666.812	98.5
667.015	85.5
667.218	81.5
667.421	86.5
667.624	106.5
667.827	81.5
668.03	80.5
668.232	83.5
668.435	82.5
668.638	83.5
668.841	83.5
669.043	88.5
669.246	79.5
669.449	87.5
669.651	82.5
669.854	82.5
670.057	89.5
670.259	77.5
670.462	89.5
670.665	82.5
670.867	78.5
671.07	76.5
671.272	86.5
671.475	75.5
671.677	61.5
671.88	79.5
672.082	93.5
672.284	90.5
672.487	79.5
672.689	67.5
672.892	88.5
