Data from Ni(NO3)2@0.0625M.TitratingCurve.Agarose3%dH2O.NegLispCup.LampEnergy10.LIBS07252019_HRD10591_18-14-16-569.txt Node
Date: Thu Jul 25 18:14:16 EDT 2019
User: cochatt
Spectrometer: HR+D1059
Trigger mode: 1
Integration Time (sec): 1.000000E-1
Scans to average: 1
Electric dark correction enabled: true
Nonlinearity correction enabled: false
Boxcar width: 0
XAxis mode: Wavelengths
Number of Pixels in Spectrum: 2048
>>>>>Begin Spectral Data<<<<<
223.165	-14.62
223.4	-14.62
223.635	-14.62
223.869	-27.62
224.104	-22.62
224.338	-7.62
224.573	-19.62
224.808	-1.62
225.042	-3.62
225.277	-5.62
225.511	6.38
225.746	3.38
225.98	-4.62
226.215	14.38
226.449	20.38
226.683	9.38
226.918	21.38
227.152	32.38
227.387	35.38
227.621	40.38
227.856	46.38
228.09	37.38
228.324	60.38
228.559	54.38
228.793	72.38
229.027	103.38
229.262	116.38
229.496	124.38
229.73	105.38
229.964	130.38
230.199	125.38
230.433	120.38
230.667	142.38
230.901	116.38
231.136	129.38
231.37	142.38
231.604	131.38
231.838	137.38
232.072	135.38
232.306	139.38
232.541	138.38
232.775	148.38
233.009	140.38
233.243	134.38
233.477	135.38
233.711	143.38
233.945	153.38
234.179	156.38
234.413	155.38
234.647	149.38
234.881	136.38
235.115	143.38
235.349	156.38
235.583	144.38
235.817	147.38
236.051	152.38
236.285	161.38
236.519	137.38
236.753	156.38
236.987	150.38
237.221	158.38
237.455	169.38
237.689	153.38
237.922	150.38
238.156	155.38
238.39	159.38
238.624	178.38
238.858	171.38
239.091	164.38
239.325	172.38
239.559	177.38
239.793	171.38
240.027	183.38
240.26	172.38
240.494	174.38
240.728	172.38
240.961	176.38
241.195	185.38
241.429	186.38
241.662	183.38
241.896	182.38
242.13	186.38
242.363	177.38
242.597	181.38
242.83	210.38
243.064	184.38
243.298	180.38
243.531	186.38
243.765	202.38
243.998	187.38
244.232	201.38
244.465	203.38
244.699	230.38
244.932	213.38
245.166	219.38
245.399	215.38
245.633	206.38
245.866	240.38
246.099	211.38
246.333	208.38
246.566	210.38
246.8	209.38
247.033	233.38
247.266	220.38
247.5	230.38
247.733	212.38
247.966	215.38
248.2	249.38
248.433	245.38
248.666	229.38
248.899	214.38
249.133	221.38
249.366	238.38
249.599	233.38
249.832	236.38
250.066	234.38
250.299	239.38
250.532	231.38
250.765	251.38
250.998	250.38
251.231	246.38
251.465	249.38
251.698	254.38
251.931	259.38
252.164	247.38
252.397	266.38
252.63	258.38
252.863	267.38
253.096	253.38
253.329	259.38
253.562	248.38
253.795	263.38
254.028	280.38
254.261	278.38
254.494	278.38
254.727	274.38
254.96	269.38
255.193	266.38
255.426	279.38
255.659	283.38
255.892	281.38
256.124	274.38
256.357	266.38
256.59	284.38
256.823	285.38
257.056	285.38
257.289	294.38
257.521	294.38
257.754	280.38
257.987	302.38
258.22	288.38
258.452	296.38
258.685	284.38
258.918	277.38
259.151	299.38
259.383	301.38
259.616	292.38
259.849	310.38
260.081	310.38
260.314	310.38
260.547	317.38
260.779	308.38
261.012	297.38
261.244	306.38
261.477	309.38
261.71	317.38
261.942	296.38
262.175	326.38
262.407	325.38
262.64	302.38
262.872	320.38
263.105	316.38
263.337	311.38
263.57	323.38
263.802	325.38
264.035	322.38
264.267	334.38
264.499	341.38
264.732	340.38
264.964	344.38
265.197	321.38
265.429	350.38
265.661	353.38
265.894	344.38
266.126	348.38
266.358	335.38
266.591	336.38
266.823	347.38
267.055	346.38
267.287	345.38
267.52	345.38
267.752	371.38
267.984	356.38
268.216	369.38
268.448	361.38
268.681	350.38
268.913	375.38
269.145	372.38
269.377	363.38
269.609	346.38
269.841	352.38
270.073	347.38
270.306	365.38
270.538	360.38
270.77	370.38
271.002	370.38
271.234	377.38
271.466	358.38
271.698	372.38
271.93	371.38
272.162	373.38
272.394	370.38
272.626	387.38
272.858	382.38
273.09	373.38
273.322	360.38
273.553	376.38
273.785	382.38
274.017	388.38
274.249	386.38
274.481	387.38
274.713	396.38
274.945	402.38
275.176	379.38
275.408	426.38
275.64	397.38
275.872	373.38
276.104	417.38
276.335	402.38
276.567	386.38
276.799	404.38
277.031	408.38
277.262	400.38
277.494	388.38
277.726	422.38
277.957	424.38
278.189	413.38
278.421	425.38
278.652	417.38
278.884	419.38
279.115	417.38
279.347	444.38
279.579	434.38
279.81	428.38
280.042	436.38
280.273	418.38
280.505	416.38
280.736	440.38
280.968	428.38
281.199	439.38
281.431	426.38
281.662	409.38
281.894	441.38
282.125	440.38
282.356	450.38
282.588	457.38
282.819	454.38
283.051	459.38
283.282	455.38
283.513	444.38
283.745	459.38
283.976	450.38
284.207	428.38
284.439	425.38
284.67	471.38
284.901	468.38
285.132	478.38
285.364	452.38
285.595	460.38
285.826	452.38
286.057	460.38
286.288	476.38
286.52	477.38
286.751	467.38
286.982	486.38
287.213	466.38
287.444	480.38
287.675	491.38
287.906	489.38
288.138	493.38
288.369	469.38
288.6	491.38
288.831	504.38
289.062	498.38
289.293	509.38
289.524	482.38
289.755	496.38
289.986	491.38
290.217	484.38
290.448	518.38
290.679	514.38
290.91	506.38
291.141	503.38
291.371	493.38
291.602	494.38
291.833	491.38
292.064	494.38
292.295	506.38
292.526	506.38
292.757	503.38
292.987	502.38
293.218	496.38
293.449	520.38
293.68	504.38
293.91	519.38
294.141	514.38
294.372	510.38
294.603	504.38
294.833	501.38
295.064	530.38
295.295	526.38
295.525	520.38
295.756	513.38
295.987	491.38
296.217	527.38
296.448	539.38
296.679	525.38
296.909	541.38
297.14	543.38
297.37	572.38
297.601	557.38
297.831	550.38
298.062	571.38
298.292	562.38
298.523	570.38
298.753	562.38
298.984	561.38
299.214	563.38
299.445	538.38
299.675	554.38
299.905	539.38
300.136	562.38
300.366	552.38
300.597	551.38
300.827	558.38
301.057	568.38
301.288	587.38
301.518	600.38
301.748	576.38
301.979	581.38
302.209	612.38
302.439	572.38
302.669	563.38
302.9	561.38
303.13	552.38
303.36	572.38
303.59	564.38
303.82	544.38
304.051	576.38
304.281	578.38
304.511	572.38
304.741	556.38
304.971	565.38
305.201	550.38
305.431	543.38
305.661	591.38
305.891	551.38
306.121	563.38
306.352	552.38
306.582	530.38
306.812	554.38
307.042	553.38
307.272	539.38
307.502	555.38
307.731	545.38
307.961	562.38
308.191	556.38
308.421	547.38
308.651	541.38
308.881	547.38
309.111	565.38
309.341	547.38
309.571	541.38
309.8	548.38
310.03	554.38
310.26	558.38
310.49	541.38
310.72	537.38
310.949	552.38
311.179	556.38
311.409	557.38
311.639	564.38
311.868	582.38
312.098	568.38
312.328	556.38
312.557	576.38
312.787	557.38
313.017	593.38
313.246	598.38
313.476	604.38
313.706	595.38
313.935	609.38
314.165	630.38
314.394	624.38
314.624	599.38
314.853	581.38
315.083	608.38
315.312	576.38
315.542	588.38
315.771	576.38
316.001	599.38
316.23	578.38
316.46	556.38
316.689	576.38
316.919	581.38
317.148	576.38
317.377	576.38
317.607	577.38
317.836	572.38
318.065	548.38
318.295	571.38
318.524	587.38
318.753	579.38
318.983	597.38
319.212	583.38
319.441	580.38
319.67	566.38
319.9	584.38
320.129	590.38
320.358	584.38
320.587	576.38
320.816	590.38
321.046	584.38
321.275	604.38
321.504	603.38
321.733	579.38
321.962	578.38
322.191	584.38
322.42	585.38
322.649	574.38
322.878	593.38
323.108	568.38
323.337	574.38
323.566	609.38
323.795	593.38
324.024	602.38
324.253	594.38
324.482	606.38
324.71	580.38
324.939	581.38
325.168	612.38
325.397	598.38
325.626	575.38
325.855	623.38
326.084	629.38
326.313	648.38
326.542	638.38
326.77	651.38
326.999	634.38
327.228	608.38
327.457	619.38
327.686	636.38
327.914	656.38
328.143	637.38
328.372	636.38
328.6	619.38
328.829	630.38
329.058	618.38
329.287	616.38
329.515	648.38
329.744	632.38
329.972	647.38
330.201	658.38
330.43	666.38
330.658	645.38
330.887	626.38
331.115	645.38
331.344	665.38
331.572	660.38
331.801	671.38
332.03	686.38
332.258	723.38
332.486	739.38
332.715	762.38
332.943	788.38
333.172	827.38
333.4	851.38
333.629	856.38
333.857	870.38
334.085	862.38
334.314	856.38
334.542	797.38
334.771	828.38
334.999	793.38
335.227	785.38
335.455	808.38
335.684	768.38
335.912	766.38
336.14	745.38
336.369	760.38
336.597	772.38
336.825	791.38
337.053	739.38
337.281	772.38
337.51	730.38
337.738	700.38
337.966	705.38
338.194	716.38
338.422	708.38
338.65	675.38
338.878	681.38
339.106	692.38
339.334	692.38
339.562	700.38
339.79	658.38
340.018	646.38
340.246	640.38
340.474	657.38
340.702	650.38
340.93	657.38
341.158	678.38
341.386	662.38
341.614	669.38
341.842	666.38
342.07	648.38
342.298	650.38
342.526	656.38
342.754	658.38
342.981	657.38
343.209	671.38
343.437	696.38
343.665	743.38
343.893	812.38
344.12	851.38
344.348	786.38
344.576	763.38
344.804	724.38
345.031	698.38
345.259	672.38
345.487	698.38
345.714	675.38
345.942	654.38
346.17	662.38
346.397	676.38
346.625	658.38
346.853	681.38
347.08	634.38
347.308	672.38
347.535	670.38
347.763	684.38
347.99	673.38
348.218	668.38
348.445	688.38
348.673	663.38
348.9	662.38
349.128	622.38
349.355	640.38
349.583	646.38
349.81	640.38
350.037	609.38
350.265	630.38
350.492	618.38
350.72	608.38
350.947	608.38
351.174	626.38
351.402	626.38
351.629	620.38
351.856	624.38
352.083	605.38
352.311	609.38
352.538	624.38
352.765	608.38
352.992	602.38
353.22	615.38
353.447	596.38
353.674	615.38
353.901	619.38
354.128	624.38
354.355	600.38
354.583	644.38
354.81	603.38
355.037	607.38
355.264	624.38
355.491	622.38
355.718	607.38
355.945	605.38
356.172	620.38
356.399	629.38
356.626	638.38
356.853	621.38
357.08	612.38
357.307	625.38
357.534	638.38
357.761	627.38
357.988	636.38
358.215	629.38
358.441	596.38
358.668	619.38
358.895	621.38
359.122	649.38
359.349	610.38
359.576	618.38
359.802	629.38
360.029	621.38
360.256	603.38
360.483	584.38
360.709	631.38
360.936	608.38
361.163	631.38
361.39	628.38
361.616	632.38
361.843	635.38
362.07	630.38
362.296	602.38
362.523	644.38
362.749	626.38
362.976	622.38
363.203	629.38
363.429	610.38
363.656	607.38
363.882	611.38
364.109	600.38
364.335	598.38
364.562	610.38
364.788	633.38
365.015	598.38
365.241	617.38
365.468	612.38
365.694	580.38
365.92	618.38
366.147	615.38
366.373	610.38
366.599	611.38
366.826	633.38
367.052	632.38
367.278	609.38
367.505	624.38
367.731	642.38
367.957	617.38
368.184	610.38
368.41	636.38
368.636	612.38
368.862	613.38
369.089	652.38
369.315	636.38
369.541	637.38
369.767	644.38
369.993	630.38
370.219	646.38
370.445	658.38
370.672	645.38
370.898	648.38
371.124	681.38
371.35	675.38
371.576	692.38
371.802	673.38
372.028	654.38
372.254	676.38
372.48	655.38
372.706	697.38
372.932	702.38
373.158	707.38
373.384	674.38
373.61	666.38
373.835	663.38
374.061	664.38
374.287	697.38
374.513	680.38
374.739	732.38
374.965	709.38
375.191	767.38
375.416	737.38
375.642	724.38
375.868	742.38
376.094	721.38
376.319	700.38
376.545	694.38
376.771	677.38
376.997	686.38
377.222	698.38
377.448	680.38
377.674	661.38
377.899	674.38
378.125	657.38
378.35	670.38
378.576	666.38
378.802	678.38
379.027	674.38
379.253	695.38
379.478	676.38
379.704	674.38
379.929	654.38
380.155	661.38
380.38	684.38
380.606	663.38
380.831	653.38
381.057	654.38
381.282	684.38
381.507	674.38
381.733	680.38
381.958	695.38
382.184	683.38
382.409	695.38
382.634	698.38
382.86	717.38
383.085	725.38
383.31	731.38
383.535	739.38
383.761	726.38
383.986	756.38
384.211	776.38
384.436	813.38
384.662	796.38
384.887	856.38
385.112	828.38
385.337	835.38
385.562	838.38
385.787	812.38
386.013	838.38
386.238	826.38
386.463	812.38
386.688	825.38
386.913	790.38
387.138	825.38
387.363	803.38
387.588	791.38
387.813	787.38
388.038	797.38
388.263	799.38
388.488	801.38
388.713	792.38
388.938	774.38
389.163	780.38
389.387	787.38
389.612	764.38
389.837	780.38
390.062	762.38
390.287	790.38
390.512	802.38
390.736	781.38
390.961	802.38
391.186	836.38
391.411	860.38
391.636	873.38
391.86	892.38
392.085	931.38
392.31	925.38
392.534	890.38
392.759	869.38
392.984	848.38
393.208	844.38
393.433	842.38
393.658	829.38
393.882	830.38
394.107	857.38
394.331	873.38
394.556	876.38
394.78	882.38
395.005	864.38
395.229	876.38
395.454	872.38
395.678	908.38
395.903	908.38
396.127	891.38
396.352	872.38
396.576	858.38
396.801	834.38
397.025	855.38
397.249	896.38
397.474	899.38
397.698	909.38
397.922	883.38
398.147	892.38
398.371	941.38
398.595	924.38
398.82	972.38
399.044	1056.38
399.268	1158.38
399.492	1377.38
399.717	1562.38
399.941	1584.38
400.165	1377.38
400.389	1193.38
400.613	1101.38
400.837	1053.38
401.062	1003.38
401.286	1020.38
401.51	1010.38
401.734	1013.38
401.958	1005.38
402.182	1002.38
402.406	1064.38
402.63	1044.38
402.854	1070.38
403.078	1088.38
403.302	1156.38
403.526	1101.38
403.75	1162.38
403.974	1187.38
404.198	1211.38
404.422	1184.38
404.645	1195.38
404.869	1165.38
405.093	1188.38
405.317	1148.38
405.541	1121.38
405.765	1106.38
405.988	1082.38
406.212	1119.38
406.436	1082.38
406.66	1117.38
406.883	1171.38
407.107	1216.38
407.331	1251.38
407.555	1310.38
407.778	1340.38
408.002	1252.38
408.226	1240.38
408.449	1210.38
408.673	1177.38
408.896	1158.38
409.12	1146.38
409.344	1130.38
409.567	1156.38
409.791	1197.38
410.014	1170.38
410.238	1171.38
410.461	1153.38
410.685	1136.38
410.908	1097.38
411.132	1100.38
411.355	1063.38
411.578	1064.38
411.802	1066.38
412.025	1081.38
412.249	1077.38
412.472	1051.38
412.695	1033.38
412.919	1019.38
413.142	996.38
413.365	996.38
413.589	1026.38
413.812	986.38
414.035	983.38
414.258	1017.38
414.482	989.38
414.705	1006.38
414.928	1011.38
415.151	1032.38
415.374	1046.38
415.597	1005.38
415.821	970.38
416.044	978.38
416.267	988.38
416.49	958.38
416.713	965.38
416.936	989.38
417.159	991.38
417.382	986.38
417.605	997.38
417.828	983.38
418.051	992.38
418.274	1004.38
418.497	993.38
418.72	1038.38
418.943	1028.38
419.166	1089.38
419.389	1172.38
419.611	1132.38
419.834	1088.38
420.057	1069.38
420.28	1020.38
420.503	977.38
420.726	981.38
420.948	995.38
421.171	1034.38
421.394	984.38
421.617	965.38
421.839	982.38
422.062	996.38
422.285	981.38
422.507	1037.38
422.73	1024.38
422.953	1038.38
423.175	1052.38
423.398	1078.38
423.621	1062.38
423.843	1084.38
424.066	1074.38
424.288	1095.38
424.511	1091.38
424.733	1076.38
424.956	1058.38
425.178	1006.38
425.401	1004.38
425.623	994.38
425.846	942.38
426.068	946.38
426.291	926.38
426.513	909.38
426.735	928.38
426.958	952.38
427.18	911.38
427.402	922.38
427.625	896.38
427.847	900.38
428.069	894.38
428.292	918.38
428.514	905.38
428.736	867.38
428.958	918.38
429.181	850.38
429.403	851.38
429.625	842.38
429.847	863.38
430.069	866.38
430.292	882.38
430.514	843.38
430.736	852.38
430.958	872.38
431.18	852.38
431.402	880.38
431.624	864.38
431.846	892.38
432.068	920.38
432.29	916.38
432.512	891.38
432.734	874.38
432.956	864.38
433.178	909.38
433.4	905.38
433.622	894.38
433.844	923.38
434.066	910.38
434.287	900.38
434.509	967.38
434.731	1018.38
434.953	1008.38
435.175	1046.38
435.397	985.38
435.618	932.38
435.84	932.38
436.062	889.38
436.284	921.38
436.505	893.38
436.727	905.38
436.949	892.38
437.17	861.38
437.392	885.38
437.614	887.38
437.835	836.38
438.057	872.38
438.278	855.38
438.5	850.38
438.721	851.38
438.943	851.38
439.165	853.38
439.386	881.38
439.608	867.38
439.829	884.38
440.05	890.38
440.272	901.38
440.493	899.38
440.715	925.38
440.936	925.38
441.158	913.38
441.379	964.38
441.6	1009.38
441.822	1028.38
442.043	1044.38
442.264	1013.38
442.486	997.38
442.707	995.38
442.928	1017.38
443.149	998.38
443.371	1024.38
443.592	1005.38
443.813	1027.38
444.034	1023.38
444.255	1046.38
444.476	1115.38
444.698	1171.38
444.919	1218.38
445.14	1302.38
445.361	1163.38
445.582	1062.38
445.803	991.38
446.024	951.38
446.245	972.38
446.466	924.38
446.687	897.38
446.908	909.38
447.129	887.38
447.35	855.38
447.571	866.38
447.792	840.38
448.013	842.38
448.234	837.38
448.455	827.38
448.675	810.38
448.896	835.38
449.117	800.38
449.338	811.38
449.559	803.38
449.779	819.38
450	818.38
450.221	840.38
450.442	844.38
450.662	855.38
450.883	861.38
451.104	861.38
451.324	895.38
451.545	850.38
451.766	849.38
451.986	881.38
452.207	840.38
452.428	836.38
452.648	810.38
452.869	850.38
453.089	790.38
453.31	849.38
453.53	826.38
453.751	824.38
453.971	817.38
454.192	819.38
454.412	793.38
454.633	808.38
454.853	773.38
455.073	754.38
455.294	794.38
455.514	780.38
455.734	785.38
455.955	743.38
456.175	779.38
456.395	768.38
456.616	765.38
456.836	797.38
457.056	775.38
457.276	760.38
457.497	771.38
457.717	771.38
457.937	777.38
458.157	794.38
458.377	772.38
458.598	811.38
458.818	822.38
459.038	863.38
459.258	873.38
459.478	919.38
459.698	935.38
459.918	989.38
460.138	997.38
460.358	1046.38
460.578	1048.38
460.798	1078.38
461.018	1084.38
461.238	1086.38
461.458	1073.38
461.678	1038.38
461.898	1080.38
462.118	1074.38
462.338	1144.38
462.558	1159.38
462.777	1187.38
462.997	1318.38
463.217	1438.38
463.437	1513.38
463.657	1341.38
463.876	1271.38
464.096	1266.38
464.316	1280.38
464.536	1272.38
464.755	1226.38
464.975	1183.38
465.195	1114.38
465.414	1060.38
465.634	981.38
465.854	936.38
466.073	908.38
466.293	910.38
466.512	911.38
466.732	891.38
466.951	904.38
467.171	887.38
467.391	867.38
467.61	885.38
467.829	864.38
468.049	871.38
468.268	841.38
468.488	833.38
468.707	833.38
468.927	818.38
469.146	816.38
469.365	864.38
469.585	860.38
469.804	892.38
470.023	880.38
470.243	898.38
470.462	917.38
470.681	907.38
470.901	879.38
471.12	874.38
471.339	883.38
471.558	871.38
471.777	852.38
471.997	837.38
472.216	828.38
472.435	837.38
472.654	834.38
472.873	807.38
473.092	797.38
473.311	805.38
473.53	796.38
473.749	790.38
473.968	809.38
474.187	806.38
474.406	807.38
474.625	790.38
474.844	801.38
475.063	808.38
475.282	814.38
475.501	826.38
475.72	812.38
475.939	804.38
476.158	812.38
476.377	825.38
476.596	833.38
476.814	862.38
477.033	867.38
477.252	869.38
477.471	874.38
477.69	897.38
477.908	899.38
478.127	950.38
478.346	935.38
478.564	976.38
478.783	980.38
479.002	993.38
479.22	1022.38
479.439	994.38
479.658	1013.38
479.876	1003.38
480.095	995.38
480.313	1064.38
480.532	1125.38
480.751	1077.38
480.969	1057.38
481.188	1003.38
481.406	987.38
481.624	941.38
481.843	941.38
482.061	924.38
482.28	945.38
482.498	898.38
482.717	890.38
482.935	938.38
483.153	917.38
483.372	918.38
483.59	920.38
483.808	926.38
484.027	893.38
484.245	947.38
484.463	917.38
484.681	952.38
484.9	948.38
485.118	965.38
485.336	948.38
485.554	923.38
485.772	978.38
485.99	991.38
486.209	952.38
486.427	992.38
486.645	995.38
486.863	986.38
487.081	971.38
487.299	969.38
487.517	957.38
487.735	966.38
487.953	964.38
488.171	964.38
488.389	976.38
488.607	924.38
488.825	944.38
489.043	972.38
489.261	953.38
489.479	969.38
489.696	972.38
489.914	985.38
490.132	950.38
490.35	980.38
490.568	964.38
490.786	969.38
491.003	957.38
491.221	971.38
491.439	972.38
491.657	939.38
491.874	922.38
492.092	958.38
492.31	957.38
492.527	970.38
492.745	996.38
492.963	986.38
493.18	981.38
493.398	1008.38
493.615	997.38
493.833	1033.38
494.05	984.38
494.268	1024.38
494.485	1009.38
494.703	1008.38
494.92	1006.38
495.138	1038.38
495.355	1028.38
495.573	1000.38
495.79	1004.38
496.008	1022.38
496.225	1026.38
496.442	1039.38
496.66	1054.38
496.877	1088.38
497.094	1092.38
497.312	1087.38
497.529	1127.38
497.746	1147.38
497.963	1170.38
498.181	1208.38
498.398	1259.38
498.615	1341.38
498.832	1461.38
499.049	1548.38
499.267	1664.38
499.484	1870.38
499.701	2039.38
499.918	2308.38
500.135	2589.38
500.352	3128.38
500.569	3297.38
500.786	3313.38
501.003	3002.38
501.22	2649.38
501.437	2333.38
501.654	2071.38
501.871	1782.38
502.088	1627.38
502.305	1533.38
502.522	1475.38
502.739	1449.38
502.956	1343.38
503.172	1273.38
503.389	1206.38
503.606	1162.38
503.823	1156.38
504.04	1194.38
504.256	1147.38
504.473	1212.38
504.69	1272.38
504.907	1248.38
505.123	1126.38
505.34	1081.38
505.557	1037.38
505.773	1003.38
505.99	987.38
506.207	982.38
506.423	916.38
506.64	923.38
506.856	938.38
507.073	920.38
507.289	924.38
507.506	900.38
507.722	896.38
507.939	869.38
508.155	890.38
508.372	884.38
508.588	880.38
508.805	869.38
509.021	861.38
509.238	882.38
509.454	844.38
509.67	818.38
509.887	858.38
510.103	838.38
510.319	827.38
510.536	856.38
510.752	808.38
510.968	822.38
511.184	816.38
511.401	852.38
511.617	852.38
511.833	817.38
512.049	838.38
512.265	835.38
512.481	835.38
512.698	832.38
512.914	844.38
513.13	832.38
513.346	850.38
513.562	844.38
513.778	835.38
513.994	827.38
514.21	813.38
514.426	842.38
514.642	844.38
514.858	854.38
515.074	860.38
515.29	886.38
515.506	882.38
515.721	893.38
515.937	903.38
516.153	922.38
516.369	918.38
516.585	920.38
516.801	968.38
517.016	1035.38
517.232	1066.38
517.448	1131.38
517.664	1187.38
517.879	1200.38
518.095	1184.38
518.311	1170.38
518.527	1108.38
518.742	1072.38
518.958	1010.38
519.173	989.38
519.389	952.38
519.605	912.38
519.82	909.38
520.036	917.38
520.251	844.38
520.467	827.38
520.682	851.38
520.898	877.38
521.113	851.38
521.329	829.38
521.544	809.38
521.76	813.38
521.975	789.38
522.19	829.38
522.406	787.38
522.621	793.38
522.836	792.38
523.052	797.38
523.267	765.38
523.482	796.38
523.698	805.38
523.913	805.38
524.128	785.38
524.343	797.38
524.559	805.38
524.774	779.38
524.989	761.38
525.204	776.38
525.419	768.38
525.634	787.38
525.849	784.38
526.064	744.38
526.28	734.38
526.495	746.38
526.71	765.38
526.925	757.38
527.14	729.38
527.355	739.38
527.57	752.38
527.785	770.38
527.999	733.38
528.214	749.38
528.429	741.38
528.644	756.38
528.859	794.38
529.074	775.38
529.289	740.38
529.503	747.38
529.718	769.38
529.933	765.38
530.148	746.38
530.363	756.38
530.577	733.38
530.792	755.38
531.007	740.38
531.221	765.38
531.436	755.38
531.651	769.38
531.865	773.38
532.08	793.38
532.295	776.38
532.509	766.38
532.724	737.38
532.938	770.38
533.153	771.38
533.367	754.38
533.582	775.38
533.796	748.38
534.011	779.38
534.225	747.38
534.44	752.38
534.654	740.38
534.868	733.38
535.083	742.38
535.297	741.38
535.511	755.38
535.726	748.38
535.94	722.38
536.154	701.38
536.369	701.38
536.583	708.38
536.797	699.38
537.011	722.38
537.225	709.38
537.44	717.38
537.654	694.38
537.868	675.38
538.082	682.38
538.296	670.38
538.51	690.38
538.724	707.38
538.938	667.38
539.153	707.38
539.367	703.38
539.581	665.38
539.795	680.38
540.009	689.38
540.222	682.38
540.436	689.38
540.65	635.38
540.864	661.38
541.078	668.38
541.292	662.38
541.506	685.38
541.72	658.38
541.934	664.38
542.147	673.38
542.361	688.38
542.575	664.38
542.789	680.38
543.002	673.38
543.216	648.38
543.43	668.38
543.644	659.38
543.857	678.38
544.071	667.38
544.285	672.38
544.498	655.38
544.712	639.38
544.925	661.38
545.139	697.38
545.352	669.38
545.566	674.38
545.779	715.38
545.993	703.38
546.206	696.38
546.42	665.38
546.633	695.38
546.847	694.38
547.06	694.38
547.274	696.38
547.487	702.38
547.7	683.38
547.914	693.38
548.127	681.38
548.34	698.38
548.554	700.38
548.767	699.38
548.98	688.38
549.193	678.38
549.407	707.38
549.62	703.38
549.833	726.38
550.046	716.38
550.259	712.38
550.473	656.38
550.686	670.38
550.899	654.38
551.112	653.38
551.325	692.38
551.538	671.38
551.751	660.38
551.964	689.38
552.177	666.38
552.39	701.38
552.603	724.38
552.816	758.38
553.029	734.38
553.242	742.38
553.455	777.38
553.667	779.38
553.88	775.38
554.093	756.38
554.306	724.38
554.519	711.38
554.732	690.38
554.944	634.38
555.157	664.38
555.37	674.38
555.583	643.38
555.795	639.38
556.008	626.38
556.221	612.38
556.433	613.38
556.646	620.38
556.859	606.38
557.071	611.38
557.284	605.38
557.496	586.38
557.709	612.38
557.921	587.38
558.134	587.38
558.346	607.38
558.559	594.38
558.771	577.38
558.984	572.38
559.196	596.38
559.409	580.38
559.621	592.38
559.833	584.38
560.046	587.38
560.258	593.38
560.47	579.38
560.683	570.38
560.895	563.38
561.107	570.38
561.32	550.38
561.532	573.38
561.744	580.38
561.956	566.38
562.168	567.38
562.381	574.38
562.593	589.38
562.805	572.38
563.017	586.38
563.229	577.38
563.441	581.38
563.653	570.38
563.865	605.38
564.077	606.38
564.289	590.38
564.501	604.38
564.713	608.38
564.925	620.38
565.137	608.38
565.349	640.38
565.561	668.38
565.773	662.38
565.985	710.38
566.197	710.38
566.408	792.38
566.62	862.38
566.832	917.38
567.044	932.38
567.255	965.38
567.467	983.38
567.679	1044.38
567.891	1154.38
568.102	1185.38
568.314	1141.38
568.526	998.38
568.737	902.38
568.949	818.38
569.161	752.38
569.372	689.38
569.584	668.38
569.795	639.38
570.007	599.38
570.218	606.38
570.43	578.38
570.641	568.38
570.853	577.38
571.064	599.38
571.276	618.38
571.487	586.38
571.698	562.38
571.91	555.38
572.121	524.38
572.333	513.38
572.544	514.38
572.755	489.38
572.966	493.38
573.178	508.38
573.389	505.38
573.6	461.38
573.811	471.38
574.023	472.38
574.234	488.38
574.445	483.38
574.656	479.38
574.867	484.38
575.078	482.38
575.289	473.38
575.501	457.38
575.712	468.38
575.923	452.38
576.134	470.38
576.345	454.38
576.556	452.38
576.767	457.38
576.978	484.38
577.188	453.38
577.399	467.38
577.61	462.38
577.821	424.38
578.032	416.38
578.243	457.38
578.454	434.38
578.665	416.38
578.875	442.38
579.086	443.38
579.297	420.38
579.508	419.38
579.718	412.38
579.929	416.38
580.14	425.38
580.35	416.38
580.561	420.38
580.772	409.38
580.982	434.38
581.193	415.38
581.403	426.38
581.614	414.38
581.825	393.38
582.035	407.38
582.246	400.38
582.456	409.38
582.667	410.38
582.877	434.38
583.087	400.38
583.298	392.38
583.508	382.38
583.719	393.38
583.929	385.38
584.139	399.38
584.35	405.38
584.56	402.38
584.77	394.38
584.981	404.38
585.191	398.38
585.401	369.38
585.611	382.38
585.821	387.38
586.032	403.38
586.242	397.38
586.452	398.38
586.662	386.38
586.872	374.38
587.082	390.38
587.292	391.38
587.502	408.38
587.713	398.38
587.923	365.38
588.133	368.38
588.343	392.38
588.553	387.38
588.762	374.38
588.972	402.38
589.182	389.38
589.392	391.38
589.602	410.38
589.812	406.38
590.022	399.38
590.232	387.38
590.441	378.38
590.651	394.38
590.861	390.38
591.071	401.38
591.281	405.38
591.49	397.38
591.7	390.38
591.91	422.38
592.119	422.38
592.329	428.38
592.539	433.38
592.748	438.38
592.958	486.38
593.167	478.38
593.377	504.38
593.587	506.38
593.796	499.38
594.006	516.38
594.215	512.38
594.424	532.38
594.634	520.38
594.843	468.38
595.053	452.38
595.262	448.38
595.472	410.38
595.681	419.38
595.89	404.38
596.1	385.38
596.309	380.38
596.518	377.38
596.727	358.38
596.937	365.38
597.146	354.38
597.355	362.38
597.564	350.38
597.774	350.38
597.983	333.38
598.192	331.38
598.401	341.38
598.61	341.38
598.819	344.38
599.028	341.38
599.237	340.38
599.446	317.38
599.655	334.38
599.864	323.38
600.073	338.38
600.282	328.38
600.491	314.38
600.7	315.38
600.909	316.38
601.118	331.38
601.327	326.38
601.536	322.38
601.745	311.38
601.953	326.38
602.162	325.38
602.371	322.38
602.58	315.38
602.789	339.38
602.997	320.38
603.206	324.38
603.415	312.38
603.623	314.38
603.832	314.38
604.041	310.38
604.249	305.38
604.458	323.38
604.666	280.38
604.875	301.38
605.084	308.38
605.292	294.38
605.501	300.38
605.709	313.38
605.918	312.38
606.126	314.38
606.334	307.38
606.543	294.38
606.751	305.38
606.96	311.38
607.168	302.38
607.376	288.38
607.585	294.38
607.793	300.38
608.001	302.38
608.21	293.38
608.418	300.38
608.626	314.38
608.834	299.38
609.043	290.38
609.251	296.38
609.459	307.38
609.667	270.38
609.875	307.38
610.083	281.38
610.291	297.38
610.499	289.38
610.707	285.38
610.916	300.38
611.124	274.38
611.332	300.38
611.54	278.38
611.748	265.38
611.955	266.38
612.163	289.38
612.371	280.38
612.579	288.38
612.787	289.38
612.995	277.38
613.203	268.38
613.411	276.38
613.618	289.38
613.826	283.38
614.034	294.38
614.242	292.38
614.449	276.38
614.657	272.38
614.865	264.38
615.072	284.38
615.28	266.38
615.488	270.38
615.695	277.38
615.903	283.38
616.111	279.38
616.318	298.38
616.526	287.38
616.733	283.38
616.941	278.38
617.148	299.38
617.356	287.38
617.563	274.38
617.771	287.38
617.978	290.38
618.185	295.38
618.393	299.38
618.6	304.38
618.807	286.38
619.015	293.38
619.222	284.38
619.429	301.38
619.637	290.38
619.844	284.38
620.051	277.38
620.258	282.38
620.466	270.38
620.673	260.38
620.88	261.38
621.087	270.38
621.294	256.38
621.501	266.38
621.708	264.38
621.915	272.38
622.122	266.38
622.329	262.38
622.536	267.38
622.743	244.38
622.95	264.38
623.157	262.38
623.364	248.38
623.571	246.38
623.778	263.38
623.985	251.38
624.192	251.38
624.399	254.38
624.606	246.38
624.812	254.38
625.019	241.38
625.226	220.38
625.433	238.38
625.639	253.38
625.846	235.38
626.053	254.38
626.259	234.38
626.466	234.38
626.673	222.38
626.879	218.38
627.086	240.38
627.293	244.38
627.499	260.38
627.706	242.38
627.912	235.38
628.119	248.38
628.325	232.38
628.532	230.38
628.738	256.38
628.945	242.38
629.151	229.38
629.357	224.38
629.564	233.38
629.77	229.38
629.976	207.38
630.183	218.38
630.389	218.38
630.595	217.38
630.802	227.38
631.008	219.38
631.214	223.38
631.42	214.38
631.627	229.38
631.833	225.38
632.039	204.38
632.245	217.38
632.451	223.38
632.657	218.38
632.863	206.38
633.069	198.38
633.275	205.38
633.481	205.38
633.688	202.38
633.893	224.38
634.099	212.38
634.305	202.38
634.511	213.38
634.717	212.38
634.923	214.38
635.129	206.38
635.335	196.38
635.541	204.38
635.747	230.38
635.952	218.38
636.158	201.38
636.364	209.38
636.57	207.38
636.775	211.38
636.981	205.38
637.187	190.38
637.392	200.38
637.598	208.38
637.804	205.38
638.009	213.38
638.215	204.38
638.421	206.38
638.626	184.38
638.832	208.38
639.037	198.38
639.243	193.38
639.448	197.38
639.654	207.38
639.859	189.38
640.065	188.38
640.27	198.38
640.475	198.38
640.681	194.38
640.886	180.38
641.091	187.38
641.297	205.38
641.502	189.38
641.707	189.38
641.913	194.38
642.118	191.38
642.323	204.38
642.528	205.38
642.733	167.38
642.939	188.38
643.144	195.38
643.349	183.38
643.554	182.38
643.759	197.38
643.964	193.38
644.169	184.38
644.374	176.38
644.579	185.38
644.784	185.38
644.989	194.38
645.194	193.38
645.399	197.38
645.604	167.38
645.809	173.38
646.014	188.38
646.219	187.38
646.423	180.38
646.628	186.38
646.833	176.38
647.038	198.38
647.243	195.38
647.447	194.38
647.652	182.38
647.857	191.38
648.062	192.38
648.266	196.38
648.471	198.38
648.676	210.38
648.88	196.38
649.085	193.38
649.289	202.38
649.494	196.38
649.698	184.38
649.903	167.38
650.107	173.38
650.312	164.38
650.516	174.38
650.721	165.38
650.925	176.38
651.13	168.38
651.334	160.38
651.539	157.38
651.743	163.38
651.947	152.38
652.152	155.38
652.356	163.38
652.56	165.38
652.764	151.38
652.969	128.38
653.173	156.38
653.377	138.38
653.581	140.38
653.785	141.38
653.99	152.38
654.194	143.38
654.398	137.38
654.602	158.38
654.806	143.38
655.01	126.38
655.214	127.38
655.418	139.38
655.622	128.38
655.826	128.38
656.03	135.38
656.234	136.38
656.438	124.38
656.642	154.38
656.846	133.38
657.049	124.38
657.253	119.38
657.457	121.38
657.661	112.38
657.865	108.38
658.068	108.38
658.272	114.38
658.476	102.38
658.68	106.38
658.883	95.38
659.087	104.38
659.291	105.38
659.494	108.38
659.698	93.38
659.901	103.38
660.105	85.38
660.309	88.38
660.512	91.38
660.716	105.38
660.919	78.38
661.123	98.38
661.326	91.38
661.53	93.38
661.733	98.38
661.936	104.38
662.14	93.38
662.343	82.38
662.546	86.38
662.75	94.38
662.953	94.38
663.156	96.38
663.36	94.38
663.563	77.38
663.766	72.38
663.969	89.38
664.173	84.38
664.376	75.38
664.579	82.38
664.782	78.38
664.985	60.38
665.188	85.38
665.391	85.38
665.594	69.38
665.797	86.38
666	66.38
666.203	82.38
666.406	79.38
666.609	73.38
666.812	88.38
667.015	97.38
667.218	92.38
667.421	89.38
667.624	74.38
667.827	86.38
668.03	78.38
668.232	88.38
668.435	78.38
668.638	82.38
668.841	78.38
669.043	85.38
669.246	84.38
669.449	84.38
669.651	85.38
669.854	88.38
670.057	84.38
670.259	81.38
670.462	91.38
670.665	79.38
670.867	70.38
671.07	78.38
671.272	74.38
671.475	93.38
671.677	90.38
671.88	85.38
672.082	78.38
672.284	78.38
672.487	95.38
672.689	76.38
672.892	69.38
