Data from Ni(NO3)2@0.0625M.TitratingCurve.Agarose3%dH2O.NegLispCup.LampEnergy10.LIBS07252019_HRD10591_18-14-15-569.txt Node
Date: Thu Jul 25 18:14:15 EDT 2019
User: cochatt
Spectrometer: HR+D1059
Trigger mode: 1
Integration Time (sec): 1.000000E-1
Scans to average: 1
Electric dark correction enabled: true
Nonlinearity correction enabled: false
Boxcar width: 0
XAxis mode: Wavelengths
Number of Pixels in Spectrum: 2048
>>>>>Begin Spectral Data<<<<<
223.165	-7.94
223.4	-7.94
223.635	-7.94
223.869	-26.94
224.104	-11.94
224.338	-21.94
224.573	-6.94
224.808	-13.94
225.042	-0.94
225.277	-14.94
225.511	9.06
225.746	9.06
225.98	0.06
226.215	2.06
226.449	10.06
226.683	26.06
226.918	20.06
227.152	29.06
227.387	29.06
227.621	28.06
227.856	43.06
228.09	45.06
228.324	40.06
228.559	42.06
228.793	76.06
229.027	111.06
229.262	113.06
229.496	118.06
229.73	122.06
229.964	136.06
230.199	121.06
230.433	114.06
230.667	129.06
230.901	138.06
231.136	144.06
231.37	128.06
231.604	122.06
231.838	124.06
232.072	143.06
232.306	144.06
232.541	150.06
232.775	146.06
233.009	161.06
233.243	150.06
233.477	161.06
233.711	155.06
233.945	154.06
234.179	143.06
234.413	137.06
234.647	153.06
234.881	151.06
235.115	144.06
235.349	158.06
235.583	140.06
235.817	130.06
236.051	157.06
236.285	154.06
236.519	154.06
236.753	162.06
236.987	154.06
237.221	154.06
237.455	163.06
237.689	166.06
237.922	161.06
238.156	183.06
238.39	182.06
238.624	176.06
238.858	166.06
239.091	166.06
239.325	157.06
239.559	168.06
239.793	165.06
240.027	168.06
240.26	157.06
240.494	166.06
240.728	170.06
240.961	181.06
241.195	177.06
241.429	179.06
241.662	180.06
241.896	179.06
242.13	184.06
242.363	186.06
242.597	206.06
242.83	193.06
243.064	186.06
243.298	194.06
243.531	191.06
243.765	205.06
243.998	215.06
244.232	201.06
244.465	207.06
244.699	202.06
244.932	224.06
245.166	220.06
245.399	226.06
245.633	225.06
245.866	204.06
246.099	224.06
246.333	215.06
246.566	206.06
246.8	229.06
247.033	228.06
247.266	207.06
247.5	211.06
247.733	223.06
247.966	232.06
248.2	233.06
248.433	241.06
248.666	244.06
248.899	233.06
249.133	230.06
249.366	264.06
249.599	217.06
249.832	226.06
250.066	249.06
250.299	237.06
250.532	248.06
250.765	252.06
250.998	265.06
251.231	256.06
251.465	276.06
251.698	273.06
251.931	261.06
252.164	256.06
252.397	252.06
252.63	257.06
252.863	272.06
253.096	269.06
253.329	280.06
253.562	281.06
253.795	257.06
254.028	306.06
254.261	276.06
254.494	290.06
254.727	269.06
254.96	285.06
255.193	268.06
255.426	270.06
255.659	298.06
255.892	280.06
256.124	267.06
256.357	286.06
256.59	288.06
256.823	277.06
257.056	289.06
257.289	289.06
257.521	284.06
257.754	269.06
257.987	301.06
258.22	300.06
258.452	299.06
258.685	317.06
258.918	306.06
259.151	273.06
259.383	323.06
259.616	312.06
259.849	307.06
260.081	301.06
260.314	315.06
260.547	313.06
260.779	307.06
261.012	313.06
261.244	332.06
261.477	322.06
261.71	320.06
261.942	322.06
262.175	330.06
262.407	320.06
262.64	320.06
262.872	322.06
263.105	346.06
263.337	343.06
263.57	345.06
263.802	335.06
264.035	330.06
264.267	328.06
264.499	328.06
264.732	345.06
264.964	340.06
265.197	333.06
265.429	332.06
265.661	348.06
265.894	363.06
266.126	368.06
266.358	346.06
266.591	342.06
266.823	356.06
267.055	343.06
267.287	343.06
267.52	338.06
267.752	354.06
267.984	364.06
268.216	350.06
268.448	355.06
268.681	360.06
268.913	369.06
269.145	371.06
269.377	369.06
269.609	371.06
269.841	359.06
270.073	364.06
270.306	370.06
270.538	378.06
270.77	380.06
271.002	376.06
271.234	376.06
271.466	372.06
271.698	390.06
271.93	373.06
272.162	378.06
272.394	392.06
272.626	377.06
272.858	397.06
273.09	377.06
273.322	394.06
273.553	389.06
273.785	399.06
274.017	399.06
274.249	398.06
274.481	409.06
274.713	402.06
274.945	404.06
275.176	388.06
275.408	398.06
275.64	411.06
275.872	414.06
276.104	402.06
276.335	396.06
276.567	408.06
276.799	427.06
277.031	417.06
277.262	404.06
277.494	415.06
277.726	417.06
277.957	398.06
278.189	411.06
278.421	436.06
278.652	402.06
278.884	429.06
279.115	444.06
279.347	446.06
279.579	422.06
279.81	452.06
280.042	418.06
280.273	455.06
280.505	455.06
280.736	445.06
280.968	440.06
281.199	455.06
281.431	444.06
281.662	447.06
281.894	458.06
282.125	449.06
282.356	455.06
282.588	467.06
282.819	440.06
283.051	463.06
283.282	460.06
283.513	454.06
283.745	469.06
283.976	439.06
284.207	465.06
284.439	450.06
284.67	450.06
284.901	484.06
285.132	458.06
285.364	479.06
285.595	476.06
285.826	493.06
286.057	471.06
286.288	464.06
286.52	480.06
286.751	482.06
286.982	490.06
287.213	512.06
287.444	495.06
287.675	468.06
287.906	499.06
288.138	505.06
288.369	499.06
288.6	512.06
288.831	513.06
289.062	510.06
289.293	499.06
289.524	512.06
289.755	516.06
289.986	519.06
290.217	498.06
290.448	509.06
290.679	526.06
290.91	508.06
291.141	539.06
291.371	519.06
291.602	522.06
291.833	505.06
292.064	506.06
292.295	515.06
292.526	506.06
292.757	516.06
292.987	522.06
293.218	499.06
293.449	507.06
293.68	532.06
293.91	540.06
294.141	536.06
294.372	526.06
294.603	532.06
294.833	531.06
295.064	519.06
295.295	538.06
295.525	527.06
295.756	533.06
295.987	529.06
296.217	533.06
296.448	522.06
296.679	522.06
296.909	552.06
297.14	551.06
297.37	567.06
297.601	564.06
297.831	557.06
298.062	579.06
298.292	578.06
298.523	583.06
298.753	589.06
298.984	578.06
299.214	555.06
299.445	566.06
299.675	540.06
299.905	556.06
300.136	547.06
300.366	572.06
300.597	568.06
300.827	583.06
301.057	601.06
301.288	606.06
301.518	584.06
301.748	602.06
301.979	611.06
302.209	580.06
302.439	587.06
302.669	589.06
302.9	576.06
303.13	584.06
303.36	563.06
303.59	566.06
303.82	578.06
304.051	576.06
304.281	568.06
304.511	586.06
304.741	586.06
304.971	583.06
305.201	596.06
305.431	568.06
305.661	562.06
305.891	572.06
306.121	566.06
306.352	594.06
306.582	569.06
306.812	549.06
307.042	555.06
307.272	561.06
307.502	571.06
307.731	562.06
307.961	546.06
308.191	583.06
308.421	548.06
308.651	589.06
308.881	563.06
309.111	552.06
309.341	573.06
309.571	558.06
309.8	564.06
310.03	568.06
310.26	559.06
310.49	576.06
310.72	574.06
310.949	555.06
311.179	578.06
311.409	596.06
311.639	580.06
311.868	588.06
312.098	583.06
312.328	603.06
312.557	612.06
312.787	595.06
313.017	604.06
313.246	611.06
313.476	610.06
313.706	615.06
313.935	604.06
314.165	611.06
314.394	603.06
314.624	609.06
314.853	594.06
315.083	612.06
315.312	622.06
315.542	609.06
315.771	611.06
316.001	586.06
316.23	583.06
316.46	585.06
316.689	588.06
316.919	593.06
317.148	606.06
317.377	586.06
317.607	586.06
317.836	590.06
318.065	600.06
318.295	610.06
318.524	598.06
318.753	587.06
318.983	604.06
319.212	583.06
319.441	583.06
319.67	581.06
319.9	586.06
320.129	607.06
320.358	592.06
320.587	599.06
320.816	594.06
321.046	595.06
321.275	608.06
321.504	628.06
321.733	612.06
321.962	595.06
322.191	604.06
322.42	601.06
322.649	600.06
322.878	598.06
323.108	622.06
323.337	626.06
323.566	629.06
323.795	611.06
324.024	630.06
324.253	616.06
324.482	605.06
324.71	614.06
324.939	603.06
325.168	618.06
325.397	617.06
325.626	631.06
325.855	637.06
326.084	665.06
326.313	669.06
326.542	678.06
326.77	667.06
326.999	654.06
327.228	640.06
327.457	647.06
327.686	642.06
327.914	646.06
328.143	641.06
328.372	665.06
328.6	640.06
328.829	652.06
329.058	653.06
329.287	677.06
329.515	679.06
329.744	660.06
329.972	658.06
330.201	686.06
330.43	664.06
330.658	674.06
330.887	660.06
331.115	683.06
331.344	686.06
331.572	693.06
331.801	738.06
332.03	703.06
332.258	745.06
332.486	757.06
332.715	764.06
332.943	834.06
333.172	843.06
333.4	881.06
333.629	889.06
333.857	907.06
334.085	897.06
334.314	865.06
334.542	858.06
334.771	857.06
334.999	811.06
335.227	809.06
335.455	828.06
335.684	798.06
335.912	789.06
336.14	782.06
336.369	816.06
336.597	780.06
336.825	798.06
337.053	787.06
337.281	780.06
337.51	770.06
337.738	771.06
337.966	746.06
338.194	760.06
338.422	717.06
338.65	702.06
338.878	694.06
339.106	721.06
339.334	730.06
339.562	711.06
339.79	698.06
340.018	691.06
340.246	673.06
340.474	662.06
340.702	676.06
340.93	666.06
341.158	708.06
341.386	696.06
341.614	692.06
341.842	692.06
342.07	680.06
342.298	684.06
342.526	667.06
342.754	654.06
342.981	668.06
343.209	678.06
343.437	731.06
343.665	760.06
343.893	844.06
344.12	870.06
344.348	835.06
344.576	790.06
344.804	766.06
345.031	737.06
345.259	714.06
345.487	670.06
345.714	700.06
345.942	683.06
346.17	673.06
346.397	691.06
346.625	671.06
346.853	688.06
347.08	662.06
347.308	661.06
347.535	678.06
347.763	683.06
347.99	688.06
348.218	706.06
348.445	684.06
348.673	672.06
348.9	647.06
349.128	670.06
349.355	645.06
349.583	676.06
349.81	681.06
350.037	651.06
350.265	641.06
350.492	644.06
350.72	631.06
350.947	642.06
351.174	647.06
351.402	632.06
351.629	632.06
351.856	637.06
352.083	637.06
352.311	652.06
352.538	623.06
352.765	632.06
352.992	657.06
353.22	611.06
353.447	624.06
353.674	666.06
353.901	627.06
354.128	615.06
354.355	626.06
354.583	631.06
354.81	631.06
355.037	647.06
355.264	660.06
355.491	638.06
355.718	628.06
355.945	630.06
356.172	666.06
356.399	665.06
356.626	647.06
356.853	649.06
357.08	650.06
357.307	646.06
357.534	633.06
357.761	631.06
357.988	651.06
358.215	652.06
358.441	638.06
358.668	613.06
358.895	640.06
359.122	632.06
359.349	630.06
359.576	641.06
359.802	637.06
360.029	662.06
360.256	642.06
360.483	634.06
360.709	632.06
360.936	620.06
361.163	650.06
361.39	628.06
361.616	622.06
361.843	650.06
362.07	664.06
362.296	628.06
362.523	634.06
362.749	633.06
362.976	636.06
363.203	616.06
363.429	618.06
363.656	644.06
363.882	642.06
364.109	629.06
364.335	625.06
364.562	645.06
364.788	634.06
365.015	618.06
365.241	644.06
365.468	632.06
365.694	650.06
365.92	645.06
366.147	646.06
366.373	655.06
366.599	626.06
366.826	650.06
367.052	647.06
367.278	629.06
367.505	635.06
367.731	643.06
367.957	633.06
368.184	640.06
368.41	645.06
368.636	650.06
368.862	652.06
369.089	631.06
369.315	643.06
369.541	651.06
369.767	662.06
369.993	672.06
370.219	648.06
370.445	694.06
370.672	662.06
370.898	685.06
371.124	678.06
371.35	721.06
371.576	716.06
371.802	708.06
372.028	669.06
372.254	690.06
372.48	708.06
372.706	719.06
372.932	729.06
373.158	708.06
373.384	720.06
373.61	705.06
373.835	698.06
374.061	700.06
374.287	676.06
374.513	714.06
374.739	733.06
374.965	745.06
375.191	773.06
375.416	760.06
375.642	756.06
375.868	721.06
376.094	724.06
376.319	728.06
376.545	714.06
376.771	717.06
376.997	696.06
377.222	697.06
377.448	710.06
377.674	683.06
377.899	698.06
378.125	694.06
378.35	701.06
378.576	694.06
378.802	694.06
379.027	695.06
379.253	676.06
379.478	690.06
379.704	717.06
379.929	686.06
380.155	674.06
380.38	673.06
380.606	685.06
380.831	698.06
381.057	715.06
381.282	707.06
381.507	665.06
381.733	688.06
381.958	690.06
382.184	704.06
382.409	727.06
382.634	737.06
382.86	719.06
383.085	737.06
383.31	748.06
383.535	750.06
383.761	768.06
383.986	792.06
384.211	842.06
384.436	833.06
384.662	854.06
384.887	865.06
385.112	840.06
385.337	852.06
385.562	831.06
385.787	833.06
386.013	852.06
386.238	850.06
386.463	864.06
386.688	870.06
386.913	820.06
387.138	822.06
387.363	828.06
387.588	816.06
387.813	825.06
388.038	839.06
388.263	842.06
388.488	824.06
388.713	800.06
388.938	839.06
389.163	821.06
389.387	822.06
389.612	810.06
389.837	814.06
390.062	801.06
390.287	816.06
390.512	834.06
390.736	837.06
390.961	836.06
391.186	881.06
391.411	875.06
391.636	899.06
391.86	911.06
392.085	940.06
392.31	911.06
392.534	912.06
392.759	887.06
392.984	878.06
393.208	878.06
393.433	884.06
393.658	888.06
393.882	895.06
394.107	898.06
394.331	913.06
394.556	912.06
394.78	902.06
395.005	927.06
395.229	904.06
395.454	929.06
395.678	931.06
395.903	958.06
396.127	922.06
396.352	912.06
396.576	874.06
396.801	883.06
397.025	892.06
397.249	893.06
397.474	926.06
397.698	914.06
397.922	934.06
398.147	915.06
398.371	936.06
398.595	979.06
398.82	996.06
399.044	1077.06
399.268	1212.06
399.492	1399.06
399.717	1636.06
399.941	1637.06
400.165	1447.06
400.389	1262.06
400.613	1143.06
400.837	1082.06
401.062	1065.06
401.286	1058.06
401.51	1041.06
401.734	1023.06
401.958	1052.06
402.182	1078.06
402.406	1096.06
402.63	1120.06
402.854	1147.06
403.078	1124.06
403.302	1169.06
403.526	1194.06
403.75	1194.06
403.974	1253.06
404.198	1241.06
404.422	1259.06
404.645	1243.06
404.869	1236.06
405.093	1216.06
405.317	1220.06
405.541	1202.06
405.765	1172.06
405.988	1165.06
406.212	1151.06
406.436	1144.06
406.66	1168.06
406.883	1200.06
407.107	1260.06
407.331	1333.06
407.555	1381.06
407.778	1345.06
408.002	1318.06
408.226	1264.06
408.449	1249.06
408.673	1193.06
408.896	1195.06
409.12	1179.06
409.344	1203.06
409.567	1216.06
409.791	1220.06
410.014	1220.06
410.238	1220.06
410.461	1181.06
410.685	1204.06
410.908	1180.06
411.132	1151.06
411.355	1104.06
411.578	1117.06
411.802	1102.06
412.025	1114.06
412.249	1114.06
412.472	1103.06
412.695	1072.06
412.919	1028.06
413.142	1034.06
413.365	1074.06
413.589	1069.06
413.812	1010.06
414.035	1029.06
414.258	1040.06
414.482	1044.06
414.705	1088.06
414.928	1064.06
415.151	1076.06
415.374	1033.06
415.597	1037.06
415.821	1037.06
416.044	1033.06
416.267	1010.06
416.49	1051.06
416.713	1027.06
416.936	1025.06
417.159	1039.06
417.382	1034.06
417.605	1021.06
417.828	1017.06
418.051	1054.06
418.274	1037.06
418.497	1028.06
418.72	1075.06
418.943	1079.06
419.166	1144.06
419.389	1243.06
419.611	1178.06
419.834	1117.06
420.057	1125.06
420.28	1054.06
420.503	1044.06
420.726	1024.06
420.948	1043.06
421.171	1018.06
421.394	1003.06
421.617	1028.06
421.839	1029.06
422.062	1038.06
422.285	1027.06
422.507	1074.06
422.73	1068.06
422.953	1106.06
423.175	1096.06
423.398	1123.06
423.621	1121.06
423.843	1134.06
424.066	1124.06
424.288	1102.06
424.511	1111.06
424.733	1102.06
424.956	1070.06
425.178	1066.06
425.401	1052.06
425.623	1057.06
425.846	1002.06
426.068	996.06
426.291	978.06
426.513	984.06
426.735	982.06
426.958	960.06
427.18	935.06
427.402	949.06
427.625	950.06
427.847	916.06
428.069	917.06
428.292	950.06
428.514	938.06
428.736	918.06
428.958	927.06
429.181	905.06
429.403	873.06
429.625	918.06
429.847	892.06
430.069	900.06
430.292	906.06
430.514	878.06
430.736	927.06
430.958	884.06
431.18	906.06
431.402	912.06
431.624	902.06
431.846	915.06
432.068	948.06
432.29	901.06
432.512	906.06
432.734	941.06
432.956	913.06
433.178	925.06
433.4	923.06
433.622	921.06
433.844	946.06
434.066	955.06
434.287	935.06
434.509	994.06
434.731	1044.06
434.953	1037.06
435.175	1093.06
435.397	1038.06
435.618	970.06
435.84	974.06
436.062	929.06
436.284	930.06
436.505	940.06
436.727	927.06
436.949	953.06
437.17	938.06
437.392	919.06
437.614	898.06
437.835	875.06
438.057	868.06
438.278	910.06
438.5	886.06
438.721	869.06
438.943	908.06
439.165	902.06
439.386	918.06
439.608	917.06
439.829	912.06
440.05	939.06
440.272	965.06
440.493	896.06
440.715	925.06
440.936	976.06
441.158	1009.06
441.379	1009.06
441.6	1059.06
441.822	1067.06
442.043	1078.06
442.264	1002.06
442.486	1010.06
442.707	997.06
442.928	1032.06
443.149	1044.06
443.371	1047.06
443.592	1033.06
443.813	1080.06
444.034	1056.06
444.255	1086.06
444.476	1160.06
444.698	1218.06
444.919	1306.06
445.14	1354.06
445.361	1201.06
445.582	1098.06
445.803	1020.06
446.024	994.06
446.245	990.06
446.466	958.06
446.687	948.06
446.908	950.06
447.129	910.06
447.35	915.06
447.571	915.06
447.792	886.06
448.013	903.06
448.234	885.06
448.455	865.06
448.675	864.06
448.896	856.06
449.117	835.06
449.338	859.06
449.559	832.06
449.779	836.06
450	846.06
450.221	830.06
450.442	865.06
450.662	846.06
450.883	894.06
451.104	918.06
451.324	876.06
451.545	894.06
451.766	899.06
451.986	871.06
452.207	877.06
452.428	867.06
452.648	876.06
452.869	826.06
453.089	831.06
453.31	860.06
453.53	846.06
453.751	857.06
453.971	841.06
454.192	825.06
454.412	840.06
454.633	824.06
454.853	796.06
455.073	800.06
455.294	805.06
455.514	797.06
455.734	784.06
455.955	786.06
456.175	801.06
456.395	799.06
456.616	772.06
456.836	804.06
457.056	783.06
457.276	776.06
457.497	784.06
457.717	788.06
457.937	825.06
458.157	794.06
458.377	834.06
458.598	866.06
458.818	872.06
459.038	866.06
459.258	891.06
459.478	935.06
459.698	988.06
459.918	978.06
460.138	1038.06
460.358	1121.06
460.578	1104.06
460.798	1125.06
461.018	1139.06
461.238	1117.06
461.458	1090.06
461.678	1066.06
461.898	1105.06
462.118	1110.06
462.338	1185.06
462.558	1210.06
462.777	1222.06
462.997	1379.06
463.217	1525.06
463.437	1544.06
463.657	1398.06
463.876	1329.06
464.096	1309.06
464.316	1313.06
464.536	1338.06
464.755	1310.06
464.975	1190.06
465.195	1142.06
465.414	1100.06
465.634	1010.06
465.854	989.06
466.073	962.06
466.293	944.06
466.512	926.06
466.732	935.06
466.951	908.06
467.171	911.06
467.391	918.06
467.61	868.06
467.829	893.06
468.049	882.06
468.268	870.06
468.488	890.06
468.707	862.06
468.927	884.06
469.146	832.06
469.365	869.06
469.585	885.06
469.804	888.06
470.023	907.06
470.243	917.06
470.462	918.06
470.681	925.06
470.901	952.06
471.12	906.06
471.339	898.06
471.558	894.06
471.777	862.06
471.997	883.06
472.216	852.06
472.435	854.06
472.654	840.06
472.873	847.06
473.092	839.06
473.311	833.06
473.53	845.06
473.749	828.06
473.968	837.06
474.187	828.06
474.406	804.06
474.625	814.06
474.844	839.06
475.063	834.06
475.282	838.06
475.501	834.06
475.72	842.06
475.939	860.06
476.158	859.06
476.377	880.06
476.596	880.06
476.814	871.06
477.033	887.06
477.252	902.06
477.471	924.06
477.69	947.06
477.908	979.06
478.127	983.06
478.346	980.06
478.564	1056.06
478.783	1035.06
479.002	1074.06
479.22	1070.06
479.439	1064.06
479.658	1039.06
479.876	1061.06
480.095	1042.06
480.313	1100.06
480.532	1146.06
480.751	1148.06
480.969	1063.06
481.188	1068.06
481.406	1026.06
481.624	996.06
481.843	973.06
482.061	965.06
482.28	979.06
482.498	952.06
482.717	951.06
482.935	973.06
483.153	973.06
483.372	934.06
483.59	959.06
483.808	968.06
484.027	957.06
484.245	964.06
484.463	980.06
484.681	1012.06
484.9	1001.06
485.118	1009.06
485.336	984.06
485.554	1004.06
485.772	1045.06
485.99	1034.06
486.209	1028.06
486.427	1059.06
486.645	1016.06
486.863	1034.06
487.081	1045.06
487.299	1003.06
487.517	1008.06
487.735	1034.06
487.953	1024.06
488.171	993.06
488.389	981.06
488.607	987.06
488.825	988.06
489.043	983.06
489.261	975.06
489.479	1006.06
489.696	996.06
489.914	985.06
490.132	1029.06
490.35	1012.06
490.568	969.06
490.786	1012.06
491.003	975.06
491.221	992.06
491.439	1021.06
491.657	998.06
491.874	1011.06
492.092	1010.06
492.31	1040.06
492.527	998.06
492.745	1031.06
492.963	1030.06
493.18	1052.06
493.398	1008.06
493.615	1048.06
493.833	1048.06
494.05	1068.06
494.268	1060.06
494.485	1066.06
494.703	1051.06
494.92	1076.06
495.138	1050.06
495.355	1053.06
495.573	1078.06
495.79	1058.06
496.008	1096.06
496.225	1092.06
496.442	1092.06
496.66	1093.06
496.877	1107.06
497.094	1131.06
497.312	1147.06
497.529	1170.06
497.746	1190.06
497.963	1220.06
498.181	1285.06
498.398	1346.06
498.615	1429.06
498.832	1498.06
499.049	1625.06
499.267	1742.06
499.484	1943.06
499.701	2178.06
499.918	2383.06
500.135	2709.06
500.352	3236.06
500.569	3405.06
500.786	3404.06
501.003	3130.06
501.22	2793.06
501.437	2416.06
501.654	2104.06
501.871	1892.06
502.088	1742.06
502.305	1623.06
502.522	1512.06
502.739	1452.06
502.956	1379.06
503.172	1326.06
503.389	1229.06
503.606	1211.06
503.823	1219.06
504.04	1218.06
504.256	1239.06
504.473	1245.06
504.69	1338.06
504.907	1257.06
505.123	1185.06
505.34	1140.06
505.557	1081.06
505.773	1049.06
505.99	1011.06
506.207	998.06
506.423	964.06
506.64	981.06
506.856	950.06
507.073	962.06
507.289	947.06
507.506	928.06
507.722	949.06
507.939	952.06
508.155	915.06
508.372	930.06
508.588	910.06
508.805	896.06
509.021	905.06
509.238	884.06
509.454	908.06
509.67	874.06
509.887	856.06
510.103	871.06
510.319	901.06
510.536	880.06
510.752	849.06
510.968	842.06
511.184	874.06
511.401	857.06
511.617	856.06
511.833	846.06
512.049	844.06
512.265	869.06
512.481	854.06
512.698	867.06
512.914	857.06
513.13	857.06
513.346	840.06
513.562	850.06
513.778	877.06
513.994	892.06
514.21	896.06
514.426	869.06
514.642	877.06
514.858	887.06
515.074	902.06
515.29	890.06
515.506	891.06
515.721	899.06
515.937	907.06
516.153	933.06
516.369	972.06
516.585	981.06
516.801	1012.06
517.016	1060.06
517.232	1121.06
517.448	1189.06
517.664	1224.06
517.879	1246.06
518.095	1244.06
518.311	1197.06
518.527	1178.06
518.742	1091.06
518.958	1062.06
519.173	1032.06
519.389	980.06
519.605	956.06
519.82	937.06
520.036	916.06
520.251	891.06
520.467	900.06
520.682	882.06
520.898	877.06
521.113	869.06
521.329	855.06
521.544	868.06
521.76	828.06
521.975	826.06
522.19	836.06
522.406	812.06
522.621	822.06
522.836	819.06
523.052	780.06
523.267	809.06
523.482	811.06
523.698	820.06
523.913	798.06
524.128	821.06
524.343	803.06
524.559	813.06
524.774	803.06
524.989	813.06
525.204	801.06
525.419	794.06
525.634	798.06
525.849	796.06
526.064	797.06
526.28	764.06
526.495	797.06
526.71	809.06
526.925	782.06
527.14	798.06
527.355	765.06
527.57	790.06
527.785	767.06
527.999	783.06
528.214	795.06
528.429	782.06
528.644	783.06
528.859	780.06
529.074	794.06
529.289	800.06
529.503	803.06
529.718	784.06
529.933	766.06
530.148	774.06
530.363	786.06
530.577	791.06
530.792	764.06
531.007	796.06
531.221	782.06
531.436	806.06
531.651	794.06
531.865	787.06
532.08	795.06
532.295	788.06
532.509	792.06
532.724	764.06
532.938	801.06
533.153	794.06
533.367	796.06
533.582	790.06
533.796	782.06
534.011	790.06
534.225	757.06
534.44	770.06
534.654	775.06
534.868	777.06
535.083	789.06
535.297	757.06
535.511	771.06
535.726	748.06
535.94	759.06
536.154	774.06
536.369	718.06
536.583	726.06
536.797	721.06
537.011	745.06
537.225	743.06
537.44	741.06
537.654	722.06
537.868	715.06
538.082	733.06
538.296	705.06
538.51	740.06
538.724	738.06
538.938	711.06
539.153	706.06
539.367	724.06
539.581	700.06
539.795	696.06
540.009	708.06
540.222	722.06
540.436	713.06
540.65	675.06
540.864	704.06
541.078	669.06
541.292	704.06
541.506	715.06
541.72	679.06
541.934	701.06
542.147	685.06
542.361	670.06
542.575	688.06
542.789	681.06
543.002	697.06
543.216	696.06
543.43	681.06
543.644	694.06
543.857	688.06
544.071	706.06
544.285	684.06
544.498	693.06
544.712	690.06
544.925	685.06
545.139	716.06
545.352	719.06
545.566	717.06
545.779	712.06
545.993	714.06
546.206	726.06
546.42	727.06
546.633	706.06
546.847	709.06
547.06	698.06
547.274	729.06
547.487	678.06
547.7	710.06
547.914	700.06
548.127	728.06
548.34	736.06
548.554	715.06
548.767	729.06
548.98	729.06
549.193	732.06
549.407	728.06
549.62	729.06
549.833	746.06
550.046	719.06
550.259	733.06
550.473	708.06
550.686	714.06
550.899	693.06
551.112	686.06
551.325	670.06
551.538	690.06
551.751	688.06
551.964	685.06
552.177	706.06
552.39	717.06
552.603	731.06
552.816	747.06
553.029	729.06
553.242	780.06
553.455	808.06
553.667	788.06
553.88	806.06
554.093	759.06
554.306	749.06
554.519	724.06
554.732	702.06
554.944	667.06
555.157	693.06
555.37	702.06
555.583	673.06
555.795	662.06
556.008	638.06
556.221	622.06
556.433	625.06
556.646	644.06
556.859	598.06
557.071	615.06
557.284	622.06
557.496	622.06
557.709	618.06
557.921	610.06
558.134	608.06
558.346	598.06
558.559	617.06
558.771	604.06
558.984	599.06
559.196	605.06
559.409	602.06
559.621	605.06
559.833	588.06
560.046	598.06
560.258	617.06
560.47	592.06
560.683	576.06
560.895	573.06
561.107	594.06
561.32	578.06
561.532	576.06
561.744	573.06
561.956	602.06
562.168	609.06
562.381	590.06
562.593	601.06
562.805	616.06
563.017	599.06
563.229	594.06
563.441	577.06
563.653	600.06
563.865	604.06
564.077	609.06
564.289	611.06
564.501	631.06
564.713	636.06
564.925	636.06
565.137	637.06
565.349	669.06
565.561	694.06
565.773	707.06
565.985	721.06
566.197	762.06
566.408	825.06
566.62	890.06
566.832	1000.06
567.044	1004.06
567.255	980.06
567.467	1012.06
567.679	1094.06
567.891	1180.06
568.102	1216.06
568.314	1189.06
568.526	1049.06
568.737	931.06
568.949	836.06
569.161	777.06
569.372	717.06
569.584	704.06
569.795	658.06
570.007	655.06
570.218	619.06
570.43	590.06
570.641	603.06
570.853	600.06
571.064	613.06
571.276	630.06
571.487	622.06
571.698	592.06
571.91	566.06
572.121	541.06
572.333	522.06
572.544	529.06
572.755	514.06
572.966	524.06
573.178	500.06
573.389	515.06
573.6	504.06
573.811	501.06
574.023	496.06
574.234	481.06
574.445	488.06
574.656	507.06
574.867	505.06
575.078	518.06
575.289	517.06
575.501	482.06
575.712	485.06
575.923	474.06
576.134	456.06
576.345	499.06
576.556	472.06
576.767	462.06
576.978	461.06
577.188	459.06
577.399	459.06
577.61	452.06
577.821	440.06
578.032	455.06
578.243	459.06
578.454	442.06
578.665	443.06
578.875	440.06
579.086	427.06
579.297	448.06
579.508	464.06
579.718	443.06
579.929	460.06
580.14	443.06
580.35	421.06
580.561	422.06
580.772	446.06
580.982	434.06
581.193	437.06
581.403	421.06
581.614	420.06
581.825	436.06
582.035	448.06
582.246	419.06
582.456	424.06
582.667	421.06
582.877	428.06
583.087	414.06
583.298	413.06
583.508	411.06
583.719	411.06
583.929	421.06
584.139	420.06
584.35	405.06
584.56	416.06
584.77	411.06
584.981	419.06
585.191	404.06
585.401	397.06
585.611	395.06
585.821	410.06
586.032	404.06
586.242	417.06
586.452	406.06
586.662	391.06
586.872	387.06
587.082	413.06
587.292	405.06
587.502	416.06
587.713	408.06
587.923	401.06
588.133	390.06
588.343	397.06
588.553	392.06
588.762	392.06
588.972	400.06
589.182	419.06
589.392	388.06
589.602	406.06
589.812	404.06
590.022	405.06
590.232	402.06
590.441	398.06
590.651	378.06
590.861	387.06
591.071	401.06
591.281	409.06
591.49	405.06
591.7	416.06
591.91	401.06
592.119	417.06
592.329	433.06
592.539	442.06
592.748	465.06
592.958	475.06
593.167	490.06
593.377	508.06
593.587	529.06
593.796	531.06
594.006	523.06
594.215	531.06
594.424	532.06
594.634	521.06
594.843	465.06
595.053	470.06
595.262	456.06
595.472	441.06
595.681	430.06
595.89	416.06
596.1	414.06
596.309	393.06
596.518	411.06
596.727	386.06
596.937	377.06
597.146	364.06
597.355	376.06
597.564	371.06
597.774	348.06
597.983	357.06
598.192	364.06
598.401	357.06
598.61	347.06
598.819	363.06
599.028	343.06
599.237	351.06
599.446	347.06
599.655	357.06
599.864	326.06
600.073	350.06
600.282	341.06
600.491	341.06
600.7	321.06
600.909	319.06
601.118	324.06
601.327	335.06
601.536	332.06
601.745	336.06
601.953	345.06
602.162	325.06
602.371	330.06
602.58	325.06
602.789	313.06
602.997	315.06
603.206	338.06
603.415	296.06
603.623	310.06
603.832	314.06
604.041	325.06
604.249	314.06
604.458	325.06
604.666	322.06
604.875	316.06
605.084	336.06
605.292	316.06
605.501	318.06
605.709	312.06
605.918	306.06
606.126	323.06
606.334	325.06
606.543	312.06
606.751	320.06
606.96	295.06
607.168	309.06
607.376	306.06
607.585	314.06
607.793	307.06
608.001	316.06
608.21	319.06
608.418	297.06
608.626	301.06
608.834	312.06
609.043	316.06
609.251	302.06
609.459	304.06
609.667	298.06
609.875	306.06
610.083	301.06
610.291	300.06
610.499	300.06
610.707	294.06
610.916	295.06
611.124	304.06
611.332	301.06
611.54	296.06
611.748	298.06
611.955	281.06
612.163	299.06
612.371	292.06
612.579	310.06
612.787	290.06
612.995	291.06
613.203	271.06
613.411	278.06
613.618	313.06
613.826	293.06
614.034	283.06
614.242	298.06
614.449	293.06
614.657	280.06
614.865	299.06
615.072	274.06
615.28	276.06
615.488	279.06
615.695	274.06
615.903	280.06
616.111	320.06
616.318	296.06
616.526	298.06
616.733	284.06
616.941	295.06
617.148	288.06
617.356	291.06
617.563	302.06
617.771	289.06
617.978	297.06
618.185	297.06
618.393	268.06
618.6	275.06
618.807	309.06
619.015	301.06
619.222	297.06
619.429	293.06
619.637	293.06
619.844	284.06
620.051	287.06
620.258	294.06
620.466	245.06
620.673	264.06
620.88	277.06
621.087	270.06
621.294	259.06
621.501	261.06
621.708	274.06
621.915	271.06
622.122	245.06
622.329	262.06
622.536	268.06
622.743	261.06
622.95	268.06
623.157	260.06
623.364	269.06
623.571	263.06
623.778	273.06
623.985	280.06
624.192	256.06
624.399	250.06
624.606	248.06
624.812	256.06
625.019	254.06
625.226	258.06
625.433	259.06
625.639	235.06
625.846	240.06
626.053	260.06
626.259	252.06
626.466	243.06
626.673	253.06
626.879	260.06
627.086	246.06
627.293	244.06
627.499	240.06
627.706	246.06
627.912	250.06
628.119	245.06
628.325	256.06
628.532	216.06
628.738	255.06
628.945	244.06
629.151	257.06
629.357	247.06
629.564	234.06
629.77	214.06
629.976	213.06
630.183	253.06
630.389	240.06
630.595	224.06
630.802	228.06
631.008	203.06
631.214	227.06
631.42	223.06
631.627	222.06
631.833	226.06
632.039	216.06
632.245	210.06
632.451	227.06
632.657	221.06
632.863	225.06
633.069	214.06
633.275	219.06
633.481	209.06
633.688	226.06
633.893	208.06
634.099	217.06
634.305	219.06
634.511	209.06
634.717	214.06
634.923	232.06
635.129	208.06
635.335	202.06
635.541	208.06
635.747	214.06
635.952	217.06
636.158	208.06
636.364	201.06
636.57	208.06
636.775	203.06
636.981	192.06
637.187	202.06
637.392	181.06
637.598	210.06
637.804	205.06
638.009	200.06
638.215	209.06
638.421	199.06
638.626	215.06
638.832	204.06
639.037	206.06
639.243	193.06
639.448	202.06
639.654	182.06
639.859	194.06
640.065	206.06
640.27	184.06
640.475	213.06
640.681	200.06
640.886	179.06
641.091	186.06
641.297	203.06
641.502	192.06
641.707	217.06
641.913	208.06
642.118	189.06
642.323	194.06
642.528	194.06
642.733	177.06
642.939	190.06
643.144	199.06
643.349	195.06
643.554	187.06
643.759	198.06
643.964	198.06
644.169	185.06
644.374	173.06
644.579	187.06
644.784	185.06
644.989	195.06
645.194	184.06
645.399	193.06
645.604	176.06
645.809	190.06
646.014	187.06
646.219	197.06
646.423	197.06
646.628	198.06
646.833	204.06
647.038	180.06
647.243	201.06
647.447	198.06
647.652	203.06
647.857	210.06
648.062	210.06
648.266	208.06
648.471	205.06
648.676	203.06
648.88	198.06
649.085	188.06
649.289	200.06
649.494	178.06
649.698	186.06
649.903	183.06
650.107	178.06
650.312	177.06
650.516	191.06
650.721	189.06
650.925	168.06
651.13	192.06
651.334	145.06
651.539	179.06
651.743	181.06
651.947	169.06
652.152	171.06
652.356	170.06
652.56	160.06
652.764	160.06
652.969	149.06
653.173	135.06
653.377	154.06
653.581	148.06
653.785	149.06
653.99	153.06
654.194	134.06
654.398	124.06
654.602	136.06
654.806	123.06
655.01	150.06
655.214	151.06
655.418	150.06
655.622	132.06
655.826	139.06
656.03	158.06
656.234	153.06
656.438	137.06
656.642	142.06
656.846	121.06
657.049	125.06
657.253	136.06
657.457	130.06
657.661	132.06
657.865	130.06
658.068	111.06
658.272	112.06
658.476	106.06
658.68	91.06
658.883	104.06
659.087	105.06
659.291	91.06
659.494	109.06
659.698	101.06
659.901	97.06
660.105	84.06
660.309	98.06
660.512	85.06
660.716	95.06
660.919	84.06
661.123	76.06
661.326	80.06
661.53	88.06
661.733	89.06
661.936	89.06
662.14	97.06
662.343	89.06
662.546	82.06
662.75	91.06
662.953	86.06
663.156	87.06
663.36	85.06
663.563	77.06
663.766	79.06
663.969	86.06
664.173	78.06
664.376	72.06
664.579	84.06
664.782	67.06
664.985	80.06
665.188	89.06
665.391	78.06
665.594	91.06
665.797	78.06
666	99.06
666.203	80.06
666.406	71.06
666.609	79.06
666.812	85.06
667.015	85.06
667.218	88.06
667.421	76.06
667.624	86.06
667.827	98.06
668.03	91.06
668.232	73.06
668.435	91.06
668.638	70.06
668.841	83.06
669.043	86.06
669.246	84.06
669.449	95.06
669.651	82.06
669.854	92.06
670.057	71.06
670.259	89.06
670.462	84.06
670.665	91.06
670.867	79.06
671.07	92.06
671.272	75.06
671.475	75.06
671.677	88.06
671.88	84.06
672.082	86.06
672.284	86.06
672.487	88.06
672.689	75.06
672.892	76.06
