Data from Ni(NO3)2@0.0625M.TitratingCurve.Agarose3%dH2O.NegLispCup.LampEnergy10.LIBS07252019_HRD10591_18-15-55-569.txt Node
Date: Thu Jul 25 18:15:55 EDT 2019
User: cochatt
Spectrometer: HR+D1059
Trigger mode: 1
Integration Time (sec): 1.000000E-1
Scans to average: 1
Electric dark correction enabled: true
Nonlinearity correction enabled: false
Boxcar width: 0
XAxis mode: Wavelengths
Number of Pixels in Spectrum: 2048
>>>>>Begin Spectral Data<<<<<
223.165	-30.94
223.4	-30.94
223.635	-30.94
223.869	-12.94
224.104	-9.94
224.338	-18.94
224.573	-6.94
224.808	-11.94
225.042	-16.94
225.277	-10.94
225.511	-9.94
225.746	11.06
225.98	8.06
226.215	22.06
226.449	13.06
226.683	29.06
226.918	34.06
227.152	12.06
227.387	46.06
227.621	49.06
227.856	46.06
228.09	38.06
228.324	49.06
228.559	66.06
228.793	78.06
229.027	107.06
229.262	109.06
229.496	107.06
229.73	99.06
229.964	126.06
230.199	127.06
230.433	127.06
230.667	132.06
230.901	133.06
231.136	125.06
231.37	147.06
231.604	142.06
231.838	141.06
232.072	141.06
232.306	128.06
232.541	134.06
232.775	137.06
233.009	139.06
233.243	144.06
233.477	146.06
233.711	159.06
233.945	144.06
234.179	141.06
234.413	134.06
234.647	145.06
234.881	141.06
235.115	145.06
235.349	143.06
235.583	145.06
235.817	137.06
236.051	128.06
236.285	138.06
236.519	159.06
236.753	143.06
236.987	160.06
237.221	123.06
237.455	151.06
237.689	146.06
237.922	162.06
238.156	136.06
238.39	145.06
238.624	165.06
238.858	169.06
239.091	163.06
239.325	152.06
239.559	156.06
239.793	140.06
240.027	144.06
240.26	160.06
240.494	154.06
240.728	153.06
240.961	158.06
241.195	169.06
241.429	170.06
241.662	156.06
241.896	166.06
242.13	188.06
242.363	183.06
242.597	160.06
242.83	171.06
243.064	192.06
243.298	181.06
243.531	170.06
243.765	193.06
243.998	181.06
244.232	185.06
244.465	203.06
244.699	172.06
244.932	198.06
245.166	194.06
245.399	188.06
245.633	204.06
245.866	190.06
246.099	200.06
246.333	210.06
246.566	202.06
246.8	192.06
247.033	208.06
247.266	194.06
247.5	217.06
247.733	208.06
247.966	216.06
248.2	207.06
248.433	219.06
248.666	235.06
248.899	214.06
249.133	211.06
249.366	212.06
249.599	214.06
249.832	221.06
250.066	208.06
250.299	208.06
250.532	217.06
250.765	225.06
250.998	245.06
251.231	216.06
251.465	233.06
251.698	240.06
251.931	218.06
252.164	238.06
252.397	241.06
252.63	234.06
252.863	239.06
253.096	218.06
253.329	239.06
253.562	242.06
253.795	239.06
254.028	238.06
254.261	225.06
254.494	243.06
254.727	231.06
254.96	237.06
255.193	246.06
255.426	248.06
255.659	244.06
255.892	251.06
256.124	245.06
256.357	261.06
256.59	247.06
256.823	277.06
257.056	253.06
257.289	258.06
257.521	263.06
257.754	272.06
257.987	264.06
258.22	266.06
258.452	255.06
258.685	260.06
258.918	269.06
259.151	269.06
259.383	277.06
259.616	265.06
259.849	275.06
260.081	283.06
260.314	270.06
260.547	276.06
260.779	269.06
261.012	291.06
261.244	290.06
261.477	274.06
261.71	284.06
261.942	281.06
262.175	270.06
262.407	279.06
262.64	289.06
262.872	289.06
263.105	290.06
263.337	317.06
263.57	306.06
263.802	295.06
264.035	298.06
264.267	293.06
264.499	290.06
264.732	313.06
264.964	303.06
265.197	299.06
265.429	301.06
265.661	306.06
265.894	304.06
266.126	289.06
266.358	293.06
266.591	310.06
266.823	302.06
267.055	303.06
267.287	299.06
267.52	294.06
267.752	311.06
267.984	312.06
268.216	298.06
268.448	309.06
268.681	318.06
268.913	324.06
269.145	324.06
269.377	309.06
269.609	305.06
269.841	319.06
270.073	305.06
270.306	327.06
270.538	313.06
270.77	331.06
271.002	341.06
271.234	329.06
271.466	343.06
271.698	320.06
271.93	341.06
272.162	319.06
272.394	339.06
272.626	335.06
272.858	335.06
273.09	343.06
273.322	347.06
273.553	341.06
273.785	345.06
274.017	326.06
274.249	353.06
274.481	348.06
274.713	350.06
274.945	344.06
275.176	339.06
275.408	352.06
275.64	342.06
275.872	347.06
276.104	367.06
276.335	352.06
276.567	365.06
276.799	360.06
277.031	364.06
277.262	361.06
277.494	334.06
277.726	343.06
277.957	369.06
278.189	370.06
278.421	369.06
278.652	380.06
278.884	376.06
279.115	359.06
279.347	381.06
279.579	387.06
279.81	379.06
280.042	379.06
280.273	382.06
280.505	369.06
280.736	383.06
280.968	401.06
281.199	389.06
281.431	389.06
281.662	399.06
281.894	397.06
282.125	392.06
282.356	377.06
282.588	416.06
282.819	381.06
283.051	378.06
283.282	405.06
283.513	406.06
283.745	390.06
283.976	400.06
284.207	403.06
284.439	429.06
284.67	432.06
284.901	410.06
285.132	415.06
285.364	413.06
285.595	417.06
285.826	412.06
286.057	423.06
286.288	413.06
286.52	426.06
286.751	435.06
286.982	434.06
287.213	433.06
287.444	428.06
287.675	408.06
287.906	425.06
288.138	431.06
288.369	424.06
288.6	441.06
288.831	450.06
289.062	434.06
289.293	447.06
289.524	432.06
289.755	442.06
289.986	429.06
290.217	457.06
290.448	463.06
290.679	444.06
290.91	443.06
291.141	438.06
291.371	471.06
291.602	429.06
291.833	428.06
292.064	442.06
292.295	451.06
292.526	458.06
292.757	443.06
292.987	441.06
293.218	444.06
293.449	460.06
293.68	458.06
293.91	454.06
294.141	438.06
294.372	437.06
294.603	452.06
294.833	451.06
295.064	453.06
295.295	439.06
295.525	469.06
295.756	451.06
295.987	456.06
296.217	467.06
296.448	450.06
296.679	474.06
296.909	465.06
297.14	453.06
297.37	466.06
297.601	475.06
297.831	479.06
298.062	496.06
298.292	485.06
298.523	519.06
298.753	527.06
298.984	496.06
299.214	481.06
299.445	479.06
299.675	493.06
299.905	494.06
300.136	496.06
300.366	500.06
300.597	487.06
300.827	501.06
301.057	494.06
301.288	513.06
301.518	511.06
301.748	511.06
301.979	502.06
302.209	488.06
302.439	505.06
302.669	493.06
302.9	503.06
303.13	507.06
303.36	508.06
303.59	497.06
303.82	502.06
304.051	507.06
304.281	509.06
304.511	497.06
304.741	515.06
304.971	515.06
305.201	522.06
305.431	481.06
305.661	493.06
305.891	494.06
306.121	511.06
306.352	483.06
306.582	471.06
306.812	497.06
307.042	497.06
307.272	486.06
307.502	489.06
307.731	490.06
307.961	474.06
308.191	512.06
308.421	510.06
308.651	487.06
308.881	480.06
309.111	490.06
309.341	496.06
309.571	486.06
309.8	511.06
310.03	493.06
310.26	481.06
310.49	489.06
310.72	479.06
310.949	492.06
311.179	490.06
311.409	490.06
311.639	498.06
311.868	519.06
312.098	519.06
312.328	498.06
312.557	513.06
312.787	501.06
313.017	498.06
313.246	509.06
313.476	514.06
313.706	512.06
313.935	534.06
314.165	526.06
314.394	540.06
314.624	535.06
314.853	528.06
315.083	504.06
315.312	516.06
315.542	521.06
315.771	524.06
316.001	503.06
316.23	511.06
316.46	510.06
316.689	504.06
316.919	497.06
317.148	521.06
317.377	512.06
317.607	510.06
317.836	542.06
318.065	499.06
318.295	486.06
318.524	504.06
318.753	514.06
318.983	506.06
319.212	498.06
319.441	493.06
319.67	525.06
319.9	534.06
320.129	521.06
320.358	505.06
320.587	516.06
320.816	528.06
321.046	512.06
321.275	518.06
321.504	511.06
321.733	512.06
321.962	520.06
322.191	539.06
322.42	527.06
322.649	523.06
322.878	513.06
323.108	526.06
323.337	521.06
323.566	549.06
323.795	530.06
324.024	544.06
324.253	536.06
324.482	532.06
324.71	537.06
324.939	539.06
325.168	539.06
325.397	554.06
325.626	514.06
325.855	549.06
326.084	557.06
326.313	579.06
326.542	581.06
326.77	571.06
326.999	571.06
327.228	576.06
327.457	550.06
327.686	541.06
327.914	581.06
328.143	560.06
328.372	573.06
328.6	553.06
328.829	588.06
329.058	553.06
329.287	582.06
329.515	547.06
329.744	579.06
329.972	573.06
330.201	554.06
330.43	566.06
330.658	555.06
330.887	582.06
331.115	589.06
331.344	595.06
331.572	583.06
331.801	611.06
332.03	616.06
332.258	640.06
332.486	638.06
332.715	659.06
332.943	694.06
333.172	718.06
333.4	776.06
333.629	746.06
333.857	753.06
334.085	745.06
334.314	730.06
334.542	714.06
334.771	683.06
334.999	683.06
335.227	685.06
335.455	679.06
335.684	715.06
335.912	697.06
336.14	673.06
336.369	697.06
336.597	698.06
336.825	704.06
337.053	700.06
337.281	674.06
337.51	638.06
337.738	637.06
337.966	632.06
338.194	607.06
338.422	615.06
338.65	606.06
338.878	589.06
339.106	618.06
339.334	618.06
339.562	614.06
339.79	573.06
340.018	603.06
340.246	602.06
340.474	600.06
340.702	588.06
340.93	612.06
341.158	601.06
341.386	612.06
341.614	595.06
341.842	616.06
342.07	601.06
342.298	591.06
342.526	575.06
342.754	565.06
342.981	582.06
343.209	618.06
343.437	625.06
343.665	663.06
343.893	724.06
344.12	727.06
344.348	723.06
344.576	671.06
344.804	625.06
345.031	612.06
345.259	606.06
345.487	601.06
345.714	614.06
345.942	609.06
346.17	590.06
346.397	597.06
346.625	584.06
346.853	580.06
347.08	606.06
347.308	596.06
347.535	591.06
347.763	580.06
347.99	581.06
348.218	578.06
348.445	607.06
348.673	586.06
348.9	619.06
349.128	585.06
349.355	579.06
349.583	558.06
349.81	571.06
350.037	559.06
350.265	546.06
350.492	551.06
350.72	574.06
350.947	573.06
351.174	552.06
351.402	553.06
351.629	552.06
351.856	543.06
352.083	557.06
352.311	583.06
352.538	555.06
352.765	562.06
352.992	560.06
353.22	547.06
353.447	541.06
353.674	570.06
353.901	563.06
354.128	544.06
354.355	552.06
354.583	553.06
354.81	538.06
355.037	552.06
355.264	554.06
355.491	555.06
355.718	556.06
355.945	569.06
356.172	565.06
356.399	565.06
356.626	576.06
356.853	577.06
357.08	549.06
357.307	550.06
357.534	575.06
357.761	573.06
357.988	574.06
358.215	543.06
358.441	560.06
358.668	557.06
358.895	569.06
359.122	589.06
359.349	555.06
359.576	554.06
359.802	568.06
360.029	551.06
360.256	557.06
360.483	541.06
360.709	550.06
360.936	536.06
361.163	554.06
361.39	585.06
361.616	560.06
361.843	567.06
362.07	579.06
362.296	581.06
362.523	575.06
362.749	552.06
362.976	552.06
363.203	549.06
363.429	557.06
363.656	539.06
363.882	539.06
364.109	534.06
364.335	551.06
364.562	556.06
364.788	561.06
365.015	536.06
365.241	541.06
365.468	555.06
365.694	551.06
365.92	530.06
366.147	543.06
366.373	558.06
366.599	571.06
366.826	567.06
367.052	571.06
367.278	541.06
367.505	560.06
367.731	548.06
367.957	561.06
368.184	563.06
368.41	572.06
368.636	546.06
368.862	585.06
369.089	577.06
369.315	549.06
369.541	561.06
369.767	566.06
369.993	579.06
370.219	579.06
370.445	597.06
370.672	587.06
370.898	585.06
371.124	588.06
371.35	611.06
371.576	610.06
371.802	622.06
372.028	595.06
372.254	589.06
372.48	613.06
372.706	619.06
372.932	617.06
373.158	642.06
373.384	595.06
373.61	618.06
373.835	614.06
374.061	602.06
374.287	620.06
374.513	631.06
374.739	631.06
374.965	679.06
375.191	674.06
375.416	675.06
375.642	665.06
375.868	658.06
376.094	612.06
376.319	594.06
376.545	614.06
376.771	620.06
376.997	610.06
377.222	599.06
377.448	621.06
377.674	603.06
377.899	599.06
378.125	606.06
378.35	605.06
378.576	593.06
378.802	587.06
379.027	601.06
379.253	602.06
379.478	593.06
379.704	598.06
379.929	581.06
380.155	604.06
380.38	583.06
380.606	603.06
380.831	598.06
381.057	580.06
381.282	615.06
381.507	602.06
381.733	616.06
381.958	586.06
382.184	618.06
382.409	613.06
382.634	633.06
382.86	641.06
383.085	666.06
383.31	672.06
383.535	667.06
383.761	669.06
383.986	685.06
384.211	696.06
384.436	710.06
384.662	718.06
384.887	709.06
385.112	721.06
385.337	764.06
385.562	726.06
385.787	732.06
386.013	734.06
386.238	752.06
386.463	716.06
386.688	732.06
386.913	716.06
387.138	702.06
387.363	702.06
387.588	719.06
387.813	689.06
388.038	689.06
388.263	719.06
388.488	721.06
388.713	698.06
388.938	672.06
389.163	681.06
389.387	697.06
389.612	683.06
389.837	723.06
390.062	709.06
390.287	708.06
390.512	701.06
390.736	717.06
390.961	728.06
391.186	729.06
391.411	795.06
391.636	776.06
391.86	787.06
392.085	815.06
392.31	796.06
392.534	776.06
392.759	773.06
392.984	731.06
393.208	748.06
393.433	777.06
393.658	788.06
393.882	777.06
394.107	779.06
394.331	801.06
394.556	782.06
394.78	781.06
395.005	768.06
395.229	781.06
395.454	780.06
395.678	816.06
395.903	810.06
396.127	774.06
396.352	785.06
396.576	771.06
396.801	764.06
397.025	747.06
397.249	765.06
397.474	791.06
397.698	813.06
397.922	786.06
398.147	776.06
398.371	810.06
398.595	840.06
398.82	889.06
399.044	923.06
399.268	1019.06
399.492	1218.06
399.717	1393.06
399.941	1376.06
400.165	1197.06
400.389	1029.06
400.613	973.06
400.837	910.06
401.062	905.06
401.286	916.06
401.51	878.06
401.734	888.06
401.958	887.06
402.182	915.06
402.406	912.06
402.63	925.06
402.854	947.06
403.078	989.06
403.302	999.06
403.526	1013.06
403.75	1047.06
403.974	1047.06
404.198	1054.06
404.422	1058.06
404.645	1063.06
404.869	1003.06
405.093	1040.06
405.317	978.06
405.541	999.06
405.765	987.06
405.988	976.06
406.212	962.06
406.436	979.06
406.66	1017.06
406.883	1061.06
407.107	1071.06
407.331	1146.06
407.555	1171.06
407.778	1159.06
408.002	1134.06
408.226	1081.06
408.449	1110.06
408.673	996.06
408.896	1011.06
409.12	1013.06
409.344	1026.06
409.567	1025.06
409.791	1048.06
410.014	1061.06
410.238	1038.06
410.461	1034.06
410.685	983.06
410.908	981.06
411.132	959.06
411.355	927.06
411.578	937.06
411.802	896.06
412.025	923.06
412.249	933.06
412.472	947.06
412.695	918.06
412.919	874.06
413.142	894.06
413.365	902.06
413.589	905.06
413.812	874.06
414.035	897.06
414.258	898.06
414.482	896.06
414.705	928.06
414.928	918.06
415.151	911.06
415.374	925.06
415.597	925.06
415.821	879.06
416.044	880.06
416.267	869.06
416.49	853.06
416.713	865.06
416.936	890.06
417.159	867.06
417.382	882.06
417.605	890.06
417.828	879.06
418.051	901.06
418.274	890.06
418.497	889.06
418.72	907.06
418.943	899.06
419.166	975.06
419.389	1024.06
419.611	1017.06
419.834	965.06
420.057	959.06
420.28	889.06
420.503	868.06
420.726	876.06
420.948	848.06
421.171	852.06
421.394	894.06
421.617	876.06
421.839	865.06
422.062	865.06
422.285	897.06
422.507	919.06
422.73	923.06
422.953	922.06
423.175	923.06
423.398	960.06
423.621	934.06
423.843	931.06
424.066	938.06
424.288	946.06
424.511	955.06
424.733	949.06
424.956	901.06
425.178	899.06
425.401	904.06
425.623	909.06
425.846	846.06
426.068	866.06
426.291	852.06
426.513	847.06
426.735	825.06
426.958	859.06
427.18	844.06
427.402	817.06
427.625	843.06
427.847	803.06
428.069	809.06
428.292	807.06
428.514	801.06
428.736	801.06
428.958	795.06
429.181	774.06
429.403	779.06
429.625	773.06
429.847	803.06
430.069	771.06
430.292	778.06
430.514	768.06
430.736	793.06
430.958	786.06
431.18	766.06
431.402	792.06
431.624	777.06
431.846	803.06
432.068	818.06
432.29	813.06
432.512	799.06
432.734	809.06
432.956	804.06
433.178	804.06
433.4	785.06
433.622	787.06
433.844	809.06
434.066	814.06
434.287	823.06
434.509	845.06
434.731	888.06
434.953	915.06
435.175	922.06
435.397	897.06
435.618	850.06
435.84	844.06
436.062	812.06
436.284	809.06
436.505	819.06
436.727	787.06
436.949	779.06
437.17	806.06
437.392	796.06
437.614	780.06
437.835	739.06
438.057	765.06
438.278	750.06
438.5	761.06
438.721	758.06
438.943	758.06
439.165	756.06
439.386	812.06
439.608	799.06
439.829	792.06
440.05	787.06
440.272	792.06
440.493	797.06
440.715	819.06
440.936	819.06
441.158	821.06
441.379	837.06
441.6	903.06
441.822	925.06
442.043	905.06
442.264	912.06
442.486	870.06
442.707	882.06
442.928	892.06
443.149	900.06
443.371	890.06
443.592	878.06
443.813	882.06
444.034	896.06
444.255	947.06
444.476	989.06
444.698	1051.06
444.919	1091.06
445.14	1109.06
445.361	1004.06
445.582	903.06
445.803	893.06
446.024	863.06
446.245	847.06
446.466	823.06
446.687	813.06
446.908	827.06
447.129	798.06
447.35	779.06
447.571	770.06
447.792	773.06
448.013	752.06
448.234	747.06
448.455	760.06
448.675	775.06
448.896	744.06
449.117	705.06
449.338	713.06
449.559	703.06
449.779	729.06
450	740.06
450.221	747.06
450.442	766.06
450.662	736.06
450.883	768.06
451.104	757.06
451.324	759.06
451.545	760.06
451.766	759.06
451.986	753.06
452.207	752.06
452.428	741.06
452.648	770.06
452.869	749.06
453.089	733.06
453.31	729.06
453.53	727.06
453.751	719.06
453.971	741.06
454.192	722.06
454.412	727.06
454.633	729.06
454.853	710.06
455.073	722.06
455.294	702.06
455.514	701.06
455.734	723.06
455.955	728.06
456.175	699.06
456.395	709.06
456.616	698.06
456.836	696.06
457.056	705.06
457.276	712.06
457.497	705.06
457.717	678.06
457.937	682.06
458.157	677.06
458.377	722.06
458.598	732.06
458.818	734.06
459.038	758.06
459.258	818.06
459.478	816.06
459.698	850.06
459.918	851.06
460.138	896.06
460.358	930.06
460.578	947.06
460.798	963.06
461.018	992.06
461.238	927.06
461.458	947.06
461.678	926.06
461.898	930.06
462.118	941.06
462.338	999.06
462.558	1053.06
462.777	1065.06
462.997	1176.06
463.217	1272.06
463.437	1324.06
463.657	1197.06
463.876	1147.06
464.096	1135.06
464.316	1141.06
464.536	1152.06
464.755	1086.06
464.975	1030.06
465.195	991.06
465.414	944.06
465.634	878.06
465.854	850.06
466.073	845.06
466.293	809.06
466.512	806.06
466.732	796.06
466.951	778.06
467.171	781.06
467.391	785.06
467.61	784.06
467.829	798.06
468.049	790.06
468.268	723.06
468.488	738.06
468.707	733.06
468.927	762.06
469.146	758.06
469.365	773.06
469.585	753.06
469.804	790.06
470.023	760.06
470.243	806.06
470.462	823.06
470.681	827.06
470.901	796.06
471.12	803.06
471.339	799.06
471.558	780.06
471.777	749.06
471.997	762.06
472.216	735.06
472.435	750.06
472.654	734.06
472.873	705.06
473.092	726.06
473.311	715.06
473.53	707.06
473.749	735.06
473.968	705.06
474.187	739.06
474.406	715.06
474.625	741.06
474.844	732.06
475.063	726.06
475.282	730.06
475.501	756.06
475.72	745.06
475.939	751.06
476.158	733.06
476.377	752.06
476.596	769.06
476.814	762.06
477.033	779.06
477.252	789.06
477.471	793.06
477.69	833.06
477.908	829.06
478.127	847.06
478.346	837.06
478.564	851.06
478.783	887.06
479.002	923.06
479.22	944.06
479.439	921.06
479.658	915.06
479.876	879.06
480.095	925.06
480.313	967.06
480.532	996.06
480.751	977.06
480.969	938.06
481.188	879.06
481.406	875.06
481.624	867.06
481.843	858.06
482.061	839.06
482.28	861.06
482.498	856.06
482.717	833.06
482.935	825.06
483.153	867.06
483.372	868.06
483.59	851.06
483.808	838.06
484.027	854.06
484.245	853.06
484.463	827.06
484.681	885.06
484.9	879.06
485.118	873.06
485.336	859.06
485.554	880.06
485.772	887.06
485.99	915.06
486.209	915.06
486.427	903.06
486.645	913.06
486.863	894.06
487.081	922.06
487.299	892.06
487.517	892.06
487.735	898.06
487.953	889.06
488.171	869.06
488.389	893.06
488.607	886.06
488.825	860.06
489.043	858.06
489.261	868.06
489.479	862.06
489.696	842.06
489.914	894.06
490.132	862.06
490.35	865.06
490.568	902.06
490.786	885.06
491.003	885.06
491.221	869.06
491.439	877.06
491.657	861.06
491.874	860.06
492.092	874.06
492.31	909.06
492.527	923.06
492.745	896.06
492.963	912.06
493.18	894.06
493.398	908.06
493.615	901.06
493.833	904.06
494.05	910.06
494.268	935.06
494.485	928.06
494.703	922.06
494.92	933.06
495.138	921.06
495.355	933.06
495.573	925.06
495.79	925.06
496.008	937.06
496.225	931.06
496.442	935.06
496.66	961.06
496.877	963.06
497.094	951.06
497.312	975.06
497.529	1002.06
497.746	1000.06
497.963	1066.06
498.181	1091.06
498.398	1145.06
498.615	1198.06
498.832	1273.06
499.049	1370.06
499.267	1474.06
499.484	1647.06
499.701	1815.06
499.918	2005.06
500.135	2286.06
500.352	2704.06
500.569	2855.06
500.786	2832.06
501.003	2554.06
501.22	2283.06
501.437	2042.06
501.654	1747.06
501.871	1579.06
502.088	1448.06
502.305	1360.06
502.522	1298.06
502.739	1261.06
502.956	1179.06
503.172	1169.06
503.389	1083.06
503.606	1058.06
503.823	1045.06
504.04	1017.06
504.256	1056.06
504.473	1042.06
504.69	1117.06
504.907	1093.06
505.123	989.06
505.34	951.06
505.557	921.06
505.773	905.06
505.99	883.06
506.207	843.06
506.423	851.06
506.64	849.06
506.856	822.06
507.073	831.06
507.289	791.06
507.506	797.06
507.722	806.06
507.939	811.06
508.155	788.06
508.372	794.06
508.588	781.06
508.805	771.06
509.021	769.06
509.238	785.06
509.454	758.06
509.67	756.06
509.887	753.06
510.103	747.06
510.319	775.06
510.536	745.06
510.752	764.06
510.968	778.06
511.184	750.06
511.401	764.06
511.617	733.06
511.833	737.06
512.049	750.06
512.265	752.06
512.481	753.06
512.698	737.06
512.914	761.06
513.13	748.06
513.346	713.06
513.562	742.06
513.778	757.06
513.994	735.06
514.21	743.06
514.426	757.06
514.642	764.06
514.858	773.06
515.074	752.06
515.29	775.06
515.506	759.06
515.721	781.06
515.937	800.06
516.153	795.06
516.369	850.06
516.585	844.06
516.801	853.06
517.016	909.06
517.232	975.06
517.448	1032.06
517.664	1056.06
517.879	1054.06
518.095	1035.06
518.311	1013.06
518.527	967.06
518.742	942.06
518.958	888.06
519.173	859.06
519.389	850.06
519.605	817.06
519.82	797.06
520.036	804.06
520.251	765.06
520.467	763.06
520.682	767.06
520.898	781.06
521.113	736.06
521.329	738.06
521.544	749.06
521.76	726.06
521.975	720.06
522.19	775.06
522.406	732.06
522.621	719.06
522.836	702.06
523.052	679.06
523.267	693.06
523.482	696.06
523.698	700.06
523.913	699.06
524.128	691.06
524.343	705.06
524.559	663.06
524.774	702.06
524.989	686.06
525.204	705.06
525.419	702.06
525.634	691.06
525.849	683.06
526.064	698.06
526.28	665.06
526.495	684.06
526.71	694.06
526.925	669.06
527.14	667.06
527.355	676.06
527.57	688.06
527.785	713.06
527.999	679.06
528.214	671.06
528.429	685.06
528.644	698.06
528.859	684.06
529.074	681.06
529.289	687.06
529.503	687.06
529.718	668.06
529.933	683.06
530.148	689.06
530.363	681.06
530.577	690.06
530.792	683.06
531.007	685.06
531.221	723.06
531.436	681.06
531.651	673.06
531.865	698.06
532.08	702.06
532.295	698.06
532.509	663.06
532.724	686.06
532.938	690.06
533.153	681.06
533.367	685.06
533.582	699.06
533.796	712.06
534.011	671.06
534.225	697.06
534.44	653.06
534.654	658.06
534.868	681.06
535.083	691.06
535.297	682.06
535.511	679.06
535.726	663.06
535.94	672.06
536.154	636.06
536.369	663.06
536.583	652.06
536.797	637.06
537.011	637.06
537.225	644.06
537.44	634.06
537.654	635.06
537.868	607.06
538.082	620.06
538.296	624.06
538.51	641.06
538.724	634.06
538.938	622.06
539.153	649.06
539.367	631.06
539.581	621.06
539.795	608.06
540.009	626.06
540.222	618.06
540.436	614.06
540.65	621.06
540.864	627.06
541.078	634.06
541.292	610.06
541.506	608.06
541.72	620.06
541.934	624.06
542.147	618.06
542.361	584.06
542.575	605.06
542.789	600.06
543.002	578.06
543.216	599.06
543.43	599.06
543.644	625.06
543.857	607.06
544.071	569.06
544.285	607.06
544.498	610.06
544.712	618.06
544.925	610.06
545.139	614.06
545.352	610.06
545.566	623.06
545.779	623.06
545.993	641.06
546.206	634.06
546.42	623.06
546.633	605.06
546.847	621.06
547.06	606.06
547.274	622.06
547.487	635.06
547.7	629.06
547.914	662.06
548.127	630.06
548.34	619.06
548.554	609.06
548.767	625.06
548.98	642.06
549.193	622.06
549.407	653.06
549.62	635.06
549.833	643.06
550.046	642.06
550.259	605.06
550.473	599.06
550.686	622.06
550.899	623.06
551.112	603.06
551.325	593.06
551.538	614.06
551.751	633.06
551.964	629.06
552.177	617.06
552.39	604.06
552.603	639.06
552.816	665.06
553.029	665.06
553.242	696.06
553.455	665.06
553.667	703.06
553.88	705.06
554.093	661.06
554.306	639.06
554.519	626.06
554.732	603.06
554.944	606.06
555.157	600.06
555.37	601.06
555.583	590.06
555.795	571.06
556.008	561.06
556.221	562.06
556.433	554.06
556.646	540.06
556.859	587.06
557.071	545.06
557.284	554.06
557.496	537.06
557.709	554.06
557.921	534.06
558.134	546.06
558.346	537.06
558.559	541.06
558.771	523.06
558.984	544.06
559.196	537.06
559.409	532.06
559.621	523.06
559.833	532.06
560.046	534.06
560.258	528.06
560.47	505.06
560.683	519.06
560.895	526.06
561.107	506.06
561.32	517.06
561.532	505.06
561.744	530.06
561.956	521.06
562.168	512.06
562.381	523.06
562.593	521.06
562.805	533.06
563.017	553.06
563.229	539.06
563.441	517.06
563.653	531.06
563.865	516.06
564.077	544.06
564.289	533.06
564.501	552.06
564.713	545.06
564.925	544.06
565.137	575.06
565.349	576.06
565.561	604.06
565.773	616.06
565.985	631.06
566.197	663.06
566.408	720.06
566.62	773.06
566.832	834.06
567.044	885.06
567.255	835.06
567.467	855.06
567.679	898.06
567.891	975.06
568.102	1017.06
568.314	988.06
568.526	834.06
568.737	797.06
568.949	707.06
569.161	651.06
569.372	633.06
569.584	602.06
569.795	573.06
570.007	575.06
570.218	547.06
570.43	562.06
570.641	529.06
570.853	510.06
571.064	556.06
571.276	552.06
571.487	518.06
571.698	506.06
571.91	487.06
572.121	482.06
572.333	473.06
572.544	473.06
572.755	459.06
572.966	452.06
573.178	458.06
573.389	447.06
573.6	469.06
573.811	450.06
574.023	445.06
574.234	454.06
574.445	433.06
574.656	439.06
574.867	419.06
575.078	439.06
575.289	448.06
575.501	440.06
575.712	440.06
575.923	433.06
576.134	427.06
576.345	419.06
576.556	423.06
576.767	413.06
576.978	431.06
577.188	419.06
577.399	411.06
577.61	423.06
577.821	400.06
578.032	395.06
578.243	412.06
578.454	393.06
578.665	397.06
578.875	415.06
579.086	394.06
579.297	395.06
579.508	396.06
579.718	383.06
579.929	389.06
580.14	385.06
580.35	390.06
580.561	387.06
580.772	385.06
580.982	379.06
581.193	368.06
581.403	391.06
581.614	393.06
581.825	367.06
582.035	368.06
582.246	374.06
582.456	371.06
582.667	387.06
582.877	388.06
583.087	373.06
583.298	381.06
583.508	358.06
583.719	372.06
583.929	385.06
584.139	367.06
584.35	363.06
584.56	359.06
584.77	358.06
584.981	366.06
585.191	369.06
585.401	360.06
585.611	357.06
585.821	375.06
586.032	354.06
586.242	366.06
586.452	362.06
586.662	366.06
586.872	359.06
587.082	351.06
587.292	377.06
587.502	375.06
587.713	377.06
587.923	362.06
588.133	373.06
588.343	363.06
588.553	373.06
588.762	366.06
588.972	353.06
589.182	363.06
589.392	369.06
589.602	361.06
589.812	362.06
590.022	344.06
590.232	347.06
590.441	367.06
590.651	356.06
590.861	351.06
591.071	350.06
591.281	363.06
591.49	379.06
591.7	377.06
591.91	381.06
592.119	375.06
592.329	401.06
592.539	403.06
592.748	419.06
592.958	407.06
593.167	433.06
593.377	453.06
593.587	455.06
593.796	447.06
594.006	465.06
594.215	473.06
594.424	474.06
594.634	434.06
594.843	425.06
595.053	404.06
595.262	386.06
595.472	392.06
595.681	368.06
595.89	371.06
596.1	352.06
596.309	353.06
596.518	342.06
596.727	337.06
596.937	329.06
597.146	325.06
597.355	338.06
597.564	318.06
597.774	327.06
597.983	337.06
598.192	326.06
598.401	336.06
598.61	325.06
598.819	317.06
599.028	300.06
599.237	309.06
599.446	320.06
599.655	301.06
599.864	314.06
600.073	323.06
600.282	289.06
600.491	295.06
600.7	309.06
600.909	311.06
601.118	288.06
601.327	305.06
601.536	286.06
601.745	310.06
601.953	291.06
602.162	309.06
602.371	293.06
602.58	289.06
602.789	293.06
602.997	307.06
603.206	292.06
603.415	305.06
603.623	308.06
603.832	290.06
604.041	299.06
604.249	286.06
604.458	297.06
604.666	280.06
604.875	287.06
605.084	289.06
605.292	273.06
605.501	290.06
605.709	295.06
605.918	281.06
606.126	287.06
606.334	289.06
606.543	283.06
606.751	295.06
606.96	288.06
607.168	255.06
607.376	278.06
607.585	302.06
607.793	265.06
608.001	284.06
608.21	255.06
608.418	290.06
608.626	269.06
608.834	274.06
609.043	272.06
609.251	278.06
609.459	281.06
609.667	285.06
609.875	274.06
610.083	287.06
610.291	286.06
610.499	260.06
610.707	263.06
610.916	283.06
611.124	266.06
611.332	271.06
611.54	281.06
611.748	302.06
611.955	272.06
612.163	263.06
612.371	261.06
612.579	270.06
612.787	269.06
612.995	272.06
613.203	249.06
613.411	273.06
613.618	269.06
613.826	262.06
614.034	275.06
614.242	273.06
614.449	257.06
614.657	273.06
614.865	260.06
615.072	267.06
615.28	252.06
615.488	239.06
615.695	250.06
615.903	264.06
616.111	281.06
616.318	267.06
616.526	286.06
616.733	267.06
616.941	263.06
617.148	264.06
617.356	284.06
617.563	274.06
617.771	266.06
617.978	262.06
618.185	263.06
618.393	262.06
618.6	278.06
618.807	285.06
619.015	271.06
619.222	269.06
619.429	259.06
619.637	258.06
619.844	256.06
620.051	259.06
620.258	270.06
620.466	261.06
620.673	254.06
620.88	249.06
621.087	245.06
621.294	242.06
621.501	243.06
621.708	236.06
621.915	242.06
622.122	236.06
622.329	246.06
622.536	241.06
622.743	251.06
622.95	242.06
623.157	226.06
623.364	217.06
623.571	238.06
623.778	236.06
623.985	261.06
624.192	231.06
624.399	252.06
624.606	227.06
624.812	252.06
625.019	225.06
625.226	229.06
625.433	224.06
625.639	232.06
625.846	238.06
626.053	236.06
626.259	234.06
626.466	223.06
626.673	243.06
626.879	233.06
627.086	230.06
627.293	221.06
627.499	234.06
627.706	221.06
627.912	217.06
628.119	223.06
628.325	226.06
628.532	225.06
628.738	224.06
628.945	226.06
629.151	230.06
629.357	222.06
629.564	207.06
629.77	210.06
629.976	213.06
630.183	194.06
630.389	205.06
630.595	226.06
630.802	220.06
631.008	231.06
631.214	195.06
631.42	208.06
631.627	213.06
631.833	204.06
632.039	209.06
632.245	199.06
632.451	213.06
632.657	195.06
632.863	204.06
633.069	210.06
633.275	177.06
633.481	208.06
633.688	214.06
633.893	205.06
634.099	216.06
634.305	201.06
634.511	204.06
634.717	202.06
634.923	195.06
635.129	213.06
635.335	206.06
635.541	197.06
635.747	217.06
635.952	202.06
636.158	194.06
636.364	203.06
636.57	202.06
636.775	201.06
636.981	206.06
637.187	202.06
637.392	181.06
637.598	195.06
637.804	199.06
638.009	183.06
638.215	200.06
638.421	193.06
638.626	200.06
638.832	202.06
639.037	212.06
639.243	201.06
639.448	187.06
639.654	183.06
639.859	199.06
640.065	173.06
640.27	191.06
640.475	205.06
640.681	200.06
640.886	175.06
641.091	185.06
641.297	203.06
641.502	183.06
641.707	199.06
641.913	199.06
642.118	166.06
642.323	179.06
642.528	172.06
642.733	172.06
642.939	195.06
643.144	172.06
643.349	170.06
643.554	189.06
643.759	187.06
643.964	184.06
644.169	181.06
644.374	190.06
644.579	187.06
644.784	183.06
644.989	173.06
645.194	170.06
645.399	184.06
645.604	173.06
645.809	180.06
646.014	197.06
646.219	173.06
646.423	168.06
646.628	205.06
646.833	169.06
647.038	185.06
647.243	190.06
647.447	178.06
647.652	172.06
647.857	196.06
648.062	193.06
648.266	187.06
648.471	200.06
648.676	185.06
648.88	191.06
649.085	179.06
649.289	183.06
649.494	195.06
649.698	191.06
649.903	169.06
650.107	185.06
650.312	170.06
650.516	175.06
650.721	170.06
650.925	174.06
651.13	171.06
651.334	164.06
651.539	168.06
651.743	163.06
651.947	165.06
652.152	161.06
652.356	163.06
652.56	153.06
652.764	159.06
652.969	178.06
653.173	154.06
653.377	162.06
653.581	154.06
653.785	165.06
653.99	168.06
654.194	149.06
654.398	143.06
654.602	155.06
654.806	144.06
655.01	149.06
655.214	143.06
655.418	147.06
655.622	152.06
655.826	143.06
656.03	139.06
656.234	147.06
656.438	153.06
656.642	143.06
656.846	157.06
657.049	143.06
657.253	155.06
657.457	129.06
657.661	138.06
657.865	133.06
658.068	112.06
658.272	128.06
658.476	115.06
658.68	119.06
658.883	102.06
659.087	119.06
659.291	111.06
659.494	123.06
659.698	106.06
659.901	105.06
660.105	105.06
660.309	96.06
660.512	97.06
660.716	103.06
660.919	101.06
661.123	98.06
661.326	95.06
661.53	100.06
661.733	94.06
661.936	94.06
662.14	92.06
662.343	106.06
662.546	100.06
662.75	110.06
662.953	103.06
663.156	90.06
663.36	93.06
663.563	102.06
663.766	87.06
663.969	90.06
664.173	83.06
664.376	88.06
664.579	82.06
664.782	91.06
664.985	90.06
665.188	86.06
665.391	86.06
665.594	79.06
665.797	89.06
666	78.06
666.203	92.06
666.406	90.06
666.609	76.06
666.812	76.06
667.015	91.06
667.218	97.06
667.421	85.06
667.624	91.06
667.827	86.06
668.03	73.06
668.232	76.06
668.435	88.06
668.638	92.06
668.841	85.06
669.043	83.06
669.246	88.06
669.449	87.06
669.651	83.06
669.854	97.06
670.057	98.06
670.259	94.06
670.462	69.06
670.665	84.06
670.867	97.06
671.07	89.06
671.272	100.06
671.475	89.06
671.677	73.06
671.88	89.06
672.082	74.06
672.284	88.06
672.487	83.06
672.689	85.06
672.892	75.06
