Data from Ni(NO3)2@0.25M.TitratingCurve.Agarose3%dH2O.NegLispCup.LampEnergy10.LIBS07252019_HRD10591_18-03-32-565.txt Node
Date: Thu Jul 25 18:03:32 EDT 2019
User: cochatt
Spectrometer: HR+D1059
Trigger mode: 1
Integration Time (sec): 1.000000E-1
Scans to average: 1
Electric dark correction enabled: true
Nonlinearity correction enabled: false
Boxcar width: 0
XAxis mode: Wavelengths
Number of Pixels in Spectrum: 2048
>>>>>Begin Spectral Data<<<<<
223.165	-24.19
223.4	-24.19
223.635	-24.19
223.869	-20.19
224.104	-0.19
224.338	-23.19
224.573	-8.19
224.808	-23.19
225.042	-26.19
225.277	-13.19
225.511	-4.19
225.746	5.81
225.98	3.81
226.215	13.81
226.449	31.81
226.683	22.81
226.918	22.81
227.152	41.81
227.387	16.81
227.621	32.81
227.856	50.81
228.09	49.81
228.324	48.81
228.559	63.81
228.793	47.81
229.027	71.81
229.262	80.81
229.496	82.81
229.73	99.81
229.964	110.81
230.199	94.81
230.433	81.81
230.667	105.81
230.901	87.81
231.136	106.81
231.37	110.81
231.604	114.81
231.838	113.81
232.072	110.81
232.306	108.81
232.541	104.81
232.775	107.81
233.009	107.81
233.243	114.81
233.477	114.81
233.711	105.81
233.945	106.81
234.179	109.81
234.413	126.81
234.647	110.81
234.881	108.81
235.115	115.81
235.349	112.81
235.583	117.81
235.817	97.81
236.051	103.81
236.285	127.81
236.519	115.81
236.753	107.81
236.987	100.81
237.221	106.81
237.455	139.81
237.689	121.81
237.922	100.81
238.156	119.81
238.39	123.81
238.624	128.81
238.858	118.81
239.091	129.81
239.325	127.81
239.559	123.81
239.793	126.81
240.027	123.81
240.26	120.81
240.494	120.81
240.728	122.81
240.961	128.81
241.195	137.81
241.429	141.81
241.662	128.81
241.896	121.81
242.13	138.81
242.363	129.81
242.597	129.81
242.83	128.81
243.064	133.81
243.298	131.81
243.531	137.81
243.765	133.81
243.998	142.81
244.232	141.81
244.465	133.81
244.699	133.81
244.932	136.81
245.166	152.81
245.399	125.81
245.633	130.81
245.866	133.81
246.099	127.81
246.333	165.81
246.566	158.81
246.8	160.81
247.033	165.81
247.266	157.81
247.5	170.81
247.733	166.81
247.966	163.81
248.2	167.81
248.433	160.81
248.666	155.81
248.899	177.81
249.133	163.81
249.366	179.81
249.599	174.81
249.832	176.81
250.066	174.81
250.299	185.81
250.532	186.81
250.765	189.81
250.998	191.81
251.231	186.81
251.465	189.81
251.698	202.81
251.931	212.81
252.164	208.81
252.397	205.81
252.63	225.81
252.863	230.81
253.096	222.81
253.329	215.81
253.562	215.81
253.795	218.81
254.028	229.81
254.261	215.81
254.494	230.81
254.727	240.81
254.96	250.81
255.193	229.81
255.426	253.81
255.659	256.81
255.892	245.81
256.124	266.81
256.357	258.81
256.59	267.81
256.823	256.81
257.056	257.81
257.289	272.81
257.521	270.81
257.754	262.81
257.987	258.81
258.22	274.81
258.452	278.81
258.685	281.81
258.918	285.81
259.151	287.81
259.383	282.81
259.616	269.81
259.849	292.81
260.081	294.81
260.314	288.81
260.547	291.81
260.779	305.81
261.012	300.81
261.244	291.81
261.477	301.81
261.71	320.81
261.942	297.81
262.175	304.81
262.407	304.81
262.64	301.81
262.872	295.81
263.105	314.81
263.337	309.81
263.57	323.81
263.802	338.81
264.035	313.81
264.267	303.81
264.499	326.81
264.732	357.81
264.964	326.81
265.197	327.81
265.429	336.81
265.661	338.81
265.894	319.81
266.126	353.81
266.358	333.81
266.591	313.81
266.823	346.81
267.055	335.81
267.287	328.81
267.52	349.81
267.752	330.81
267.984	339.81
268.216	322.81
268.448	329.81
268.681	361.81
268.913	342.81
269.145	374.81
269.377	344.81
269.609	360.81
269.841	346.81
270.073	366.81
270.306	344.81
270.538	354.81
270.77	355.81
271.002	364.81
271.234	357.81
271.466	359.81
271.698	347.81
271.93	348.81
272.162	342.81
272.394	369.81
272.626	354.81
272.858	359.81
273.09	332.81
273.322	360.81
273.553	372.81
273.785	355.81
274.017	344.81
274.249	370.81
274.481	371.81
274.713	376.81
274.945	375.81
275.176	374.81
275.408	374.81
275.64	387.81
275.872	367.81
276.104	368.81
276.335	361.81
276.567	385.81
276.799	341.81
277.031	363.81
277.262	347.81
277.494	369.81
277.726	389.81
277.957	369.81
278.189	365.81
278.421	358.81
278.652	377.81
278.884	385.81
279.115	379.81
279.347	380.81
279.579	381.81
279.81	392.81
280.042	378.81
280.273	386.81
280.505	396.81
280.736	373.81
280.968	346.81
281.199	384.81
281.431	377.81
281.662	394.81
281.894	377.81
282.125	401.81
282.356	383.81
282.588	385.81
282.819	365.81
283.051	378.81
283.282	391.81
283.513	385.81
283.745	389.81
283.976	350.81
284.207	372.81
284.439	373.81
284.67	386.81
284.901	389.81
285.132	382.81
285.364	378.81
285.595	374.81
285.826	385.81
286.057	417.81
286.288	392.81
286.52	409.81
286.751	378.81
286.982	405.81
287.213	378.81
287.444	403.81
287.675	384.81
287.906	405.81
288.138	386.81
288.369	395.81
288.6	404.81
288.831	373.81
289.062	386.81
289.293	399.81
289.524	393.81
289.755	388.81
289.986	402.81
290.217	402.81
290.448	391.81
290.679	389.81
290.91	370.81
291.141	406.81
291.371	414.81
291.602	391.81
291.833	395.81
292.064	393.81
292.295	387.81
292.526	388.81
292.757	391.81
292.987	395.81
293.218	387.81
293.449	397.81
293.68	395.81
293.91	391.81
294.141	386.81
294.372	381.81
294.603	405.81
294.833	388.81
295.064	373.81
295.295	412.81
295.525	391.81
295.756	419.81
295.987	406.81
296.217	410.81
296.448	386.81
296.679	395.81
296.909	403.81
297.14	393.81
297.37	417.81
297.601	408.81
297.831	419.81
298.062	409.81
298.292	427.81
298.523	439.81
298.753	408.81
298.984	398.81
299.214	417.81
299.445	419.81
299.675	394.81
299.905	402.81
300.136	440.81
300.366	416.81
300.597	407.81
300.827	416.81
301.057	411.81
301.288	405.81
301.518	435.81
301.748	418.81
301.979	429.81
302.209	443.81
302.439	446.81
302.669	427.81
302.9	437.81
303.13	424.81
303.36	420.81
303.59	426.81
303.82	449.81
304.051	458.81
304.281	450.81
304.511	448.81
304.741	447.81
304.971	457.81
305.201	457.81
305.431	436.81
305.661	447.81
305.891	461.81
306.121	452.81
306.352	459.81
306.582	452.81
306.812	440.81
307.042	432.81
307.272	453.81
307.502	434.81
307.731	447.81
307.961	456.81
308.191	445.81
308.421	449.81
308.651	468.81
308.881	447.81
309.111	446.81
309.341	454.81
309.571	426.81
309.8	478.81
310.03	461.81
310.26	468.81
310.49	473.81
310.72	475.81
310.949	464.81
311.179	462.81
311.409	496.81
311.639	487.81
311.868	496.81
312.098	515.81
312.328	491.81
312.557	524.81
312.787	500.81
313.017	493.81
313.246	501.81
313.476	506.81
313.706	526.81
313.935	531.81
314.165	498.81
314.394	532.81
314.624	541.81
314.853	556.81
315.083	535.81
315.312	527.81
315.542	550.81
315.771	544.81
316.001	551.81
316.23	553.81
316.46	554.81
316.689	555.81
316.919	563.81
317.148	571.81
317.377	583.81
317.607	576.81
317.836	585.81
318.065	568.81
318.295	591.81
318.524	611.81
318.753	575.81
318.983	592.81
319.212	602.81
319.441	602.81
319.67	602.81
319.9	600.81
320.129	633.81
320.358	616.81
320.587	655.81
320.816	631.81
321.046	618.81
321.275	633.81
321.504	632.81
321.733	644.81
321.962	643.81
322.191	653.81
322.42	655.81
322.649	651.81
322.878	655.81
323.108	674.81
323.337	669.81
323.566	653.81
323.795	694.81
324.024	675.81
324.253	706.81
324.482	711.81
324.71	688.81
324.939	726.81
325.168	726.81
325.397	730.81
325.626	728.81
325.855	742.81
326.084	756.81
326.313	765.81
326.542	768.81
326.77	771.81
326.999	752.81
327.228	775.81
327.457	750.81
327.686	771.81
327.914	783.81
328.143	809.81
328.372	760.81
328.6	752.81
328.829	781.81
329.058	797.81
329.287	794.81
329.515	805.81
329.744	784.81
329.972	805.81
330.201	817.81
330.43	837.81
330.658	819.81
330.887	856.81
331.115	843.81
331.344	870.81
331.572	825.81
331.801	881.81
332.03	874.81
332.258	885.81
332.486	920.81
332.715	920.81
332.943	918.81
333.172	948.81
333.4	974.81
333.629	984.81
333.857	1006.81
334.085	969.81
334.314	1019.81
334.542	1011.81
334.771	997.81
334.999	992.81
335.227	1007.81
335.455	1003.81
335.684	981.81
335.912	992.81
336.14	998.81
336.369	991.81
336.597	965.81
336.825	941.81
337.053	953.81
337.281	961.81
337.51	969.81
337.738	949.81
337.966	960.81
338.194	930.81
338.422	927.81
338.65	951.81
338.878	913.81
339.106	926.81
339.334	919.81
339.562	908.81
339.79	937.81
340.018	951.81
340.246	914.81
340.474	902.81
340.702	920.81
340.93	920.81
341.158	911.81
341.386	920.81
341.614	912.81
341.842	901.81
342.07	846.81
342.298	925.81
342.526	937.81
342.754	929.81
342.981	908.81
343.209	939.81
343.437	975.81
343.665	954.81
343.893	1008.81
344.12	991.81
344.348	1014.81
344.576	977.81
344.804	971.81
345.031	916.81
345.259	917.81
345.487	918.81
345.714	944.81
345.942	911.81
346.17	915.81
346.397	868.81
346.625	911.81
346.853	911.81
347.08	893.81
347.308	928.81
347.535	911.81
347.763	895.81
347.99	918.81
348.218	904.81
348.445	896.81
348.673	904.81
348.9	884.81
349.128	894.81
349.355	901.81
349.583	893.81
349.81	875.81
350.037	893.81
350.265	893.81
350.492	859.81
350.72	865.81
350.947	885.81
351.174	889.81
351.402	905.81
351.629	917.81
351.856	877.81
352.083	867.81
352.311	891.81
352.538	867.81
352.765	867.81
352.992	845.81
353.22	850.81
353.447	863.81
353.674	853.81
353.901	881.81
354.128	862.81
354.355	868.81
354.583	850.81
354.81	869.81
355.037	874.81
355.264	875.81
355.491	877.81
355.718	849.81
355.945	842.81
356.172	864.81
356.399	866.81
356.626	884.81
356.853	897.81
357.08	859.81
357.307	849.81
357.534	890.81
357.761	895.81
357.988	872.81
358.215	855.81
358.441	877.81
358.668	879.81
358.895	860.81
359.122	863.81
359.349	854.81
359.576	888.81
359.802	868.81
360.029	875.81
360.256	852.81
360.483	854.81
360.709	878.81
360.936	879.81
361.163	872.81
361.39	847.81
361.616	847.81
361.843	824.81
362.07	859.81
362.296	849.81
362.523	824.81
362.749	850.81
362.976	853.81
363.203	858.81
363.429	864.81
363.656	864.81
363.882	846.81
364.109	831.81
364.335	851.81
364.562	846.81
364.788	840.81
365.015	869.81
365.241	834.81
365.468	853.81
365.694	850.81
365.92	840.81
366.147	872.81
366.373	862.81
366.599	842.81
366.826	828.81
367.052	839.81
367.278	872.81
367.505	850.81
367.731	830.81
367.957	844.81
368.184	843.81
368.41	844.81
368.636	837.81
368.862	873.81
369.089	856.81
369.315	870.81
369.541	859.81
369.767	848.81
369.993	857.81
370.219	855.81
370.445	851.81
370.672	866.81
370.898	813.81
371.124	845.81
371.35	871.81
371.576	865.81
371.802	853.81
372.028	852.81
372.254	871.81
372.48	862.81
372.706	880.81
372.932	879.81
373.158	875.81
373.384	871.81
373.61	874.81
373.835	863.81
374.061	864.81
374.287	885.81
374.513	882.81
374.739	880.81
374.965	890.81
375.191	877.81
375.416	868.81
375.642	866.81
375.868	853.81
376.094	864.81
376.319	848.81
376.545	853.81
376.771	839.81
376.997	846.81
377.222	836.81
377.448	833.81
377.674	833.81
377.899	808.81
378.125	803.81
378.35	805.81
378.576	818.81
378.802	803.81
379.027	817.81
379.253	805.81
379.478	815.81
379.704	815.81
379.929	816.81
380.155	817.81
380.38	801.81
380.606	803.81
380.831	798.81
381.057	806.81
381.282	794.81
381.507	779.81
381.733	819.81
381.958	778.81
382.184	815.81
382.409	791.81
382.634	799.81
382.86	842.81
383.085	827.81
383.31	815.81
383.535	842.81
383.761	847.81
383.986	847.81
384.211	850.81
384.436	870.81
384.662	850.81
384.887	875.81
385.112	884.81
385.337	887.81
385.562	879.81
385.787	875.81
386.013	890.81
386.238	919.81
386.463	881.81
386.688	888.81
386.913	878.81
387.138	898.81
387.363	911.81
387.588	870.81
387.813	882.81
388.038	869.81
388.263	900.81
388.488	905.81
388.713	907.81
388.938	849.81
389.163	867.81
389.387	884.81
389.612	863.81
389.837	873.81
390.062	875.81
390.287	885.81
390.512	866.81
390.736	884.81
390.961	897.81
391.186	908.81
391.411	899.81
391.636	932.81
391.86	902.81
392.085	935.81
392.31	953.81
392.534	907.81
392.759	929.81
392.984	930.81
393.208	945.81
393.433	917.81
393.658	933.81
393.882	907.81
394.107	932.81
394.331	934.81
394.556	922.81
394.78	937.81
395.005	909.81
395.229	928.81
395.454	949.81
395.678	924.81
395.903	951.81
396.127	957.81
396.352	934.81
396.576	929.81
396.801	924.81
397.025	933.81
397.249	965.81
397.474	963.81
397.698	985.81
397.922	965.81
398.147	964.81
398.371	987.81
398.595	1027.81
398.82	1057.81
399.044	1107.81
399.268	1142.81
399.492	1213.81
399.717	1301.81
399.941	1328.81
400.165	1256.81
400.389	1202.81
400.613	1159.81
400.837	1083.81
401.062	1101.81
401.286	1078.81
401.51	1075.81
401.734	1066.81
401.958	1091.81
402.182	1049.81
402.406	1048.81
402.63	1065.81
402.854	1092.81
403.078	1074.81
403.302	1121.81
403.526	1115.81
403.75	1115.81
403.974	1119.81
404.198	1145.81
404.422	1133.81
404.645	1143.81
404.869	1130.81
405.093	1152.81
405.317	1116.81
405.541	1158.81
405.765	1139.81
405.988	1137.81
406.212	1115.81
406.436	1158.81
406.66	1177.81
406.883	1200.81
407.107	1201.81
407.331	1227.81
407.555	1287.81
407.778	1262.81
408.002	1220.81
408.226	1237.81
408.449	1236.81
408.673	1189.81
408.896	1182.81
409.12	1187.81
409.344	1186.81
409.567	1152.81
409.791	1185.81
410.014	1181.81
410.238	1125.81
410.461	1179.81
410.685	1129.81
410.908	1138.81
411.132	1126.81
411.355	1095.81
411.578	1137.81
411.802	1131.81
412.025	1153.81
412.249	1138.81
412.472	1154.81
412.695	1123.81
412.919	1105.81
413.142	1122.81
413.365	1125.81
413.589	1114.81
413.812	1084.81
414.035	1085.81
414.258	1094.81
414.482	1102.81
414.705	1105.81
414.928	1151.81
415.151	1138.81
415.374	1098.81
415.597	1108.81
415.821	1080.81
416.044	1100.81
416.267	1096.81
416.49	1072.81
416.713	1099.81
416.936	1086.81
417.159	1095.81
417.382	1101.81
417.605	1106.81
417.828	1107.81
418.051	1106.81
418.274	1122.81
418.497	1104.81
418.72	1112.81
418.943	1133.81
419.166	1197.81
419.389	1255.81
419.611	1219.81
419.834	1206.81
420.057	1194.81
420.28	1151.81
420.503	1090.81
420.726	1108.81
420.948	1104.81
421.171	1137.81
421.394	1123.81
421.617	1123.81
421.839	1157.81
422.062	1145.81
422.285	1137.81
422.507	1174.81
422.73	1133.81
422.953	1155.81
423.175	1197.81
423.398	1176.81
423.621	1140.81
423.843	1161.81
424.066	1181.81
424.288	1183.81
424.511	1170.81
424.733	1158.81
424.956	1188.81
425.178	1145.81
425.401	1166.81
425.623	1169.81
425.846	1159.81
426.068	1149.81
426.291	1156.81
426.513	1117.81
426.735	1137.81
426.958	1146.81
427.18	1104.81
427.402	1099.81
427.625	1117.81
427.847	1073.81
428.069	1085.81
428.292	1118.81
428.514	1095.81
428.736	1110.81
428.958	1122.81
429.181	1103.81
429.403	1083.81
429.625	1081.81
429.847	1105.81
430.069	1099.81
430.292	1118.81
430.514	1088.81
430.736	1114.81
430.958	1112.81
431.18	1088.81
431.402	1110.81
431.624	1123.81
431.846	1079.81
432.068	1095.81
432.29	1116.81
432.512	1106.81
432.734	1136.81
432.956	1109.81
433.178	1129.81
433.4	1119.81
433.622	1133.81
433.844	1149.81
434.066	1159.81
434.287	1103.81
434.509	1133.81
434.731	1175.81
434.953	1176.81
435.175	1202.81
435.397	1194.81
435.618	1150.81
435.84	1129.81
436.062	1111.81
436.284	1162.81
436.505	1141.81
436.727	1109.81
436.949	1158.81
437.17	1123.81
437.392	1111.81
437.614	1133.81
437.835	1086.81
438.057	1086.81
438.278	1094.81
438.5	1106.81
438.721	1113.81
438.943	1112.81
439.165	1077.81
439.386	1109.81
439.608	1146.81
439.829	1106.81
440.05	1126.81
440.272	1146.81
440.493	1136.81
440.715	1182.81
440.936	1173.81
441.158	1177.81
441.379	1147.81
441.6	1210.81
441.822	1217.81
442.043	1206.81
442.264	1194.81
442.486	1181.81
442.707	1221.81
442.928	1202.81
443.149	1205.81
443.371	1199.81
443.592	1219.81
443.813	1215.81
444.034	1198.81
444.255	1211.81
444.476	1281.81
444.698	1316.81
444.919	1352.81
445.14	1401.81
445.361	1311.81
445.582	1240.81
445.803	1179.81
446.024	1181.81
446.245	1174.81
446.466	1152.81
446.687	1120.81
446.908	1147.81
447.129	1113.81
447.35	1119.81
447.571	1105.81
447.792	1065.81
448.013	1062.81
448.234	1076.81
448.455	1075.81
448.675	1080.81
448.896	1065.81
449.117	1060.81
449.338	1028.81
449.559	1062.81
449.779	1048.81
450	1056.81
450.221	1049.81
450.442	1056.81
450.662	1067.81
450.883	1088.81
451.104	1063.81
451.324	1088.81
451.545	1044.81
451.766	1056.81
451.986	1035.81
452.207	1015.81
452.428	1047.81
452.648	1059.81
452.869	1007.81
453.089	1009.81
453.31	997.81
453.53	995.81
453.751	983.81
453.971	1023.81
454.192	1034.81
454.412	1019.81
454.633	1013.81
454.853	1035.81
455.073	990.81
455.294	1013.81
455.514	969.81
455.734	1010.81
455.955	972.81
456.175	974.81
456.395	989.81
456.616	1021.81
456.836	985.81
457.056	984.81
457.276	955.81
457.497	1009.81
457.717	993.81
457.937	1016.81
458.157	1009.81
458.377	1010.81
458.598	1034.81
458.818	1025.81
459.038	1042.81
459.258	1071.81
459.478	1115.81
459.698	1135.81
459.918	1169.81
460.138	1177.81
460.358	1202.81
460.578	1193.81
460.798	1232.81
461.018	1206.81
461.238	1218.81
461.458	1197.81
461.678	1203.81
461.898	1246.81
462.118	1251.81
462.338	1286.81
462.558	1322.81
462.777	1370.81
462.997	1406.81
463.217	1429.81
463.437	1455.81
463.657	1375.81
463.876	1362.81
464.096	1390.81
464.316	1325.81
464.536	1349.81
464.755	1305.81
464.975	1314.81
465.195	1234.81
465.414	1201.81
465.634	1157.81
465.854	1122.81
466.073	1165.81
466.293	1133.81
466.512	1110.81
466.732	1081.81
466.951	1122.81
467.171	1092.81
467.391	1110.81
467.61	1096.81
467.829	1073.81
468.049	1073.81
468.268	1038.81
468.488	1086.81
468.707	1072.81
468.927	1071.81
469.146	1073.81
469.365	1072.81
469.585	1098.81
469.804	1094.81
470.023	1149.81
470.243	1104.81
470.462	1118.81
470.681	1125.81
470.901	1126.81
471.12	1137.81
471.339	1123.81
471.558	1107.81
471.777	1137.81
471.997	1119.81
472.216	1081.81
472.435	1086.81
472.654	1061.81
472.873	1054.81
473.092	1070.81
473.311	1090.81
473.53	1114.81
473.749	1138.81
473.968	1117.81
474.187	1103.81
474.406	1109.81
474.625	1110.81
474.844	1118.81
475.063	1122.81
475.282	1093.81
475.501	1114.81
475.72	1110.81
475.939	1124.81
476.158	1120.81
476.377	1130.81
476.596	1156.81
476.814	1163.81
477.033	1165.81
477.252	1181.81
477.471	1188.81
477.69	1243.81
477.908	1221.81
478.127	1220.81
478.346	1263.81
478.564	1250.81
478.783	1275.81
479.002	1331.81
479.22	1323.81
479.439	1300.81
479.658	1307.81
479.876	1331.81
480.095	1325.81
480.313	1342.81
480.532	1321.81
480.751	1359.81
480.969	1322.81
481.188	1283.81
481.406	1295.81
481.624	1261.81
481.843	1291.81
482.061	1290.81
482.28	1262.81
482.498	1274.81
482.717	1271.81
482.935	1285.81
483.153	1298.81
483.372	1287.81
483.59	1286.81
483.808	1308.81
484.027	1281.81
484.245	1283.81
484.463	1301.81
484.681	1336.81
484.9	1314.81
485.118	1316.81
485.336	1306.81
485.554	1282.81
485.772	1329.81
485.99	1295.81
486.209	1315.81
486.427	1328.81
486.645	1321.81
486.863	1336.81
487.081	1327.81
487.299	1317.81
487.517	1280.81
487.735	1374.81
487.953	1380.81
488.171	1381.81
488.389	1335.81
488.607	1336.81
488.825	1295.81
489.043	1317.81
489.261	1321.81
489.479	1325.81
489.696	1325.81
489.914	1337.81
490.132	1360.81
490.35	1414.81
490.568	1361.81
490.786	1353.81
491.003	1366.81
491.221	1358.81
491.439	1377.81
491.657	1372.81
491.874	1402.81
492.092	1401.81
492.31	1414.81
492.527	1407.81
492.745	1397.81
492.963	1383.81
493.18	1401.81
493.398	1381.81
493.615	1414.81
493.833	1405.81
494.05	1428.81
494.268	1409.81
494.485	1424.81
494.703	1448.81
494.92	1463.81
495.138	1437.81
495.355	1445.81
495.573	1444.81
495.79	1464.81
496.008	1475.81
496.225	1430.81
496.442	1466.81
496.66	1482.81
496.877	1486.81
497.094	1481.81
497.312	1482.81
497.529	1525.81
497.746	1537.81
497.963	1575.81
498.181	1612.81
498.398	1652.81
498.615	1715.81
498.832	1810.81
499.049	1871.81
499.267	1948.81
499.484	2049.81
499.701	2168.81
499.918	2333.81
500.135	2487.81
500.352	2696.81
500.569	2762.81
500.786	2660.81
501.003	2643.81
501.22	2442.81
501.437	2327.81
501.654	2093.81
501.871	2027.81
502.088	1925.81
502.305	1857.81
502.522	1799.81
502.739	1737.81
502.956	1709.81
503.172	1657.81
503.389	1576.81
503.606	1565.81
503.823	1564.81
504.04	1575.81
504.256	1541.81
504.473	1543.81
504.69	1550.81
504.907	1534.81
505.123	1471.81
505.34	1398.81
505.557	1389.81
505.773	1393.81
505.99	1358.81
506.207	1336.81
506.423	1325.81
506.64	1313.81
506.856	1313.81
507.073	1298.81
507.289	1292.81
507.506	1287.81
507.722	1255.81
507.939	1281.81
508.155	1282.81
508.372	1248.81
508.588	1230.81
508.805	1241.81
509.021	1251.81
509.238	1219.81
509.454	1225.81
509.67	1237.81
509.887	1216.81
510.103	1209.81
510.319	1207.81
510.536	1201.81
510.752	1177.81
510.968	1206.81
511.184	1159.81
511.401	1208.81
511.617	1190.81
511.833	1165.81
512.049	1159.81
512.265	1177.81
512.481	1209.81
512.698	1167.81
512.914	1171.81
513.13	1199.81
513.346	1207.81
513.562	1177.81
513.778	1173.81
513.994	1193.81
514.21	1145.81
514.426	1173.81
514.642	1206.81
514.858	1181.81
515.074	1209.81
515.29	1172.81
515.506	1211.81
515.721	1210.81
515.937	1201.81
516.153	1246.81
516.369	1246.81
516.585	1263.81
516.801	1263.81
517.016	1326.81
517.232	1328.81
517.448	1339.81
517.664	1386.81
517.879	1396.81
518.095	1335.81
518.311	1361.81
518.527	1315.81
518.742	1295.81
518.958	1271.81
519.173	1245.81
519.389	1251.81
519.605	1221.81
519.82	1178.81
520.036	1185.81
520.251	1167.81
520.467	1183.81
520.682	1140.81
520.898	1121.81
521.113	1130.81
521.329	1137.81
521.544	1158.81
521.76	1115.81
521.975	1122.81
522.19	1128.81
522.406	1130.81
522.621	1109.81
522.836	1101.81
523.052	1078.81
523.267	1122.81
523.482	1098.81
523.698	1098.81
523.913	1071.81
524.128	1088.81
524.343	1082.81
524.559	1081.81
524.774	1072.81
524.989	1102.81
525.204	1049.81
525.419	1077.81
525.634	1049.81
525.849	1057.81
526.064	1089.81
526.28	1041.81
526.495	1051.81
526.71	1062.81
526.925	1043.81
527.14	1045.81
527.355	1061.81
527.57	1052.81
527.785	1046.81
527.999	1062.81
528.214	1051.81
528.429	1069.81
528.644	1087.81
528.859	1047.81
529.074	1074.81
529.289	1062.81
529.503	1053.81
529.718	1021.81
529.933	1062.81
530.148	1029.81
530.363	1046.81
530.577	1024.81
530.792	1055.81
531.007	1033.81
531.221	1033.81
531.436	1023.81
531.651	1037.81
531.865	1049.81
532.08	1035.81
532.295	1022.81
532.509	1011.81
532.724	1020.81
532.938	1037.81
533.153	1036.81
533.367	1016.81
533.582	1041.81
533.796	1007.81
534.011	1014.81
534.225	1006.81
534.44	997.81
534.654	1001.81
534.868	1012.81
535.083	1034.81
535.297	997.81
535.511	999.81
535.726	989.81
535.94	991.81
536.154	989.81
536.369	965.81
536.583	982.81
536.797	981.81
537.011	970.81
537.225	977.81
537.44	964.81
537.654	988.81
537.868	966.81
538.082	938.81
538.296	964.81
538.51	956.81
538.724	960.81
538.938	945.81
539.153	982.81
539.367	954.81
539.581	972.81
539.795	925.81
540.009	928.81
540.222	942.81
540.436	916.81
540.65	924.81
540.864	954.81
541.078	927.81
541.292	925.81
541.506	956.81
541.72	970.81
541.934	971.81
542.147	944.81
542.361	955.81
542.575	925.81
542.789	930.81
543.002	920.81
543.216	919.81
543.43	931.81
543.644	949.81
543.857	940.81
544.071	943.81
544.285	936.81
544.498	947.81
544.712	949.81
544.925	946.81
545.139	946.81
545.352	922.81
545.566	943.81
545.779	957.81
545.993	959.81
546.206	958.81
546.42	976.81
546.633	937.81
546.847	946.81
547.06	931.81
547.274	914.81
547.487	937.81
547.7	964.81
547.914	959.81
548.127	951.81
548.34	930.81
548.554	957.81
548.767	935.81
548.98	937.81
549.193	931.81
549.407	985.81
549.62	961.81
549.833	935.81
550.046	934.81
550.259	933.81
550.473	925.81
550.686	934.81
550.899	929.81
551.112	903.81
551.325	900.81
551.538	901.81
551.751	892.81
551.964	895.81
552.177	919.81
552.39	919.81
552.603	962.81
552.816	929.81
553.029	944.81
553.242	947.81
553.455	959.81
553.667	958.81
553.88	924.81
554.093	913.81
554.306	899.81
554.519	913.81
554.732	887.81
554.944	869.81
555.157	856.81
555.37	853.81
555.583	847.81
555.795	875.81
556.008	840.81
556.221	827.81
556.433	811.81
556.646	837.81
556.859	829.81
557.071	812.81
557.284	818.81
557.496	810.81
557.709	794.81
557.921	823.81
558.134	816.81
558.346	811.81
558.559	790.81
558.771	778.81
558.984	791.81
559.196	777.81
559.409	777.81
559.621	774.81
559.833	782.81
560.046	766.81
560.258	784.81
560.47	789.81
560.683	797.81
560.895	767.81
561.107	769.81
561.32	784.81
561.532	754.81
561.744	775.81
561.956	773.81
562.168	798.81
562.381	764.81
562.593	756.81
562.805	773.81
563.017	757.81
563.229	757.81
563.441	768.81
563.653	787.81
563.865	793.81
564.077	775.81
564.289	765.81
564.501	816.81
564.713	785.81
564.925	809.81
565.137	806.81
565.349	835.81
565.561	817.81
565.773	851.81
565.985	863.81
566.197	889.81
566.408	897.81
566.62	941.81
566.832	968.81
567.044	987.81
567.255	1031.81
567.467	997.81
567.679	1011.81
567.891	1006.81
568.102	1049.81
568.314	1008.81
568.526	961.81
568.737	962.81
568.949	866.81
569.161	849.81
569.372	804.81
569.584	794.81
569.795	757.81
570.007	751.81
570.218	768.81
570.43	743.81
570.641	721.81
570.853	731.81
571.064	734.81
571.276	746.81
571.487	719.81
571.698	677.81
571.91	689.81
572.121	691.81
572.333	664.81
572.544	663.81
572.755	665.81
572.966	657.81
573.178	639.81
573.389	643.81
573.6	628.81
573.811	619.81
574.023	621.81
574.234	639.81
574.445	611.81
574.656	623.81
574.867	609.81
575.078	627.81
575.289	610.81
575.501	624.81
575.712	584.81
575.923	588.81
576.134	604.81
576.345	579.81
576.556	588.81
576.767	589.81
576.978	588.81
577.188	588.81
577.399	560.81
577.61	527.81
577.821	567.81
578.032	559.81
578.243	558.81
578.454	583.81
578.665	563.81
578.875	566.81
579.086	555.81
579.297	581.81
579.508	568.81
579.718	554.81
579.929	561.81
580.14	554.81
580.35	544.81
580.561	536.81
580.772	576.81
580.982	552.81
581.193	530.81
581.403	536.81
581.614	541.81
581.825	536.81
582.035	488.81
582.246	517.81
582.456	514.81
582.667	540.81
582.877	539.81
583.087	528.81
583.298	495.81
583.508	507.81
583.719	521.81
583.929	497.81
584.139	520.81
584.35	533.81
584.56	513.81
584.77	513.81
584.981	513.81
585.191	499.81
585.401	496.81
585.611	494.81
585.821	526.81
586.032	527.81
586.242	488.81
586.452	488.81
586.662	510.81
586.872	473.81
587.082	491.81
587.292	489.81
587.502	503.81
587.713	478.81
587.923	503.81
588.133	488.81
588.343	503.81
588.553	482.81
588.762	501.81
588.972	497.81
589.182	501.81
589.392	498.81
589.602	482.81
589.812	478.81
590.022	489.81
590.232	467.81
590.441	471.81
590.651	470.81
590.861	478.81
591.071	471.81
591.281	473.81
591.49	484.81
591.7	498.81
591.91	503.81
592.119	497.81
592.329	508.81
592.539	492.81
592.748	509.81
592.958	534.81
593.167	521.81
593.377	523.81
593.587	537.81
593.796	526.81
594.006	511.81
594.215	514.81
594.424	539.81
594.634	516.81
594.843	526.81
595.053	505.81
595.262	509.81
595.472	491.81
595.681	487.81
595.89	488.81
596.1	457.81
596.309	445.81
596.518	461.81
596.727	424.81
596.937	442.81
597.146	446.81
597.355	439.81
597.564	421.81
597.774	433.81
597.983	431.81
598.192	442.81
598.401	403.81
598.61	385.81
598.819	408.81
599.028	412.81
599.237	422.81
599.446	411.81
599.655	405.81
599.864	399.81
600.073	424.81
600.282	396.81
600.491	411.81
600.7	418.81
600.909	399.81
601.118	405.81
601.327	384.81
601.536	391.81
601.745	404.81
601.953	417.81
602.162	419.81
602.371	402.81
602.58	400.81
602.789	405.81
602.997	393.81
603.206	399.81
603.415	377.81
603.623	377.81
603.832	399.81
604.041	396.81
604.249	381.81
604.458	384.81
604.666	391.81
604.875	366.81
605.084	381.81
605.292	386.81
605.501	361.81
605.709	381.81
605.918	387.81
606.126	381.81
606.334	350.81
606.543	367.81
606.751	366.81
606.96	386.81
607.168	377.81
607.376	378.81
607.585	368.81
607.793	382.81
608.001	372.81
608.21	355.81
608.418	367.81
608.626	360.81
608.834	369.81
609.043	365.81
609.251	368.81
609.459	357.81
609.667	353.81
609.875	349.81
610.083	359.81
610.291	370.81
610.499	373.81
610.707	367.81
610.916	340.81
611.124	360.81
611.332	337.81
611.54	355.81
611.748	357.81
611.955	350.81
612.163	349.81
612.371	341.81
612.579	350.81
612.787	370.81
612.995	350.81
613.203	357.81
613.411	330.81
613.618	344.81
613.826	341.81
614.034	321.81
614.242	358.81
614.449	357.81
614.657	338.81
614.865	345.81
615.072	349.81
615.28	326.81
615.488	341.81
615.695	349.81
615.903	330.81
616.111	348.81
616.318	356.81
616.526	347.81
616.733	341.81
616.941	344.81
617.148	335.81
617.356	337.81
617.563	358.81
617.771	337.81
617.978	320.81
618.185	339.81
618.393	348.81
618.6	336.81
618.807	335.81
619.015	329.81
619.222	314.81
619.429	333.81
619.637	332.81
619.844	333.81
620.051	321.81
620.258	305.81
620.466	318.81
620.673	327.81
620.88	322.81
621.087	318.81
621.294	302.81
621.501	299.81
621.708	335.81
621.915	330.81
622.122	318.81
622.329	312.81
622.536	314.81
622.743	318.81
622.95	312.81
623.157	284.81
623.364	323.81
623.571	304.81
623.778	314.81
623.985	311.81
624.192	302.81
624.399	287.81
624.606	287.81
624.812	282.81
625.019	291.81
625.226	321.81
625.433	311.81
625.639	289.81
625.846	286.81
626.053	295.81
626.259	279.81
626.466	286.81
626.673	291.81
626.879	301.81
627.086	301.81
627.293	281.81
627.499	294.81
627.706	282.81
627.912	282.81
628.119	279.81
628.325	295.81
628.532	278.81
628.738	266.81
628.945	304.81
629.151	275.81
629.357	279.81
629.564	271.81
629.77	265.81
629.976	265.81
630.183	277.81
630.389	273.81
630.595	278.81
630.802	270.81
631.008	260.81
631.214	278.81
631.42	277.81
631.627	273.81
631.833	285.81
632.039	266.81
632.245	270.81
632.451	249.81
632.657	265.81
632.863	270.81
633.069	261.81
633.275	259.81
633.481	258.81
633.688	247.81
633.893	269.81
634.099	262.81
634.305	259.81
634.511	249.81
634.717	266.81
634.923	253.81
635.129	242.81
635.335	253.81
635.541	263.81
635.747	232.81
635.952	251.81
636.158	238.81
636.364	241.81
636.57	235.81
636.775	257.81
636.981	244.81
637.187	261.81
637.392	220.81
637.598	232.81
637.804	264.81
638.009	251.81
638.215	239.81
638.421	243.81
638.626	242.81
638.832	229.81
639.037	238.81
639.243	237.81
639.448	241.81
639.654	254.81
639.859	239.81
640.065	227.81
640.27	247.81
640.475	227.81
640.681	264.81
640.886	251.81
641.091	247.81
641.297	243.81
641.502	230.81
641.707	229.81
641.913	238.81
642.118	228.81
642.323	242.81
642.528	216.81
642.733	222.81
642.939	215.81
643.144	213.81
643.349	213.81
643.554	224.81
643.759	241.81
643.964	226.81
644.169	227.81
644.374	225.81
644.579	227.81
644.784	198.81
644.989	233.81
645.194	232.81
645.399	220.81
645.604	221.81
645.809	229.81
646.014	222.81
646.219	226.81
646.423	242.81
646.628	220.81
646.833	197.81
647.038	229.81
647.243	218.81
647.447	232.81
647.652	245.81
647.857	234.81
648.062	239.81
648.266	220.81
648.471	217.81
648.676	212.81
648.88	222.81
649.085	211.81
649.289	218.81
649.494	212.81
649.698	237.81
649.903	201.81
650.107	210.81
650.312	214.81
650.516	198.81
650.721	209.81
650.925	192.81
651.13	207.81
651.334	198.81
651.539	198.81
651.743	195.81
651.947	210.81
652.152	203.81
652.356	196.81
652.56	194.81
652.764	176.81
652.969	194.81
653.173	203.81
653.377	184.81
653.581	178.81
653.785	178.81
653.99	185.81
654.194	186.81
654.398	182.81
654.602	173.81
654.806	175.81
655.01	178.81
655.214	172.81
655.418	159.81
655.622	181.81
655.826	170.81
656.03	157.81
656.234	156.81
656.438	179.81
656.642	150.81
656.846	161.81
657.049	153.81
657.253	137.81
657.457	139.81
657.661	141.81
657.865	140.81
658.068	140.81
658.272	130.81
658.476	140.81
658.68	134.81
658.883	112.81
659.087	115.81
659.291	122.81
659.494	113.81
659.698	113.81
659.901	110.81
660.105	120.81
660.309	114.81
660.512	110.81
660.716	95.81
660.919	102.81
661.123	93.81
661.326	81.81
661.53	93.81
661.733	91.81
661.936	82.81
662.14	99.81
662.343	90.81
662.546	93.81
662.75	97.81
662.953	98.81
663.156	94.81
663.36	88.81
663.563	91.81
663.766	76.81
663.969	76.81
664.173	80.81
664.376	81.81
664.579	69.81
664.782	73.81
664.985	78.81
665.188	89.81
665.391	102.81
665.594	92.81
665.797	79.81
666	84.81
666.203	81.81
666.406	93.81
666.609	76.81
666.812	80.81
667.015	70.81
667.218	80.81
667.421	95.81
667.624	90.81
667.827	79.81
668.03	73.81
668.232	76.81
668.435	91.81
668.638	86.81
668.841	75.81
669.043	68.81
669.246	87.81
669.449	73.81
669.651	84.81
669.854	65.81
670.057	78.81
670.259	75.81
670.462	79.81
670.665	85.81
670.867	79.81
671.07	87.81
671.272	75.81
671.475	86.81
671.677	79.81
671.88	81.81
672.082	78.81
672.284	84.81
672.487	74.81
672.689	86.81
672.892	73.81
