Data from Ni(NO3)2@0.25M.TitratingCurve.Agarose3%dH2O.NegLispCup.LampEnergy10.LIBS07252019_HRD10591_18-04-21-566.txt Node
Date: Thu Jul 25 18:04:21 EDT 2019
User: cochatt
Spectrometer: HR+D1059
Trigger mode: 1
Integration Time (sec): 1.000000E-1
Scans to average: 1
Electric dark correction enabled: true
Nonlinearity correction enabled: false
Boxcar width: 0
XAxis mode: Wavelengths
Number of Pixels in Spectrum: 2048
>>>>>Begin Spectral Data<<<<<
223.165	-8.94
223.4	-8.94
223.635	-8.94
223.869	-3.94
224.104	-14.94
224.338	-7.94
224.573	-17.94
224.808	-18.94
225.042	-9.94
225.277	-4.94
225.511	-7.94
225.746	-2.94
225.98	8.06
226.215	-2.94
226.449	11.06
226.683	18.06
226.918	29.06
227.152	35.06
227.387	34.06
227.621	49.06
227.856	42.06
228.09	43.06
228.324	47.06
228.559	63.06
228.793	67.06
229.027	103.06
229.262	101.06
229.496	124.06
229.73	123.06
229.964	130.06
230.199	148.06
230.433	131.06
230.667	142.06
230.901	118.06
231.136	125.06
231.37	134.06
231.604	136.06
231.838	137.06
232.072	132.06
232.306	141.06
232.541	160.06
232.775	141.06
233.009	146.06
233.243	135.06
233.477	150.06
233.711	139.06
233.945	134.06
234.179	133.06
234.413	151.06
234.647	146.06
234.881	164.06
235.115	128.06
235.349	142.06
235.583	150.06
235.817	146.06
236.051	158.06
236.285	159.06
236.519	163.06
236.753	157.06
236.987	162.06
237.221	152.06
237.455	169.06
237.689	167.06
237.922	152.06
238.156	166.06
238.39	177.06
238.624	151.06
238.858	170.06
239.091	169.06
239.325	176.06
239.559	177.06
239.793	178.06
240.027	179.06
240.26	170.06
240.494	169.06
240.728	186.06
240.961	176.06
241.195	175.06
241.429	174.06
241.662	173.06
241.896	177.06
242.13	181.06
242.363	189.06
242.597	192.06
242.83	183.06
243.064	191.06
243.298	191.06
243.531	188.06
243.765	172.06
243.998	190.06
244.232	199.06
244.465	202.06
244.699	182.06
244.932	201.06
245.166	208.06
245.399	209.06
245.633	205.06
245.866	210.06
246.099	223.06
246.333	208.06
246.566	222.06
246.8	207.06
247.033	216.06
247.266	217.06
247.5	225.06
247.733	215.06
247.966	224.06
248.2	224.06
248.433	246.06
248.666	229.06
248.899	240.06
249.133	236.06
249.366	241.06
249.599	234.06
249.832	241.06
250.066	244.06
250.299	234.06
250.532	260.06
250.765	257.06
250.998	251.06
251.231	265.06
251.465	291.06
251.698	254.06
251.931	276.06
252.164	262.06
252.397	274.06
252.63	288.06
252.863	287.06
253.096	273.06
253.329	265.06
253.562	274.06
253.795	287.06
254.028	290.06
254.261	290.06
254.494	308.06
254.727	294.06
254.96	307.06
255.193	305.06
255.426	310.06
255.659	304.06
255.892	295.06
256.124	312.06
256.357	306.06
256.59	319.06
256.823	325.06
257.056	312.06
257.289	305.06
257.521	320.06
257.754	328.06
257.987	307.06
258.22	322.06
258.452	338.06
258.685	329.06
258.918	333.06
259.151	345.06
259.383	338.06
259.616	351.06
259.849	357.06
260.081	346.06
260.314	356.06
260.547	350.06
260.779	355.06
261.012	362.06
261.244	353.06
261.477	351.06
261.71	350.06
261.942	360.06
262.175	361.06
262.407	357.06
262.64	367.06
262.872	368.06
263.105	375.06
263.337	364.06
263.57	367.06
263.802	363.06
264.035	363.06
264.267	379.06
264.499	395.06
264.732	397.06
264.964	374.06
265.197	377.06
265.429	399.06
265.661	395.06
265.894	397.06
266.126	393.06
266.358	398.06
266.591	412.06
266.823	390.06
267.055	398.06
267.287	389.06
267.52	386.06
267.752	402.06
267.984	385.06
268.216	416.06
268.448	414.06
268.681	397.06
268.913	402.06
269.145	392.06
269.377	413.06
269.609	408.06
269.841	407.06
270.073	398.06
270.306	417.06
270.538	396.06
270.77	391.06
271.002	427.06
271.234	412.06
271.466	400.06
271.698	420.06
271.93	449.06
272.162	412.06
272.394	414.06
272.626	429.06
272.858	424.06
273.09	425.06
273.322	437.06
273.553	440.06
273.785	438.06
274.017	436.06
274.249	420.06
274.481	447.06
274.713	437.06
274.945	435.06
275.176	430.06
275.408	440.06
275.64	442.06
275.872	430.06
276.104	463.06
276.335	463.06
276.567	454.06
276.799	461.06
277.031	480.06
277.262	450.06
277.494	463.06
277.726	457.06
277.957	475.06
278.189	482.06
278.421	441.06
278.652	474.06
278.884	475.06
279.115	473.06
279.347	469.06
279.579	466.06
279.81	452.06
280.042	457.06
280.273	479.06
280.505	474.06
280.736	480.06
280.968	459.06
281.199	480.06
281.431	481.06
281.662	506.06
281.894	519.06
282.125	495.06
282.356	506.06
282.588	514.06
282.819	493.06
283.051	477.06
283.282	502.06
283.513	508.06
283.745	496.06
283.976	500.06
284.207	497.06
284.439	504.06
284.67	504.06
284.901	506.06
285.132	529.06
285.364	510.06
285.595	492.06
285.826	487.06
286.057	521.06
286.288	506.06
286.52	503.06
286.751	519.06
286.982	509.06
287.213	513.06
287.444	531.06
287.675	542.06
287.906	540.06
288.138	542.06
288.369	519.06
288.6	545.06
288.831	512.06
289.062	537.06
289.293	534.06
289.524	529.06
289.755	544.06
289.986	536.06
290.217	536.06
290.448	545.06
290.679	548.06
290.91	545.06
291.141	521.06
291.371	509.06
291.602	553.06
291.833	535.06
292.064	552.06
292.295	506.06
292.526	543.06
292.757	531.06
292.987	534.06
293.218	535.06
293.449	530.06
293.68	536.06
293.91	540.06
294.141	549.06
294.372	534.06
294.603	551.06
294.833	548.06
295.064	555.06
295.295	564.06
295.525	539.06
295.756	557.06
295.987	530.06
296.217	552.06
296.448	565.06
296.679	528.06
296.909	560.06
297.14	561.06
297.37	584.06
297.601	574.06
297.831	557.06
298.062	595.06
298.292	585.06
298.523	576.06
298.753	573.06
298.984	584.06
299.214	583.06
299.445	591.06
299.675	566.06
299.905	573.06
300.136	577.06
300.366	582.06
300.597	602.06
300.827	593.06
301.057	597.06
301.288	606.06
301.518	600.06
301.748	628.06
301.979	620.06
302.209	606.06
302.439	612.06
302.669	618.06
302.9	595.06
303.13	606.06
303.36	621.06
303.59	624.06
303.82	628.06
304.051	621.06
304.281	604.06
304.511	638.06
304.741	600.06
304.971	602.06
305.201	621.06
305.431	621.06
305.661	638.06
305.891	624.06
306.121	656.06
306.352	600.06
306.582	572.06
306.812	610.06
307.042	607.06
307.272	599.06
307.502	598.06
307.731	601.06
307.961	629.06
308.191	604.06
308.421	608.06
308.651	629.06
308.881	593.06
309.111	609.06
309.341	608.06
309.571	619.06
309.8	635.06
310.03	624.06
310.26	639.06
310.49	617.06
310.72	637.06
310.949	624.06
311.179	635.06
311.409	620.06
311.639	638.06
311.868	624.06
312.098	638.06
312.328	636.06
312.557	645.06
312.787	647.06
313.017	658.06
313.246	640.06
313.476	648.06
313.706	683.06
313.935	676.06
314.165	689.06
314.394	663.06
314.624	656.06
314.853	675.06
315.083	694.06
315.312	674.06
315.542	692.06
315.771	682.06
316.001	685.06
316.23	688.06
316.46	684.06
316.689	695.06
316.919	681.06
317.148	685.06
317.377	702.06
317.607	680.06
317.836	660.06
318.065	678.06
318.295	690.06
318.524	699.06
318.753	703.06
318.983	674.06
319.212	680.06
319.441	708.06
319.67	707.06
319.9	701.06
320.129	698.06
320.358	714.06
320.587	721.06
320.816	714.06
321.046	713.06
321.275	695.06
321.504	733.06
321.733	729.06
321.962	728.06
322.191	730.06
322.42	716.06
322.649	736.06
322.878	737.06
323.108	752.06
323.337	760.06
323.566	762.06
323.795	752.06
324.024	747.06
324.253	740.06
324.482	774.06
324.71	748.06
324.939	791.06
325.168	777.06
325.397	772.06
325.626	772.06
325.855	769.06
326.084	790.06
326.313	813.06
326.542	816.06
326.77	817.06
326.999	821.06
327.228	824.06
327.457	817.06
327.686	813.06
327.914	829.06
328.143	802.06
328.372	826.06
328.6	798.06
328.829	819.06
329.058	844.06
329.287	858.06
329.515	850.06
329.744	862.06
329.972	852.06
330.201	863.06
330.43	848.06
330.658	858.06
330.887	874.06
331.115	894.06
331.344	898.06
331.572	895.06
331.801	900.06
332.03	912.06
332.258	929.06
332.486	942.06
332.715	946.06
332.943	976.06
333.172	989.06
333.4	1014.06
333.629	1035.06
333.857	1032.06
334.085	1047.06
334.314	1033.06
334.542	1052.06
334.771	1054.06
334.999	1073.06
335.227	1081.06
335.455	1061.06
335.684	1046.06
335.912	1056.06
336.14	1070.06
336.369	1046.06
336.597	1039.06
336.825	1073.06
337.053	1054.06
337.281	1034.06
337.51	1040.06
337.738	1000.06
337.966	993.06
338.194	997.06
338.422	982.06
338.65	964.06
338.878	949.06
339.106	984.06
339.334	982.06
339.562	939.06
339.79	951.06
340.018	920.06
340.246	931.06
340.474	932.06
340.702	933.06
340.93	935.06
341.158	924.06
341.386	927.06
341.614	943.06
341.842	951.06
342.07	929.06
342.298	919.06
342.526	920.06
342.754	923.06
342.981	929.06
343.209	966.06
343.437	998.06
343.665	1006.06
343.893	1050.06
344.12	1037.06
344.348	1048.06
344.576	1033.06
344.804	1012.06
345.031	1007.06
345.259	986.06
345.487	950.06
345.714	962.06
345.942	966.06
346.17	932.06
346.397	915.06
346.625	902.06
346.853	877.06
347.08	863.06
347.308	894.06
347.535	890.06
347.763	898.06
347.99	889.06
348.218	885.06
348.445	882.06
348.673	887.06
348.9	888.06
349.128	912.06
349.355	890.06
349.583	923.06
349.81	849.06
350.037	888.06
350.265	852.06
350.492	855.06
350.72	861.06
350.947	858.06
351.174	883.06
351.402	906.06
351.629	875.06
351.856	872.06
352.083	858.06
352.311	865.06
352.538	886.06
352.765	880.06
352.992	876.06
353.22	861.06
353.447	830.06
353.674	816.06
353.901	846.06
354.128	846.06
354.355	836.06
354.583	821.06
354.81	834.06
355.037	858.06
355.264	861.06
355.491	834.06
355.718	859.06
355.945	856.06
356.172	872.06
356.399	858.06
356.626	864.06
356.853	907.06
357.08	868.06
357.307	824.06
357.534	851.06
357.761	853.06
357.988	857.06
358.215	865.06
358.441	865.06
358.668	853.06
358.895	869.06
359.122	813.06
359.349	865.06
359.576	868.06
359.802	841.06
360.029	836.06
360.256	872.06
360.483	842.06
360.709	860.06
360.936	856.06
361.163	857.06
361.39	861.06
361.616	849.06
361.843	866.06
362.07	925.06
362.296	892.06
362.523	868.06
362.749	908.06
362.976	846.06
363.203	858.06
363.429	830.06
363.656	864.06
363.882	836.06
364.109	860.06
364.335	845.06
364.562	811.06
364.788	831.06
365.015	875.06
365.241	846.06
365.468	834.06
365.694	831.06
365.92	844.06
366.147	827.06
366.373	852.06
366.599	823.06
366.826	832.06
367.052	822.06
367.278	843.06
367.505	844.06
367.731	846.06
367.957	850.06
368.184	864.06
368.41	832.06
368.636	858.06
368.862	859.06
369.089	869.06
369.315	861.06
369.541	838.06
369.767	894.06
369.993	906.06
370.219	877.06
370.445	857.06
370.672	862.06
370.898	881.06
371.124	889.06
371.35	906.06
371.576	897.06
371.802	902.06
372.028	886.06
372.254	900.06
372.48	870.06
372.706	908.06
372.932	923.06
373.158	917.06
373.384	897.06
373.61	922.06
373.835	926.06
374.061	881.06
374.287	902.06
374.513	906.06
374.739	923.06
374.965	958.06
375.191	928.06
375.416	968.06
375.642	950.06
375.868	939.06
376.094	918.06
376.319	905.06
376.545	898.06
376.771	930.06
376.997	862.06
377.222	893.06
377.448	893.06
377.674	924.06
377.899	889.06
378.125	888.06
378.35	888.06
378.576	888.06
378.802	885.06
379.027	871.06
379.253	898.06
379.478	869.06
379.704	896.06
379.929	884.06
380.155	874.06
380.38	884.06
380.606	862.06
380.831	872.06
381.057	914.06
381.282	873.06
381.507	837.06
381.733	859.06
381.958	905.06
382.184	870.06
382.409	918.06
382.634	929.06
382.86	880.06
383.085	920.06
383.31	939.06
383.535	949.06
383.761	928.06
383.986	956.06
384.211	976.06
384.436	966.06
384.662	966.06
384.887	988.06
385.112	980.06
385.337	992.06
385.562	984.06
385.787	1032.06
386.013	1057.06
386.238	1050.06
386.463	1021.06
386.688	1059.06
386.913	1009.06
387.138	1032.06
387.363	1028.06
387.588	1029.06
387.813	1029.06
388.038	1017.06
388.263	1008.06
388.488	1030.06
388.713	1024.06
388.938	1030.06
389.163	1037.06
389.387	1052.06
389.612	1007.06
389.837	1038.06
390.062	1038.06
390.287	1012.06
390.512	1057.06
390.736	1056.06
390.961	1056.06
391.186	1047.06
391.411	1074.06
391.636	1110.06
391.86	1113.06
392.085	1137.06
392.31	1118.06
392.534	1143.06
392.759	1148.06
392.984	1121.06
393.208	1104.06
393.433	1127.06
393.658	1087.06
393.882	1097.06
394.107	1072.06
394.331	1121.06
394.556	1110.06
394.78	1112.06
395.005	1119.06
395.229	1112.06
395.454	1141.06
395.678	1144.06
395.903	1157.06
396.127	1149.06
396.352	1126.06
396.576	1144.06
396.801	1125.06
397.025	1133.06
397.249	1157.06
397.474	1179.06
397.698	1222.06
397.922	1222.06
398.147	1224.06
398.371	1212.06
398.595	1251.06
398.82	1307.06
399.044	1370.06
399.268	1417.06
399.492	1546.06
399.717	1600.06
399.941	1649.06
400.165	1619.06
400.389	1529.06
400.613	1482.06
400.837	1408.06
401.062	1399.06
401.286	1354.06
401.51	1348.06
401.734	1272.06
401.958	1297.06
402.182	1286.06
402.406	1273.06
402.63	1314.06
402.854	1317.06
403.078	1309.06
403.302	1319.06
403.526	1336.06
403.75	1359.06
403.974	1346.06
404.198	1368.06
404.422	1333.06
404.645	1368.06
404.869	1333.06
405.093	1369.06
405.317	1372.06
405.541	1408.06
405.765	1378.06
405.988	1385.06
406.212	1416.06
406.436	1394.06
406.66	1416.06
406.883	1425.06
407.107	1512.06
407.331	1544.06
407.555	1597.06
407.778	1537.06
408.002	1565.06
408.226	1576.06
408.449	1545.06
408.673	1500.06
408.896	1464.06
409.12	1444.06
409.344	1472.06
409.567	1425.06
409.791	1424.06
410.014	1454.06
410.238	1424.06
410.461	1431.06
410.685	1425.06
410.908	1389.06
411.132	1405.06
411.355	1364.06
411.578	1377.06
411.802	1375.06
412.025	1364.06
412.249	1400.06
412.472	1408.06
412.695	1367.06
412.919	1374.06
413.142	1351.06
413.365	1370.06
413.589	1332.06
413.812	1344.06
414.035	1332.06
414.258	1320.06
414.482	1305.06
414.705	1349.06
414.928	1333.06
415.151	1323.06
415.374	1341.06
415.597	1309.06
415.821	1303.06
416.044	1272.06
416.267	1282.06
416.49	1312.06
416.713	1303.06
416.936	1303.06
417.159	1295.06
417.382	1277.06
417.605	1245.06
417.828	1288.06
418.051	1328.06
418.274	1275.06
418.497	1302.06
418.72	1305.06
418.943	1305.06
419.166	1385.06
419.389	1489.06
419.611	1470.06
419.834	1399.06
420.057	1349.06
420.28	1309.06
420.503	1310.06
420.726	1283.06
420.948	1266.06
421.171	1264.06
421.394	1309.06
421.617	1259.06
421.839	1284.06
422.062	1292.06
422.285	1271.06
422.507	1294.06
422.73	1295.06
422.953	1301.06
423.175	1304.06
423.398	1319.06
423.621	1319.06
423.843	1305.06
424.066	1324.06
424.288	1293.06
424.511	1306.06
424.733	1313.06
424.956	1262.06
425.178	1296.06
425.401	1338.06
425.623	1309.06
425.846	1299.06
426.068	1295.06
426.291	1258.06
426.513	1255.06
426.735	1258.06
426.958	1273.06
427.18	1216.06
427.402	1249.06
427.625	1271.06
427.847	1230.06
428.069	1225.06
428.292	1242.06
428.514	1246.06
428.736	1247.06
428.958	1260.06
429.181	1221.06
429.403	1193.06
429.625	1197.06
429.847	1213.06
430.069	1231.06
430.292	1224.06
430.514	1212.06
430.736	1221.06
430.958	1200.06
431.18	1199.06
431.402	1216.06
431.624	1225.06
431.846	1219.06
432.068	1236.06
432.29	1221.06
432.512	1226.06
432.734	1215.06
432.956	1220.06
433.178	1228.06
433.4	1228.06
433.622	1226.06
433.844	1251.06
434.066	1229.06
434.287	1245.06
434.509	1313.06
434.731	1302.06
434.953	1314.06
435.175	1324.06
435.397	1327.06
435.618	1284.06
435.84	1270.06
436.062	1239.06
436.284	1255.06
436.505	1228.06
436.727	1245.06
436.949	1243.06
437.17	1247.06
437.392	1216.06
437.614	1221.06
437.835	1185.06
438.057	1182.06
438.278	1163.06
438.5	1165.06
438.721	1178.06
438.943	1236.06
439.165	1165.06
439.386	1228.06
439.608	1236.06
439.829	1243.06
440.05	1239.06
440.272	1222.06
440.493	1225.06
440.715	1256.06
440.936	1269.06
441.158	1306.06
441.379	1282.06
441.6	1333.06
441.822	1315.06
442.043	1319.06
442.264	1294.06
442.486	1333.06
442.707	1295.06
442.928	1300.06
443.149	1321.06
443.371	1327.06
443.592	1344.06
443.813	1354.06
444.034	1327.06
444.255	1363.06
444.476	1417.06
444.698	1402.06
444.919	1449.06
445.14	1534.06
445.361	1481.06
445.582	1386.06
445.803	1367.06
446.024	1299.06
446.245	1292.06
446.466	1295.06
446.687	1249.06
446.908	1257.06
447.129	1234.06
447.35	1223.06
447.571	1212.06
447.792	1172.06
448.013	1189.06
448.234	1166.06
448.455	1162.06
448.675	1160.06
448.896	1166.06
449.117	1133.06
449.338	1135.06
449.559	1151.06
449.779	1097.06
450	1144.06
450.221	1154.06
450.442	1122.06
450.662	1143.06
450.883	1144.06
451.104	1156.06
451.324	1153.06
451.545	1158.06
451.766	1162.06
451.986	1122.06
452.207	1132.06
452.428	1110.06
452.648	1115.06
452.869	1102.06
453.089	1086.06
453.31	1101.06
453.53	1087.06
453.751	1098.06
453.971	1112.06
454.192	1112.06
454.412	1037.06
454.633	1074.06
454.853	1075.06
455.073	1093.06
455.294	1088.06
455.514	1048.06
455.734	1077.06
455.955	1080.06
456.175	1118.06
456.395	1091.06
456.616	1053.06
456.836	1087.06
457.056	1053.06
457.276	1016.06
457.497	1081.06
457.717	1092.06
457.937	1101.06
458.157	1095.06
458.377	1104.06
458.598	1148.06
458.818	1128.06
459.038	1172.06
459.258	1193.06
459.478	1223.06
459.698	1277.06
459.918	1280.06
460.138	1317.06
460.358	1326.06
460.578	1338.06
460.798	1408.06
461.018	1423.06
461.238	1410.06
461.458	1406.06
461.678	1403.06
461.898	1441.06
462.118	1437.06
462.338	1470.06
462.558	1531.06
462.777	1564.06
462.997	1626.06
463.217	1690.06
463.437	1695.06
463.657	1634.06
463.876	1624.06
464.096	1649.06
464.316	1553.06
464.536	1558.06
464.755	1502.06
464.975	1470.06
465.195	1430.06
465.414	1361.06
465.634	1306.06
465.854	1276.06
466.073	1280.06
466.293	1208.06
466.512	1231.06
466.732	1220.06
466.951	1191.06
467.171	1180.06
467.391	1194.06
467.61	1178.06
467.829	1157.06
468.049	1196.06
468.268	1144.06
468.488	1156.06
468.707	1145.06
468.927	1149.06
469.146	1176.06
469.365	1157.06
469.585	1159.06
469.804	1205.06
470.023	1188.06
470.243	1174.06
470.462	1210.06
470.681	1176.06
470.901	1242.06
471.12	1215.06
471.339	1201.06
471.558	1169.06
471.777	1197.06
471.997	1179.06
472.216	1179.06
472.435	1158.06
472.654	1142.06
472.873	1132.06
473.092	1135.06
473.311	1128.06
473.53	1160.06
473.749	1118.06
473.968	1138.06
474.187	1138.06
474.406	1119.06
474.625	1165.06
474.844	1146.06
475.063	1141.06
475.282	1156.06
475.501	1148.06
475.72	1142.06
475.939	1178.06
476.158	1153.06
476.377	1217.06
476.596	1204.06
476.814	1180.06
477.033	1181.06
477.252	1210.06
477.471	1235.06
477.69	1238.06
477.908	1302.06
478.127	1304.06
478.346	1286.06
478.564	1355.06
478.783	1350.06
479.002	1390.06
479.22	1389.06
479.439	1379.06
479.658	1392.06
479.876	1396.06
480.095	1386.06
480.313	1399.06
480.532	1408.06
480.751	1419.06
480.969	1376.06
481.188	1387.06
481.406	1329.06
481.624	1343.06
481.843	1294.06
482.061	1346.06
482.28	1320.06
482.498	1342.06
482.717	1284.06
482.935	1302.06
483.153	1298.06
483.372	1296.06
483.59	1311.06
483.808	1335.06
484.027	1335.06
484.245	1292.06
484.463	1338.06
484.681	1306.06
484.9	1351.06
485.118	1334.06
485.336	1324.06
485.554	1362.06
485.772	1326.06
485.99	1349.06
486.209	1346.06
486.427	1342.06
486.645	1401.06
486.863	1354.06
487.081	1347.06
487.299	1360.06
487.517	1381.06
487.735	1374.06
487.953	1381.06
488.171	1375.06
488.389	1386.06
488.607	1347.06
488.825	1339.06
489.043	1296.06
489.261	1326.06
489.479	1344.06
489.696	1354.06
489.914	1369.06
490.132	1372.06
490.35	1392.06
490.568	1349.06
490.786	1371.06
491.003	1386.06
491.221	1416.06
491.439	1406.06
491.657	1385.06
491.874	1408.06
492.092	1455.06
492.31	1449.06
492.527	1454.06
492.745	1457.06
492.963	1425.06
493.18	1446.06
493.398	1424.06
493.615	1460.06
493.833	1444.06
494.05	1462.06
494.268	1480.06
494.485	1482.06
494.703	1482.06
494.92	1484.06
495.138	1496.06
495.355	1524.06
495.573	1537.06
495.79	1515.06
496.008	1590.06
496.225	1560.06
496.442	1575.06
496.66	1595.06
496.877	1590.06
497.094	1660.06
497.312	1667.06
497.529	1705.06
497.746	1735.06
497.963	1794.06
498.181	1881.06
498.398	1860.06
498.615	1986.06
498.832	2074.06
499.049	2166.06
499.267	2312.06
499.484	2423.06
499.701	2609.06
499.918	2754.06
500.135	2971.06
500.352	3141.06
500.569	3229.06
500.786	3163.06
501.003	3115.06
501.22	2950.06
501.437	2761.06
501.654	2575.06
501.871	2448.06
502.088	2294.06
502.305	2198.06
502.522	2086.06
502.739	2034.06
502.956	1947.06
503.172	1867.06
503.389	1826.06
503.606	1758.06
503.823	1744.06
504.04	1683.06
504.256	1698.06
504.473	1678.06
504.69	1637.06
504.907	1644.06
505.123	1594.06
505.34	1544.06
505.557	1469.06
505.773	1490.06
505.99	1440.06
506.207	1380.06
506.423	1422.06
506.64	1382.06
506.856	1367.06
507.073	1351.06
507.289	1334.06
507.506	1300.06
507.722	1317.06
507.939	1291.06
508.155	1292.06
508.372	1304.06
508.588	1259.06
508.805	1270.06
509.021	1258.06
509.238	1204.06
509.454	1255.06
509.67	1208.06
509.887	1196.06
510.103	1205.06
510.319	1201.06
510.536	1199.06
510.752	1175.06
510.968	1191.06
511.184	1177.06
511.401	1173.06
511.617	1190.06
511.833	1156.06
512.049	1177.06
512.265	1163.06
512.481	1198.06
512.698	1165.06
512.914	1191.06
513.13	1223.06
513.346	1196.06
513.562	1200.06
513.778	1164.06
513.994	1200.06
514.21	1198.06
514.426	1189.06
514.642	1206.06
514.858	1218.06
515.074	1221.06
515.29	1260.06
515.506	1225.06
515.721	1269.06
515.937	1294.06
516.153	1289.06
516.369	1324.06
516.585	1356.06
516.801	1369.06
517.016	1401.06
517.232	1472.06
517.448	1446.06
517.664	1487.06
517.879	1452.06
518.095	1456.06
518.311	1453.06
518.527	1420.06
518.742	1384.06
518.958	1374.06
519.173	1340.06
519.389	1307.06
519.605	1262.06
519.82	1235.06
520.036	1233.06
520.251	1215.06
520.467	1240.06
520.682	1200.06
520.898	1180.06
521.113	1163.06
521.329	1164.06
521.544	1135.06
521.76	1134.06
521.975	1140.06
522.19	1140.06
522.406	1140.06
522.621	1140.06
522.836	1110.06
523.052	1116.06
523.267	1110.06
523.482	1096.06
523.698	1083.06
523.913	1083.06
524.128	1103.06
524.343	1088.06
524.559	1097.06
524.774	1092.06
524.989	1083.06
525.204	1085.06
525.419	1098.06
525.634	1100.06
525.849	1066.06
526.064	1088.06
526.28	1090.06
526.495	1039.06
526.71	1099.06
526.925	1044.06
527.14	1034.06
527.355	1068.06
527.57	1044.06
527.785	1040.06
527.999	1032.06
528.214	1049.06
528.429	1046.06
528.644	1073.06
528.859	1037.06
529.074	1074.06
529.289	1057.06
529.503	1073.06
529.718	1051.06
529.933	1055.06
530.148	1047.06
530.363	1014.06
530.577	1037.06
530.792	1035.06
531.007	1048.06
531.221	1013.06
531.436	1066.06
531.651	1037.06
531.865	1032.06
532.08	1016.06
532.295	1043.06
532.509	1049.06
532.724	1016.06
532.938	1025.06
533.153	1053.06
533.367	1020.06
533.582	1042.06
533.796	1044.06
534.011	1018.06
534.225	1022.06
534.44	1022.06
534.654	1008.06
534.868	1029.06
535.083	1030.06
535.297	1008.06
535.511	1038.06
535.726	1012.06
535.94	965.06
536.154	986.06
536.369	968.06
536.583	977.06
536.797	950.06
537.011	961.06
537.225	955.06
537.44	991.06
537.654	995.06
537.868	961.06
538.082	976.06
538.296	973.06
538.51	950.06
538.724	969.06
538.938	951.06
539.153	951.06
539.367	965.06
539.581	951.06
539.795	959.06
540.009	958.06
540.222	937.06
540.436	952.06
540.65	938.06
540.864	926.06
541.078	956.06
541.292	972.06
541.506	962.06
541.72	958.06
541.934	955.06
542.147	954.06
542.361	945.06
542.575	963.06
542.789	939.06
543.002	918.06
543.216	935.06
543.43	966.06
543.644	945.06
543.857	924.06
544.071	942.06
544.285	948.06
544.498	933.06
544.712	955.06
544.925	960.06
545.139	999.06
545.352	979.06
545.566	992.06
545.779	958.06
545.993	946.06
546.206	969.06
546.42	940.06
546.633	997.06
546.847	960.06
547.06	950.06
547.274	965.06
547.487	981.06
547.7	949.06
547.914	971.06
548.127	973.06
548.34	973.06
548.554	966.06
548.767	996.06
548.98	984.06
549.193	981.06
549.407	958.06
549.62	977.06
549.833	989.06
550.046	955.06
550.259	972.06
550.473	961.06
550.686	982.06
550.899	961.06
551.112	969.06
551.325	960.06
551.538	968.06
551.751	968.06
551.964	954.06
552.177	960.06
552.39	977.06
552.603	1006.06
552.816	975.06
553.029	997.06
553.242	1000.06
553.455	1010.06
553.667	974.06
553.88	1000.06
554.093	988.06
554.306	930.06
554.519	960.06
554.732	928.06
554.944	928.06
555.157	920.06
555.37	915.06
555.583	904.06
555.795	860.06
556.008	858.06
556.221	852.06
556.433	857.06
556.646	850.06
556.859	831.06
557.071	848.06
557.284	829.06
557.496	824.06
557.709	856.06
557.921	826.06
558.134	831.06
558.346	826.06
558.559	801.06
558.771	822.06
558.984	814.06
559.196	804.06
559.409	813.06
559.621	810.06
559.833	804.06
560.046	790.06
560.258	817.06
560.47	800.06
560.683	772.06
560.895	815.06
561.107	809.06
561.32	785.06
561.532	785.06
561.744	810.06
561.956	775.06
562.168	815.06
562.381	796.06
562.593	810.06
562.805	816.06
563.017	803.06
563.229	812.06
563.441	833.06
563.653	814.06
563.865	834.06
564.077	830.06
564.289	843.06
564.501	838.06
564.713	853.06
564.925	860.06
565.137	888.06
565.349	900.06
565.561	937.06
565.773	927.06
565.985	985.06
566.197	1002.06
566.408	1028.06
566.62	1047.06
566.832	1110.06
567.044	1117.06
567.255	1163.06
567.467	1159.06
567.679	1181.06
567.891	1184.06
568.102	1164.06
568.314	1138.06
568.526	1086.06
568.737	1053.06
568.949	970.06
569.161	939.06
569.372	897.06
569.584	886.06
569.795	864.06
570.007	856.06
570.218	824.06
570.43	838.06
570.641	802.06
570.853	770.06
571.064	801.06
571.276	765.06
571.487	737.06
571.698	726.06
571.91	736.06
572.121	727.06
572.333	714.06
572.544	709.06
572.755	665.06
572.966	685.06
573.178	687.06
573.389	668.06
573.6	649.06
573.811	648.06
574.023	658.06
574.234	640.06
574.445	632.06
574.656	629.06
574.867	612.06
575.078	640.06
575.289	634.06
575.501	632.06
575.712	636.06
575.923	622.06
576.134	628.06
576.345	613.06
576.556	620.06
576.767	603.06
576.978	631.06
577.188	605.06
577.399	588.06
577.61	578.06
577.821	607.06
578.032	597.06
578.243	590.06
578.454	585.06
578.665	584.06
578.875	569.06
579.086	591.06
579.297	555.06
579.508	581.06
579.718	566.06
579.929	545.06
580.14	573.06
580.35	539.06
580.561	556.06
580.772	569.06
580.982	566.06
581.193	548.06
581.403	544.06
581.614	552.06
581.825	557.06
582.035	552.06
582.246	557.06
582.456	567.06
582.667	531.06
582.877	557.06
583.087	519.06
583.298	537.06
583.508	522.06
583.719	543.06
583.929	520.06
584.139	522.06
584.35	534.06
584.56	546.06
584.77	505.06
584.981	541.06
585.191	522.06
585.401	522.06
585.611	529.06
585.821	550.06
586.032	506.06
586.242	538.06
586.452	522.06
586.662	492.06
586.872	520.06
587.082	510.06
587.292	529.06
587.502	513.06
587.713	486.06
587.923	518.06
588.133	520.06
588.343	525.06
588.553	520.06
588.762	516.06
588.972	501.06
589.182	544.06
589.392	512.06
589.602	508.06
589.812	527.06
590.022	521.06
590.232	488.06
590.441	549.06
590.651	528.06
590.861	516.06
591.071	534.06
591.281	540.06
591.49	517.06
591.7	517.06
591.91	546.06
592.119	557.06
592.329	546.06
592.539	548.06
592.748	549.06
592.958	551.06
593.167	566.06
593.377	591.06
593.587	608.06
593.796	591.06
594.006	583.06
594.215	592.06
594.424	565.06
594.634	564.06
594.843	558.06
595.053	537.06
595.262	534.06
595.472	543.06
595.681	508.06
595.89	540.06
596.1	522.06
596.309	501.06
596.518	488.06
596.727	480.06
596.937	480.06
597.146	483.06
597.355	466.06
597.564	491.06
597.774	460.06
597.983	453.06
598.192	452.06
598.401	453.06
598.61	441.06
598.819	456.06
599.028	446.06
599.237	422.06
599.446	431.06
599.655	440.06
599.864	430.06
600.073	422.06
600.282	444.06
600.491	428.06
600.7	415.06
600.909	420.06
601.118	416.06
601.327	411.06
601.536	411.06
601.745	424.06
601.953	428.06
602.162	436.06
602.371	422.06
602.58	414.06
602.789	417.06
602.997	405.06
603.206	390.06
603.415	389.06
603.623	411.06
603.832	413.06
604.041	391.06
604.249	384.06
604.458	430.06
604.666	405.06
604.875	390.06
605.084	380.06
605.292	386.06
605.501	406.06
605.709	405.06
605.918	376.06
606.126	396.06
606.334	414.06
606.543	408.06
606.751	414.06
606.96	374.06
607.168	391.06
607.376	388.06
607.585	373.06
607.793	387.06
608.001	384.06
608.21	388.06
608.418	391.06
608.626	378.06
608.834	369.06
609.043	380.06
609.251	376.06
609.459	364.06
609.667	358.06
609.875	383.06
610.083	382.06
610.291	384.06
610.499	380.06
610.707	376.06
610.916	374.06
611.124	377.06
611.332	372.06
611.54	357.06
611.748	370.06
611.955	379.06
612.163	396.06
612.371	355.06
612.579	365.06
612.787	373.06
612.995	353.06
613.203	363.06
613.411	355.06
613.618	361.06
613.826	362.06
614.034	358.06
614.242	365.06
614.449	347.06
614.657	367.06
614.865	354.06
615.072	339.06
615.28	349.06
615.488	361.06
615.695	366.06
615.903	362.06
616.111	368.06
616.318	367.06
616.526	356.06
616.733	344.06
616.941	349.06
617.148	337.06
617.356	351.06
617.563	352.06
617.771	343.06
617.978	356.06
618.185	342.06
618.393	355.06
618.6	349.06
618.807	356.06
619.015	346.06
619.222	334.06
619.429	344.06
619.637	350.06
619.844	356.06
620.051	327.06
620.258	336.06
620.466	318.06
620.673	336.06
620.88	317.06
621.087	328.06
621.294	328.06
621.501	334.06
621.708	324.06
621.915	312.06
622.122	337.06
622.329	324.06
622.536	346.06
622.743	327.06
622.95	316.06
623.157	323.06
623.364	315.06
623.571	319.06
623.778	327.06
623.985	344.06
624.192	324.06
624.399	332.06
624.606	325.06
624.812	304.06
625.019	312.06
625.226	314.06
625.433	318.06
625.639	317.06
625.846	285.06
626.053	300.06
626.259	309.06
626.466	299.06
626.673	292.06
626.879	297.06
627.086	309.06
627.293	314.06
627.499	318.06
627.706	300.06
627.912	308.06
628.119	279.06
628.325	303.06
628.532	307.06
628.738	277.06
628.945	297.06
629.151	301.06
629.357	294.06
629.564	287.06
629.77	292.06
629.976	290.06
630.183	275.06
630.389	297.06
630.595	270.06
630.802	272.06
631.008	282.06
631.214	277.06
631.42	278.06
631.627	295.06
631.833	278.06
632.039	284.06
632.245	271.06
632.451	269.06
632.657	262.06
632.863	274.06
633.069	264.06
633.275	266.06
633.481	270.06
633.688	273.06
633.893	265.06
634.099	273.06
634.305	278.06
634.511	260.06
634.717	261.06
634.923	260.06
635.129	254.06
635.335	264.06
635.541	251.06
635.747	262.06
635.952	278.06
636.158	262.06
636.364	263.06
636.57	262.06
636.775	248.06
636.981	263.06
637.187	235.06
637.392	256.06
637.598	241.06
637.804	251.06
638.009	252.06
638.215	251.06
638.421	255.06
638.626	244.06
638.832	253.06
639.037	260.06
639.243	239.06
639.448	268.06
639.654	248.06
639.859	264.06
640.065	237.06
640.27	270.06
640.475	235.06
640.681	236.06
640.886	240.06
641.091	241.06
641.297	227.06
641.502	248.06
641.707	228.06
641.913	252.06
642.118	238.06
642.323	220.06
642.528	236.06
642.733	233.06
642.939	239.06
643.144	245.06
643.349	238.06
643.554	229.06
643.759	222.06
643.964	217.06
644.169	234.06
644.374	236.06
644.579	222.06
644.784	234.06
644.989	244.06
645.194	228.06
645.399	228.06
645.604	212.06
645.809	228.06
646.014	238.06
646.219	229.06
646.423	246.06
646.628	225.06
646.833	234.06
647.038	216.06
647.243	234.06
647.447	258.06
647.652	230.06
647.857	246.06
648.062	262.06
648.266	239.06
648.471	241.06
648.676	250.06
648.88	232.06
649.085	223.06
649.289	222.06
649.494	225.06
649.698	209.06
649.903	207.06
650.107	204.06
650.312	225.06
650.516	213.06
650.721	205.06
650.925	220.06
651.13	198.06
651.334	208.06
651.539	208.06
651.743	214.06
651.947	216.06
652.152	211.06
652.356	208.06
652.56	188.06
652.764	192.06
652.969	194.06
653.173	193.06
653.377	185.06
653.581	195.06
653.785	183.06
653.99	183.06
654.194	169.06
654.398	189.06
654.602	183.06
654.806	173.06
655.01	180.06
655.214	162.06
655.418	154.06
655.622	161.06
655.826	155.06
656.03	164.06
656.234	178.06
656.438	163.06
656.642	163.06
656.846	153.06
657.049	160.06
657.253	155.06
657.457	152.06
657.661	136.06
657.865	118.06
658.068	143.06
658.272	134.06
658.476	132.06
658.68	124.06
658.883	130.06
659.087	137.06
659.291	125.06
659.494	116.06
659.698	119.06
659.901	126.06
660.105	105.06
660.309	122.06
660.512	110.06
660.716	114.06
660.919	107.06
661.123	92.06
661.326	111.06
661.53	91.06
661.733	94.06
661.936	102.06
662.14	97.06
662.343	101.06
662.546	94.06
662.75	98.06
662.953	99.06
663.156	89.06
663.36	101.06
663.563	78.06
663.766	98.06
663.969	91.06
664.173	101.06
664.376	93.06
664.579	83.06
664.782	82.06
664.985	76.06
665.188	98.06
665.391	88.06
665.594	79.06
665.797	84.06
666	78.06
666.203	99.06
666.406	88.06
666.609	87.06
666.812	95.06
667.015	90.06
667.218	87.06
667.421	89.06
667.624	108.06
667.827	80.06
668.03	94.06
668.232	92.06
668.435	74.06
668.638	91.06
668.841	80.06
669.043	95.06
669.246	83.06
669.449	93.06
669.651	80.06
669.854	88.06
670.057	88.06
670.259	83.06
670.462	88.06
670.665	89.06
670.867	79.06
671.07	93.06
671.272	80.06
671.475	88.06
671.677	88.06
671.88	74.06
672.082	85.06
672.284	89.06
672.487	92.06
672.689	78.06
672.892	92.06
