Data from Ni(NO3)2@0.125M.TitratingCurve.Agarose3%dH2O.NegLispCup.LampEnergy10.LIBS07252019_HRD10591_18-11-29-568.txt Node
Date: Thu Jul 25 18:11:29 EDT 2019
User: cochatt
Spectrometer: HR+D1059
Trigger mode: 1
Integration Time (sec): 1.000000E-1
Scans to average: 1
Electric dark correction enabled: true
Nonlinearity correction enabled: false
Boxcar width: 0
XAxis mode: Wavelengths
Number of Pixels in Spectrum: 2048
>>>>>Begin Spectral Data<<<<<
223.165	-22.56
223.4	-22.56
223.635	-22.56
223.869	-11.56
224.104	-7.56
224.338	-19.56
224.573	2.44
224.808	-2.56
225.042	-5.56
225.277	-5.56
225.511	4.44
225.746	-5.56
225.98	-13.56
226.215	5.44
226.449	12.44
226.683	21.44
226.918	15.44
227.152	32.44
227.387	50.44
227.621	36.44
227.856	36.44
228.09	53.44
228.324	38.44
228.559	57.44
228.793	83.44
229.027	132.44
229.262	125.44
229.496	125.44
229.73	123.44
229.964	129.44
230.199	133.44
230.433	157.44
230.667	165.44
230.901	142.44
231.136	136.44
231.37	152.44
231.604	163.44
231.838	159.44
232.072	160.44
232.306	165.44
232.541	171.44
232.775	168.44
233.009	176.44
233.243	181.44
233.477	169.44
233.711	180.44
233.945	166.44
234.179	147.44
234.413	184.44
234.647	164.44
234.881	166.44
235.115	171.44
235.349	172.44
235.583	158.44
235.817	164.44
236.051	186.44
236.285	178.44
236.519	194.44
236.753	180.44
236.987	180.44
237.221	190.44
237.455	184.44
237.689	189.44
237.922	198.44
238.156	206.44
238.39	196.44
238.624	211.44
238.858	215.44
239.091	200.44
239.325	196.44
239.559	190.44
239.793	201.44
240.027	213.44
240.26	214.44
240.494	210.44
240.728	204.44
240.961	211.44
241.195	225.44
241.429	222.44
241.662	240.44
241.896	233.44
242.13	238.44
242.363	226.44
242.597	236.44
242.83	224.44
243.064	229.44
243.298	255.44
243.531	239.44
243.765	250.44
243.998	266.44
244.232	245.44
244.465	243.44
244.699	249.44
244.932	260.44
245.166	253.44
245.399	245.44
245.633	240.44
245.866	257.44
246.099	262.44
246.333	259.44
246.566	241.44
246.8	266.44
247.033	268.44
247.266	269.44
247.5	249.44
247.733	288.44
247.966	274.44
248.2	274.44
248.433	281.44
248.666	292.44
248.899	289.44
249.133	270.44
249.366	292.44
249.599	294.44
249.832	293.44
250.066	295.44
250.299	294.44
250.532	304.44
250.765	294.44
250.998	288.44
251.231	312.44
251.465	316.44
251.698	321.44
251.931	316.44
252.164	322.44
252.397	334.44
252.63	305.44
252.863	323.44
253.096	347.44
253.329	337.44
253.562	332.44
253.795	325.44
254.028	320.44
254.261	330.44
254.494	334.44
254.727	354.44
254.96	343.44
255.193	352.44
255.426	339.44
255.659	348.44
255.892	367.44
256.124	360.44
256.357	358.44
256.59	359.44
256.823	336.44
257.056	354.44
257.289	360.44
257.521	354.44
257.754	362.44
257.987	369.44
258.22	370.44
258.452	374.44
258.685	367.44
258.918	380.44
259.151	370.44
259.383	380.44
259.616	376.44
259.849	389.44
260.081	380.44
260.314	386.44
260.547	380.44
260.779	413.44
261.012	394.44
261.244	387.44
261.477	383.44
261.71	385.44
261.942	370.44
262.175	382.44
262.407	401.44
262.64	393.44
262.872	390.44
263.105	399.44
263.337	397.44
263.57	410.44
263.802	405.44
264.035	406.44
264.267	414.44
264.499	404.44
264.732	423.44
264.964	427.44
265.197	436.44
265.429	443.44
265.661	421.44
265.894	445.44
266.126	455.44
266.358	449.44
266.591	447.44
266.823	445.44
267.055	433.44
267.287	433.44
267.52	464.44
267.752	447.44
267.984	451.44
268.216	471.44
268.448	456.44
268.681	466.44
268.913	447.44
269.145	446.44
269.377	479.44
269.609	468.44
269.841	473.44
270.073	453.44
270.306	479.44
270.538	465.44
270.77	482.44
271.002	445.44
271.234	470.44
271.466	466.44
271.698	470.44
271.93	483.44
272.162	501.44
272.394	476.44
272.626	486.44
272.858	474.44
273.09	465.44
273.322	502.44
273.553	478.44
273.785	491.44
274.017	500.44
274.249	504.44
274.481	518.44
274.713	510.44
274.945	489.44
275.176	514.44
275.408	517.44
275.64	514.44
275.872	528.44
276.104	518.44
276.335	517.44
276.567	523.44
276.799	529.44
277.031	541.44
277.262	531.44
277.494	526.44
277.726	530.44
277.957	564.44
278.189	539.44
278.421	548.44
278.652	540.44
278.884	541.44
279.115	554.44
279.347	561.44
279.579	554.44
279.81	560.44
280.042	560.44
280.273	577.44
280.505	532.44
280.736	571.44
280.968	588.44
281.199	562.44
281.431	580.44
281.662	558.44
281.894	570.44
282.125	592.44
282.356	574.44
282.588	598.44
282.819	593.44
283.051	604.44
283.282	567.44
283.513	599.44
283.745	606.44
283.976	592.44
284.207	614.44
284.439	600.44
284.67	618.44
284.901	608.44
285.132	608.44
285.364	611.44
285.595	612.44
285.826	614.44
286.057	630.44
286.288	620.44
286.52	621.44
286.751	626.44
286.982	648.44
287.213	630.44
287.444	606.44
287.675	608.44
287.906	611.44
288.138	642.44
288.369	646.44
288.6	645.44
288.831	646.44
289.062	638.44
289.293	650.44
289.524	638.44
289.755	663.44
289.986	649.44
290.217	658.44
290.448	674.44
290.679	683.44
290.91	667.44
291.141	655.44
291.371	644.44
291.602	665.44
291.833	624.44
292.064	653.44
292.295	632.44
292.526	652.44
292.757	651.44
292.987	664.44
293.218	656.44
293.449	683.44
293.68	668.44
293.91	637.44
294.141	676.44
294.372	658.44
294.603	676.44
294.833	660.44
295.064	663.44
295.295	658.44
295.525	644.44
295.756	661.44
295.987	683.44
296.217	678.44
296.448	692.44
296.679	680.44
296.909	692.44
297.14	713.44
297.37	708.44
297.601	692.44
297.831	727.44
298.062	715.44
298.292	703.44
298.523	722.44
298.753	729.44
298.984	707.44
299.214	736.44
299.445	714.44
299.675	702.44
299.905	736.44
300.136	756.44
300.366	743.44
300.597	743.44
300.827	738.44
301.057	744.44
301.288	762.44
301.518	752.44
301.748	760.44
301.979	754.44
302.209	777.44
302.439	767.44
302.669	744.44
302.9	750.44
303.13	744.44
303.36	744.44
303.59	739.44
303.82	763.44
304.051	764.44
304.281	759.44
304.511	759.44
304.741	750.44
304.971	758.44
305.201	742.44
305.431	728.44
305.661	768.44
305.891	731.44
306.121	730.44
306.352	718.44
306.582	742.44
306.812	740.44
307.042	755.44
307.272	718.44
307.502	756.44
307.731	765.44
307.961	738.44
308.191	742.44
308.421	733.44
308.651	733.44
308.881	714.44
309.111	743.44
309.341	722.44
309.571	736.44
309.8	755.44
310.03	759.44
310.26	743.44
310.49	748.44
310.72	747.44
310.949	745.44
311.179	760.44
311.409	733.44
311.639	766.44
311.868	766.44
312.098	796.44
312.328	784.44
312.557	808.44
312.787	779.44
313.017	800.44
313.246	790.44
313.476	816.44
313.706	808.44
313.935	826.44
314.165	796.44
314.394	812.44
314.624	822.44
314.853	788.44
315.083	830.44
315.312	799.44
315.542	806.44
315.771	778.44
316.001	795.44
316.23	791.44
316.46	791.44
316.689	792.44
316.919	786.44
317.148	822.44
317.377	793.44
317.607	794.44
317.836	789.44
318.065	782.44
318.295	780.44
318.524	784.44
318.753	776.44
318.983	819.44
319.212	792.44
319.441	796.44
319.67	781.44
319.9	787.44
320.129	793.44
320.358	807.44
320.587	791.44
320.816	805.44
321.046	819.44
321.275	808.44
321.504	812.44
321.733	787.44
321.962	796.44
322.191	811.44
322.42	839.44
322.649	815.44
322.878	823.44
323.108	811.44
323.337	805.44
323.566	839.44
323.795	820.44
324.024	836.44
324.253	833.44
324.482	841.44
324.71	827.44
324.939	843.44
325.168	830.44
325.397	842.44
325.626	845.44
325.855	825.44
326.084	849.44
326.313	878.44
326.542	867.44
326.77	896.44
326.999	869.44
327.228	847.44
327.457	897.44
327.686	893.44
327.914	886.44
328.143	889.44
328.372	880.44
328.6	888.44
328.829	888.44
329.058	877.44
329.287	884.44
329.515	908.44
329.744	899.44
329.972	882.44
330.201	894.44
330.43	900.44
330.658	895.44
330.887	918.44
331.115	917.44
331.344	929.44
331.572	942.44
331.801	962.44
332.03	986.44
332.258	1009.44
332.486	1036.44
332.715	1082.44
332.943	1124.44
333.172	1176.44
333.4	1182.44
333.629	1209.44
333.857	1226.44
334.085	1229.44
334.314	1170.44
334.542	1177.44
334.771	1157.44
334.999	1142.44
335.227	1126.44
335.455	1140.44
335.684	1066.44
335.912	1113.44
336.14	1068.44
336.369	1081.44
336.597	1083.44
336.825	1080.44
337.053	1053.44
337.281	1080.44
337.51	1001.44
337.738	1010.44
337.966	988.44
338.194	992.44
338.422	972.44
338.65	948.44
338.878	981.44
339.106	968.44
339.334	977.44
339.562	961.44
339.79	965.44
340.018	947.44
340.246	906.44
340.474	939.44
340.702	939.44
340.93	915.44
341.158	937.44
341.386	925.44
341.614	953.44
341.842	919.44
342.07	925.44
342.298	912.44
342.526	902.44
342.754	905.44
342.981	937.44
343.209	956.44
343.437	1000.44
343.665	1061.44
343.893	1166.44
344.12	1167.44
344.348	1101.44
344.576	1050.44
344.804	1016.44
345.031	978.44
345.259	944.44
345.487	928.44
345.714	920.44
345.942	930.44
346.17	897.44
346.397	898.44
346.625	896.44
346.853	893.44
347.08	870.44
347.308	897.44
347.535	908.44
347.763	900.44
347.99	894.44
348.218	892.44
348.445	888.44
348.673	892.44
348.9	891.44
349.128	891.44
349.355	868.44
349.583	871.44
349.81	890.44
350.037	870.44
350.265	863.44
350.492	868.44
350.72	875.44
350.947	857.44
351.174	880.44
351.402	875.44
351.629	871.44
351.856	884.44
352.083	864.44
352.311	871.44
352.538	852.44
352.765	819.44
352.992	855.44
353.22	846.44
353.447	861.44
353.674	860.44
353.901	852.44
354.128	867.44
354.355	856.44
354.583	868.44
354.81	844.44
355.037	900.44
355.264	852.44
355.491	885.44
355.718	876.44
355.945	850.44
356.172	870.44
356.399	892.44
356.626	880.44
356.853	860.44
357.08	872.44
357.307	853.44
357.534	869.44
357.761	863.44
357.988	886.44
358.215	852.44
358.441	859.44
358.668	860.44
358.895	873.44
359.122	862.44
359.349	892.44
359.576	878.44
359.802	829.44
360.029	857.44
360.256	862.44
360.483	872.44
360.709	854.44
360.936	864.44
361.163	880.44
361.39	874.44
361.616	869.44
361.843	873.44
362.07	882.44
362.296	859.44
362.523	843.44
362.749	869.44
362.976	880.44
363.203	844.44
363.429	839.44
363.656	840.44
363.882	854.44
364.109	864.44
364.335	848.44
364.562	854.44
364.788	873.44
365.015	866.44
365.241	877.44
365.468	864.44
365.694	836.44
365.92	870.44
366.147	840.44
366.373	850.44
366.599	875.44
366.826	850.44
367.052	855.44
367.278	871.44
367.505	892.44
367.731	874.44
367.957	844.44
368.184	869.44
368.41	871.44
368.636	884.44
368.862	890.44
369.089	884.44
369.315	908.44
369.541	898.44
369.767	905.44
369.993	880.44
370.219	891.44
370.445	893.44
370.672	933.44
370.898	910.44
371.124	940.44
371.35	920.44
371.576	939.44
371.802	930.44
372.028	938.44
372.254	945.44
372.48	948.44
372.706	989.44
372.932	997.44
373.158	984.44
373.384	955.44
373.61	936.44
373.835	926.44
374.061	948.44
374.287	956.44
374.513	972.44
374.739	1010.44
374.965	1003.44
375.191	1035.44
375.416	1050.44
375.642	987.44
375.868	994.44
376.094	994.44
376.319	958.44
376.545	984.44
376.771	977.44
376.997	969.44
377.222	935.44
377.448	938.44
377.674	924.44
377.899	916.44
378.125	928.44
378.35	941.44
378.576	953.44
378.802	923.44
379.027	954.44
379.253	930.44
379.478	956.44
379.704	918.44
379.929	925.44
380.155	900.44
380.38	941.44
380.606	925.44
380.831	918.44
381.057	947.44
381.282	956.44
381.507	950.44
381.733	952.44
381.958	940.44
382.184	930.44
382.409	997.44
382.634	981.44
382.86	997.44
383.085	1008.44
383.31	993.44
383.535	1040.44
383.761	1072.44
383.986	1086.44
384.211	1128.44
384.436	1152.44
384.662	1144.44
384.887	1141.44
385.112	1158.44
385.337	1161.44
385.562	1134.44
385.787	1204.44
386.013	1172.44
386.238	1133.44
386.463	1148.44
386.688	1145.44
386.913	1113.44
387.138	1108.44
387.363	1117.44
387.588	1114.44
387.813	1140.44
388.038	1125.44
388.263	1115.44
388.488	1136.44
388.713	1142.44
388.938	1138.44
389.163	1114.44
389.387	1129.44
389.612	1101.44
389.837	1142.44
390.062	1098.44
390.287	1104.44
390.512	1129.44
390.736	1136.44
390.961	1152.44
391.186	1150.44
391.411	1182.44
391.636	1224.44
391.86	1288.44
392.085	1318.44
392.31	1306.44
392.534	1261.44
392.759	1197.44
392.984	1222.44
393.208	1206.44
393.433	1216.44
393.658	1222.44
393.882	1192.44
394.107	1229.44
394.331	1234.44
394.556	1227.44
394.78	1243.44
395.005	1242.44
395.229	1216.44
395.454	1252.44
395.678	1276.44
395.903	1284.44
396.127	1282.44
396.352	1232.44
396.576	1245.44
396.801	1193.44
397.025	1199.44
397.249	1238.44
397.474	1298.44
397.698	1255.44
397.922	1250.44
398.147	1310.44
398.371	1332.44
398.595	1390.44
398.82	1409.44
399.044	1536.44
399.268	1715.44
399.492	2024.44
399.717	2296.44
399.941	2237.44
400.165	1954.44
400.389	1718.44
400.613	1602.44
400.837	1504.44
401.062	1478.44
401.286	1469.44
401.51	1443.44
401.734	1416.44
401.958	1460.44
402.182	1469.44
402.406	1523.44
402.63	1493.44
402.854	1550.44
403.078	1590.44
403.302	1635.44
403.526	1646.44
403.75	1699.44
403.974	1738.44
404.198	1710.44
404.422	1707.44
404.645	1684.44
404.869	1665.44
405.093	1652.44
405.317	1590.44
405.541	1589.44
405.765	1597.44
405.988	1572.44
406.212	1572.44
406.436	1559.44
406.66	1622.44
406.883	1673.44
407.107	1762.44
407.331	1830.44
407.555	1896.44
407.778	1947.44
408.002	1830.44
408.226	1756.44
408.449	1773.44
408.673	1676.44
408.896	1636.44
409.12	1629.44
409.344	1620.44
409.567	1635.44
409.791	1651.44
410.014	1621.44
410.238	1609.44
410.461	1598.44
410.685	1600.44
410.908	1576.44
411.132	1542.44
411.355	1510.44
411.578	1511.44
411.802	1494.44
412.025	1522.44
412.249	1513.44
412.472	1536.44
412.695	1468.44
412.919	1437.44
413.142	1454.44
413.365	1449.44
413.589	1477.44
413.812	1405.44
414.035	1396.44
414.258	1417.44
414.482	1447.44
414.705	1473.44
414.928	1470.44
415.151	1494.44
415.374	1432.44
415.597	1438.44
415.821	1412.44
416.044	1394.44
416.267	1378.44
416.49	1404.44
416.713	1387.44
416.936	1394.44
417.159	1422.44
417.382	1402.44
417.605	1384.44
417.828	1396.44
418.051	1438.44
418.274	1426.44
418.497	1438.44
418.72	1481.44
418.943	1436.44
419.166	1544.44
419.389	1650.44
419.611	1603.44
419.834	1544.44
420.057	1465.44
420.28	1444.44
420.503	1444.44
420.726	1384.44
420.948	1390.44
421.171	1390.44
421.394	1409.44
421.617	1404.44
421.839	1386.44
422.062	1434.44
422.285	1430.44
422.507	1448.44
422.73	1466.44
422.953	1452.44
423.175	1470.44
423.398	1540.44
423.621	1497.44
423.843	1508.44
424.066	1550.44
424.288	1533.44
424.511	1539.44
424.733	1499.44
424.956	1466.44
425.178	1425.44
425.401	1446.44
425.623	1417.44
425.846	1355.44
426.068	1359.44
426.291	1329.44
426.513	1324.44
426.735	1283.44
426.958	1298.44
427.18	1284.44
427.402	1268.44
427.625	1306.44
427.847	1246.44
428.069	1251.44
428.292	1258.44
428.514	1227.44
428.736	1230.44
428.958	1270.44
429.181	1248.44
429.403	1208.44
429.625	1247.44
429.847	1198.44
430.069	1229.44
430.292	1224.44
430.514	1188.44
430.736	1222.44
430.958	1210.44
431.18	1223.44
431.402	1227.44
431.624	1237.44
431.846	1263.44
432.068	1266.44
432.29	1249.44
432.512	1228.44
432.734	1244.44
432.956	1223.44
433.178	1270.44
433.4	1261.44
433.622	1267.44
433.844	1240.44
434.066	1257.44
434.287	1294.44
434.509	1356.44
434.731	1372.44
434.953	1422.44
435.175	1446.44
435.397	1390.44
435.618	1326.44
435.84	1316.44
436.062	1294.44
436.284	1254.44
436.505	1234.44
436.727	1261.44
436.949	1244.44
437.17	1235.44
437.392	1233.44
437.614	1241.44
437.835	1195.44
438.057	1222.44
438.278	1192.44
438.5	1212.44
438.721	1197.44
438.943	1218.44
439.165	1182.44
439.386	1204.44
439.608	1237.44
439.829	1264.44
440.05	1237.44
440.272	1220.44
440.493	1277.44
440.715	1248.44
440.936	1297.44
441.158	1330.44
441.379	1332.44
441.6	1403.44
441.822	1437.44
442.043	1427.44
442.264	1384.44
442.486	1344.44
442.707	1366.44
442.928	1362.44
443.149	1381.44
443.371	1370.44
443.592	1420.44
443.813	1402.44
444.034	1420.44
444.255	1450.44
444.476	1568.44
444.698	1660.44
444.919	1753.44
445.14	1731.44
445.361	1605.44
445.582	1474.44
445.803	1375.44
446.024	1309.44
446.245	1280.44
446.466	1308.44
446.687	1257.44
446.908	1276.44
447.129	1237.44
447.35	1206.44
447.571	1222.44
447.792	1168.44
448.013	1200.44
448.234	1126.44
448.455	1120.44
448.675	1148.44
448.896	1147.44
449.117	1114.44
449.338	1103.44
449.559	1101.44
449.779	1110.44
450	1120.44
450.221	1097.44
450.442	1131.44
450.662	1112.44
450.883	1129.44
451.104	1174.44
451.324	1126.44
451.545	1125.44
451.766	1153.44
451.986	1138.44
452.207	1113.44
452.428	1121.44
452.648	1137.44
452.869	1114.44
453.089	1097.44
453.31	1145.44
453.53	1100.44
453.751	1091.44
453.971	1102.44
454.192	1075.44
454.412	1054.44
454.633	1062.44
454.853	1097.44
455.073	1048.44
455.294	1054.44
455.514	1041.44
455.734	1031.44
455.955	1031.44
456.175	1031.44
456.395	1048.44
456.616	1049.44
456.836	1024.44
457.056	1046.44
457.276	1039.44
457.497	1036.44
457.717	1056.44
457.937	1064.44
458.157	1071.44
458.377	1071.44
458.598	1108.44
458.818	1120.44
459.038	1190.44
459.258	1228.44
459.478	1255.44
459.698	1251.44
459.918	1293.44
460.138	1341.44
460.358	1473.44
460.578	1467.44
460.798	1533.44
461.018	1510.44
461.238	1481.44
461.458	1483.44
461.678	1448.44
461.898	1477.44
462.118	1486.44
462.338	1607.44
462.558	1608.44
462.777	1688.44
462.997	1806.44
463.217	2076.44
463.437	2011.44
463.657	1844.44
463.876	1777.44
464.096	1736.44
464.316	1702.44
464.536	1770.44
464.755	1687.44
464.975	1606.44
465.195	1513.44
465.414	1410.44
465.634	1328.44
465.854	1311.44
466.073	1284.44
466.293	1242.44
466.512	1197.44
466.732	1170.44
466.951	1174.44
467.171	1194.44
467.391	1193.44
467.61	1178.44
467.829	1191.44
468.049	1166.44
468.268	1129.44
468.488	1110.44
468.707	1120.44
468.927	1112.44
469.146	1123.44
469.365	1161.44
469.585	1141.44
469.804	1163.44
470.023	1218.44
470.243	1226.44
470.462	1228.44
470.681	1236.44
470.901	1214.44
471.12	1219.44
471.339	1187.44
471.558	1149.44
471.777	1125.44
471.997	1133.44
472.216	1140.44
472.435	1140.44
472.654	1094.44
472.873	1111.44
473.092	1144.44
473.311	1130.44
473.53	1134.44
473.749	1093.44
473.968	1111.44
474.187	1084.44
474.406	1117.44
474.625	1098.44
474.844	1085.44
475.063	1096.44
475.282	1100.44
475.501	1120.44
475.72	1132.44
475.939	1132.44
476.158	1137.44
476.377	1145.44
476.596	1149.44
476.814	1176.44
477.033	1176.44
477.252	1182.44
477.471	1198.44
477.69	1230.44
477.908	1270.44
478.127	1303.44
478.346	1340.44
478.564	1355.44
478.783	1375.44
479.002	1448.44
479.22	1459.44
479.439	1372.44
479.658	1373.44
479.876	1404.44
480.095	1420.44
480.313	1488.44
480.532	1508.44
480.751	1497.44
480.969	1455.44
481.188	1388.44
481.406	1363.44
481.624	1300.44
481.843	1286.44
482.061	1276.44
482.28	1285.44
482.498	1246.44
482.717	1244.44
482.935	1230.44
483.153	1246.44
483.372	1250.44
483.59	1277.44
483.808	1290.44
484.027	1266.44
484.245	1318.44
484.463	1303.44
484.681	1338.44
484.9	1310.44
485.118	1368.44
485.336	1370.44
485.554	1353.44
485.772	1353.44
485.99	1350.44
486.209	1367.44
486.427	1360.44
486.645	1350.44
486.863	1363.44
487.081	1376.44
487.299	1332.44
487.517	1364.44
487.735	1334.44
487.953	1365.44
488.171	1340.44
488.389	1367.44
488.607	1329.44
488.825	1313.44
489.043	1313.44
489.261	1326.44
489.479	1335.44
489.696	1320.44
489.914	1347.44
490.132	1350.44
490.35	1341.44
490.568	1318.44
490.786	1300.44
491.003	1339.44
491.221	1310.44
491.439	1344.44
491.657	1312.44
491.874	1352.44
492.092	1349.44
492.31	1332.44
492.527	1352.44
492.745	1380.44
492.963	1384.44
493.18	1347.44
493.398	1368.44
493.615	1380.44
493.833	1369.44
494.05	1378.44
494.268	1394.44
494.485	1388.44
494.703	1354.44
494.92	1393.44
495.138	1371.44
495.355	1416.44
495.573	1385.44
495.79	1394.44
496.008	1402.44
496.225	1457.44
496.442	1400.44
496.66	1448.44
496.877	1473.44
497.094	1492.44
497.312	1504.44
497.529	1568.44
497.746	1600.44
497.963	1665.44
498.181	1744.44
498.398	1811.44
498.615	1897.44
498.832	2076.44
499.049	2182.44
499.267	2391.44
499.484	2598.44
499.701	2936.44
499.918	3213.44
500.135	3767.44
500.352	4364.44
500.569	4536.44
500.786	4456.44
501.003	4037.44
501.22	3636.44
501.437	3114.44
501.654	2746.44
501.871	2532.44
502.088	2298.44
502.305	2134.44
502.522	2057.44
502.739	1968.44
502.956	1819.44
503.172	1783.44
503.389	1704.44
503.606	1629.44
503.823	1617.44
504.04	1641.44
504.256	1660.44
504.473	1662.44
504.69	1739.44
504.907	1662.44
505.123	1562.44
505.34	1458.44
505.557	1418.44
505.773	1377.44
505.99	1369.44
506.207	1296.44
506.423	1312.44
506.64	1278.44
506.856	1228.44
507.073	1253.44
507.289	1270.44
507.506	1221.44
507.722	1229.44
507.939	1214.44
508.155	1181.44
508.372	1174.44
508.588	1162.44
508.805	1160.44
509.021	1148.44
509.238	1155.44
509.454	1141.44
509.67	1157.44
509.887	1145.44
510.103	1117.44
510.319	1106.44
510.536	1124.44
510.752	1108.44
510.968	1102.44
511.184	1105.44
511.401	1115.44
511.617	1116.44
511.833	1112.44
512.049	1121.44
512.265	1097.44
512.481	1118.44
512.698	1096.44
512.914	1113.44
513.13	1110.44
513.346	1106.44
513.562	1114.44
513.778	1122.44
513.994	1123.44
514.21	1132.44
514.426	1128.44
514.642	1144.44
514.858	1169.44
515.074	1154.44
515.29	1178.44
515.506	1176.44
515.721	1186.44
515.937	1211.44
516.153	1236.44
516.369	1278.44
516.585	1299.44
516.801	1353.44
517.016	1412.44
517.232	1463.44
517.448	1537.44
517.664	1577.44
517.879	1620.44
518.095	1602.44
518.311	1584.44
518.527	1485.44
518.742	1444.44
518.958	1401.44
519.173	1350.44
519.389	1302.44
519.605	1242.44
519.82	1213.44
520.036	1213.44
520.251	1162.44
520.467	1156.44
520.682	1140.44
520.898	1109.44
521.113	1128.44
521.329	1078.44
521.544	1121.44
521.76	1079.44
521.975	1075.44
522.19	1079.44
522.406	1074.44
522.621	1072.44
522.836	1061.44
523.052	1050.44
523.267	1015.44
523.482	1001.44
523.698	1020.44
523.913	1028.44
524.128	1003.44
524.343	1020.44
524.559	997.44
524.774	1001.44
524.989	1013.44
525.204	1003.44
525.419	993.44
525.634	1027.44
525.849	1015.44
526.064	1002.44
526.28	1022.44
526.495	1001.44
526.71	1020.44
526.925	1022.44
527.14	996.44
527.355	978.44
527.57	996.44
527.785	996.44
527.999	1004.44
528.214	1000.44
528.429	996.44
528.644	991.44
528.859	1019.44
529.074	1018.44
529.289	971.44
529.503	1001.44
529.718	1050.44
529.933	991.44
530.148	1000.44
530.363	1000.44
530.577	973.44
530.792	1016.44
531.007	989.44
531.221	994.44
531.436	1008.44
531.651	992.44
531.865	1018.44
532.08	1030.44
532.295	1032.44
532.509	1016.44
532.724	994.44
532.938	1002.44
533.153	1000.44
533.367	1013.44
533.582	1007.44
533.796	1002.44
534.011	1030.44
534.225	1016.44
534.44	986.44
534.654	998.44
534.868	970.44
535.083	987.44
535.297	975.44
535.511	956.44
535.726	940.44
535.94	972.44
536.154	967.44
536.369	941.44
536.583	947.44
536.797	937.44
537.011	908.44
537.225	950.44
537.44	940.44
537.654	943.44
537.868	916.44
538.082	900.44
538.296	872.44
538.51	934.44
538.724	916.44
538.938	916.44
539.153	927.44
539.367	894.44
539.581	887.44
539.795	925.44
540.009	873.44
540.222	921.44
540.436	902.44
540.65	882.44
540.864	871.44
541.078	888.44
541.292	886.44
541.506	875.44
541.72	886.44
541.934	852.44
542.147	877.44
542.361	860.44
542.575	876.44
542.789	865.44
543.002	863.44
543.216	888.44
543.43	888.44
543.644	901.44
543.857	891.44
544.071	868.44
544.285	900.44
544.498	896.44
544.712	890.44
544.925	920.44
545.139	925.44
545.352	942.44
545.566	901.44
545.779	928.44
545.993	916.44
546.206	905.44
546.42	914.44
546.633	894.44
546.847	928.44
547.06	924.44
547.274	902.44
547.487	901.44
547.7	923.44
547.914	921.44
548.127	950.44
548.34	934.44
548.554	923.44
548.767	908.44
548.98	933.44
549.193	937.44
549.407	921.44
549.62	955.44
549.833	985.44
550.046	947.44
550.259	929.44
550.473	906.44
550.686	886.44
550.899	892.44
551.112	882.44
551.325	884.44
551.538	917.44
551.751	913.44
551.964	891.44
552.177	894.44
552.39	921.44
552.603	953.44
552.816	943.44
553.029	980.44
553.242	1013.44
553.455	1016.44
553.667	1015.44
553.88	995.44
554.093	962.44
554.306	950.44
554.519	936.44
554.732	889.44
554.944	892.44
555.157	864.44
555.37	858.44
555.583	867.44
555.795	824.44
556.008	823.44
556.221	820.44
556.433	804.44
556.646	766.44
556.859	800.44
557.071	790.44
557.284	786.44
557.496	772.44
557.709	798.44
557.921	800.44
558.134	778.44
558.346	780.44
558.559	764.44
558.771	762.44
558.984	767.44
559.196	760.44
559.409	762.44
559.621	758.44
559.833	745.44
560.046	746.44
560.258	744.44
560.47	763.44
560.683	757.44
560.895	741.44
561.107	737.44
561.32	727.44
561.532	768.44
561.744	745.44
561.956	744.44
562.168	753.44
562.381	749.44
562.593	757.44
562.805	742.44
563.017	768.44
563.229	753.44
563.441	766.44
563.653	767.44
563.865	776.44
564.077	762.44
564.289	796.44
564.501	778.44
564.713	826.44
564.925	826.44
565.137	831.44
565.349	828.44
565.561	877.44
565.773	926.44
565.985	944.44
566.197	985.44
566.408	1085.44
566.62	1153.44
566.832	1286.44
567.044	1270.44
567.255	1269.44
567.467	1349.44
567.679	1394.44
567.891	1528.44
568.102	1593.44
568.314	1502.44
568.526	1291.44
568.737	1193.44
568.949	1054.44
569.161	972.44
569.372	890.44
569.584	861.44
569.795	842.44
570.007	831.44
570.218	795.44
570.43	748.44
570.641	787.44
570.853	774.44
571.064	795.44
571.276	781.44
571.487	769.44
571.698	724.44
571.91	712.44
572.121	702.44
572.333	691.44
572.544	659.44
572.755	642.44
572.966	646.44
573.178	628.44
573.389	629.44
573.6	621.44
573.811	616.44
574.023	625.44
574.234	624.44
574.445	628.44
574.656	611.44
574.867	622.44
575.078	618.44
575.289	604.44
575.501	618.44
575.712	589.44
575.923	612.44
576.134	596.44
576.345	591.44
576.556	584.44
576.767	593.44
576.978	586.44
577.188	571.44
577.399	591.44
577.61	546.44
577.821	548.44
578.032	562.44
578.243	560.44
578.454	545.44
578.665	545.44
578.875	532.44
579.086	538.44
579.297	536.44
579.508	553.44
579.718	549.44
579.929	537.44
580.14	532.44
580.35	542.44
580.561	529.44
580.772	517.44
580.982	522.44
581.193	530.44
581.403	508.44
581.614	524.44
581.825	521.44
582.035	528.44
582.246	514.44
582.456	509.44
582.667	518.44
582.877	514.44
583.087	495.44
583.298	520.44
583.508	494.44
583.719	506.44
583.929	507.44
584.139	516.44
584.35	489.44
584.56	498.44
584.77	504.44
584.981	504.44
585.191	499.44
585.401	506.44
585.611	467.44
585.821	472.44
586.032	473.44
586.242	509.44
586.452	486.44
586.662	466.44
586.872	489.44
587.082	503.44
587.292	481.44
587.502	503.44
587.713	484.44
587.923	477.44
588.133	474.44
588.343	472.44
588.553	503.44
588.762	498.44
588.972	499.44
589.182	489.44
589.392	479.44
589.602	465.44
589.812	491.44
590.022	474.44
590.232	480.44
590.441	481.44
590.651	512.44
590.861	515.44
591.071	512.44
591.281	519.44
591.49	498.44
591.7	515.44
591.91	522.44
592.119	533.44
592.329	547.44
592.539	565.44
592.748	586.44
592.958	610.44
593.167	630.44
593.377	636.44
593.587	645.44
593.796	628.44
594.006	668.44
594.215	645.44
594.424	638.44
594.634	631.44
594.843	608.44
595.053	557.44
595.262	560.44
595.472	542.44
595.681	536.44
595.89	522.44
596.1	476.44
596.309	481.44
596.518	475.44
596.727	470.44
596.937	465.44
597.146	448.44
597.355	422.44
597.564	446.44
597.774	446.44
597.983	434.44
598.192	443.44
598.401	420.44
598.61	419.44
598.819	428.44
599.028	438.44
599.237	392.44
599.446	418.44
599.655	412.44
599.864	428.44
600.073	398.44
600.282	395.44
600.491	402.44
600.7	386.44
600.909	409.44
601.118	400.44
601.327	396.44
601.536	417.44
601.745	402.44
601.953	396.44
602.162	405.44
602.371	400.44
602.58	384.44
602.789	395.44
602.997	371.44
603.206	387.44
603.415	382.44
603.623	393.44
603.832	388.44
604.041	386.44
604.249	382.44
604.458	377.44
604.666	370.44
604.875	361.44
605.084	357.44
605.292	383.44
605.501	371.44
605.709	374.44
605.918	372.44
606.126	357.44
606.334	368.44
606.543	376.44
606.751	368.44
606.96	377.44
607.168	347.44
607.376	358.44
607.585	379.44
607.793	371.44
608.001	370.44
608.21	374.44
608.418	377.44
608.626	361.44
608.834	356.44
609.043	355.44
609.251	372.44
609.459	372.44
609.667	347.44
609.875	349.44
610.083	377.44
610.291	347.44
610.499	363.44
610.707	360.44
610.916	355.44
611.124	362.44
611.332	361.44
611.54	361.44
611.748	362.44
611.955	332.44
612.163	362.44
612.371	349.44
612.579	350.44
612.787	349.44
612.995	338.44
613.203	354.44
613.411	344.44
613.618	333.44
613.826	356.44
614.034	340.44
614.242	368.44
614.449	365.44
614.657	352.44
614.865	344.44
615.072	358.44
615.28	364.44
615.488	347.44
615.695	345.44
615.903	345.44
616.111	341.44
616.318	382.44
616.526	363.44
616.733	388.44
616.941	356.44
617.148	351.44
617.356	366.44
617.563	362.44
617.771	347.44
617.978	347.44
618.185	341.44
618.393	348.44
618.6	350.44
618.807	337.44
619.015	362.44
619.222	345.44
619.429	342.44
619.637	339.44
619.844	336.44
620.051	340.44
620.258	349.44
620.466	318.44
620.673	309.44
620.88	331.44
621.087	310.44
621.294	328.44
621.501	316.44
621.708	306.44
621.915	332.44
622.122	329.44
622.329	310.44
622.536	308.44
622.743	316.44
622.95	317.44
623.157	318.44
623.364	307.44
623.571	308.44
623.778	291.44
623.985	313.44
624.192	287.44
624.399	318.44
624.606	300.44
624.812	297.44
625.019	314.44
625.226	310.44
625.433	302.44
625.639	285.44
625.846	276.44
626.053	279.44
626.259	289.44
626.466	295.44
626.673	280.44
626.879	291.44
627.086	284.44
627.293	309.44
627.499	289.44
627.706	282.44
627.912	282.44
628.119	286.44
628.325	289.44
628.532	274.44
628.738	286.44
628.945	279.44
629.151	275.44
629.357	272.44
629.564	273.44
629.77	270.44
629.976	265.44
630.183	294.44
630.389	276.44
630.595	273.44
630.802	286.44
631.008	274.44
631.214	281.44
631.42	268.44
631.627	269.44
631.833	236.44
632.039	262.44
632.245	250.44
632.451	265.44
632.657	252.44
632.863	263.44
633.069	273.44
633.275	278.44
633.481	235.44
633.688	252.44
633.893	243.44
634.099	232.44
634.305	242.44
634.511	262.44
634.717	240.44
634.923	248.44
635.129	241.44
635.335	246.44
635.541	246.44
635.747	258.44
635.952	243.44
636.158	241.44
636.364	228.44
636.57	242.44
636.775	238.44
636.981	251.44
637.187	241.44
637.392	233.44
637.598	230.44
637.804	230.44
638.009	245.44
638.215	256.44
638.421	249.44
638.626	240.44
638.832	230.44
639.037	234.44
639.243	223.44
639.448	237.44
639.654	234.44
639.859	238.44
640.065	248.44
640.27	252.44
640.475	231.44
640.681	219.44
640.886	241.44
641.091	222.44
641.297	236.44
641.502	217.44
641.707	224.44
641.913	228.44
642.118	244.44
642.323	218.44
642.528	228.44
642.733	213.44
642.939	248.44
643.144	241.44
643.349	222.44
643.554	201.44
643.759	228.44
643.964	219.44
644.169	237.44
644.374	218.44
644.579	209.44
644.784	222.44
644.989	221.44
645.194	218.44
645.399	224.44
645.604	222.44
645.809	235.44
646.014	218.44
646.219	229.44
646.423	225.44
646.628	217.44
646.833	223.44
647.038	227.44
647.243	230.44
647.447	226.44
647.652	241.44
647.857	237.44
648.062	250.44
648.266	267.44
648.471	244.44
648.676	267.44
648.88	237.44
649.085	255.44
649.289	238.44
649.494	235.44
649.698	227.44
649.903	217.44
650.107	210.44
650.312	220.44
650.516	212.44
650.721	216.44
650.925	206.44
651.13	204.44
651.334	204.44
651.539	193.44
651.743	192.44
651.947	196.44
652.152	199.44
652.356	187.44
652.56	183.44
652.764	190.44
652.969	180.44
653.173	182.44
653.377	188.44
653.581	177.44
653.785	188.44
653.99	182.44
654.194	177.44
654.398	186.44
654.602	180.44
654.806	181.44
655.01	157.44
655.214	178.44
655.418	178.44
655.622	182.44
655.826	178.44
656.03	185.44
656.234	174.44
656.438	193.44
656.642	198.44
656.846	180.44
657.049	179.44
657.253	165.44
657.457	154.44
657.661	142.44
657.865	141.44
658.068	138.44
658.272	141.44
658.476	117.44
658.68	137.44
658.883	108.44
659.087	117.44
659.291	129.44
659.494	112.44
659.698	115.44
659.901	113.44
660.105	114.44
660.309	121.44
660.512	107.44
660.716	92.44
660.919	100.44
661.123	109.44
661.326	109.44
661.53	98.44
661.733	105.44
661.936	95.44
662.14	85.44
662.343	74.44
662.546	88.44
662.75	81.44
662.953	102.44
663.156	82.44
663.36	77.44
663.563	99.44
663.766	85.44
663.969	89.44
664.173	77.44
664.376	75.44
664.579	80.44
664.782	82.44
664.985	98.44
665.188	74.44
665.391	95.44
665.594	85.44
665.797	66.44
666	85.44
666.203	88.44
666.406	87.44
666.609	86.44
666.812	84.44
667.015	83.44
667.218	81.44
667.421	76.44
667.624	73.44
667.827	84.44
668.03	82.44
668.232	65.44
668.435	86.44
668.638	83.44
668.841	87.44
669.043	86.44
669.246	69.44
669.449	85.44
669.651	83.44
669.854	82.44
670.057	74.44
670.259	91.44
670.462	78.44
670.665	82.44
670.867	74.44
671.07	72.44
671.272	77.44
671.475	83.44
671.677	79.44
671.88	84.44
672.082	79.44
672.284	95.44
672.487	84.44
672.689	69.44
672.892	76.44
