Data from Ni(NO3)2@0.0625M.TitratingCurve.Agarose3%dH2O.NegLispCup.LampEnergy10.LIBS07252019_HRD10591_18-15-01-569.txt Node
Date: Thu Jul 25 18:15:01 EDT 2019
User: cochatt
Spectrometer: HR+D1059
Trigger mode: 1
Integration Time (sec): 1.000000E-1
Scans to average: 1
Electric dark correction enabled: true
Nonlinearity correction enabled: false
Boxcar width: 0
XAxis mode: Wavelengths
Number of Pixels in Spectrum: 2048
>>>>>Begin Spectral Data<<<<<
223.165	-5.25
223.4	-5.25
223.635	-5.25
223.869	-24.25
224.104	-25.25
224.338	-26.25
224.573	-10.25
224.808	-10.25
225.042	-18.25
225.277	2.75
225.511	-0.25
225.746	8.75
225.98	3.75
226.215	15.75
226.449	14.75
226.683	15.75
226.918	31.75
227.152	26.75
227.387	26.75
227.621	46.75
227.856	39.75
228.09	35.75
228.324	43.75
228.559	63.75
228.793	58.75
229.027	96.75
229.262	101.75
229.496	106.75
229.73	104.75
229.964	113.75
230.199	127.75
230.433	128.75
230.667	126.75
230.901	122.75
231.136	118.75
231.37	119.75
231.604	120.75
231.838	141.75
232.072	123.75
232.306	129.75
232.541	117.75
232.775	128.75
233.009	139.75
233.243	123.75
233.477	117.75
233.711	136.75
233.945	126.75
234.179	117.75
234.413	134.75
234.647	138.75
234.881	127.75
235.115	125.75
235.349	135.75
235.583	130.75
235.817	145.75
236.051	125.75
236.285	127.75
236.519	141.75
236.753	124.75
236.987	142.75
237.221	138.75
237.455	136.75
237.689	130.75
237.922	121.75
238.156	119.75
238.39	135.75
238.624	148.75
238.858	145.75
239.091	135.75
239.325	147.75
239.559	142.75
239.793	141.75
240.027	160.75
240.26	148.75
240.494	151.75
240.728	141.75
240.961	143.75
241.195	151.75
241.429	144.75
241.662	160.75
241.896	150.75
242.13	146.75
242.363	166.75
242.597	159.75
242.83	153.75
243.064	156.75
243.298	165.75
243.531	155.75
243.765	160.75
243.998	168.75
244.232	161.75
244.465	166.75
244.699	171.75
244.932	176.75
245.166	166.75
245.399	162.75
245.633	166.75
245.866	192.75
246.099	188.75
246.333	169.75
246.566	189.75
246.8	173.75
247.033	164.75
247.266	186.75
247.5	189.75
247.733	179.75
247.966	193.75
248.2	184.75
248.433	190.75
248.666	185.75
248.899	188.75
249.133	200.75
249.366	187.75
249.599	184.75
249.832	195.75
250.066	190.75
250.299	197.75
250.532	206.75
250.765	190.75
250.998	204.75
251.231	203.75
251.465	200.75
251.698	213.75
251.931	217.75
252.164	196.75
252.397	210.75
252.63	198.75
252.863	205.75
253.096	202.75
253.329	234.75
253.562	212.75
253.795	219.75
254.028	228.75
254.261	215.75
254.494	205.75
254.727	207.75
254.96	217.75
255.193	220.75
255.426	228.75
255.659	213.75
255.892	226.75
256.124	216.75
256.357	221.75
256.59	219.75
256.823	213.75
257.056	223.75
257.289	216.75
257.521	230.75
257.754	230.75
257.987	230.75
258.22	230.75
258.452	231.75
258.685	227.75
258.918	245.75
259.151	235.75
259.383	256.75
259.616	241.75
259.849	244.75
260.081	230.75
260.314	258.75
260.547	246.75
260.779	246.75
261.012	245.75
261.244	266.75
261.477	242.75
261.71	254.75
261.942	250.75
262.175	260.75
262.407	261.75
262.64	249.75
262.872	242.75
263.105	251.75
263.337	241.75
263.57	255.75
263.802	256.75
264.035	271.75
264.267	250.75
264.499	265.75
264.732	261.75
264.964	282.75
265.197	269.75
265.429	268.75
265.661	267.75
265.894	261.75
266.126	275.75
266.358	283.75
266.591	268.75
266.823	280.75
267.055	268.75
267.287	276.75
267.52	278.75
267.752	270.75
267.984	278.75
268.216	276.75
268.448	284.75
268.681	298.75
268.913	280.75
269.145	269.75
269.377	266.75
269.609	255.75
269.841	289.75
270.073	300.75
270.306	264.75
270.538	286.75
270.77	270.75
271.002	269.75
271.234	283.75
271.466	279.75
271.698	281.75
271.93	281.75
272.162	283.75
272.394	300.75
272.626	295.75
272.858	301.75
273.09	305.75
273.322	301.75
273.553	290.75
273.785	299.75
274.017	299.75
274.249	310.75
274.481	303.75
274.713	308.75
274.945	318.75
275.176	303.75
275.408	306.75
275.64	308.75
275.872	326.75
276.104	308.75
276.335	309.75
276.567	308.75
276.799	313.75
277.031	316.75
277.262	304.75
277.494	310.75
277.726	323.75
277.957	322.75
278.189	323.75
278.421	346.75
278.652	334.75
278.884	317.75
279.115	342.75
279.347	312.75
279.579	331.75
279.81	326.75
280.042	330.75
280.273	311.75
280.505	324.75
280.736	347.75
280.968	346.75
281.199	341.75
281.431	348.75
281.662	322.75
281.894	337.75
282.125	349.75
282.356	334.75
282.588	338.75
282.819	335.75
283.051	350.75
283.282	343.75
283.513	355.75
283.745	346.75
283.976	357.75
284.207	349.75
284.439	362.75
284.67	351.75
284.901	353.75
285.132	368.75
285.364	367.75
285.595	359.75
285.826	355.75
286.057	374.75
286.288	375.75
286.52	390.75
286.751	388.75
286.982	370.75
287.213	380.75
287.444	360.75
287.675	354.75
287.906	385.75
288.138	384.75
288.369	388.75
288.6	393.75
288.831	361.75
289.062	395.75
289.293	379.75
289.524	367.75
289.755	387.75
289.986	396.75
290.217	383.75
290.448	382.75
290.679	384.75
290.91	402.75
291.141	396.75
291.371	392.75
291.602	396.75
291.833	384.75
292.064	382.75
292.295	400.75
292.526	398.75
292.757	380.75
292.987	386.75
293.218	383.75
293.449	389.75
293.68	395.75
293.91	408.75
294.141	375.75
294.372	384.75
294.603	404.75
294.833	406.75
295.064	397.75
295.295	409.75
295.525	398.75
295.756	406.75
295.987	383.75
296.217	402.75
296.448	396.75
296.679	400.75
296.909	401.75
297.14	434.75
297.37	438.75
297.601	433.75
297.831	414.75
298.062	422.75
298.292	435.75
298.523	447.75
298.753	452.75
298.984	458.75
299.214	467.75
299.445	426.75
299.675	448.75
299.905	438.75
300.136	428.75
300.366	459.75
300.597	447.75
300.827	455.75
301.057	478.75
301.288	441.75
301.518	448.75
301.748	460.75
301.979	429.75
302.209	462.75
302.439	443.75
302.669	430.75
302.9	440.75
303.13	439.75
303.36	446.75
303.59	438.75
303.82	443.75
304.051	438.75
304.281	452.75
304.511	439.75
304.741	441.75
304.971	445.75
305.201	435.75
305.431	468.75
305.661	450.75
305.891	435.75
306.121	426.75
306.352	450.75
306.582	428.75
306.812	449.75
307.042	448.75
307.272	439.75
307.502	443.75
307.731	419.75
307.961	440.75
308.191	447.75
308.421	438.75
308.651	431.75
308.881	421.75
309.111	434.75
309.341	430.75
309.571	431.75
309.8	442.75
310.03	442.75
310.26	453.75
310.49	437.75
310.72	456.75
310.949	447.75
311.179	446.75
311.409	448.75
311.639	432.75
311.868	455.75
312.098	450.75
312.328	447.75
312.557	440.75
312.787	458.75
313.017	464.75
313.246	479.75
313.476	441.75
313.706	480.75
313.935	472.75
314.165	471.75
314.394	466.75
314.624	473.75
314.853	459.75
315.083	472.75
315.312	475.75
315.542	473.75
315.771	425.75
316.001	460.75
316.23	456.75
316.46	435.75
316.689	459.75
316.919	483.75
317.148	451.75
317.377	447.75
317.607	457.75
317.836	455.75
318.065	441.75
318.295	442.75
318.524	462.75
318.753	452.75
318.983	464.75
319.212	464.75
319.441	440.75
319.67	463.75
319.9	470.75
320.129	468.75
320.358	450.75
320.587	463.75
320.816	452.75
321.046	477.75
321.275	451.75
321.504	463.75
321.733	478.75
321.962	485.75
322.191	460.75
322.42	485.75
322.649	472.75
322.878	463.75
323.108	479.75
323.337	472.75
323.566	463.75
323.795	461.75
324.024	483.75
324.253	476.75
324.482	463.75
324.71	479.75
324.939	486.75
325.168	475.75
325.397	484.75
325.626	462.75
325.855	463.75
326.084	501.75
326.313	502.75
326.542	516.75
326.77	488.75
326.999	530.75
327.228	505.75
327.457	483.75
327.686	494.75
327.914	493.75
328.143	499.75
328.372	500.75
328.6	505.75
328.829	495.75
329.058	522.75
329.287	505.75
329.515	491.75
329.744	500.75
329.972	500.75
330.201	505.75
330.43	538.75
330.658	521.75
330.887	538.75
331.115	536.75
331.344	510.75
331.572	534.75
331.801	542.75
332.03	542.75
332.258	572.75
332.486	578.75
332.715	598.75
332.943	604.75
333.172	619.75
333.4	664.75
333.629	684.75
333.857	679.75
334.085	687.75
334.314	654.75
334.542	636.75
334.771	619.75
334.999	610.75
335.227	621.75
335.455	629.75
335.684	618.75
335.912	615.75
336.14	603.75
336.369	601.75
336.597	620.75
336.825	634.75
337.053	639.75
337.281	590.75
337.51	584.75
337.738	574.75
337.966	539.75
338.194	554.75
338.422	553.75
338.65	555.75
338.878	550.75
339.106	540.75
339.334	547.75
339.562	564.75
339.79	537.75
340.018	527.75
340.246	534.75
340.474	524.75
340.702	543.75
340.93	540.75
341.158	563.75
341.386	540.75
341.614	554.75
341.842	527.75
342.07	526.75
342.298	517.75
342.526	532.75
342.754	528.75
342.981	499.75
343.209	521.75
343.437	576.75
343.665	600.75
343.893	648.75
344.12	646.75
344.348	616.75
344.576	592.75
344.804	609.75
345.031	558.75
345.259	550.75
345.487	558.75
345.714	554.75
345.942	527.75
346.17	585.75
346.397	531.75
346.625	528.75
346.853	524.75
347.08	533.75
347.308	538.75
347.535	537.75
347.763	545.75
347.99	540.75
348.218	554.75
348.445	519.75
348.673	506.75
348.9	528.75
349.128	520.75
349.355	511.75
349.583	524.75
349.81	544.75
350.037	532.75
350.265	510.75
350.492	507.75
350.72	519.75
350.947	501.75
351.174	495.75
351.402	526.75
351.629	522.75
351.856	519.75
352.083	514.75
352.311	516.75
352.538	531.75
352.765	521.75
352.992	506.75
353.22	501.75
353.447	515.75
353.674	518.75
353.901	493.75
354.128	497.75
354.355	490.75
354.583	490.75
354.81	517.75
355.037	518.75
355.264	517.75
355.491	530.75
355.718	519.75
355.945	498.75
356.172	506.75
356.399	499.75
356.626	528.75
356.853	518.75
357.08	521.75
357.307	501.75
357.534	512.75
357.761	534.75
357.988	519.75
358.215	484.75
358.441	515.75
358.668	489.75
358.895	493.75
359.122	501.75
359.349	496.75
359.576	494.75
359.802	499.75
360.029	505.75
360.256	493.75
360.483	493.75
360.709	516.75
360.936	487.75
361.163	504.75
361.39	492.75
361.616	510.75
361.843	516.75
362.07	540.75
362.296	511.75
362.523	502.75
362.749	504.75
362.976	502.75
363.203	510.75
363.429	482.75
363.656	489.75
363.882	486.75
364.109	495.75
364.335	480.75
364.562	471.75
364.788	498.75
365.015	514.75
365.241	498.75
365.468	490.75
365.694	482.75
365.92	508.75
366.147	496.75
366.373	482.75
366.599	512.75
366.826	501.75
367.052	502.75
367.278	511.75
367.505	505.75
367.731	503.75
367.957	501.75
368.184	512.75
368.41	541.75
368.636	501.75
368.862	507.75
369.089	521.75
369.315	508.75
369.541	532.75
369.767	522.75
369.993	526.75
370.219	524.75
370.445	514.75
370.672	520.75
370.898	519.75
371.124	520.75
371.35	575.75
371.576	554.75
371.802	562.75
372.028	546.75
372.254	542.75
372.48	537.75
372.706	554.75
372.932	591.75
373.158	568.75
373.384	564.75
373.61	540.75
373.835	556.75
374.061	539.75
374.287	550.75
374.513	548.75
374.739	588.75
374.965	587.75
375.191	621.75
375.416	592.75
375.642	575.75
375.868	601.75
376.094	584.75
376.319	564.75
376.545	557.75
376.771	545.75
376.997	558.75
377.222	555.75
377.448	545.75
377.674	554.75
377.899	546.75
378.125	552.75
378.35	535.75
378.576	550.75
378.802	540.75
379.027	552.75
379.253	529.75
379.478	539.75
379.704	539.75
379.929	549.75
380.155	528.75
380.38	528.75
380.606	558.75
380.831	556.75
381.057	582.75
381.282	539.75
381.507	542.75
381.733	551.75
381.958	559.75
382.184	582.75
382.409	582.75
382.634	568.75
382.86	587.75
383.085	573.75
383.31	595.75
383.535	592.75
383.761	622.75
383.986	619.75
384.211	644.75
384.436	646.75
384.662	648.75
384.887	656.75
385.112	645.75
385.337	652.75
385.562	658.75
385.787	660.75
386.013	678.75
386.238	656.75
386.463	653.75
386.688	672.75
386.913	631.75
387.138	639.75
387.363	653.75
387.588	639.75
387.813	632.75
388.038	633.75
388.263	638.75
388.488	632.75
388.713	643.75
388.938	642.75
389.163	618.75
389.387	639.75
389.612	629.75
389.837	612.75
390.062	642.75
390.287	622.75
390.512	622.75
390.736	652.75
390.961	658.75
391.186	647.75
391.411	663.75
391.636	700.75
391.86	715.75
392.085	740.75
392.31	731.75
392.534	704.75
392.759	696.75
392.984	698.75
393.208	694.75
393.433	683.75
393.658	685.75
393.882	704.75
394.107	703.75
394.331	693.75
394.556	691.75
394.78	699.75
395.005	683.75
395.229	695.75
395.454	716.75
395.678	729.75
395.903	737.75
396.127	703.75
396.352	682.75
396.576	679.75
396.801	673.75
397.025	705.75
397.249	680.75
397.474	714.75
397.698	708.75
397.922	728.75
398.147	713.75
398.371	748.75
398.595	770.75
398.82	763.75
399.044	842.75
399.268	931.75
399.492	1087.75
399.717	1230.75
399.941	1208.75
400.165	1090.75
400.389	968.75
400.613	865.75
400.837	861.75
401.062	827.75
401.286	816.75
401.51	787.75
401.734	789.75
401.958	811.75
402.182	823.75
402.406	810.75
402.63	839.75
402.854	853.75
403.078	892.75
403.302	914.75
403.526	895.75
403.75	918.75
403.974	936.75
404.198	920.75
404.422	941.75
404.645	947.75
404.869	930.75
405.093	914.75
405.317	907.75
405.541	891.75
405.765	888.75
405.988	890.75
406.212	874.75
406.436	880.75
406.66	904.75
406.883	911.75
407.107	995.75
407.331	1039.75
407.555	1037.75
407.778	1029.75
408.002	1020.75
408.226	978.75
408.449	950.75
408.673	949.75
408.896	917.75
409.12	893.75
409.344	919.75
409.567	927.75
409.791	929.75
410.014	912.75
410.238	918.75
410.461	908.75
410.685	886.75
410.908	874.75
411.132	885.75
411.355	826.75
411.578	836.75
411.802	847.75
412.025	855.75
412.249	862.75
412.472	818.75
412.695	824.75
412.919	807.75
413.142	815.75
413.365	811.75
413.589	789.75
413.812	804.75
414.035	798.75
414.258	806.75
414.482	801.75
414.705	828.75
414.928	822.75
415.151	800.75
415.374	811.75
415.597	800.75
415.821	804.75
416.044	780.75
416.267	782.75
416.49	770.75
416.713	758.75
416.936	778.75
417.159	780.75
417.382	799.75
417.605	786.75
417.828	819.75
418.051	811.75
418.274	820.75
418.497	815.75
418.72	826.75
418.943	837.75
419.166	852.75
419.389	946.75
419.611	905.75
419.834	867.75
420.057	838.75
420.28	815.75
420.503	785.75
420.726	775.75
420.948	756.75
421.171	787.75
421.394	788.75
421.617	795.75
421.839	779.75
422.062	803.75
422.285	768.75
422.507	809.75
422.73	830.75
422.953	837.75
423.175	852.75
423.398	852.75
423.621	854.75
423.843	869.75
424.066	842.75
424.288	850.75
424.511	833.75
424.733	822.75
424.956	837.75
425.178	839.75
425.401	829.75
425.623	797.75
425.846	774.75
426.068	740.75
426.291	761.75
426.513	768.75
426.735	755.75
426.958	736.75
427.18	748.75
427.402	730.75
427.625	707.75
427.847	711.75
428.069	719.75
428.292	741.75
428.514	709.75
428.736	705.75
428.958	728.75
429.181	702.75
429.403	718.75
429.625	703.75
429.847	715.75
430.069	699.75
430.292	719.75
430.514	692.75
430.736	697.75
430.958	699.75
431.18	690.75
431.402	709.75
431.624	706.75
431.846	719.75
432.068	736.75
432.29	740.75
432.512	725.75
432.734	718.75
432.956	738.75
433.178	734.75
433.4	707.75
433.622	725.75
433.844	718.75
434.066	755.75
434.287	778.75
434.509	774.75
434.731	792.75
434.953	794.75
435.175	843.75
435.397	814.75
435.618	783.75
435.84	755.75
436.062	743.75
436.284	728.75
436.505	720.75
436.727	715.75
436.949	747.75
437.17	716.75
437.392	735.75
437.614	707.75
437.835	715.75
438.057	720.75
438.278	714.75
438.5	702.75
438.721	665.75
438.943	716.75
439.165	707.75
439.386	712.75
439.608	717.75
439.829	742.75
440.05	739.75
440.272	720.75
440.493	727.75
440.715	754.75
440.936	735.75
441.158	746.75
441.379	796.75
441.6	848.75
441.822	842.75
442.043	818.75
442.264	814.75
442.486	804.75
442.707	801.75
442.928	801.75
443.149	817.75
443.371	784.75
443.592	790.75
443.813	813.75
444.034	798.75
444.255	853.75
444.476	901.75
444.698	958.75
444.919	981.75
445.14	1014.75
445.361	901.75
445.582	839.75
445.803	798.75
446.024	783.75
446.245	750.75
446.466	743.75
446.687	756.75
446.908	766.75
447.129	729.75
447.35	707.75
447.571	710.75
447.792	687.75
448.013	676.75
448.234	688.75
448.455	671.75
448.675	668.75
448.896	672.75
449.117	683.75
449.338	643.75
449.559	653.75
449.779	674.75
450	619.75
450.221	657.75
450.442	695.75
450.662	687.75
450.883	686.75
451.104	710.75
451.324	685.75
451.545	676.75
451.766	693.75
451.986	688.75
452.207	683.75
452.428	685.75
452.648	679.75
452.869	679.75
453.089	663.75
453.31	678.75
453.53	663.75
453.751	665.75
453.971	641.75
454.192	633.75
454.412	642.75
454.633	627.75
454.853	656.75
455.073	631.75
455.294	635.75
455.514	636.75
455.734	647.75
455.955	630.75
456.175	626.75
456.395	609.75
456.616	626.75
456.836	631.75
457.056	661.75
457.276	630.75
457.497	638.75
457.717	623.75
457.937	634.75
458.157	646.75
458.377	643.75
458.598	642.75
458.818	672.75
459.038	700.75
459.258	717.75
459.478	723.75
459.698	776.75
459.918	781.75
460.138	793.75
460.358	856.75
460.578	880.75
460.798	875.75
461.018	892.75
461.238	842.75
461.458	867.75
461.678	847.75
461.898	861.75
462.118	876.75
462.338	913.75
462.558	932.75
462.777	956.75
462.997	1026.75
463.217	1162.75
463.437	1185.75
463.657	1075.75
463.876	1015.75
464.096	990.75
464.316	1040.75
464.536	992.75
464.755	976.75
464.975	919.75
465.195	914.75
465.414	824.75
465.634	805.75
465.854	794.75
466.073	766.75
466.293	744.75
466.512	727.75
466.732	711.75
466.951	708.75
467.171	706.75
467.391	712.75
467.61	693.75
467.829	714.75
468.049	669.75
468.268	698.75
468.488	664.75
468.707	666.75
468.927	663.75
469.146	693.75
469.365	708.75
469.585	698.75
469.804	711.75
470.023	729.75
470.243	725.75
470.462	717.75
470.681	736.75
470.901	730.75
471.12	734.75
471.339	686.75
471.558	704.75
471.777	704.75
471.997	678.75
472.216	682.75
472.435	667.75
472.654	653.75
472.873	684.75
473.092	659.75
473.311	671.75
473.53	678.75
473.749	665.75
473.968	666.75
474.187	659.75
474.406	666.75
474.625	677.75
474.844	650.75
475.063	664.75
475.282	669.75
475.501	692.75
475.72	661.75
475.939	659.75
476.158	684.75
476.377	680.75
476.596	695.75
476.814	702.75
477.033	702.75
477.252	715.75
477.471	727.75
477.69	718.75
477.908	757.75
478.127	773.75
478.346	792.75
478.564	789.75
478.783	792.75
479.002	829.75
479.22	843.75
479.439	814.75
479.658	786.75
479.876	820.75
480.095	825.75
480.313	876.75
480.532	874.75
480.751	874.75
480.969	852.75
481.188	800.75
481.406	790.75
481.624	780.75
481.843	752.75
482.061	765.75
482.28	792.75
482.498	774.75
482.717	789.75
482.935	771.75
483.153	781.75
483.372	755.75
483.59	781.75
483.808	772.75
484.027	782.75
484.245	773.75
484.463	770.75
484.681	807.75
484.9	804.75
485.118	806.75
485.336	803.75
485.554	824.75
485.772	821.75
485.99	816.75
486.209	828.75
486.427	827.75
486.645	806.75
486.863	831.75
487.081	810.75
487.299	784.75
487.517	812.75
487.735	821.75
487.953	814.75
488.171	801.75
488.389	811.75
488.607	813.75
488.825	811.75
489.043	777.75
489.261	795.75
489.479	783.75
489.696	775.75
489.914	805.75
490.132	814.75
490.35	788.75
490.568	803.75
490.786	799.75
491.003	806.75
491.221	806.75
491.439	788.75
491.657	789.75
491.874	803.75
492.092	818.75
492.31	796.75
492.527	827.75
492.745	834.75
492.963	821.75
493.18	800.75
493.398	823.75
493.615	828.75
493.833	853.75
494.05	828.75
494.268	864.75
494.485	851.75
494.703	844.75
494.92	836.75
495.138	862.75
495.355	842.75
495.573	823.75
495.79	839.75
496.008	863.75
496.225	848.75
496.442	871.75
496.66	856.75
496.877	860.75
497.094	887.75
497.312	924.75
497.529	922.75
497.746	931.75
497.963	978.75
498.181	978.75
498.398	1045.75
498.615	1090.75
498.832	1153.75
499.049	1243.75
499.267	1349.75
499.484	1479.75
499.701	1663.75
499.918	1785.75
500.135	2038.75
500.352	2335.75
500.569	2490.75
500.786	2469.75
501.003	2319.75
501.22	2063.75
501.437	1778.75
501.654	1548.75
501.871	1462.75
502.088	1312.75
502.305	1217.75
502.522	1178.75
502.739	1145.75
502.956	1079.75
503.172	1032.75
503.389	970.75
503.606	943.75
503.823	939.75
504.04	978.75
504.256	968.75
504.473	946.75
504.69	958.75
504.907	963.75
505.123	915.75
505.34	900.75
505.557	843.75
505.773	828.75
505.99	810.75
506.207	760.75
506.423	783.75
506.64	741.75
506.856	773.75
507.073	727.75
507.289	735.75
507.506	716.75
507.722	751.75
507.939	742.75
508.155	730.75
508.372	717.75
508.588	719.75
508.805	685.75
509.021	707.75
509.238	714.75
509.454	671.75
509.67	714.75
509.887	710.75
510.103	684.75
510.319	684.75
510.536	688.75
510.752	666.75
510.968	680.75
511.184	694.75
511.401	677.75
511.617	666.75
511.833	670.75
512.049	660.75
512.265	669.75
512.481	698.75
512.698	688.75
512.914	688.75
513.13	680.75
513.346	676.75
513.562	681.75
513.778	685.75
513.994	680.75
514.21	662.75
514.426	658.75
514.642	687.75
514.858	683.75
515.074	706.75
515.29	698.75
515.506	702.75
515.721	708.75
515.937	732.75
516.153	739.75
516.369	726.75
516.585	741.75
516.801	775.75
517.016	820.75
517.232	885.75
517.448	922.75
517.664	941.75
517.879	947.75
518.095	954.75
518.311	930.75
518.527	867.75
518.742	817.75
518.958	816.75
519.173	764.75
519.389	730.75
519.605	735.75
519.82	714.75
520.036	694.75
520.251	686.75
520.467	687.75
520.682	720.75
520.898	693.75
521.113	682.75
521.329	680.75
521.544	666.75
521.76	644.75
521.975	655.75
522.19	647.75
522.406	663.75
522.621	642.75
522.836	662.75
523.052	667.75
523.267	640.75
523.482	652.75
523.698	635.75
523.913	634.75
524.128	635.75
524.343	660.75
524.559	632.75
524.774	610.75
524.989	626.75
525.204	628.75
525.419	619.75
525.634	634.75
525.849	619.75
526.064	635.75
526.28	631.75
526.495	631.75
526.71	619.75
526.925	617.75
527.14	616.75
527.355	594.75
527.57	607.75
527.785	599.75
527.999	618.75
528.214	612.75
528.429	631.75
528.644	639.75
528.859	623.75
529.074	628.75
529.289	620.75
529.503	660.75
529.718	620.75
529.933	626.75
530.148	607.75
530.363	619.75
530.577	637.75
530.792	638.75
531.007	640.75
531.221	626.75
531.436	637.75
531.651	624.75
531.865	627.75
532.08	637.75
532.295	638.75
532.509	617.75
532.724	628.75
532.938	626.75
533.153	621.75
533.367	620.75
533.582	616.75
533.796	623.75
534.011	619.75
534.225	600.75
534.44	600.75
534.654	623.75
534.868	616.75
535.083	593.75
535.297	606.75
535.511	580.75
535.726	591.75
535.94	592.75
536.154	607.75
536.369	605.75
536.583	592.75
536.797	572.75
537.011	590.75
537.225	576.75
537.44	591.75
537.654	587.75
537.868	568.75
538.082	565.75
538.296	566.75
538.51	583.75
538.724	593.75
538.938	567.75
539.153	576.75
539.367	546.75
539.581	569.75
539.795	545.75
540.009	566.75
540.222	571.75
540.436	571.75
540.65	542.75
540.864	549.75
541.078	559.75
541.292	570.75
541.506	572.75
541.72	587.75
541.934	546.75
542.147	542.75
542.361	546.75
542.575	552.75
542.789	545.75
543.002	555.75
543.216	531.75
543.43	574.75
543.644	558.75
543.857	542.75
544.071	554.75
544.285	558.75
544.498	558.75
544.712	579.75
544.925	558.75
545.139	584.75
545.352	569.75
545.566	576.75
545.779	574.75
545.993	585.75
546.206	578.75
546.42	578.75
546.633	545.75
546.847	550.75
547.06	554.75
547.274	563.75
547.487	537.75
547.7	553.75
547.914	576.75
548.127	582.75
548.34	555.75
548.554	583.75
548.767	566.75
548.98	567.75
549.193	595.75
549.407	587.75
549.62	553.75
549.833	587.75
550.046	587.75
550.259	562.75
550.473	575.75
550.686	560.75
550.899	561.75
551.112	552.75
551.325	535.75
551.538	548.75
551.751	540.75
551.964	555.75
552.177	560.75
552.39	603.75
552.603	574.75
552.816	604.75
553.029	618.75
553.242	636.75
553.455	621.75
553.667	635.75
553.88	628.75
554.093	629.75
554.306	586.75
554.519	571.75
554.732	552.75
554.944	543.75
555.157	535.75
555.37	540.75
555.583	532.75
555.795	539.75
556.008	511.75
556.221	518.75
556.433	485.75
556.646	473.75
556.859	508.75
557.071	500.75
557.284	488.75
557.496	507.75
557.709	504.75
557.921	489.75
558.134	481.75
558.346	490.75
558.559	469.75
558.771	486.75
558.984	494.75
559.196	488.75
559.409	493.75
559.621	474.75
559.833	450.75
560.046	468.75
560.258	470.75
560.47	468.75
560.683	467.75
560.895	493.75
561.107	491.75
561.32	460.75
561.532	479.75
561.744	478.75
561.956	485.75
562.168	466.75
562.381	473.75
562.593	476.75
562.805	483.75
563.017	478.75
563.229	476.75
563.441	487.75
563.653	495.75
563.865	481.75
564.077	484.75
564.289	484.75
564.501	497.75
564.713	509.75
564.925	502.75
565.137	530.75
565.349	516.75
565.561	521.75
565.773	551.75
565.985	589.75
566.197	574.75
566.408	655.75
566.62	728.75
566.832	754.75
567.044	767.75
567.255	780.75
567.467	762.75
567.679	834.75
567.891	919.75
568.102	944.75
568.314	898.75
568.526	796.75
568.737	714.75
568.949	648.75
569.161	622.75
569.372	575.75
569.584	528.75
569.795	516.75
570.007	495.75
570.218	488.75
570.43	480.75
570.641	501.75
570.853	501.75
571.064	491.75
571.276	485.75
571.487	449.75
571.698	482.75
571.91	447.75
572.121	460.75
572.333	440.75
572.544	439.75
572.755	425.75
572.966	407.75
573.178	392.75
573.389	401.75
573.6	406.75
573.811	405.75
574.023	418.75
574.234	394.75
574.445	408.75
574.656	391.75
574.867	406.75
575.078	403.75
575.289	367.75
575.501	375.75
575.712	392.75
575.923	403.75
576.134	400.75
576.345	382.75
576.556	367.75
576.767	371.75
576.978	362.75
577.188	369.75
577.399	367.75
577.61	380.75
577.821	387.75
578.032	365.75
578.243	376.75
578.454	363.75
578.665	374.75
578.875	371.75
579.086	341.75
579.297	356.75
579.508	358.75
579.718	353.75
579.929	354.75
580.14	346.75
580.35	365.75
580.561	377.75
580.772	359.75
580.982	348.75
581.193	343.75
581.403	351.75
581.614	349.75
581.825	347.75
582.035	348.75
582.246	347.75
582.456	348.75
582.667	335.75
582.877	330.75
583.087	341.75
583.298	340.75
583.508	351.75
583.719	339.75
583.929	360.75
584.139	341.75
584.35	349.75
584.56	343.75
584.77	334.75
584.981	336.75
585.191	328.75
585.401	324.75
585.611	331.75
585.821	342.75
586.032	319.75
586.242	349.75
586.452	330.75
586.662	336.75
586.872	314.75
587.082	319.75
587.292	339.75
587.502	334.75
587.713	332.75
587.923	329.75
588.133	330.75
588.343	333.75
588.553	339.75
588.762	350.75
588.972	336.75
589.182	342.75
589.392	319.75
589.602	344.75
589.812	323.75
590.022	330.75
590.232	333.75
590.441	327.75
590.651	322.75
590.861	326.75
591.071	340.75
591.281	322.75
591.49	323.75
591.7	339.75
591.91	357.75
592.119	356.75
592.329	360.75
592.539	371.75
592.748	378.75
592.958	384.75
593.167	410.75
593.377	379.75
593.587	406.75
593.796	408.75
594.006	401.75
594.215	412.75
594.424	417.75
594.634	403.75
594.843	378.75
595.053	380.75
595.262	362.75
595.472	358.75
595.681	344.75
595.89	343.75
596.1	332.75
596.309	335.75
596.518	317.75
596.727	295.75
596.937	319.75
597.146	294.75
597.355	322.75
597.564	294.75
597.774	297.75
597.983	292.75
598.192	303.75
598.401	295.75
598.61	285.75
598.819	290.75
599.028	291.75
599.237	272.75
599.446	287.75
599.655	291.75
599.864	282.75
600.073	289.75
600.282	273.75
600.491	295.75
600.7	280.75
600.909	278.75
601.118	272.75
601.327	283.75
601.536	274.75
601.745	261.75
601.953	280.75
602.162	282.75
602.371	281.75
602.58	290.75
602.789	270.75
602.997	275.75
603.206	276.75
603.415	270.75
603.623	281.75
603.832	278.75
604.041	275.75
604.249	267.75
604.458	269.75
604.666	273.75
604.875	254.75
605.084	255.75
605.292	266.75
605.501	262.75
605.709	246.75
605.918	263.75
606.126	278.75
606.334	262.75
606.543	269.75
606.751	271.75
606.96	271.75
607.168	263.75
607.376	249.75
607.585	258.75
607.793	268.75
608.001	254.75
608.21	255.75
608.418	246.75
608.626	251.75
608.834	264.75
609.043	259.75
609.251	250.75
609.459	266.75
609.667	252.75
609.875	245.75
610.083	261.75
610.291	266.75
610.499	260.75
610.707	263.75
610.916	243.75
611.124	247.75
611.332	260.75
611.54	270.75
611.748	241.75
611.955	248.75
612.163	229.75
612.371	261.75
612.579	250.75
612.787	237.75
612.995	240.75
613.203	251.75
613.411	243.75
613.618	252.75
613.826	247.75
614.034	239.75
614.242	259.75
614.449	254.75
614.657	254.75
614.865	241.75
615.072	246.75
615.28	244.75
615.488	251.75
615.695	240.75
615.903	233.75
616.111	250.75
616.318	247.75
616.526	246.75
616.733	250.75
616.941	255.75
617.148	243.75
617.356	261.75
617.563	254.75
617.771	243.75
617.978	259.75
618.185	255.75
618.393	263.75
618.6	240.75
618.807	250.75
619.015	262.75
619.222	253.75
619.429	232.75
619.637	237.75
619.844	228.75
620.051	226.75
620.258	233.75
620.466	244.75
620.673	230.75
620.88	235.75
621.087	239.75
621.294	234.75
621.501	239.75
621.708	239.75
621.915	228.75
622.122	220.75
622.329	235.75
622.536	215.75
622.743	216.75
622.95	209.75
623.157	228.75
623.364	221.75
623.571	219.75
623.778	213.75
623.985	231.75
624.192	230.75
624.399	217.75
624.606	216.75
624.812	211.75
625.019	234.75
625.226	221.75
625.433	220.75
625.639	213.75
625.846	222.75
626.053	203.75
626.259	223.75
626.466	202.75
626.673	219.75
626.879	198.75
627.086	203.75
627.293	224.75
627.499	225.75
627.706	204.75
627.912	224.75
628.119	209.75
628.325	206.75
628.532	211.75
628.738	201.75
628.945	222.75
629.151	223.75
629.357	202.75
629.564	198.75
629.77	200.75
629.976	213.75
630.183	196.75
630.389	197.75
630.595	213.75
630.802	186.75
631.008	191.75
631.214	197.75
631.42	206.75
631.627	192.75
631.833	193.75
632.039	182.75
632.245	187.75
632.451	204.75
632.657	202.75
632.863	196.75
633.069	194.75
633.275	207.75
633.481	191.75
633.688	172.75
633.893	190.75
634.099	201.75
634.305	188.75
634.511	170.75
634.717	191.75
634.923	182.75
635.129	204.75
635.335	190.75
635.541	177.75
635.747	180.75
635.952	187.75
636.158	184.75
636.364	175.75
636.57	172.75
636.775	187.75
636.981	197.75
637.187	183.75
637.392	187.75
637.598	190.75
637.804	196.75
638.009	192.75
638.215	167.75
638.421	172.75
638.626	197.75
638.832	183.75
639.037	184.75
639.243	183.75
639.448	179.75
639.654	185.75
639.859	183.75
640.065	173.75
640.27	192.75
640.475	184.75
640.681	174.75
640.886	183.75
641.091	178.75
641.297	200.75
641.502	181.75
641.707	183.75
641.913	174.75
642.118	180.75
642.323	172.75
642.528	178.75
642.733	174.75
642.939	175.75
643.144	179.75
643.349	178.75
643.554	167.75
643.759	184.75
643.964	162.75
644.169	174.75
644.374	165.75
644.579	175.75
644.784	180.75
644.989	172.75
645.194	143.75
645.399	166.75
645.604	168.75
645.809	159.75
646.014	188.75
646.219	181.75
646.423	166.75
646.628	172.75
646.833	163.75
647.038	160.75
647.243	171.75
647.447	170.75
647.652	194.75
647.857	173.75
648.062	191.75
648.266	185.75
648.471	188.75
648.676	195.75
648.88	193.75
649.085	179.75
649.289	167.75
649.494	172.75
649.698	186.75
649.903	185.75
650.107	182.75
650.312	178.75
650.516	165.75
650.721	167.75
650.925	165.75
651.13	166.75
651.334	157.75
651.539	163.75
651.743	152.75
651.947	156.75
652.152	160.75
652.356	163.75
652.56	157.75
652.764	153.75
652.969	144.75
653.173	178.75
653.377	153.75
653.581	155.75
653.785	168.75
653.99	147.75
654.194	156.75
654.398	154.75
654.602	143.75
654.806	159.75
655.01	157.75
655.214	154.75
655.418	151.75
655.622	164.75
655.826	149.75
656.03	160.75
656.234	151.75
656.438	160.75
656.642	152.75
656.846	151.75
657.049	151.75
657.253	141.75
657.457	147.75
657.661	145.75
657.865	134.75
658.068	114.75
658.272	106.75
658.476	102.75
658.68	114.75
658.883	113.75
659.087	120.75
659.291	99.75
659.494	104.75
659.698	106.75
659.901	107.75
660.105	99.75
660.309	90.75
660.512	95.75
660.716	112.75
660.919	94.75
661.123	101.75
661.326	85.75
661.53	97.75
661.733	80.75
661.936	90.75
662.14	85.75
662.343	100.75
662.546	89.75
662.75	88.75
662.953	86.75
663.156	76.75
663.36	96.75
663.563	81.75
663.766	88.75
663.969	102.75
664.173	82.75
664.376	90.75
664.579	79.75
664.782	87.75
664.985	79.75
665.188	84.75
665.391	79.75
665.594	84.75
665.797	79.75
666	75.75
666.203	84.75
666.406	77.75
666.609	82.75
666.812	90.75
667.015	77.75
667.218	87.75
667.421	88.75
667.624	74.75
667.827	87.75
668.03	78.75
668.232	79.75
668.435	91.75
668.638	92.75
668.841	85.75
669.043	73.75
669.246	85.75
669.449	93.75
669.651	100.75
669.854	81.75
670.057	84.75
670.259	86.75
670.462	90.75
670.665	91.75
670.867	89.75
671.07	80.75
671.272	85.75
671.475	77.75
671.677	85.75
671.88	84.75
672.082	89.75
672.284	82.75
672.487	81.75
672.689	80.75
672.892	72.75
