Data from Ni(NO3)2Standard.Agarose3%.GreenCap.LampEnergy5.5.E.O_HRD10591_14-41-24-188.txt Node
Date: Mon Jul 22 14:41:24 EDT 2019
User: cochatt
Spectrometer: HR+D1059
Trigger mode: 1
Integration Time (sec): 1.000000E-1
Scans to average: 1
Electric dark correction enabled: true
Nonlinearity correction enabled: false
Boxcar width: 0
XAxis mode: Wavelengths
Number of Pixels in Spectrum: 2048
>>>>>Begin Spectral Data<<<<<
223.165	-20.94
223.4	-20.94
223.635	-20.94
223.869	-15.94
224.104	-30.94
224.338	-13.94
224.573	-12.94
224.808	-11.94
225.042	6.06
225.277	-0.94
225.511	8.06
225.746	-3.94
225.98	-2.94
226.215	14.06
226.449	11.06
226.683	27.06
226.918	28.06
227.152	20.06
227.387	34.06
227.621	40.06
227.856	47.06
228.09	49.06
228.324	37.06
228.559	40.06
228.793	50.06
229.027	47.06
229.262	67.06
229.496	52.06
229.73	83.06
229.964	55.06
230.199	74.06
230.433	59.06
230.667	71.06
230.901	71.06
231.136	85.06
231.37	74.06
231.604	77.06
231.838	77.06
232.072	69.06
232.306	88.06
232.541	81.06
232.775	78.06
233.009	88.06
233.243	83.06
233.477	89.06
233.711	89.06
233.945	83.06
234.179	81.06
234.413	80.06
234.647	79.06
234.881	75.06
235.115	76.06
235.349	72.06
235.583	66.06
235.817	75.06
236.051	69.06
236.285	75.06
236.519	88.06
236.753	83.06
236.987	73.06
237.221	69.06
237.455	72.06
237.689	82.06
237.922	67.06
238.156	81.06
238.39	65.06
238.624	73.06
238.858	75.06
239.091	69.06
239.325	71.06
239.559	84.06
239.793	79.06
240.027	74.06
240.26	63.06
240.494	70.06
240.728	77.06
240.961	72.06
241.195	89.06
241.429	71.06
241.662	65.06
241.896	73.06
242.13	81.06
242.363	80.06
242.597	67.06
242.83	90.06
243.064	83.06
243.298	72.06
243.531	83.06
243.765	77.06
243.998	66.06
244.232	69.06
244.465	85.06
244.699	73.06
244.932	74.06
245.166	65.06
245.399	79.06
245.633	86.06
245.866	65.06
246.099	62.06
246.333	62.06
246.566	79.06
246.8	73.06
247.033	68.06
247.266	77.06
247.5	72.06
247.733	90.06
247.966	70.06
248.2	62.06
248.433	73.06
248.666	66.06
248.899	63.06
249.133	76.06
249.366	81.06
249.599	79.06
249.832	67.06
250.066	75.06
250.299	69.06
250.532	71.06
250.765	81.06
250.998	87.06
251.231	70.06
251.465	63.06
251.698	72.06
251.931	83.06
252.164	65.06
252.397	71.06
252.63	74.06
252.863	74.06
253.096	75.06
253.329	68.06
253.562	84.06
253.795	71.06
254.028	80.06
254.261	90.06
254.494	83.06
254.727	86.06
254.96	75.06
255.193	90.06
255.426	79.06
255.659	87.06
255.892	76.06
256.124	77.06
256.357	78.06
256.59	85.06
256.823	96.06
257.056	87.06
257.289	58.06
257.521	75.06
257.754	87.06
257.987	76.06
258.22	91.06
258.452	77.06
258.685	73.06
258.918	87.06
259.151	81.06
259.383	90.06
259.616	89.06
259.849	91.06
260.081	84.06
260.314	85.06
260.547	76.06
260.779	84.06
261.012	74.06
261.244	71.06
261.477	72.06
261.71	88.06
261.942	73.06
262.175	74.06
262.407	77.06
262.64	90.06
262.872	85.06
263.105	73.06
263.337	88.06
263.57	68.06
263.802	91.06
264.035	87.06
264.267	95.06
264.499	83.06
264.732	86.06
264.964	85.06
265.197	80.06
265.429	85.06
265.661	83.06
265.894	81.06
266.126	89.06
266.358	95.06
266.591	77.06
266.823	75.06
267.055	67.06
267.287	79.06
267.52	80.06
267.752	78.06
267.984	72.06
268.216	81.06
268.448	85.06
268.681	67.06
268.913	75.06
269.145	81.06
269.377	55.06
269.609	75.06
269.841	77.06
270.073	77.06
270.306	85.06
270.538	77.06
270.77	69.06
271.002	80.06
271.234	85.06
271.466	81.06
271.698	76.06
271.93	74.06
272.162	81.06
272.394	83.06
272.626	88.06
272.858	94.06
273.09	84.06
273.322	83.06
273.553	73.06
273.785	86.06
274.017	87.06
274.249	80.06
274.481	74.06
274.713	79.06
274.945	94.06
275.176	81.06
275.408	93.06
275.64	76.06
275.872	81.06
276.104	106.06
276.335	84.06
276.567	68.06
276.799	78.06
277.031	84.06
277.262	85.06
277.494	70.06
277.726	83.06
277.957	83.06
278.189	92.06
278.421	81.06
278.652	97.06
278.884	79.06
279.115	94.06
279.347	94.06
279.579	74.06
279.81	89.06
280.042	81.06
280.273	87.06
280.505	71.06
280.736	71.06
280.968	73.06
281.199	91.06
281.431	84.06
281.662	88.06
281.894	75.06
282.125	98.06
282.356	78.06
282.588	82.06
282.819	88.06
283.051	89.06
283.282	86.06
283.513	79.06
283.745	82.06
283.976	84.06
284.207	88.06
284.439	80.06
284.67	85.06
284.901	95.06
285.132	89.06
285.364	84.06
285.595	91.06
285.826	96.06
286.057	86.06
286.288	85.06
286.52	94.06
286.751	82.06
286.982	89.06
287.213	84.06
287.444	85.06
287.675	77.06
287.906	84.06
288.138	80.06
288.369	85.06
288.6	89.06
288.831	87.06
289.062	80.06
289.293	90.06
289.524	79.06
289.755	91.06
289.986	82.06
290.217	92.06
290.448	89.06
290.679	73.06
290.91	94.06
291.141	85.06
291.371	111.06
291.602	80.06
291.833	82.06
292.064	92.06
292.295	76.06
292.526	86.06
292.757	84.06
292.987	84.06
293.218	91.06
293.449	88.06
293.68	77.06
293.91	79.06
294.141	85.06
294.372	83.06
294.603	83.06
294.833	82.06
295.064	86.06
295.295	79.06
295.525	85.06
295.756	89.06
295.987	71.06
296.217	80.06
296.448	84.06
296.679	76.06
296.909	80.06
297.14	92.06
297.37	76.06
297.601	76.06
297.831	90.06
298.062	81.06
298.292	81.06
298.523	86.06
298.753	80.06
298.984	76.06
299.214	88.06
299.445	92.06
299.675	77.06
299.905	87.06
300.136	81.06
300.366	85.06
300.597	88.06
300.827	83.06
301.057	94.06
301.288	83.06
301.518	77.06
301.748	79.06
301.979	83.06
302.209	75.06
302.439	76.06
302.669	87.06
302.9	84.06
303.13	88.06
303.36	82.06
303.59	92.06
303.82	99.06
304.051	81.06
304.281	84.06
304.511	67.06
304.741	89.06
304.971	91.06
305.201	85.06
305.431	75.06
305.661	87.06
305.891	80.06
306.121	97.06
306.352	89.06
306.582	83.06
306.812	83.06
307.042	98.06
307.272	89.06
307.502	87.06
307.731	76.06
307.961	69.06
308.191	76.06
308.421	73.06
308.651	75.06
308.881	85.06
309.111	96.06
309.341	95.06
309.571	75.06
309.8	90.06
310.03	91.06
310.26	86.06
310.49	80.06
310.72	80.06
310.949	92.06
311.179	81.06
311.409	78.06
311.639	88.06
311.868	91.06
312.098	84.06
312.328	83.06
312.557	60.06
312.787	83.06
313.017	81.06
313.246	90.06
313.476	82.06
313.706	87.06
313.935	78.06
314.165	79.06
314.394	82.06
314.624	74.06
314.853	77.06
315.083	84.06
315.312	81.06
315.542	88.06
315.771	98.06
316.001	88.06
316.23	80.06
316.46	68.06
316.689	91.06
316.919	78.06
317.148	77.06
317.377	100.06
317.607	77.06
317.836	94.06
318.065	85.06
318.295	83.06
318.524	81.06
318.753	79.06
318.983	87.06
319.212	86.06
319.441	83.06
319.67	88.06
319.9	99.06
320.129	96.06
320.358	83.06
320.587	89.06
320.816	76.06
321.046	89.06
321.275	61.06
321.504	89.06
321.733	62.06
321.962	75.06
322.191	78.06
322.42	83.06
322.649	80.06
322.878	82.06
323.108	83.06
323.337	87.06
323.566	78.06
323.795	80.06
324.024	93.06
324.253	97.06
324.482	74.06
324.71	89.06
324.939	75.06
325.168	90.06
325.397	93.06
325.626	91.06
325.855	77.06
326.084	97.06
326.313	90.06
326.542	84.06
326.77	95.06
326.999	88.06
327.228	99.06
327.457	87.06
327.686	88.06
327.914	85.06
328.143	99.06
328.372	83.06
328.6	76.06
328.829	82.06
329.058	76.06
329.287	86.06
329.515	85.06
329.744	93.06
329.972	84.06
330.201	105.06
330.43	88.06
330.658	90.06
330.887	89.06
331.115	76.06
331.344	93.06
331.572	95.06
331.801	84.06
332.03	81.06
332.258	81.06
332.486	88.06
332.715	87.06
332.943	88.06
333.172	75.06
333.4	85.06
333.629	95.06
333.857	82.06
334.085	87.06
334.314	90.06
334.542	87.06
334.771	92.06
334.999	81.06
335.227	74.06
335.455	87.06
335.684	92.06
335.912	85.06
336.14	84.06
336.369	99.06
336.597	92.06
336.825	99.06
337.053	87.06
337.281	88.06
337.51	84.06
337.738	96.06
337.966	85.06
338.194	88.06
338.422	91.06
338.65	90.06
338.878	105.06
339.106	94.06
339.334	87.06
339.562	80.06
339.79	80.06
340.018	104.06
340.246	68.06
340.474	88.06
340.702	86.06
340.93	81.06
341.158	95.06
341.386	85.06
341.614	79.06
341.842	95.06
342.07	94.06
342.298	85.06
342.526	82.06
342.754	84.06
342.981	72.06
343.209	80.06
343.437	97.06
343.665	90.06
343.893	76.06
344.12	89.06
344.348	79.06
344.576	91.06
344.804	88.06
345.031	83.06
345.259	75.06
345.487	93.06
345.714	77.06
345.942	88.06
346.17	89.06
346.397	94.06
346.625	83.06
346.853	88.06
347.08	72.06
347.308	83.06
347.535	77.06
347.763	94.06
347.99	87.06
348.218	79.06
348.445	75.06
348.673	85.06
348.9	79.06
349.128	73.06
349.355	78.06
349.583	91.06
349.81	82.06
350.037	84.06
350.265	81.06
350.492	87.06
350.72	82.06
350.947	88.06
351.174	80.06
351.402	78.06
351.629	75.06
351.856	80.06
352.083	95.06
352.311	85.06
352.538	75.06
352.765	89.06
352.992	87.06
353.22	80.06
353.447	80.06
353.674	94.06
353.901	83.06
354.128	83.06
354.355	90.06
354.583	92.06
354.81	83.06
355.037	98.06
355.264	76.06
355.491	84.06
355.718	85.06
355.945	87.06
356.172	91.06
356.399	90.06
356.626	85.06
356.853	82.06
357.08	78.06
357.307	74.06
357.534	84.06
357.761	82.06
357.988	95.06
358.215	82.06
358.441	87.06
358.668	87.06
358.895	78.06
359.122	80.06
359.349	94.06
359.576	92.06
359.802	63.06
360.029	63.06
360.256	83.06
360.483	90.06
360.709	95.06
360.936	98.06
361.163	65.06
361.39	74.06
361.616	82.06
361.843	91.06
362.07	81.06
362.296	80.06
362.523	71.06
362.749	103.06
362.976	67.06
363.203	71.06
363.429	79.06
363.656	76.06
363.882	59.06
364.109	83.06
364.335	84.06
364.562	100.06
364.788	79.06
365.015	98.06
365.241	77.06
365.468	70.06
365.694	83.06
365.92	73.06
366.147	85.06
366.373	70.06
366.599	92.06
366.826	79.06
367.052	88.06
367.278	78.06
367.505	72.06
367.731	86.06
367.957	84.06
368.184	86.06
368.41	89.06
368.636	84.06
368.862	86.06
369.089	72.06
369.315	88.06
369.541	83.06
369.767	86.06
369.993	97.06
370.219	84.06
370.445	90.06
370.672	79.06
370.898	89.06
371.124	88.06
371.35	102.06
371.576	80.06
371.802	96.06
372.028	79.06
372.254	79.06
372.48	80.06
372.706	76.06
372.932	73.06
373.158	74.06
373.384	79.06
373.61	71.06
373.835	85.06
374.061	72.06
374.287	75.06
374.513	70.06
374.739	81.06
374.965	75.06
375.191	91.06
375.416	79.06
375.642	90.06
375.868	83.06
376.094	92.06
376.319	72.06
376.545	83.06
376.771	80.06
376.997	88.06
377.222	84.06
377.448	95.06
377.674	70.06
377.899	87.06
378.125	92.06
378.35	75.06
378.576	75.06
378.802	88.06
379.027	83.06
379.253	82.06
379.478	84.06
379.704	77.06
379.929	75.06
380.155	101.06
380.38	86.06
380.606	89.06
380.831	82.06
381.057	83.06
381.282	84.06
381.507	70.06
381.733	83.06
381.958	79.06
382.184	87.06
382.409	90.06
382.634	74.06
382.86	75.06
383.085	83.06
383.31	80.06
383.535	87.06
383.761	74.06
383.986	77.06
384.211	77.06
384.436	84.06
384.662	93.06
384.887	77.06
385.112	92.06
385.337	86.06
385.562	91.06
385.787	79.06
386.013	91.06
386.238	97.06
386.463	82.06
386.688	86.06
386.913	85.06
387.138	86.06
387.363	89.06
387.588	90.06
387.813	81.06
388.038	84.06
388.263	96.06
388.488	82.06
388.713	76.06
388.938	76.06
389.163	89.06
389.387	77.06
389.612	76.06
389.837	83.06
390.062	87.06
390.287	80.06
390.512	91.06
390.736	89.06
390.961	87.06
391.186	85.06
391.411	88.06
391.636	73.06
391.86	81.06
392.085	78.06
392.31	93.06
392.534	88.06
392.759	86.06
392.984	90.06
393.208	75.06
393.433	83.06
393.658	87.06
393.882	87.06
394.107	92.06
394.331	86.06
394.556	96.06
394.78	90.06
395.005	75.06
395.229	93.06
395.454	85.06
395.678	91.06
395.903	82.06
396.127	84.06
396.352	81.06
396.576	77.06
396.801	88.06
397.025	88.06
397.249	82.06
397.474	75.06
397.698	76.06
397.922	83.06
398.147	83.06
398.371	80.06
398.595	89.06
398.82	76.06
399.044	70.06
399.268	79.06
399.492	79.06
399.717	75.06
399.941	96.06
400.165	95.06
400.389	81.06
400.613	89.06
400.837	86.06
401.062	81.06
401.286	83.06
401.51	91.06
401.734	68.06
401.958	88.06
402.182	72.06
402.406	76.06
402.63	83.06
402.854	69.06
403.078	89.06
403.302	94.06
403.526	69.06
403.75	79.06
403.974	87.06
404.198	88.06
404.422	88.06
404.645	92.06
404.869	89.06
405.093	101.06
405.317	82.06
405.541	90.06
405.765	83.06
405.988	69.06
406.212	93.06
406.436	99.06
406.66	78.06
406.883	91.06
407.107	83.06
407.331	84.06
407.555	81.06
407.778	75.06
408.002	85.06
408.226	91.06
408.449	82.06
408.673	75.06
408.896	75.06
409.12	83.06
409.344	78.06
409.567	96.06
409.791	88.06
410.014	87.06
410.238	87.06
410.461	81.06
410.685	91.06
410.908	90.06
411.132	73.06
411.355	86.06
411.578	73.06
411.802	81.06
412.025	78.06
412.249	83.06
412.472	83.06
412.695	81.06
412.919	85.06
413.142	73.06
413.365	67.06
413.589	80.06
413.812	83.06
414.035	81.06
414.258	69.06
414.482	62.06
414.705	83.06
414.928	85.06
415.151	85.06
415.374	83.06
415.597	85.06
415.821	84.06
416.044	89.06
416.267	82.06
416.49	84.06
416.713	81.06
416.936	82.06
417.159	73.06
417.382	82.06
417.605	97.06
417.828	87.06
418.051	83.06
418.274	83.06
418.497	80.06
418.72	86.06
418.943	73.06
419.166	73.06
419.389	86.06
419.611	82.06
419.834	74.06
420.057	98.06
420.28	88.06
420.503	80.06
420.726	93.06
420.948	72.06
421.171	85.06
421.394	97.06
421.617	77.06
421.839	72.06
422.062	92.06
422.285	94.06
422.507	77.06
422.73	85.06
422.953	81.06
423.175	77.06
423.398	83.06
423.621	63.06
423.843	86.06
424.066	76.06
424.288	100.06
424.511	97.06
424.733	86.06
424.956	77.06
425.178	85.06
425.401	77.06
425.623	80.06
425.846	83.06
426.068	80.06
426.291	80.06
426.513	96.06
426.735	89.06
426.958	79.06
427.18	77.06
427.402	82.06
427.625	77.06
427.847	83.06
428.069	92.06
428.292	104.06
428.514	82.06
428.736	62.06
428.958	81.06
429.181	78.06
429.403	74.06
429.625	67.06
429.847	75.06
430.069	74.06
430.292	83.06
430.514	99.06
430.736	67.06
430.958	94.06
431.18	83.06
431.402	69.06
431.624	71.06
431.846	75.06
432.068	82.06
432.29	79.06
432.512	88.06
432.734	83.06
432.956	90.06
433.178	76.06
433.4	76.06
433.622	84.06
433.844	80.06
434.066	76.06
434.287	81.06
434.509	103.06
434.731	79.06
434.953	86.06
435.175	105.06
435.397	90.06
435.618	87.06
435.84	100.06
436.062	95.06
436.284	79.06
436.505	79.06
436.727	80.06
436.949	76.06
437.17	65.06
437.392	72.06
437.614	76.06
437.835	73.06
438.057	80.06
438.278	85.06
438.5	78.06
438.721	70.06
438.943	72.06
439.165	85.06
439.386	84.06
439.608	81.06
439.829	90.06
440.05	84.06
440.272	69.06
440.493	87.06
440.715	70.06
440.936	107.06
441.158	78.06
441.379	83.06
441.6	86.06
441.822	78.06
442.043	86.06
442.264	84.06
442.486	91.06
442.707	73.06
442.928	84.06
443.149	81.06
443.371	95.06
443.592	92.06
443.813	82.06
444.034	87.06
444.255	84.06
444.476	75.06
444.698	74.06
444.919	90.06
445.14	179.06
445.361	145.06
445.582	82.06
445.803	90.06
446.024	90.06
446.245	93.06
446.466	77.06
446.687	91.06
446.908	76.06
447.129	84.06
447.35	80.06
447.571	96.06
447.792	99.06
448.013	74.06
448.234	82.06
448.455	74.06
448.675	67.06
448.896	81.06
449.117	95.06
449.338	86.06
449.559	85.06
449.779	91.06
450	82.06
450.221	87.06
450.442	70.06
450.662	77.06
450.883	74.06
451.104	90.06
451.324	80.06
451.545	91.06
451.766	89.06
451.986	89.06
452.207	84.06
452.428	76.06
452.648	77.06
452.869	82.06
453.089	75.06
453.31	80.06
453.53	90.06
453.751	78.06
453.971	87.06
454.192	82.06
454.412	86.06
454.633	75.06
454.853	77.06
455.073	90.06
455.294	83.06
455.514	68.06
455.734	64.06
455.955	74.06
456.175	82.06
456.395	94.06
456.616	78.06
456.836	81.06
457.056	78.06
457.276	69.06
457.497	86.06
457.717	89.06
457.937	82.06
458.157	80.06
458.377	90.06
458.598	80.06
458.818	82.06
459.038	79.06
459.258	81.06
459.478	89.06
459.698	80.06
459.918	83.06
460.138	87.06
460.358	93.06
460.578	92.06
460.798	84.06
461.018	80.06
461.238	87.06
461.458	87.06
461.678	99.06
461.898	104.06
462.118	83.06
462.338	80.06
462.558	85.06
462.777	80.06
462.997	112.06
463.217	91.06
463.437	87.06
463.657	76.06
463.876	87.06
464.096	91.06
464.316	89.06
464.536	79.06
464.755	92.06
464.975	85.06
465.195	89.06
465.414	96.06
465.634	103.06
465.854	74.06
466.073	100.06
466.293	84.06
466.512	78.06
466.732	80.06
466.951	90.06
467.171	79.06
467.391	87.06
467.61	81.06
467.829	67.06
468.049	75.06
468.268	84.06
468.488	79.06
468.707	83.06
468.927	86.06
469.146	83.06
469.365	72.06
469.585	89.06
469.804	94.06
470.023	82.06
470.243	90.06
470.462	83.06
470.681	82.06
470.901	77.06
471.12	90.06
471.339	97.06
471.558	87.06
471.777	74.06
471.997	91.06
472.216	78.06
472.435	70.06
472.654	75.06
472.873	82.06
473.092	91.06
473.311	90.06
473.53	88.06
473.749	87.06
473.968	89.06
474.187	91.06
474.406	80.06
474.625	91.06
474.844	87.06
475.063	87.06
475.282	73.06
475.501	81.06
475.72	70.06
475.939	84.06
476.158	81.06
476.377	85.06
476.596	89.06
476.814	74.06
477.033	77.06
477.252	105.06
477.471	85.06
477.69	78.06
477.908	82.06
478.127	88.06
478.346	92.06
478.564	86.06
478.783	86.06
479.002	88.06
479.22	88.06
479.439	80.06
479.658	85.06
479.876	80.06
480.095	77.06
480.313	93.06
480.532	91.06
480.751	84.06
480.969	79.06
481.188	88.06
481.406	88.06
481.624	91.06
481.843	66.06
482.061	84.06
482.28	84.06
482.498	96.06
482.717	87.06
482.935	84.06
483.153	83.06
483.372	92.06
483.59	99.06
483.808	82.06
484.027	81.06
484.245	89.06
484.463	87.06
484.681	104.06
484.9	82.06
485.118	88.06
485.336	76.06
485.554	88.06
485.772	95.06
485.99	93.06
486.209	100.06
486.427	85.06
486.645	80.06
486.863	85.06
487.081	98.06
487.299	89.06
487.517	90.06
487.735	92.06
487.953	90.06
488.171	99.06
488.389	85.06
488.607	89.06
488.825	98.06
489.043	90.06
489.261	96.06
489.479	81.06
489.696	102.06
489.914	100.06
490.132	91.06
490.35	91.06
490.568	102.06
490.786	84.06
491.003	99.06
491.221	94.06
491.439	96.06
491.657	88.06
491.874	90.06
492.092	102.06
492.31	77.06
492.527	98.06
492.745	86.06
492.963	117.06
493.18	86.06
493.398	88.06
493.615	98.06
493.833	71.06
494.05	84.06
494.268	76.06
494.485	90.06
494.703	99.06
494.92	98.06
495.138	95.06
495.355	96.06
495.573	95.06
495.79	92.06
496.008	92.06
496.225	91.06
496.442	97.06
496.66	98.06
496.877	94.06
497.094	81.06
497.312	91.06
497.529	98.06
497.746	85.06
497.963	75.06
498.181	84.06
498.398	96.06
498.615	90.06
498.832	92.06
499.049	91.06
499.267	90.06
499.484	102.06
499.701	117.06
499.918	89.06
500.135	109.06
500.352	107.06
500.569	95.06
500.786	122.06
501.003	114.06
501.22	97.06
501.437	100.06
501.654	85.06
501.871	104.06
502.088	99.06
502.305	102.06
502.522	87.06
502.739	96.06
502.956	95.06
503.172	76.06
503.389	99.06
503.606	103.06
503.823	104.06
504.04	92.06
504.256	92.06
504.473	82.06
504.69	95.06
504.907	81.06
505.123	90.06
505.34	98.06
505.557	88.06
505.773	88.06
505.99	96.06
506.207	95.06
506.423	99.06
506.64	94.06
506.856	100.06
507.073	89.06
507.289	78.06
507.506	82.06
507.722	95.06
507.939	92.06
508.155	90.06
508.372	92.06
508.588	103.06
508.805	95.06
509.021	85.06
509.238	100.06
509.454	90.06
509.67	74.06
509.887	87.06
510.103	83.06
510.319	89.06
510.536	100.06
510.752	85.06
510.968	92.06
511.184	66.06
511.401	88.06
511.617	91.06
511.833	94.06
512.049	94.06
512.265	99.06
512.481	93.06
512.698	80.06
512.914	99.06
513.13	92.06
513.346	93.06
513.562	101.06
513.778	96.06
513.994	99.06
514.21	90.06
514.426	88.06
514.642	72.06
514.858	93.06
515.074	85.06
515.29	89.06
515.506	84.06
515.721	81.06
515.937	97.06
516.153	83.06
516.369	100.06
516.585	92.06
516.801	89.06
517.016	79.06
517.232	84.06
517.448	92.06
517.664	96.06
517.879	101.06
518.095	106.06
518.311	94.06
518.527	84.06
518.742	98.06
518.958	90.06
519.173	100.06
519.389	95.06
519.605	85.06
519.82	98.06
520.036	93.06
520.251	89.06
520.467	83.06
520.682	90.06
520.898	93.06
521.113	89.06
521.329	77.06
521.544	71.06
521.76	81.06
521.975	88.06
522.19	92.06
522.406	75.06
522.621	82.06
522.836	77.06
523.052	106.06
523.267	96.06
523.482	85.06
523.698	82.06
523.913	104.06
524.128	93.06
524.343	96.06
524.559	97.06
524.774	70.06
524.989	93.06
525.204	86.06
525.419	92.06
525.634	95.06
525.849	77.06
526.064	86.06
526.28	88.06
526.495	96.06
526.71	80.06
526.925	80.06
527.14	87.06
527.355	84.06
527.57	86.06
527.785	82.06
527.999	80.06
528.214	83.06
528.429	73.06
528.644	79.06
528.859	73.06
529.074	98.06
529.289	88.06
529.503	88.06
529.718	100.06
529.933	104.06
530.148	81.06
530.363	83.06
530.577	91.06
530.792	94.06
531.007	97.06
531.221	93.06
531.436	80.06
531.651	66.06
531.865	88.06
532.08	84.06
532.295	88.06
532.509	98.06
532.724	83.06
532.938	92.06
533.153	79.06
533.367	91.06
533.582	85.06
533.796	78.06
534.011	77.06
534.225	81.06
534.44	97.06
534.654	95.06
534.868	92.06
535.083	101.06
535.297	84.06
535.511	84.06
535.726	99.06
535.94	111.06
536.154	97.06
536.369	92.06
536.583	89.06
536.797	70.06
537.011	87.06
537.225	81.06
537.44	85.06
537.654	101.06
537.868	87.06
538.082	89.06
538.296	95.06
538.51	93.06
538.724	89.06
538.938	105.06
539.153	103.06
539.367	85.06
539.581	85.06
539.795	83.06
540.009	85.06
540.222	75.06
540.436	81.06
540.65	90.06
540.864	75.06
541.078	85.06
541.292	87.06
541.506	78.06
541.72	86.06
541.934	103.06
542.147	86.06
542.361	83.06
542.575	81.06
542.789	100.06
543.002	88.06
543.216	84.06
543.43	87.06
543.644	89.06
543.857	99.06
544.071	100.06
544.285	77.06
544.498	81.06
544.712	100.06
544.925	83.06
545.139	93.06
545.352	89.06
545.566	88.06
545.779	83.06
545.993	103.06
546.206	89.06
546.42	86.06
546.633	100.06
546.847	82.06
547.06	84.06
547.274	88.06
547.487	88.06
547.7	93.06
547.914	89.06
548.127	98.06
548.34	77.06
548.554	105.06
548.767	91.06
548.98	86.06
549.193	89.06
549.407	96.06
549.62	104.06
549.833	86.06
550.046	81.06
550.259	85.06
550.473	101.06
550.686	101.06
550.899	76.06
551.112	108.06
551.325	100.06
551.538	85.06
551.751	83.06
551.964	86.06
552.177	90.06
552.39	88.06
552.603	97.06
552.816	87.06
553.029	91.06
553.242	92.06
553.455	103.06
553.667	93.06
553.88	84.06
554.093	99.06
554.306	108.06
554.519	81.06
554.732	76.06
554.944	80.06
555.157	85.06
555.37	98.06
555.583	91.06
555.795	87.06
556.008	83.06
556.221	84.06
556.433	78.06
556.646	89.06
556.859	87.06
557.071	91.06
557.284	82.06
557.496	90.06
557.709	76.06
557.921	87.06
558.134	95.06
558.346	81.06
558.559	75.06
558.771	103.06
558.984	82.06
559.196	88.06
559.409	90.06
559.621	94.06
559.833	75.06
560.046	92.06
560.258	93.06
560.47	103.06
560.683	81.06
560.895	88.06
561.107	85.06
561.32	84.06
561.532	88.06
561.744	86.06
561.956	77.06
562.168	86.06
562.381	88.06
562.593	83.06
562.805	91.06
563.017	84.06
563.229	89.06
563.441	92.06
563.653	84.06
563.865	86.06
564.077	94.06
564.289	93.06
564.501	88.06
564.713	82.06
564.925	95.06
565.137	98.06
565.349	90.06
565.561	83.06
565.773	88.06
565.985	87.06
566.197	88.06
566.408	91.06
566.62	88.06
566.832	83.06
567.044	84.06
567.255	89.06
567.467	95.06
567.679	79.06
567.891	90.06
568.102	87.06
568.314	85.06
568.526	95.06
568.737	83.06
568.949	89.06
569.161	84.06
569.372	84.06
569.584	88.06
569.795	92.06
570.007	89.06
570.218	75.06
570.43	88.06
570.641	97.06
570.853	85.06
571.064	76.06
571.276	73.06
571.487	85.06
571.698	87.06
571.91	78.06
572.121	83.06
572.333	75.06
572.544	74.06
572.755	82.06
572.966	75.06
573.178	80.06
573.389	83.06
573.6	86.06
573.811	81.06
574.023	84.06
574.234	96.06
574.445	83.06
574.656	88.06
574.867	95.06
575.078	100.06
575.289	80.06
575.501	88.06
575.712	86.06
575.923	99.06
576.134	96.06
576.345	94.06
576.556	100.06
576.767	94.06
576.978	79.06
577.188	83.06
577.399	101.06
577.61	77.06
577.821	78.06
578.032	90.06
578.243	92.06
578.454	93.06
578.665	83.06
578.875	87.06
579.086	95.06
579.297	82.06
579.508	91.06
579.718	101.06
579.929	77.06
580.14	80.06
580.35	82.06
580.561	87.06
580.772	91.06
580.982	92.06
581.193	77.06
581.403	80.06
581.614	81.06
581.825	95.06
582.035	81.06
582.246	90.06
582.456	84.06
582.667	78.06
582.877	90.06
583.087	89.06
583.298	89.06
583.508	87.06
583.719	80.06
583.929	92.06
584.139	81.06
584.35	98.06
584.56	87.06
584.77	87.06
584.981	86.06
585.191	80.06
585.401	93.06
585.611	94.06
585.821	75.06
586.032	78.06
586.242	90.06
586.452	92.06
586.662	67.06
586.872	90.06
587.082	90.06
587.292	79.06
587.502	89.06
587.713	88.06
587.923	80.06
588.133	88.06
588.343	89.06
588.553	86.06
588.762	103.06
588.972	92.06
589.182	84.06
589.392	91.06
589.602	86.06
589.812	92.06
590.022	100.06
590.232	88.06
590.441	85.06
590.651	76.06
590.861	84.06
591.071	85.06
591.281	80.06
591.49	75.06
591.7	95.06
591.91	88.06
592.119	83.06
592.329	91.06
592.539	88.06
592.748	85.06
592.958	104.06
593.167	84.06
593.377	79.06
593.587	89.06
593.796	83.06
594.006	78.06
594.215	84.06
594.424	87.06
594.634	87.06
594.843	90.06
595.053	83.06
595.262	94.06
595.472	73.06
595.681	78.06
595.89	75.06
596.1	83.06
596.309	88.06
596.518	86.06
596.727	84.06
596.937	76.06
597.146	99.06
597.355	104.06
597.564	85.06
597.774	100.06
597.983	79.06
598.192	96.06
598.401	96.06
598.61	85.06
598.819	77.06
599.028	85.06
599.237	67.06
599.446	94.06
599.655	96.06
599.864	81.06
600.073	78.06
600.282	88.06
600.491	87.06
600.7	83.06
600.909	89.06
601.118	74.06
601.327	79.06
601.536	76.06
601.745	79.06
601.953	86.06
602.162	85.06
602.371	80.06
602.58	85.06
602.789	100.06
602.997	82.06
603.206	77.06
603.415	81.06
603.623	71.06
603.832	75.06
604.041	86.06
604.249	81.06
604.458	80.06
604.666	88.06
604.875	83.06
605.084	72.06
605.292	81.06
605.501	74.06
605.709	87.06
605.918	78.06
606.126	91.06
606.334	88.06
606.543	92.06
606.751	87.06
606.96	80.06
607.168	74.06
607.376	72.06
607.585	73.06
607.793	83.06
608.001	87.06
608.21	82.06
608.418	100.06
608.626	80.06
608.834	92.06
609.043	93.06
609.251	96.06
609.459	68.06
609.667	102.06
609.875	93.06
610.083	95.06
610.291	94.06
610.499	93.06
610.707	85.06
610.916	77.06
611.124	85.06
611.332	81.06
611.54	73.06
611.748	88.06
611.955	84.06
612.163	77.06
612.371	91.06
612.579	97.06
612.787	84.06
612.995	89.06
613.203	93.06
613.411	90.06
613.618	83.06
613.826	85.06
614.034	87.06
614.242	76.06
614.449	86.06
614.657	83.06
614.865	86.06
615.072	77.06
615.28	95.06
615.488	76.06
615.695	91.06
615.903	84.06
616.111	90.06
616.318	88.06
616.526	78.06
616.733	71.06
616.941	80.06
617.148	94.06
617.356	93.06
617.563	84.06
617.771	80.06
617.978	91.06
618.185	74.06
618.393	75.06
618.6	91.06
618.807	90.06
619.015	94.06
619.222	83.06
619.429	85.06
619.637	68.06
619.844	79.06
620.051	89.06
620.258	87.06
620.466	93.06
620.673	91.06
620.88	83.06
621.087	67.06
621.294	79.06
621.501	95.06
621.708	106.06
621.915	66.06
622.122	93.06
622.329	82.06
622.536	90.06
622.743	79.06
622.95	71.06
623.157	88.06
623.364	90.06
623.571	81.06
623.778	79.06
623.985	84.06
624.192	75.06
624.399	88.06
624.606	86.06
624.812	94.06
625.019	87.06
625.226	88.06
625.433	85.06
625.639	83.06
625.846	90.06
626.053	78.06
626.259	87.06
626.466	86.06
626.673	98.06
626.879	84.06
627.086	85.06
627.293	92.06
627.499	106.06
627.706	69.06
627.912	89.06
628.119	75.06
628.325	76.06
628.532	77.06
628.738	84.06
628.945	93.06
629.151	98.06
629.357	77.06
629.564	94.06
629.77	87.06
629.976	72.06
630.183	83.06
630.389	93.06
630.595	92.06
630.802	81.06
631.008	87.06
631.214	73.06
631.42	83.06
631.627	88.06
631.833	83.06
632.039	76.06
632.245	82.06
632.451	89.06
632.657	86.06
632.863	98.06
633.069	88.06
633.275	89.06
633.481	82.06
633.688	81.06
633.893	84.06
634.099	82.06
634.305	78.06
634.511	88.06
634.717	90.06
634.923	66.06
635.129	75.06
635.335	84.06
635.541	62.06
635.747	74.06
635.952	100.06
636.158	80.06
636.364	91.06
636.57	77.06
636.775	88.06
636.981	84.06
637.187	90.06
637.392	85.06
637.598	75.06
637.804	89.06
638.009	94.06
638.215	82.06
638.421	80.06
638.626	86.06
638.832	83.06
639.037	81.06
639.243	86.06
639.448	87.06
639.654	98.06
639.859	95.06
640.065	92.06
640.27	78.06
640.475	85.06
640.681	93.06
640.886	64.06
641.091	83.06
641.297	79.06
641.502	88.06
641.707	90.06
641.913	79.06
642.118	77.06
642.323	87.06
642.528	82.06
642.733	84.06
642.939	77.06
643.144	92.06
643.349	79.06
643.554	95.06
643.759	96.06
643.964	83.06
644.169	80.06
644.374	87.06
644.579	95.06
644.784	82.06
644.989	81.06
645.194	82.06
645.399	81.06
645.604	93.06
645.809	88.06
646.014	81.06
646.219	90.06
646.423	96.06
646.628	76.06
646.833	76.06
647.038	80.06
647.243	85.06
647.447	82.06
647.652	86.06
647.857	87.06
648.062	80.06
648.266	93.06
648.471	93.06
648.676	91.06
648.88	92.06
649.085	82.06
649.289	76.06
649.494	85.06
649.698	75.06
649.903	92.06
650.107	74.06
650.312	84.06
650.516	75.06
650.721	87.06
650.925	85.06
651.13	84.06
651.334	96.06
651.539	78.06
651.743	87.06
651.947	88.06
652.152	76.06
652.356	98.06
652.56	68.06
652.764	85.06
652.969	72.06
653.173	76.06
653.377	78.06
653.581	86.06
653.785	77.06
653.99	90.06
654.194	80.06
654.398	82.06
654.602	87.06
654.806	72.06
655.01	71.06
655.214	84.06
655.418	92.06
655.622	88.06
655.826	85.06
656.03	88.06
656.234	68.06
656.438	75.06
656.642	84.06
656.846	84.06
657.049	83.06
657.253	81.06
657.457	93.06
657.661	80.06
657.865	88.06
658.068	85.06
658.272	73.06
658.476	77.06
658.68	93.06
658.883	78.06
659.087	77.06
659.291	84.06
659.494	85.06
659.698	77.06
659.901	80.06
660.105	73.06
660.309	80.06
660.512	76.06
660.716	70.06
660.919	91.06
661.123	67.06
661.326	83.06
661.53	71.06
661.733	90.06
661.936	66.06
662.14	84.06
662.343	84.06
662.546	76.06
662.75	74.06
662.953	81.06
663.156	78.06
663.36	84.06
663.563	73.06
663.766	78.06
663.969	97.06
664.173	72.06
664.376	85.06
664.579	76.06
664.782	90.06
664.985	75.06
665.188	84.06
665.391	76.06
665.594	83.06
665.797	73.06
666	70.06
666.203	66.06
666.406	87.06
666.609	83.06
666.812	81.06
667.015	77.06
667.218	81.06
667.421	76.06
667.624	78.06
667.827	85.06
668.03	76.06
668.232	87.06
668.435	76.06
668.638	89.06
668.841	86.06
669.043	73.06
669.246	78.06
669.449	73.06
669.651	80.06
669.854	77.06
670.057	88.06
670.259	89.06
670.462	73.06
670.665	88.06
670.867	88.06
671.07	77.06
671.272	81.06
671.475	65.06
671.677	73.06
671.88	81.06
672.082	71.06
672.284	73.06
672.487	73.06
672.689	75.06
672.892	74.06
