Data from Ni(NO3)2@0.0625M.TitratingCurve.Agarose3%dH2O.NegLispCup.LampEnergy10.LIBS07252019_HRD10591_18-14-29-569.txt Node
Date: Thu Jul 25 18:14:29 EDT 2019
User: cochatt
Spectrometer: HR+D1059
Trigger mode: 1
Integration Time (sec): 1.000000E-1
Scans to average: 1
Electric dark correction enabled: true
Nonlinearity correction enabled: false
Boxcar width: 0
XAxis mode: Wavelengths
Number of Pixels in Spectrum: 2048
>>>>>Begin Spectral Data<<<<<
223.165	-21.56
223.4	-21.56
223.635	-21.56
223.869	-8.56
224.104	-8.56
224.338	-3.56
224.573	-23.56
224.808	-14.56
225.042	-16.56
225.277	-11.56
225.511	3.44
225.746	6.44
225.98	-5.56
226.215	-0.56
226.449	18.44
226.683	23.44
226.918	33.44
227.152	29.44
227.387	24.44
227.621	44.44
227.856	44.44
228.09	43.44
228.324	44.44
228.559	53.44
228.793	56.44
229.027	89.44
229.262	104.44
229.496	99.44
229.73	107.44
229.964	107.44
230.199	124.44
230.433	122.44
230.667	125.44
230.901	117.44
231.136	128.44
231.37	132.44
231.604	136.44
231.838	121.44
232.072	140.44
232.306	150.44
232.541	126.44
232.775	121.44
233.009	125.44
233.243	131.44
233.477	132.44
233.711	136.44
233.945	128.44
234.179	138.44
234.413	103.44
234.647	126.44
234.881	123.44
235.115	142.44
235.349	133.44
235.583	141.44
235.817	132.44
236.051	138.44
236.285	130.44
236.519	138.44
236.753	121.44
236.987	130.44
237.221	143.44
237.455	132.44
237.689	120.44
237.922	137.44
238.156	141.44
238.39	126.44
238.624	144.44
238.858	142.44
239.091	141.44
239.325	148.44
239.559	156.44
239.793	158.44
240.027	162.44
240.26	142.44
240.494	149.44
240.728	144.44
240.961	143.44
241.195	161.44
241.429	162.44
241.662	147.44
241.896	161.44
242.13	173.44
242.363	159.44
242.597	158.44
242.83	158.44
243.064	177.44
243.298	168.44
243.531	160.44
243.765	164.44
243.998	163.44
244.232	161.44
244.465	177.44
244.699	167.44
244.932	162.44
245.166	172.44
245.399	164.44
245.633	172.44
245.866	164.44
246.099	171.44
246.333	170.44
246.566	188.44
246.8	186.44
247.033	184.44
247.266	164.44
247.5	174.44
247.733	189.44
247.966	198.44
248.2	192.44
248.433	189.44
248.666	176.44
248.899	180.44
249.133	192.44
249.366	209.44
249.599	193.44
249.832	198.44
250.066	184.44
250.299	198.44
250.532	200.44
250.765	204.44
250.998	205.44
251.231	214.44
251.465	198.44
251.698	206.44
251.931	195.44
252.164	216.44
252.397	190.44
252.63	233.44
252.863	206.44
253.096	222.44
253.329	202.44
253.562	214.44
253.795	212.44
254.028	234.44
254.261	220.44
254.494	238.44
254.727	214.44
254.96	231.44
255.193	214.44
255.426	214.44
255.659	218.44
255.892	220.44
256.124	209.44
256.357	242.44
256.59	242.44
256.823	219.44
257.056	224.44
257.289	241.44
257.521	228.44
257.754	229.44
257.987	231.44
258.22	251.44
258.452	243.44
258.685	216.44
258.918	230.44
259.151	245.44
259.383	229.44
259.616	235.44
259.849	251.44
260.081	252.44
260.314	250.44
260.547	256.44
260.779	251.44
261.012	257.44
261.244	267.44
261.477	251.44
261.71	247.44
261.942	243.44
262.175	254.44
262.407	264.44
262.64	267.44
262.872	237.44
263.105	245.44
263.337	275.44
263.57	258.44
263.802	285.44
264.035	258.44
264.267	250.44
264.499	270.44
264.732	271.44
264.964	257.44
265.197	270.44
265.429	258.44
265.661	263.44
265.894	272.44
266.126	260.44
266.358	255.44
266.591	267.44
266.823	273.44
267.055	261.44
267.287	276.44
267.52	268.44
267.752	288.44
267.984	280.44
268.216	263.44
268.448	290.44
268.681	271.44
268.913	301.44
269.145	298.44
269.377	296.44
269.609	281.44
269.841	302.44
270.073	275.44
270.306	265.44
270.538	276.44
270.77	299.44
271.002	297.44
271.234	289.44
271.466	306.44
271.698	311.44
271.93	301.44
272.162	299.44
272.394	296.44
272.626	295.44
272.858	292.44
273.09	286.44
273.322	308.44
273.553	305.44
273.785	303.44
274.017	297.44
274.249	304.44
274.481	303.44
274.713	299.44
274.945	323.44
275.176	311.44
275.408	333.44
275.64	330.44
275.872	324.44
276.104	320.44
276.335	320.44
276.567	328.44
276.799	310.44
277.031	315.44
277.262	337.44
277.494	330.44
277.726	325.44
277.957	325.44
278.189	315.44
278.421	324.44
278.652	330.44
278.884	329.44
279.115	339.44
279.347	341.44
279.579	340.44
279.81	331.44
280.042	328.44
280.273	334.44
280.505	340.44
280.736	333.44
280.968	352.44
281.199	364.44
281.431	350.44
281.662	350.44
281.894	381.44
282.125	370.44
282.356	361.44
282.588	356.44
282.819	361.44
283.051	349.44
283.282	376.44
283.513	358.44
283.745	370.44
283.976	368.44
284.207	371.44
284.439	372.44
284.67	375.44
284.901	384.44
285.132	390.44
285.364	370.44
285.595	387.44
285.826	364.44
286.057	380.44
286.288	372.44
286.52	357.44
286.751	388.44
286.982	380.44
287.213	372.44
287.444	373.44
287.675	376.44
287.906	398.44
288.138	401.44
288.369	381.44
288.6	388.44
288.831	384.44
289.062	397.44
289.293	381.44
289.524	407.44
289.755	404.44
289.986	388.44
290.217	399.44
290.448	382.44
290.679	397.44
290.91	391.44
291.141	409.44
291.371	422.44
291.602	403.44
291.833	410.44
292.064	400.44
292.295	395.44
292.526	400.44
292.757	398.44
292.987	408.44
293.218	408.44
293.449	400.44
293.68	424.44
293.91	404.44
294.141	413.44
294.372	403.44
294.603	419.44
294.833	385.44
295.064	423.44
295.295	385.44
295.525	394.44
295.756	419.44
295.987	427.44
296.217	419.44
296.448	428.44
296.679	414.44
296.909	403.44
297.14	430.44
297.37	427.44
297.601	423.44
297.831	445.44
298.062	434.44
298.292	435.44
298.523	460.44
298.753	453.44
298.984	437.44
299.214	448.44
299.445	453.44
299.675	433.44
299.905	450.44
300.136	442.44
300.366	453.44
300.597	453.44
300.827	474.44
301.057	461.44
301.288	462.44
301.518	477.44
301.748	456.44
301.979	449.44
302.209	459.44
302.439	473.44
302.669	474.44
302.9	453.44
303.13	446.44
303.36	459.44
303.59	470.44
303.82	455.44
304.051	466.44
304.281	452.44
304.511	460.44
304.741	466.44
304.971	438.44
305.201	445.44
305.431	462.44
305.661	460.44
305.891	471.44
306.121	438.44
306.352	445.44
306.582	460.44
306.812	468.44
307.042	432.44
307.272	428.44
307.502	456.44
307.731	455.44
307.961	456.44
308.191	452.44
308.421	449.44
308.651	430.44
308.881	448.44
309.111	436.44
309.341	434.44
309.571	454.44
309.8	445.44
310.03	449.44
310.26	470.44
310.49	465.44
310.72	446.44
310.949	432.44
311.179	450.44
311.409	459.44
311.639	454.44
311.868	464.44
312.098	459.44
312.328	454.44
312.557	479.44
312.787	438.44
313.017	464.44
313.246	484.44
313.476	464.44
313.706	476.44
313.935	477.44
314.165	492.44
314.394	471.44
314.624	467.44
314.853	485.44
315.083	459.44
315.312	481.44
315.542	476.44
315.771	473.44
316.001	480.44
316.23	484.44
316.46	470.44
316.689	466.44
316.919	459.44
317.148	448.44
317.377	456.44
317.607	481.44
317.836	484.44
318.065	479.44
318.295	483.44
318.524	485.44
318.753	461.44
318.983	457.44
319.212	460.44
319.441	475.44
319.67	483.44
319.9	465.44
320.129	468.44
320.358	471.44
320.587	476.44
320.816	482.44
321.046	462.44
321.275	472.44
321.504	451.44
321.733	471.44
321.962	471.44
322.191	480.44
322.42	465.44
322.649	468.44
322.878	476.44
323.108	473.44
323.337	485.44
323.566	465.44
323.795	489.44
324.024	514.44
324.253	490.44
324.482	482.44
324.71	496.44
324.939	476.44
325.168	485.44
325.397	498.44
325.626	502.44
325.855	521.44
326.084	494.44
326.313	538.44
326.542	519.44
326.77	522.44
326.999	521.44
327.228	502.44
327.457	525.44
327.686	500.44
327.914	521.44
328.143	508.44
328.372	529.44
328.6	506.44
328.829	544.44
329.058	522.44
329.287	528.44
329.515	508.44
329.744	535.44
329.972	530.44
330.201	525.44
330.43	531.44
330.658	505.44
330.887	543.44
331.115	539.44
331.344	554.44
331.572	535.44
331.801	578.44
332.03	582.44
332.258	590.44
332.486	594.44
332.715	615.44
332.943	642.44
333.172	677.44
333.4	700.44
333.629	693.44
333.857	711.44
334.085	697.44
334.314	687.44
334.542	669.44
334.771	666.44
334.999	660.44
335.227	641.44
335.455	638.44
335.684	638.44
335.912	645.44
336.14	617.44
336.369	630.44
336.597	656.44
336.825	640.44
337.053	635.44
337.281	632.44
337.51	607.44
337.738	622.44
337.966	590.44
338.194	580.44
338.422	594.44
338.65	556.44
338.878	557.44
339.106	574.44
339.334	587.44
339.562	571.44
339.79	538.44
340.018	562.44
340.246	545.44
340.474	536.44
340.702	554.44
340.93	565.44
341.158	564.44
341.386	553.44
341.614	568.44
341.842	569.44
342.07	530.44
342.298	543.44
342.526	525.44
342.754	535.44
342.981	542.44
343.209	550.44
343.437	590.44
343.665	629.44
343.893	678.44
344.12	693.44
344.348	660.44
344.576	609.44
344.804	611.44
345.031	597.44
345.259	560.44
345.487	558.44
345.714	560.44
345.942	563.44
346.17	561.44
346.397	568.44
346.625	548.44
346.853	532.44
347.08	548.44
347.308	544.44
347.535	554.44
347.763	567.44
347.99	564.44
348.218	555.44
348.445	539.44
348.673	533.44
348.9	544.44
349.128	554.44
349.355	553.44
349.583	539.44
349.81	534.44
350.037	538.44
350.265	518.44
350.492	508.44
350.72	534.44
350.947	514.44
351.174	531.44
351.402	540.44
351.629	517.44
351.856	523.44
352.083	525.44
352.311	535.44
352.538	530.44
352.765	527.44
352.992	525.44
353.22	520.44
353.447	519.44
353.674	518.44
353.901	525.44
354.128	506.44
354.355	510.44
354.583	515.44
354.81	523.44
355.037	511.44
355.264	526.44
355.491	532.44
355.718	520.44
355.945	535.44
356.172	508.44
356.399	523.44
356.626	545.44
356.853	548.44
357.08	532.44
357.307	521.44
357.534	506.44
357.761	521.44
357.988	512.44
358.215	514.44
358.441	506.44
358.668	526.44
358.895	535.44
359.122	534.44
359.349	544.44
359.576	522.44
359.802	516.44
360.029	502.44
360.256	532.44
360.483	521.44
360.709	518.44
360.936	507.44
361.163	509.44
361.39	507.44
361.616	526.44
361.843	509.44
362.07	550.44
362.296	508.44
362.523	506.44
362.749	517.44
362.976	505.44
363.203	521.44
363.429	505.44
363.656	513.44
363.882	490.44
364.109	490.44
364.335	507.44
364.562	500.44
364.788	535.44
365.015	497.44
365.241	506.44
365.468	508.44
365.694	514.44
365.92	512.44
366.147	505.44
366.373	514.44
366.599	521.44
366.826	526.44
367.052	524.44
367.278	505.44
367.505	522.44
367.731	527.44
367.957	514.44
368.184	532.44
368.41	517.44
368.636	512.44
368.862	544.44
369.089	534.44
369.315	529.44
369.541	546.44
369.767	538.44
369.993	528.44
370.219	552.44
370.445	537.44
370.672	552.44
370.898	567.44
371.124	544.44
371.35	572.44
371.576	565.44
371.802	560.44
372.028	562.44
372.254	558.44
372.48	578.44
372.706	597.44
372.932	610.44
373.158	616.44
373.384	582.44
373.61	557.44
373.835	558.44
374.061	577.44
374.287	576.44
374.513	582.44
374.739	591.44
374.965	632.44
375.191	632.44
375.416	640.44
375.642	603.44
375.868	597.44
376.094	593.44
376.319	579.44
376.545	586.44
376.771	567.44
376.997	578.44
377.222	565.44
377.448	583.44
377.674	558.44
377.899	565.44
378.125	534.44
378.35	582.44
378.576	558.44
378.802	549.44
379.027	555.44
379.253	552.44
379.478	560.44
379.704	546.44
379.929	552.44
380.155	565.44
380.38	552.44
380.606	574.44
380.831	565.44
381.057	569.44
381.282	587.44
381.507	568.44
381.733	576.44
381.958	567.44
382.184	581.44
382.409	608.44
382.634	599.44
382.86	600.44
383.085	596.44
383.31	611.44
383.535	619.44
383.761	621.44
383.986	642.44
384.211	652.44
384.436	640.44
384.662	661.44
384.887	677.44
385.112	665.44
385.337	668.44
385.562	678.44
385.787	694.44
386.013	698.44
386.238	682.44
386.463	683.44
386.688	681.44
386.913	663.44
387.138	655.44
387.363	684.44
387.588	664.44
387.813	642.44
388.038	658.44
388.263	662.44
388.488	683.44
388.713	650.44
388.938	669.44
389.163	662.44
389.387	654.44
389.612	658.44
389.837	667.44
390.062	642.44
390.287	654.44
390.512	676.44
390.736	667.44
390.961	675.44
391.186	670.44
391.411	702.44
391.636	732.44
391.86	755.44
392.085	798.44
392.31	746.44
392.534	738.44
392.759	713.44
392.984	736.44
393.208	707.44
393.433	703.44
393.658	733.44
393.882	700.44
394.107	715.44
394.331	739.44
394.556	718.44
394.78	718.44
395.005	726.44
395.229	705.44
395.454	742.44
395.678	746.44
395.903	784.44
396.127	770.44
396.352	708.44
396.576	701.44
396.801	720.44
397.025	728.44
397.249	749.44
397.474	774.44
397.698	759.44
397.922	738.44
398.147	761.44
398.371	760.44
398.595	800.44
398.82	817.44
399.044	891.44
399.268	986.44
399.492	1149.44
399.717	1325.44
399.941	1292.44
400.165	1131.44
400.389	1010.44
400.613	941.44
400.837	872.44
401.062	872.44
401.286	839.44
401.51	820.44
401.734	834.44
401.958	824.44
402.182	838.44
402.406	861.44
402.63	881.44
402.854	892.44
403.078	904.44
403.302	935.44
403.526	964.44
403.75	964.44
403.974	988.44
404.198	1002.44
404.422	1001.44
404.645	965.44
404.869	962.44
405.093	974.44
405.317	960.44
405.541	938.44
405.765	941.44
405.988	897.44
406.212	940.44
406.436	932.44
406.66	949.44
406.883	963.44
407.107	1039.44
407.331	1074.44
407.555	1104.44
407.778	1107.44
408.002	1044.44
408.226	1039.44
408.449	984.44
408.673	972.44
408.896	973.44
409.12	954.44
409.344	979.44
409.567	949.44
409.791	966.44
410.014	956.44
410.238	957.44
410.461	949.44
410.685	939.44
410.908	920.44
411.132	920.44
411.355	877.44
411.578	878.44
411.802	893.44
412.025	873.44
412.249	925.44
412.472	870.44
412.695	845.44
412.919	820.44
413.142	844.44
413.365	858.44
413.589	835.44
413.812	840.44
414.035	811.44
414.258	810.44
414.482	829.44
414.705	843.44
414.928	883.44
415.151	889.44
415.374	845.44
415.597	840.44
415.821	829.44
416.044	812.44
416.267	807.44
416.49	823.44
416.713	804.44
416.936	820.44
417.159	860.44
417.382	820.44
417.605	843.44
417.828	842.44
418.051	820.44
418.274	845.44
418.497	828.44
418.72	867.44
418.943	846.44
419.166	898.44
419.389	982.44
419.611	946.44
419.834	911.44
420.057	861.44
420.28	849.44
420.503	812.44
420.726	850.44
420.948	816.44
421.171	831.44
421.394	845.44
421.617	826.44
421.839	832.44
422.062	854.44
422.285	808.44
422.507	883.44
422.73	877.44
422.953	868.44
423.175	874.44
423.398	884.44
423.621	877.44
423.843	904.44
424.066	892.44
424.288	895.44
424.511	891.44
424.733	872.44
424.956	868.44
425.178	866.44
425.401	857.44
425.623	835.44
425.846	816.44
426.068	822.44
426.291	807.44
426.513	806.44
426.735	782.44
426.958	790.44
427.18	743.44
427.402	761.44
427.625	738.44
427.847	716.44
428.069	765.44
428.292	755.44
428.514	752.44
428.736	746.44
428.958	755.44
429.181	728.44
429.403	725.44
429.625	733.44
429.847	745.44
430.069	734.44
430.292	724.44
430.514	734.44
430.736	730.44
430.958	755.44
431.18	723.44
431.402	720.44
431.624	721.44
431.846	747.44
432.068	737.44
432.29	766.44
432.512	780.44
432.734	736.44
432.956	756.44
433.178	757.44
433.4	749.44
433.622	746.44
433.844	748.44
434.066	772.44
434.287	778.44
434.509	816.44
434.731	816.44
434.953	854.44
435.175	857.44
435.397	852.44
435.618	782.44
435.84	768.44
436.062	752.44
436.284	770.44
436.505	768.44
436.727	754.44
436.949	766.44
437.17	749.44
437.392	729.44
437.614	727.44
437.835	705.44
438.057	751.44
438.278	728.44
438.5	702.44
438.721	716.44
438.943	737.44
439.165	754.44
439.386	733.44
439.608	752.44
439.829	724.44
440.05	746.44
440.272	768.44
440.493	763.44
440.715	781.44
440.936	765.44
441.158	781.44
441.379	845.44
441.6	836.44
441.822	840.44
442.043	865.44
442.264	856.44
442.486	853.44
442.707	867.44
442.928	809.44
443.149	845.44
443.371	864.44
443.592	874.44
443.813	859.44
444.034	830.44
444.255	897.44
444.476	952.44
444.698	982.44
444.919	1027.44
445.14	1110.44
445.361	972.44
445.582	874.44
445.803	829.44
446.024	807.44
446.245	801.44
446.466	788.44
446.687	790.44
446.908	786.44
447.129	750.44
447.35	718.44
447.571	723.44
447.792	723.44
448.013	718.44
448.234	728.44
448.455	720.44
448.675	720.44
448.896	706.44
449.117	670.44
449.338	681.44
449.559	685.44
449.779	676.44
450	670.44
450.221	693.44
450.442	697.44
450.662	684.44
450.883	706.44
451.104	734.44
451.324	701.44
451.545	725.44
451.766	706.44
451.986	689.44
452.207	698.44
452.428	707.44
452.648	713.44
452.869	662.44
453.089	684.44
453.31	717.44
453.53	674.44
453.751	694.44
453.971	682.44
454.192	666.44
454.412	655.44
454.633	679.44
454.853	649.44
455.073	653.44
455.294	656.44
455.514	672.44
455.734	651.44
455.955	653.44
456.175	659.44
456.395	633.44
456.616	627.44
456.836	658.44
457.056	642.44
457.276	652.44
457.497	660.44
457.717	656.44
457.937	656.44
458.157	676.44
458.377	670.44
458.598	691.44
458.818	707.44
459.038	707.44
459.258	738.44
459.478	798.44
459.698	782.44
459.918	847.44
460.138	836.44
460.358	901.44
460.578	894.44
460.798	924.44
461.018	908.44
461.238	916.44
461.458	915.44
461.678	893.44
461.898	905.44
462.118	901.44
462.338	947.44
462.558	1007.44
462.777	1032.44
462.997	1115.44
463.217	1234.44
463.437	1225.44
463.657	1136.44
463.876	1060.44
464.096	1088.44
464.316	1079.44
464.536	1094.44
464.755	1032.44
464.975	974.44
465.195	929.44
465.414	883.44
465.634	832.44
465.854	788.44
466.073	781.44
466.293	775.44
466.512	748.44
466.732	735.44
466.951	752.44
467.171	756.44
467.391	748.44
467.61	754.44
467.829	739.44
468.049	720.44
468.268	723.44
468.488	699.44
468.707	714.44
468.927	690.44
469.146	730.44
469.365	705.44
469.585	703.44
469.804	732.44
470.023	759.44
470.243	740.44
470.462	756.44
470.681	773.44
470.901	755.44
471.12	733.44
471.339	739.44
471.558	707.44
471.777	713.44
471.997	698.44
472.216	699.44
472.435	714.44
472.654	682.44
472.873	668.44
473.092	676.44
473.311	677.44
473.53	676.44
473.749	704.44
473.968	664.44
474.187	670.44
474.406	667.44
474.625	696.44
474.844	678.44
475.063	712.44
475.282	693.44
475.501	694.44
475.72	704.44
475.939	708.44
476.158	706.44
476.377	723.44
476.596	709.44
476.814	718.44
477.033	729.44
477.252	773.44
477.471	746.44
477.69	777.44
477.908	810.44
478.127	796.44
478.346	811.44
478.564	830.44
478.783	845.44
479.002	864.44
479.22	906.44
479.439	892.44
479.658	830.44
479.876	870.44
480.095	878.44
480.313	914.44
480.532	951.44
480.751	937.44
480.969	893.44
481.188	857.44
481.406	827.44
481.624	795.44
481.843	812.44
482.061	790.44
482.28	776.44
482.498	793.44
482.717	780.44
482.935	812.44
483.153	808.44
483.372	820.44
483.59	814.44
483.808	796.44
484.027	790.44
484.245	824.44
484.463	784.44
484.681	836.44
484.9	831.44
485.118	834.44
485.336	820.44
485.554	820.44
485.772	860.44
485.99	853.44
486.209	866.44
486.427	841.44
486.645	833.44
486.863	856.44
487.081	856.44
487.299	833.44
487.517	892.44
487.735	823.44
487.953	837.44
488.171	843.44
488.389	832.44
488.607	805.44
488.825	845.44
489.043	830.44
489.261	792.44
489.479	839.44
489.696	829.44
489.914	826.44
490.132	840.44
490.35	849.44
490.568	813.44
490.786	848.44
491.003	858.44
491.221	827.44
491.439	824.44
491.657	836.44
491.874	869.44
492.092	842.44
492.31	834.44
492.527	852.44
492.745	877.44
492.963	880.44
493.18	869.44
493.398	873.44
493.615	852.44
493.833	874.44
494.05	886.44
494.268	850.44
494.485	887.44
494.703	891.44
494.92	873.44
495.138	871.44
495.355	875.44
495.573	910.44
495.79	886.44
496.008	882.44
496.225	892.44
496.442	915.44
496.66	926.44
496.877	912.44
497.094	911.44
497.312	933.44
497.529	957.44
497.746	1003.44
497.963	997.44
498.181	1042.44
498.398	1082.44
498.615	1149.44
498.832	1208.44
499.049	1316.44
499.267	1394.44
499.484	1576.44
499.701	1733.44
499.918	1914.44
500.135	2235.44
500.352	2531.44
500.569	2691.44
500.786	2650.44
501.003	2444.44
501.22	2228.44
501.437	1892.44
501.654	1674.44
501.871	1538.44
502.088	1358.44
502.305	1288.44
502.522	1259.44
502.739	1208.44
502.956	1134.44
503.172	1102.44
503.389	1043.44
503.606	1010.44
503.823	988.44
504.04	992.44
504.256	1005.44
504.473	1010.44
504.69	1061.44
504.907	1019.44
505.123	950.44
505.34	916.44
505.557	877.44
505.773	836.44
505.99	834.44
506.207	817.44
506.423	836.44
506.64	810.44
506.856	778.44
507.073	799.44
507.289	780.44
507.506	800.44
507.722	772.44
507.939	762.44
508.155	773.44
508.372	731.44
508.588	732.44
508.805	739.44
509.021	726.44
509.238	727.44
509.454	724.44
509.67	713.44
509.887	733.44
510.103	722.44
510.319	719.44
510.536	715.44
510.752	691.44
510.968	708.44
511.184	702.44
511.401	700.44
511.617	720.44
511.833	740.44
512.049	698.44
512.265	696.44
512.481	723.44
512.698	697.44
512.914	707.44
513.13	712.44
513.346	694.44
513.562	717.44
513.778	718.44
513.994	704.44
514.21	723.44
514.426	686.44
514.642	718.44
514.858	731.44
515.074	740.44
515.29	736.44
515.506	721.44
515.721	730.44
515.937	754.44
516.153	768.44
516.369	806.44
516.585	813.44
516.801	846.44
517.016	882.44
517.232	902.44
517.448	932.44
517.664	982.44
517.879	994.44
518.095	995.44
518.311	973.44
518.527	939.44
518.742	899.44
518.958	850.44
519.173	808.44
519.389	793.44
519.605	746.44
519.82	758.44
520.036	762.44
520.251	741.44
520.467	724.44
520.682	729.44
520.898	729.44
521.113	705.44
521.329	714.44
521.544	702.44
521.76	702.44
521.975	691.44
522.19	701.44
522.406	668.44
522.621	677.44
522.836	669.44
523.052	667.44
523.267	673.44
523.482	660.44
523.698	662.44
523.913	682.44
524.128	653.44
524.343	660.44
524.559	640.44
524.774	658.44
524.989	635.44
525.204	664.44
525.419	659.44
525.634	647.44
525.849	654.44
526.064	642.44
526.28	667.44
526.495	648.44
526.71	634.44
526.925	676.44
527.14	642.44
527.355	636.44
527.57	640.44
527.785	653.44
527.999	658.44
528.214	656.44
528.429	676.44
528.644	652.44
528.859	638.44
529.074	653.44
529.289	646.44
529.503	660.44
529.718	660.44
529.933	652.44
530.148	614.44
530.363	652.44
530.577	638.44
530.792	667.44
531.007	628.44
531.221	641.44
531.436	640.44
531.651	640.44
531.865	645.44
532.08	660.44
532.295	668.44
532.509	650.44
532.724	672.44
532.938	635.44
533.153	660.44
533.367	654.44
533.582	644.44
533.796	646.44
534.011	651.44
534.225	638.44
534.44	611.44
534.654	624.44
534.868	624.44
535.083	654.44
535.297	641.44
535.511	616.44
535.726	624.44
535.94	626.44
536.154	603.44
536.369	636.44
536.583	628.44
536.797	614.44
537.011	600.44
537.225	586.44
537.44	613.44
537.654	628.44
537.868	604.44
538.082	606.44
538.296	613.44
538.51	625.44
538.724	594.44
538.938	598.44
539.153	622.44
539.367	598.44
539.581	587.44
539.795	570.44
540.009	602.44
540.222	593.44
540.436	578.44
540.65	586.44
540.864	591.44
541.078	578.44
541.292	605.44
541.506	594.44
541.72	586.44
541.934	587.44
542.147	603.44
542.361	571.44
542.575	587.44
542.789	570.44
543.002	564.44
543.216	563.44
543.43	568.44
543.644	566.44
543.857	547.44
544.071	567.44
544.285	574.44
544.498	576.44
544.712	585.44
544.925	580.44
545.139	582.44
545.352	589.44
545.566	614.44
545.779	594.44
545.993	598.44
546.206	621.44
546.42	582.44
546.633	605.44
546.847	568.44
547.06	598.44
547.274	574.44
547.487	586.44
547.7	565.44
547.914	597.44
548.127	612.44
548.34	615.44
548.554	601.44
548.767	603.44
548.98	593.44
549.193	577.44
549.407	596.44
549.62	605.44
549.833	624.44
550.046	613.44
550.259	597.44
550.473	590.44
550.686	586.44
550.899	593.44
551.112	577.44
551.325	565.44
551.538	578.44
551.751	580.44
551.964	588.44
552.177	591.44
552.39	580.44
552.603	590.44
552.816	617.44
553.029	617.44
553.242	637.44
553.455	646.44
553.667	675.44
553.88	647.44
554.093	618.44
554.306	609.44
554.519	606.44
554.732	568.44
554.944	569.44
555.157	553.44
555.37	548.44
555.583	555.44
555.795	539.44
556.008	549.44
556.221	529.44
556.433	532.44
556.646	557.44
556.859	525.44
557.071	533.44
557.284	517.44
557.496	525.44
557.709	513.44
557.921	522.44
558.134	517.44
558.346	512.44
558.559	518.44
558.771	493.44
558.984	472.44
559.196	495.44
559.409	496.44
559.621	501.44
559.833	484.44
560.046	490.44
560.258	488.44
560.47	460.44
560.683	495.44
560.895	485.44
561.107	487.44
561.32	489.44
561.532	514.44
561.744	520.44
561.956	489.44
562.168	491.44
562.381	501.44
562.593	482.44
562.805	490.44
563.017	524.44
563.229	514.44
563.441	493.44
563.653	503.44
563.865	501.44
564.077	509.44
564.289	522.44
564.501	486.44
564.713	501.44
564.925	524.44
565.137	509.44
565.349	566.44
565.561	561.44
565.773	575.44
565.985	617.44
566.197	631.44
566.408	668.44
566.62	737.44
566.832	800.44
567.044	803.44
567.255	804.44
567.467	852.44
567.679	880.44
567.891	983.44
568.102	985.44
568.314	923.44
568.526	822.44
568.737	740.44
568.949	683.44
569.161	606.44
569.372	574.44
569.584	536.44
569.795	538.44
570.007	518.44
570.218	521.44
570.43	514.44
570.641	513.44
570.853	497.44
571.064	525.44
571.276	516.44
571.487	536.44
571.698	488.44
571.91	453.44
572.121	447.44
572.333	477.44
572.544	450.44
572.755	454.44
572.966	447.44
573.178	432.44
573.389	459.44
573.6	426.44
573.811	421.44
574.023	418.44
574.234	428.44
574.445	406.44
574.656	424.44
574.867	402.44
575.078	404.44
575.289	412.44
575.501	420.44
575.712	410.44
575.923	388.44
576.134	386.44
576.345	395.44
576.556	404.44
576.767	410.44
576.978	394.44
577.188	394.44
577.399	410.44
577.61	377.44
577.821	370.44
578.032	376.44
578.243	388.44
578.454	379.44
578.665	366.44
578.875	387.44
579.086	392.44
579.297	394.44
579.508	360.44
579.718	370.44
579.929	376.44
580.14	366.44
580.35	350.44
580.561	373.44
580.772	362.44
580.982	349.44
581.193	359.44
581.403	364.44
581.614	354.44
581.825	362.44
582.035	349.44
582.246	341.44
582.456	355.44
582.667	370.44
582.877	369.44
583.087	358.44
583.298	344.44
583.508	349.44
583.719	356.44
583.929	368.44
584.139	365.44
584.35	349.44
584.56	350.44
584.77	349.44
584.981	339.44
585.191	333.44
585.401	339.44
585.611	344.44
585.821	336.44
586.032	346.44
586.242	332.44
586.452	338.44
586.662	319.44
586.872	356.44
587.082	324.44
587.292	354.44
587.502	341.44
587.713	340.44
587.923	354.44
588.133	316.44
588.343	332.44
588.553	333.44
588.762	363.44
588.972	326.44
589.182	356.44
589.392	341.44
589.602	344.44
589.812	349.44
590.022	344.44
590.232	333.44
590.441	340.44
590.651	333.44
590.861	331.44
591.071	334.44
591.281	353.44
591.49	342.44
591.7	356.44
591.91	372.44
592.119	360.44
592.329	350.44
592.539	390.44
592.748	388.44
592.958	423.44
593.167	425.44
593.377	430.44
593.587	426.44
593.796	430.44
594.006	416.44
594.215	436.44
594.424	428.44
594.634	432.44
594.843	422.44
595.053	402.44
595.262	373.44
595.472	394.44
595.681	340.44
595.89	362.44
596.1	347.44
596.309	341.44
596.518	337.44
596.727	313.44
596.937	329.44
597.146	322.44
597.355	301.44
597.564	313.44
597.774	338.44
597.983	316.44
598.192	300.44
598.401	299.44
598.61	305.44
598.819	301.44
599.028	304.44
599.237	313.44
599.446	308.44
599.655	291.44
599.864	294.44
600.073	290.44
600.282	306.44
600.491	282.44
600.7	270.44
600.909	281.44
601.118	288.44
601.327	293.44
601.536	284.44
601.745	275.44
601.953	295.44
602.162	290.44
602.371	294.44
602.58	276.44
602.789	279.44
602.997	299.44
603.206	275.44
603.415	284.44
603.623	267.44
603.832	299.44
604.041	272.44
604.249	274.44
604.458	280.44
604.666	260.44
604.875	261.44
605.084	273.44
605.292	267.44
605.501	278.44
605.709	262.44
605.918	254.44
606.126	272.44
606.334	267.44
606.543	276.44
606.751	265.44
606.96	269.44
607.168	249.44
607.376	264.44
607.585	271.44
607.793	268.44
608.001	274.44
608.21	260.44
608.418	262.44
608.626	260.44
608.834	269.44
609.043	280.44
609.251	266.44
609.459	267.44
609.667	272.44
609.875	258.44
610.083	245.44
610.291	262.44
610.499	268.44
610.707	266.44
610.916	249.44
611.124	230.44
611.332	254.44
611.54	244.44
611.748	249.44
611.955	263.44
612.163	251.44
612.371	266.44
612.579	263.44
612.787	256.44
612.995	260.44
613.203	269.44
613.411	244.44
613.618	240.44
613.826	252.44
614.034	238.44
614.242	249.44
614.449	246.44
614.657	263.44
614.865	264.44
615.072	254.44
615.28	246.44
615.488	252.44
615.695	240.44
615.903	244.44
616.111	247.44
616.318	276.44
616.526	272.44
616.733	260.44
616.941	246.44
617.148	265.44
617.356	257.44
617.563	244.44
617.771	262.44
617.978	250.44
618.185	264.44
618.393	258.44
618.6	244.44
618.807	246.44
619.015	270.44
619.222	253.44
619.429	250.44
619.637	245.44
619.844	235.44
620.051	244.44
620.258	247.44
620.466	232.44
620.673	245.44
620.88	233.44
621.087	240.44
621.294	238.44
621.501	238.44
621.708	245.44
621.915	237.44
622.122	231.44
622.329	229.44
622.536	242.44
622.743	241.44
622.95	215.44
623.157	241.44
623.364	249.44
623.571	213.44
623.778	233.44
623.985	232.44
624.192	236.44
624.399	207.44
624.606	236.44
624.812	218.44
625.019	210.44
625.226	229.44
625.433	221.44
625.639	210.44
625.846	233.44
626.053	218.44
626.259	212.44
626.466	219.44
626.673	220.44
626.879	204.44
627.086	218.44
627.293	208.44
627.499	221.44
627.706	199.44
627.912	206.44
628.119	209.44
628.325	226.44
628.532	218.44
628.738	209.44
628.945	218.44
629.151	217.44
629.357	216.44
629.564	212.44
629.77	202.44
629.976	224.44
630.183	195.44
630.389	200.44
630.595	199.44
630.802	198.44
631.008	193.44
631.214	209.44
631.42	200.44
631.627	202.44
631.833	201.44
632.039	202.44
632.245	203.44
632.451	193.44
632.657	206.44
632.863	186.44
633.069	197.44
633.275	207.44
633.481	192.44
633.688	181.44
633.893	216.44
634.099	199.44
634.305	213.44
634.511	196.44
634.717	184.44
634.923	194.44
635.129	201.44
635.335	201.44
635.541	173.44
635.747	197.44
635.952	185.44
636.158	182.44
636.364	203.44
636.57	201.44
636.775	181.44
636.981	212.44
637.187	197.44
637.392	188.44
637.598	210.44
637.804	183.44
638.009	181.44
638.215	202.44
638.421	189.44
638.626	197.44
638.832	182.44
639.037	183.44
639.243	174.44
639.448	186.44
639.654	186.44
639.859	190.44
640.065	198.44
640.27	173.44
640.475	187.44
640.681	162.44
640.886	177.44
641.091	190.44
641.297	173.44
641.502	187.44
641.707	199.44
641.913	172.44
642.118	180.44
642.323	167.44
642.528	172.44
642.733	173.44
642.939	178.44
643.144	168.44
643.349	178.44
643.554	172.44
643.759	182.44
643.964	159.44
644.169	154.44
644.374	176.44
644.579	182.44
644.784	183.44
644.989	165.44
645.194	177.44
645.399	168.44
645.604	180.44
645.809	171.44
646.014	179.44
646.219	166.44
646.423	172.44
646.628	176.44
646.833	166.44
647.038	183.44
647.243	172.44
647.447	178.44
647.652	180.44
647.857	164.44
648.062	195.44
648.266	196.44
648.471	182.44
648.676	172.44
648.88	196.44
649.085	182.44
649.289	178.44
649.494	158.44
649.698	174.44
649.903	178.44
650.107	164.44
650.312	194.44
650.516	166.44
650.721	166.44
650.925	184.44
651.13	178.44
651.334	177.44
651.539	180.44
651.743	168.44
651.947	158.44
652.152	160.44
652.356	157.44
652.56	158.44
652.764	153.44
652.969	142.44
653.173	152.44
653.377	154.44
653.581	136.44
653.785	142.44
653.99	150.44
654.194	162.44
654.398	143.44
654.602	145.44
654.806	148.44
655.01	146.44
655.214	152.44
655.418	168.44
655.622	148.44
655.826	150.44
656.03	153.44
656.234	160.44
656.438	160.44
656.642	153.44
656.846	143.44
657.049	147.44
657.253	155.44
657.457	143.44
657.661	121.44
657.865	128.44
658.068	126.44
658.272	139.44
658.476	116.44
658.68	106.44
658.883	123.44
659.087	109.44
659.291	98.44
659.494	105.44
659.698	105.44
659.901	103.44
660.105	99.44
660.309	100.44
660.512	95.44
660.716	89.44
660.919	93.44
661.123	90.44
661.326	92.44
661.53	86.44
661.733	104.44
661.936	85.44
662.14	88.44
662.343	90.44
662.546	81.44
662.75	87.44
662.953	75.44
663.156	80.44
663.36	80.44
663.563	94.44
663.766	77.44
663.969	93.44
664.173	84.44
664.376	84.44
664.579	68.44
664.782	86.44
664.985	76.44
665.188	77.44
665.391	88.44
665.594	91.44
665.797	76.44
666	84.44
666.203	83.44
666.406	90.44
666.609	76.44
666.812	82.44
667.015	64.44
667.218	80.44
667.421	84.44
667.624	84.44
667.827	71.44
668.03	103.44
668.232	74.44
668.435	86.44
668.638	81.44
668.841	66.44
669.043	92.44
669.246	66.44
669.449	84.44
669.651	85.44
669.854	88.44
670.057	85.44
670.259	72.44
670.462	80.44
670.665	91.44
670.867	77.44
671.07	86.44
671.272	78.44
671.475	91.44
671.677	92.44
671.88	86.44
672.082	83.44
672.284	89.44
672.487	72.44
672.689	64.44
672.892	78.44
