Data from Ni(NO3)2@0.25M.TitratingCurve.Agarose3%dH2O.NegLispCup.LampEnergy10.LIBS07252019_HRD10591_18-03-51-566.txt Node
Date: Thu Jul 25 18:03:51 EDT 2019
User: cochatt
Spectrometer: HR+D1059
Trigger mode: 1
Integration Time (sec): 1.000000E-1
Scans to average: 1
Electric dark correction enabled: true
Nonlinearity correction enabled: false
Boxcar width: 0
XAxis mode: Wavelengths
Number of Pixels in Spectrum: 2048
>>>>>Begin Spectral Data<<<<<
223.165	-5.19
223.4	-5.19
223.635	-5.19
223.869	-8.19
224.104	-11.19
224.338	-26.19
224.573	-13.19
224.808	-21.19
225.042	-17.19
225.277	5.81
225.511	-4.19
225.746	-10.19
225.98	15.81
226.215	6.81
226.449	17.81
226.683	31.81
226.918	18.81
227.152	19.81
227.387	36.81
227.621	37.81
227.856	20.81
228.09	53.81
228.324	42.81
228.559	52.81
228.793	50.81
229.027	70.81
229.262	71.81
229.496	78.81
229.73	92.81
229.964	82.81
230.199	97.81
230.433	86.81
230.667	86.81
230.901	106.81
231.136	106.81
231.37	84.81
231.604	96.81
231.838	99.81
232.072	104.81
232.306	116.81
232.541	101.81
232.775	99.81
233.009	92.81
233.243	104.81
233.477	111.81
233.711	106.81
233.945	109.81
234.179	112.81
234.413	99.81
234.647	119.81
234.881	95.81
235.115	110.81
235.349	103.81
235.583	99.81
235.817	113.81
236.051	107.81
236.285	112.81
236.519	102.81
236.753	106.81
236.987	94.81
237.221	88.81
237.455	95.81
237.689	104.81
237.922	91.81
238.156	110.81
238.39	106.81
238.624	116.81
238.858	109.81
239.091	107.81
239.325	106.81
239.559	116.81
239.793	109.81
240.027	121.81
240.26	135.81
240.494	113.81
240.728	119.81
240.961	116.81
241.195	113.81
241.429	122.81
241.662	107.81
241.896	121.81
242.13	115.81
242.363	127.81
242.597	110.81
242.83	127.81
243.064	116.81
243.298	116.81
243.531	113.81
243.765	118.81
243.998	115.81
244.232	129.81
244.465	121.81
244.699	136.81
244.932	142.81
245.166	131.81
245.399	103.81
245.633	123.81
245.866	127.81
246.099	116.81
246.333	131.81
246.566	142.81
246.8	119.81
247.033	135.81
247.266	130.81
247.5	131.81
247.733	134.81
247.966	137.81
248.2	139.81
248.433	148.81
248.666	145.81
248.899	130.81
249.133	153.81
249.366	153.81
249.599	148.81
249.832	146.81
250.066	159.81
250.299	149.81
250.532	151.81
250.765	158.81
250.998	155.81
251.231	162.81
251.465	182.81
251.698	157.81
251.931	173.81
252.164	183.81
252.397	174.81
252.63	177.81
252.863	168.81
253.096	162.81
253.329	157.81
253.562	180.81
253.795	179.81
254.028	170.81
254.261	171.81
254.494	184.81
254.727	191.81
254.96	173.81
255.193	203.81
255.426	193.81
255.659	193.81
255.892	196.81
256.124	199.81
256.357	176.81
256.59	204.81
256.823	191.81
257.056	209.81
257.289	202.81
257.521	193.81
257.754	192.81
257.987	180.81
258.22	203.81
258.452	213.81
258.685	217.81
258.918	209.81
259.151	208.81
259.383	194.81
259.616	202.81
259.849	222.81
260.081	213.81
260.314	223.81
260.547	218.81
260.779	238.81
261.012	210.81
261.244	221.81
261.477	234.81
261.71	224.81
261.942	230.81
262.175	222.81
262.407	225.81
262.64	221.81
262.872	222.81
263.105	221.81
263.337	230.81
263.57	248.81
263.802	220.81
264.035	226.81
264.267	229.81
264.499	230.81
264.732	234.81
264.964	235.81
265.197	227.81
265.429	237.81
265.661	229.81
265.894	240.81
266.126	233.81
266.358	233.81
266.591	241.81
266.823	243.81
267.055	250.81
267.287	246.81
267.52	235.81
267.752	240.81
267.984	249.81
268.216	230.81
268.448	237.81
268.681	240.81
268.913	232.81
269.145	254.81
269.377	243.81
269.609	241.81
269.841	264.81
270.073	255.81
270.306	261.81
270.538	262.81
270.77	240.81
271.002	263.81
271.234	249.81
271.466	256.81
271.698	245.81
271.93	256.81
272.162	238.81
272.394	251.81
272.626	262.81
272.858	243.81
273.09	261.81
273.322	269.81
273.553	260.81
273.785	264.81
274.017	248.81
274.249	251.81
274.481	260.81
274.713	262.81
274.945	250.81
275.176	271.81
275.408	275.81
275.64	259.81
275.872	255.81
276.104	259.81
276.335	273.81
276.567	250.81
276.799	264.81
277.031	275.81
277.262	285.81
277.494	286.81
277.726	258.81
277.957	270.81
278.189	266.81
278.421	263.81
278.652	266.81
278.884	282.81
279.115	270.81
279.347	275.81
279.579	273.81
279.81	262.81
280.042	266.81
280.273	293.81
280.505	280.81
280.736	278.81
280.968	280.81
281.199	264.81
281.431	299.81
281.662	282.81
281.894	282.81
282.125	282.81
282.356	277.81
282.588	270.81
282.819	282.81
283.051	276.81
283.282	298.81
283.513	283.81
283.745	280.81
283.976	308.81
284.207	259.81
284.439	285.81
284.67	295.81
284.901	290.81
285.132	288.81
285.364	301.81
285.595	306.81
285.826	285.81
286.057	292.81
286.288	279.81
286.52	297.81
286.751	288.81
286.982	285.81
287.213	281.81
287.444	297.81
287.675	298.81
287.906	301.81
288.138	294.81
288.369	289.81
288.6	290.81
288.831	280.81
289.062	283.81
289.293	290.81
289.524	281.81
289.755	281.81
289.986	287.81
290.217	289.81
290.448	301.81
290.679	297.81
290.91	299.81
291.141	313.81
291.371	307.81
291.602	297.81
291.833	290.81
292.064	306.81
292.295	303.81
292.526	306.81
292.757	293.81
292.987	293.81
293.218	299.81
293.449	296.81
293.68	295.81
293.91	289.81
294.141	298.81
294.372	293.81
294.603	297.81
294.833	283.81
295.064	304.81
295.295	302.81
295.525	304.81
295.756	297.81
295.987	302.81
296.217	290.81
296.448	305.81
296.679	301.81
296.909	306.81
297.14	312.81
297.37	307.81
297.601	317.81
297.831	320.81
298.062	327.81
298.292	311.81
298.523	308.81
298.753	330.81
298.984	314.81
299.214	320.81
299.445	323.81
299.675	314.81
299.905	327.81
300.136	322.81
300.366	331.81
300.597	334.81
300.827	317.81
301.057	331.81
301.288	349.81
301.518	324.81
301.748	328.81
301.979	338.81
302.209	320.81
302.439	330.81
302.669	328.81
302.9	321.81
303.13	342.81
303.36	330.81
303.59	317.81
303.82	350.81
304.051	330.81
304.281	331.81
304.511	323.81
304.741	332.81
304.971	343.81
305.201	323.81
305.431	347.81
305.661	339.81
305.891	353.81
306.121	351.81
306.352	316.81
306.582	315.81
306.812	340.81
307.042	340.81
307.272	346.81
307.502	343.81
307.731	349.81
307.961	350.81
308.191	343.81
308.421	349.81
308.651	337.81
308.881	349.81
309.111	325.81
309.341	349.81
309.571	346.81
309.8	349.81
310.03	369.81
310.26	371.81
310.49	382.81
310.72	371.81
310.949	351.81
311.179	372.81
311.409	351.81
311.639	343.81
311.868	375.81
312.098	352.81
312.328	373.81
312.557	367.81
312.787	361.81
313.017	362.81
313.246	411.81
313.476	351.81
313.706	385.81
313.935	380.81
314.165	404.81
314.394	388.81
314.624	398.81
314.853	386.81
315.083	387.81
315.312	383.81
315.542	386.81
315.771	389.81
316.001	399.81
316.23	397.81
316.46	385.81
316.689	414.81
316.919	396.81
317.148	387.81
317.377	399.81
317.607	394.81
317.836	397.81
318.065	399.81
318.295	411.81
318.524	417.81
318.753	410.81
318.983	387.81
319.212	413.81
319.441	409.81
319.67	420.81
319.9	418.81
320.129	427.81
320.358	419.81
320.587	442.81
320.816	435.81
321.046	427.81
321.275	435.81
321.504	435.81
321.733	440.81
321.962	443.81
322.191	444.81
322.42	443.81
322.649	474.81
322.878	458.81
323.108	430.81
323.337	445.81
323.566	449.81
323.795	465.81
324.024	466.81
324.253	462.81
324.482	475.81
324.71	460.81
324.939	445.81
325.168	454.81
325.397	490.81
325.626	481.81
325.855	491.81
326.084	502.81
326.313	515.81
326.542	493.81
326.77	497.81
326.999	496.81
327.228	490.81
327.457	505.81
327.686	501.81
327.914	498.81
328.143	509.81
328.372	496.81
328.6	498.81
328.829	511.81
329.058	522.81
329.287	522.81
329.515	499.81
329.744	527.81
329.972	522.81
330.201	513.81
330.43	546.81
330.658	533.81
330.887	524.81
331.115	528.81
331.344	547.81
331.572	568.81
331.801	544.81
332.03	565.81
332.258	585.81
332.486	559.81
332.715	559.81
332.943	586.81
333.172	602.81
333.4	604.81
333.629	575.81
333.857	628.81
334.085	638.81
334.314	627.81
334.542	624.81
334.771	595.81
334.999	638.81
335.227	635.81
335.455	635.81
335.684	630.81
335.912	644.81
336.14	649.81
336.369	644.81
336.597	678.81
336.825	657.81
337.053	667.81
337.281	641.81
337.51	635.81
337.738	615.81
337.966	609.81
338.194	622.81
338.422	629.81
338.65	608.81
338.878	605.81
339.106	613.81
339.334	607.81
339.562	598.81
339.79	595.81
340.018	598.81
340.246	581.81
340.474	583.81
340.702	592.81
340.93	600.81
341.158	586.81
341.386	602.81
341.614	609.81
341.842	587.81
342.07	568.81
342.298	585.81
342.526	592.81
342.754	584.81
342.981	587.81
343.209	597.81
343.437	607.81
343.665	624.81
343.893	633.81
344.12	644.81
344.348	635.81
344.576	655.81
344.804	632.81
345.031	593.81
345.259	611.81
345.487	593.81
345.714	628.81
345.942	604.81
346.17	614.81
346.397	593.81
346.625	576.81
346.853	579.81
347.08	572.81
347.308	563.81
347.535	576.81
347.763	586.81
347.99	578.81
348.218	571.81
348.445	559.81
348.673	554.81
348.9	562.81
349.128	578.81
349.355	571.81
349.583	565.81
349.81	570.81
350.037	564.81
350.265	565.81
350.492	555.81
350.72	564.81
350.947	559.81
351.174	576.81
351.402	553.81
351.629	579.81
351.856	577.81
352.083	559.81
352.311	565.81
352.538	574.81
352.765	582.81
352.992	546.81
353.22	555.81
353.447	527.81
353.674	540.81
353.901	547.81
354.128	535.81
354.355	551.81
354.583	544.81
354.81	549.81
355.037	541.81
355.264	544.81
355.491	547.81
355.718	559.81
355.945	553.81
356.172	555.81
356.399	566.81
356.626	575.81
356.853	568.81
357.08	566.81
357.307	551.81
357.534	558.81
357.761	552.81
357.988	558.81
358.215	517.81
358.441	529.81
358.668	548.81
358.895	539.81
359.122	549.81
359.349	531.81
359.576	527.81
359.802	551.81
360.029	546.81
360.256	562.81
360.483	557.81
360.709	543.81
360.936	574.81
361.163	550.81
361.39	555.81
361.616	539.81
361.843	550.81
362.07	591.81
362.296	562.81
362.523	552.81
362.749	547.81
362.976	541.81
363.203	536.81
363.429	537.81
363.656	535.81
363.882	549.81
364.109	539.81
364.335	515.81
364.562	541.81
364.788	531.81
365.015	557.81
365.241	541.81
365.468	558.81
365.694	537.81
365.92	539.81
366.147	531.81
366.373	546.81
366.599	540.81
366.826	541.81
367.052	541.81
367.278	529.81
367.505	518.81
367.731	523.81
367.957	542.81
368.184	513.81
368.41	549.81
368.636	541.81
368.862	535.81
369.089	564.81
369.315	553.81
369.541	535.81
369.767	555.81
369.993	550.81
370.219	550.81
370.445	555.81
370.672	562.81
370.898	552.81
371.124	564.81
371.35	552.81
371.576	554.81
371.802	554.81
372.028	565.81
372.254	559.81
372.48	564.81
372.706	547.81
372.932	569.81
373.158	586.81
373.384	559.81
373.61	583.81
373.835	572.81
374.061	545.81
374.287	570.81
374.513	554.81
374.739	575.81
374.965	574.81
375.191	594.81
375.416	585.81
375.642	591.81
375.868	590.81
376.094	567.81
376.319	546.81
376.545	563.81
376.771	544.81
376.997	525.81
377.222	549.81
377.448	530.81
377.674	557.81
377.899	529.81
378.125	548.81
378.35	555.81
378.576	547.81
378.802	524.81
379.027	524.81
379.253	551.81
379.478	528.81
379.704	527.81
379.929	515.81
380.155	517.81
380.38	541.81
380.606	535.81
380.831	544.81
381.057	560.81
381.282	526.81
381.507	514.81
381.733	541.81
381.958	550.81
382.184	539.81
382.409	541.81
382.634	563.81
382.86	554.81
383.085	563.81
383.31	546.81
383.535	564.81
383.761	546.81
383.986	549.81
384.211	551.81
384.436	584.81
384.662	569.81
384.887	563.81
385.112	584.81
385.337	577.81
385.562	599.81
385.787	590.81
386.013	591.81
386.238	616.81
386.463	613.81
386.688	607.81
386.913	598.81
387.138	579.81
387.363	596.81
387.588	599.81
387.813	605.81
388.038	578.81
388.263	596.81
388.488	629.81
388.713	603.81
388.938	616.81
389.163	593.81
389.387	595.81
389.612	597.81
389.837	586.81
390.062	603.81
390.287	619.81
390.512	593.81
390.736	623.81
390.961	608.81
391.186	632.81
391.411	613.81
391.636	625.81
391.86	639.81
392.085	642.81
392.31	649.81
392.534	621.81
392.759	651.81
392.984	624.81
393.208	605.81
393.433	621.81
393.658	635.81
393.882	626.81
394.107	634.81
394.331	605.81
394.556	630.81
394.78	633.81
395.005	641.81
395.229	629.81
395.454	643.81
395.678	651.81
395.903	690.81
396.127	675.81
396.352	641.81
396.576	652.81
396.801	650.81
397.025	651.81
397.249	667.81
397.474	675.81
397.698	703.81
397.922	690.81
398.147	702.81
398.371	704.81
398.595	725.81
398.82	729.81
399.044	766.81
399.268	767.81
399.492	820.81
399.717	865.81
399.941	860.81
400.165	858.81
400.389	825.81
400.613	807.81
400.837	774.81
401.062	753.81
401.286	769.81
401.51	746.81
401.734	730.81
401.958	735.81
402.182	754.81
402.406	735.81
402.63	747.81
402.854	743.81
403.078	762.81
403.302	767.81
403.526	769.81
403.75	755.81
403.974	776.81
404.198	773.81
404.422	760.81
404.645	777.81
404.869	777.81
405.093	779.81
405.317	785.81
405.541	775.81
405.765	781.81
405.988	795.81
406.212	801.81
406.436	792.81
406.66	803.81
406.883	799.81
407.107	849.81
407.331	862.81
407.555	869.81
407.778	889.81
408.002	874.81
408.226	851.81
408.449	886.81
408.673	817.81
408.896	854.81
409.12	838.81
409.344	859.81
409.567	815.81
409.791	839.81
410.014	826.81
410.238	797.81
410.461	829.81
410.685	802.81
410.908	832.81
411.132	786.81
411.355	783.81
411.578	789.81
411.802	776.81
412.025	781.81
412.249	785.81
412.472	802.81
412.695	797.81
412.919	778.81
413.142	741.81
413.365	761.81
413.589	787.81
413.812	778.81
414.035	772.81
414.258	752.81
414.482	806.81
414.705	764.81
414.928	776.81
415.151	815.81
415.374	781.81
415.597	789.81
415.821	776.81
416.044	765.81
416.267	754.81
416.49	735.81
416.713	751.81
416.936	784.81
417.159	744.81
417.382	750.81
417.605	730.81
417.828	743.81
418.051	766.81
418.274	746.81
418.497	759.81
418.72	761.81
418.943	749.81
419.166	795.81
419.389	833.81
419.611	850.81
419.834	838.81
420.057	808.81
420.28	773.81
420.503	740.81
420.726	773.81
420.948	771.81
421.171	769.81
421.394	769.81
421.617	739.81
421.839	774.81
422.062	748.81
422.285	721.81
422.507	793.81
422.73	809.81
422.953	783.81
423.175	765.81
423.398	779.81
423.621	781.81
423.843	818.81
424.066	787.81
424.288	777.81
424.511	765.81
424.733	798.81
424.956	765.81
425.178	771.81
425.401	811.81
425.623	793.81
425.846	770.81
426.068	761.81
426.291	760.81
426.513	738.81
426.735	744.81
426.958	784.81
427.18	763.81
427.402	757.81
427.625	776.81
427.847	756.81
428.069	742.81
428.292	772.81
428.514	769.81
428.736	777.81
428.958	774.81
429.181	774.81
429.403	754.81
429.625	752.81
429.847	740.81
430.069	744.81
430.292	743.81
430.514	730.81
430.736	781.81
430.958	753.81
431.18	730.81
431.402	709.81
431.624	725.81
431.846	726.81
432.068	742.81
432.29	737.81
432.512	757.81
432.734	758.81
432.956	772.81
433.178	760.81
433.4	766.81
433.622	793.81
433.844	795.81
434.066	774.81
434.287	765.81
434.509	797.81
434.731	779.81
434.953	780.81
435.175	823.81
435.397	818.81
435.618	783.81
435.84	790.81
436.062	769.81
436.284	777.81
436.505	766.81
436.727	773.81
436.949	747.81
437.17	753.81
437.392	766.81
437.614	736.81
437.835	743.81
438.057	749.81
438.278	745.81
438.5	752.81
438.721	743.81
438.943	747.81
439.165	764.81
439.386	773.81
439.608	772.81
439.829	779.81
440.05	761.81
440.272	759.81
440.493	788.81
440.715	783.81
440.936	793.81
441.158	775.81
441.379	821.81
441.6	826.81
441.822	794.81
442.043	817.81
442.264	787.81
442.486	797.81
442.707	822.81
442.928	800.81
443.149	837.81
443.371	801.81
443.592	804.81
443.813	820.81
444.034	832.81
444.255	858.81
444.476	866.81
444.698	867.81
444.919	935.81
445.14	951.81
445.361	904.81
445.582	855.81
445.803	814.81
446.024	780.81
446.245	810.81
446.466	832.81
446.687	772.81
446.908	791.81
447.129	795.81
447.35	815.81
447.571	755.81
447.792	750.81
448.013	738.81
448.234	738.81
448.455	742.81
448.675	735.81
448.896	743.81
449.117	718.81
449.338	720.81
449.559	703.81
449.779	705.81
450	744.81
450.221	722.81
450.442	737.81
450.662	716.81
450.883	717.81
451.104	726.81
451.324	711.81
451.545	719.81
451.766	723.81
451.986	685.81
452.207	691.81
452.428	689.81
452.648	718.81
452.869	701.81
453.089	691.81
453.31	681.81
453.53	674.81
453.751	687.81
453.971	680.81
454.192	674.81
454.412	658.81
454.633	672.81
454.853	696.81
455.073	675.81
455.294	689.81
455.514	670.81
455.734	671.81
455.955	691.81
456.175	675.81
456.395	669.81
456.616	665.81
456.836	689.81
457.056	698.81
457.276	664.81
457.497	682.81
457.717	670.81
457.937	702.81
458.157	695.81
458.377	669.81
458.598	692.81
458.818	717.81
459.038	722.81
459.258	736.81
459.478	750.81
459.698	787.81
459.918	810.81
460.138	794.81
460.358	810.81
460.578	800.81
460.798	834.81
461.018	851.81
461.238	849.81
461.458	858.81
461.678	843.81
461.898	881.81
462.118	832.81
462.338	882.81
462.558	875.81
462.777	895.81
462.997	989.81
463.217	987.81
463.437	971.81
463.657	961.81
463.876	969.81
464.096	954.81
464.316	931.81
464.536	922.81
464.755	908.81
464.975	900.81
465.195	874.81
465.414	863.81
465.634	822.81
465.854	822.81
466.073	799.81
466.293	777.81
466.512	774.81
466.732	767.81
466.951	760.81
467.171	749.81
467.391	752.81
467.61	751.81
467.829	754.81
468.049	777.81
468.268	744.81
468.488	723.81
468.707	725.81
468.927	739.81
469.146	743.81
469.365	765.81
469.585	760.81
469.804	752.81
470.023	770.81
470.243	786.81
470.462	757.81
470.681	758.81
470.901	773.81
471.12	743.81
471.339	755.81
471.558	744.81
471.777	773.81
471.997	716.81
472.216	736.81
472.435	731.81
472.654	721.81
472.873	715.81
473.092	724.81
473.311	722.81
473.53	713.81
473.749	729.81
473.968	740.81
474.187	734.81
474.406	713.81
474.625	761.81
474.844	740.81
475.063	741.81
475.282	707.81
475.501	750.81
475.72	737.81
475.939	749.81
476.158	767.81
476.377	760.81
476.596	762.81
476.814	761.81
477.033	772.81
477.252	772.81
477.471	786.81
477.69	806.81
477.908	820.81
478.127	824.81
478.346	807.81
478.564	857.81
478.783	834.81
479.002	859.81
479.22	863.81
479.439	878.81
479.658	855.81
479.876	883.81
480.095	857.81
480.313	861.81
480.532	872.81
480.751	881.81
480.969	861.81
481.188	834.81
481.406	853.81
481.624	854.81
481.843	833.81
482.061	851.81
482.28	849.81
482.498	832.81
482.717	811.81
482.935	845.81
483.153	844.81
483.372	834.81
483.59	840.81
483.808	843.81
484.027	817.81
484.245	862.81
484.463	835.81
484.681	842.81
484.9	877.81
485.118	877.81
485.336	874.81
485.554	853.81
485.772	883.81
485.99	843.81
486.209	840.81
486.427	841.81
486.645	843.81
486.863	896.81
487.081	870.81
487.299	868.81
487.517	849.81
487.735	887.81
487.953	881.81
488.171	899.81
488.389	870.81
488.607	867.81
488.825	865.81
489.043	859.81
489.261	887.81
489.479	866.81
489.696	849.81
489.914	850.81
490.132	890.81
490.35	882.81
490.568	906.81
490.786	890.81
491.003	886.81
491.221	915.81
491.439	919.81
491.657	894.81
491.874	906.81
492.092	958.81
492.31	951.81
492.527	939.81
492.745	939.81
492.963	944.81
493.18	911.81
493.398	917.81
493.615	911.81
493.833	928.81
494.05	964.81
494.268	947.81
494.485	936.81
494.703	977.81
494.92	967.81
495.138	961.81
495.355	974.81
495.573	975.81
495.79	945.81
496.008	986.81
496.225	1021.81
496.442	999.81
496.66	1012.81
496.877	1007.81
497.094	1044.81
497.312	1062.81
497.529	1093.81
497.746	1068.81
497.963	1064.81
498.181	1129.81
498.398	1170.81
498.615	1210.81
498.832	1221.81
499.049	1305.81
499.267	1342.81
499.484	1399.81
499.701	1509.81
499.918	1566.81
500.135	1654.81
500.352	1765.81
500.569	1777.81
500.786	1777.81
501.003	1681.81
501.22	1689.81
501.437	1551.81
501.654	1484.81
501.871	1403.81
502.088	1349.81
502.305	1325.81
502.522	1255.81
502.739	1196.81
502.956	1143.81
503.172	1155.81
503.389	1125.81
503.606	1087.81
503.823	1066.81
504.04	1060.81
504.256	1048.81
504.473	1013.81
504.69	1036.81
504.907	994.81
505.123	998.81
505.34	950.81
505.557	936.81
505.773	897.81
505.99	923.81
506.207	888.81
506.423	896.81
506.64	872.81
506.856	881.81
507.073	857.81
507.289	859.81
507.506	847.81
507.722	841.81
507.939	858.81
508.155	834.81
508.372	838.81
508.588	825.81
508.805	816.81
509.021	802.81
509.238	811.81
509.454	786.81
509.67	801.81
509.887	771.81
510.103	803.81
510.319	794.81
510.536	773.81
510.752	775.81
510.968	781.81
511.184	775.81
511.401	789.81
511.617	780.81
511.833	760.81
512.049	761.81
512.265	785.81
512.481	754.81
512.698	761.81
512.914	819.81
513.13	762.81
513.346	763.81
513.562	751.81
513.778	755.81
513.994	773.81
514.21	758.81
514.426	762.81
514.642	799.81
514.858	803.81
515.074	801.81
515.29	789.81
515.506	800.81
515.721	813.81
515.937	829.81
516.153	818.81
516.369	836.81
516.585	827.81
516.801	842.81
517.016	867.81
517.232	869.81
517.448	872.81
517.664	900.81
517.879	877.81
518.095	914.81
518.311	894.81
518.527	872.81
518.742	867.81
518.958	869.81
519.173	817.81
519.389	823.81
519.605	811.81
519.82	798.81
520.036	804.81
520.251	763.81
520.467	790.81
520.682	771.81
520.898	753.81
521.113	753.81
521.329	737.81
521.544	733.81
521.76	735.81
521.975	743.81
522.19	743.81
522.406	745.81
522.621	716.81
522.836	687.81
523.052	689.81
523.267	705.81
523.482	697.81
523.698	715.81
523.913	683.81
524.128	701.81
524.343	704.81
524.559	726.81
524.774	689.81
524.989	703.81
525.204	698.81
525.419	697.81
525.634	708.81
525.849	705.81
526.064	716.81
526.28	722.81
526.495	706.81
526.71	709.81
526.925	693.81
527.14	678.81
527.355	672.81
527.57	699.81
527.785	673.81
527.999	687.81
528.214	710.81
528.429	713.81
528.644	687.81
528.859	697.81
529.074	700.81
529.289	697.81
529.503	700.81
529.718	692.81
529.933	694.81
530.148	690.81
530.363	679.81
530.577	685.81
530.792	649.81
531.007	653.81
531.221	668.81
531.436	678.81
531.651	663.81
531.865	679.81
532.08	679.81
532.295	658.81
532.509	642.81
532.724	663.81
532.938	679.81
533.153	678.81
533.367	676.81
533.582	690.81
533.796	665.81
534.011	677.81
534.225	657.81
534.44	641.81
534.654	647.81
534.868	658.81
535.083	666.81
535.297	648.81
535.511	650.81
535.726	632.81
535.94	650.81
536.154	635.81
536.369	658.81
536.583	655.81
536.797	618.81
537.011	615.81
537.225	648.81
537.44	611.81
537.654	621.81
537.868	631.81
538.082	614.81
538.296	599.81
538.51	635.81
538.724	645.81
538.938	635.81
539.153	629.81
539.367	628.81
539.581	633.81
539.795	623.81
540.009	632.81
540.222	633.81
540.436	631.81
540.65	627.81
540.864	651.81
541.078	648.81
541.292	644.81
541.506	638.81
541.72	626.81
541.934	632.81
542.147	633.81
542.361	635.81
542.575	633.81
542.789	631.81
543.002	610.81
543.216	613.81
543.43	618.81
543.644	626.81
543.857	633.81
544.071	608.81
544.285	641.81
544.498	622.81
544.712	603.81
544.925	629.81
545.139	608.81
545.352	651.81
545.566	635.81
545.779	616.81
545.993	631.81
546.206	633.81
546.42	622.81
546.633	623.81
546.847	630.81
547.06	629.81
547.274	635.81
547.487	631.81
547.7	633.81
547.914	651.81
548.127	646.81
548.34	632.81
548.554	622.81
548.767	663.81
548.98	639.81
549.193	642.81
549.407	631.81
549.62	653.81
549.833	650.81
550.046	633.81
550.259	624.81
550.473	608.81
550.686	610.81
550.899	641.81
551.112	631.81
551.325	594.81
551.538	614.81
551.751	615.81
551.964	633.81
552.177	637.81
552.39	620.81
552.603	633.81
552.816	647.81
553.029	639.81
553.242	655.81
553.455	641.81
553.667	647.81
553.88	635.81
554.093	614.81
554.306	618.81
554.519	603.81
554.732	610.81
554.944	635.81
555.157	583.81
555.37	589.81
555.583	594.81
555.795	581.81
556.008	568.81
556.221	545.81
556.433	554.81
556.646	575.81
556.859	568.81
557.071	555.81
557.284	565.81
557.496	538.81
557.709	545.81
557.921	563.81
558.134	561.81
558.346	535.81
558.559	536.81
558.771	545.81
558.984	535.81
559.196	565.81
559.409	544.81
559.621	530.81
559.833	546.81
560.046	526.81
560.258	543.81
560.47	545.81
560.683	561.81
560.895	535.81
561.107	525.81
561.32	531.81
561.532	546.81
561.744	544.81
561.956	533.81
562.168	549.81
562.381	516.81
562.593	526.81
562.805	530.81
563.017	512.81
563.229	559.81
563.441	540.81
563.653	544.81
563.865	549.81
564.077	543.81
564.289	552.81
564.501	535.81
564.713	524.81
564.925	578.81
565.137	569.81
565.349	592.81
565.561	571.81
565.773	592.81
565.985	611.81
566.197	611.81
566.408	670.81
566.62	656.81
566.832	667.81
567.044	685.81
567.255	685.81
567.467	712.81
567.679	695.81
567.891	696.81
568.102	713.81
568.314	679.81
568.526	640.81
568.737	625.81
568.949	604.81
569.161	591.81
569.372	576.81
569.584	529.81
569.795	542.81
570.007	528.81
570.218	533.81
570.43	512.81
570.641	523.81
570.853	512.81
571.064	509.81
571.276	511.81
571.487	503.81
571.698	466.81
571.91	471.81
572.121	478.81
572.333	475.81
572.544	459.81
572.755	455.81
572.966	456.81
573.178	428.81
573.389	437.81
573.6	438.81
573.811	441.81
574.023	423.81
574.234	433.81
574.445	422.81
574.656	415.81
574.867	431.81
575.078	433.81
575.289	430.81
575.501	398.81
575.712	409.81
575.923	414.81
576.134	415.81
576.345	411.81
576.556	401.81
576.767	403.81
576.978	404.81
577.188	415.81
577.399	413.81
577.61	381.81
577.821	395.81
578.032	394.81
578.243	386.81
578.454	384.81
578.665	394.81
578.875	385.81
579.086	370.81
579.297	378.81
579.508	362.81
579.718	357.81
579.929	377.81
580.14	369.81
580.35	372.81
580.561	368.81
580.772	384.81
580.982	379.81
581.193	365.81
581.403	379.81
581.614	357.81
581.825	373.81
582.035	371.81
582.246	372.81
582.456	345.81
582.667	381.81
582.877	362.81
583.087	360.81
583.298	352.81
583.508	354.81
583.719	355.81
583.929	359.81
584.139	352.81
584.35	363.81
584.56	346.81
584.77	342.81
584.981	357.81
585.191	349.81
585.401	372.81
585.611	340.81
585.821	343.81
586.032	355.81
586.242	348.81
586.452	355.81
586.662	361.81
586.872	357.81
587.082	322.81
587.292	345.81
587.502	365.81
587.713	349.81
587.923	334.81
588.133	338.81
588.343	341.81
588.553	339.81
588.762	346.81
588.972	346.81
589.182	341.81
589.392	349.81
589.602	347.81
589.812	360.81
590.022	361.81
590.232	359.81
590.441	340.81
590.651	332.81
590.861	333.81
591.071	350.81
591.281	336.81
591.49	341.81
591.7	354.81
591.91	373.81
592.119	361.81
592.329	349.81
592.539	356.81
592.748	354.81
592.958	347.81
593.167	351.81
593.377	369.81
593.587	369.81
593.796	362.81
594.006	369.81
594.215	389.81
594.424	369.81
594.634	364.81
594.843	361.81
595.053	337.81
595.262	357.81
595.472	345.81
595.681	356.81
595.89	321.81
596.1	341.81
596.309	323.81
596.518	340.81
596.727	317.81
596.937	313.81
597.146	325.81
597.355	298.81
597.564	330.81
597.774	310.81
597.983	304.81
598.192	298.81
598.401	299.81
598.61	303.81
598.819	294.81
599.028	296.81
599.237	302.81
599.446	306.81
599.655	283.81
599.864	291.81
600.073	289.81
600.282	286.81
600.491	292.81
600.7	301.81
600.909	271.81
601.118	288.81
601.327	294.81
601.536	277.81
601.745	270.81
601.953	281.81
602.162	286.81
602.371	294.81
602.58	273.81
602.789	280.81
602.997	276.81
603.206	276.81
603.415	281.81
603.623	275.81
603.832	282.81
604.041	267.81
604.249	277.81
604.458	295.81
604.666	282.81
604.875	274.81
605.084	258.81
605.292	270.81
605.501	257.81
605.709	268.81
605.918	278.81
606.126	263.81
606.334	272.81
606.543	264.81
606.751	272.81
606.96	271.81
607.168	254.81
607.376	274.81
607.585	269.81
607.793	265.81
608.001	263.81
608.21	278.81
608.418	254.81
608.626	273.81
608.834	260.81
609.043	246.81
609.251	263.81
609.459	263.81
609.667	264.81
609.875	265.81
610.083	243.81
610.291	270.81
610.499	268.81
610.707	258.81
610.916	270.81
611.124	265.81
611.332	258.81
611.54	260.81
611.748	236.81
611.955	257.81
612.163	264.81
612.371	265.81
612.579	258.81
612.787	254.81
612.995	251.81
613.203	255.81
613.411	276.81
613.618	256.81
613.826	242.81
614.034	255.81
614.242	271.81
614.449	251.81
614.657	245.81
614.865	247.81
615.072	231.81
615.28	234.81
615.488	247.81
615.695	249.81
615.903	262.81
616.111	234.81
616.318	257.81
616.526	242.81
616.733	227.81
616.941	242.81
617.148	241.81
617.356	260.81
617.563	250.81
617.771	253.81
617.978	260.81
618.185	259.81
618.393	242.81
618.6	242.81
618.807	244.81
619.015	255.81
619.222	216.81
619.429	257.81
619.637	233.81
619.844	229.81
620.051	235.81
620.258	221.81
620.466	218.81
620.673	222.81
620.88	217.81
621.087	239.81
621.294	235.81
621.501	222.81
621.708	229.81
621.915	221.81
622.122	230.81
622.329	239.81
622.536	246.81
622.743	233.81
622.95	239.81
623.157	229.81
623.364	228.81
623.571	215.81
623.778	213.81
623.985	221.81
624.192	234.81
624.399	228.81
624.606	224.81
624.812	228.81
625.019	217.81
625.226	213.81
625.433	224.81
625.639	218.81
625.846	207.81
626.053	209.81
626.259	217.81
626.466	206.81
626.673	217.81
626.879	204.81
627.086	214.81
627.293	199.81
627.499	199.81
627.706	217.81
627.912	212.81
628.119	208.81
628.325	219.81
628.532	208.81
628.738	203.81
628.945	190.81
629.151	209.81
629.357	201.81
629.564	215.81
629.77	193.81
629.976	187.81
630.183	216.81
630.389	204.81
630.595	198.81
630.802	194.81
631.008	191.81
631.214	208.81
631.42	179.81
631.627	192.81
631.833	192.81
632.039	197.81
632.245	196.81
632.451	194.81
632.657	199.81
632.863	192.81
633.069	182.81
633.275	189.81
633.481	191.81
633.688	192.81
633.893	212.81
634.099	198.81
634.305	199.81
634.511	201.81
634.717	194.81
634.923	189.81
635.129	188.81
635.335	207.81
635.541	185.81
635.747	193.81
635.952	194.81
636.158	194.81
636.364	185.81
636.57	174.81
636.775	183.81
636.981	177.81
637.187	180.81
637.392	181.81
637.598	190.81
637.804	171.81
638.009	203.81
638.215	185.81
638.421	169.81
638.626	181.81
638.832	176.81
639.037	177.81
639.243	192.81
639.448	179.81
639.654	183.81
639.859	171.81
640.065	173.81
640.27	175.81
640.475	179.81
640.681	186.81
640.886	177.81
641.091	181.81
641.297	165.81
641.502	173.81
641.707	198.81
641.913	185.81
642.118	183.81
642.323	164.81
642.528	162.81
642.733	177.81
642.939	165.81
643.144	169.81
643.349	170.81
643.554	175.81
643.759	165.81
643.964	192.81
644.169	170.81
644.374	154.81
644.579	161.81
644.784	168.81
644.989	173.81
645.194	185.81
645.399	180.81
645.604	175.81
645.809	185.81
646.014	153.81
646.219	177.81
646.423	173.81
646.628	185.81
646.833	162.81
647.038	177.81
647.243	177.81
647.447	175.81
647.652	173.81
647.857	181.81
648.062	174.81
648.266	170.81
648.471	184.81
648.676	169.81
648.88	177.81
649.085	170.81
649.289	186.81
649.494	171.81
649.698	170.81
649.903	147.81
650.107	153.81
650.312	151.81
650.516	163.81
650.721	180.81
650.925	169.81
651.13	143.81
651.334	151.81
651.539	149.81
651.743	151.81
651.947	152.81
652.152	159.81
652.356	155.81
652.56	153.81
652.764	144.81
652.969	131.81
653.173	152.81
653.377	147.81
653.581	139.81
653.785	147.81
653.99	150.81
654.194	141.81
654.398	154.81
654.602	141.81
654.806	138.81
655.01	125.81
655.214	141.81
655.418	143.81
655.622	121.81
655.826	137.81
656.03	131.81
656.234	138.81
656.438	142.81
656.642	133.81
656.846	135.81
657.049	146.81
657.253	123.81
657.457	104.81
657.661	103.81
657.865	120.81
658.068	111.81
658.272	97.81
658.476	111.81
658.68	93.81
658.883	97.81
659.087	99.81
659.291	100.81
659.494	105.81
659.698	87.81
659.901	91.81
660.105	94.81
660.309	82.81
660.512	98.81
660.716	99.81
660.919	78.81
661.123	92.81
661.326	90.81
661.53	93.81
661.733	93.81
661.936	88.81
662.14	64.81
662.343	100.81
662.546	86.81
662.75	82.81
662.953	81.81
663.156	76.81
663.36	78.81
663.563	76.81
663.766	81.81
663.969	82.81
664.173	84.81
664.376	86.81
664.579	68.81
664.782	71.81
664.985	83.81
665.188	81.81
665.391	76.81
665.594	74.81
665.797	82.81
666	81.81
666.203	83.81
666.406	81.81
666.609	91.81
666.812	90.81
667.015	85.81
667.218	78.81
667.421	82.81
667.624	79.81
667.827	75.81
668.03	94.81
668.232	88.81
668.435	71.81
668.638	67.81
668.841	84.81
669.043	77.81
669.246	82.81
669.449	72.81
669.651	67.81
669.854	83.81
670.057	75.81
670.259	70.81
670.462	83.81
670.665	75.81
670.867	74.81
671.07	74.81
671.272	70.81
671.475	67.81
671.677	75.81
671.88	84.81
672.082	89.81
672.284	75.81
672.487	85.81
672.689	67.81
672.892	75.81
