Data from Ni(NO3)2@0.5M.TitratingCurve.Agarose3%dH2O.NegLispCup.LampEnergy10.LIBS07252019_HRD10591_17-58-38-564.txt Node
Date: Thu Jul 25 17:58:38 EDT 2019
User: cochatt
Spectrometer: HR+D1059
Trigger mode: 1
Integration Time (sec): 1.000000E-1
Scans to average: 1
Electric dark correction enabled: true
Nonlinearity correction enabled: false
Boxcar width: 0
XAxis mode: Wavelengths
Number of Pixels in Spectrum: 2048
>>>>>Begin Spectral Data<<<<<
223.165	-13.88
223.4	-13.88
223.635	-13.88
223.869	-33.88
224.104	-9.88
224.338	-11.88
224.573	-10.88
224.808	-17.88
225.042	1.12
225.277	-15.88
225.511	-8.88
225.746	14.12
225.98	9.12
226.215	5.12
226.449	16.12
226.683	24.12
226.918	24.12
227.152	29.12
227.387	38.12
227.621	38.12
227.856	31.12
228.09	47.12
228.324	45.12
228.559	58.12
228.793	79.12
229.027	136.12
229.262	156.12
229.496	148.12
229.73	162.12
229.964	158.12
230.199	213.12
230.433	209.12
230.667	193.12
230.901	197.12
231.136	155.12
231.37	182.12
231.604	193.12
231.838	208.12
232.072	233.12
232.306	210.12
232.541	187.12
232.775	166.12
233.009	162.12
233.243	161.12
233.477	173.12
233.711	157.12
233.945	184.12
234.179	188.12
234.413	185.12
234.647	186.12
234.881	188.12
235.115	182.12
235.349	185.12
235.583	177.12
235.817	186.12
236.051	167.12
236.285	169.12
236.519	184.12
236.753	164.12
236.987	178.12
237.221	172.12
237.455	184.12
237.689	187.12
237.922	177.12
238.156	172.12
238.39	188.12
238.624	184.12
238.858	183.12
239.091	196.12
239.325	191.12
239.559	216.12
239.793	238.12
240.027	226.12
240.26	216.12
240.494	189.12
240.728	201.12
240.961	206.12
241.195	200.12
241.429	213.12
241.662	220.12
241.896	244.12
242.13	234.12
242.363	207.12
242.597	211.12
242.83	224.12
243.064	250.12
243.298	221.12
243.531	220.12
243.765	236.12
243.998	238.12
244.232	257.12
244.465	234.12
244.699	235.12
244.932	220.12
245.166	235.12
245.399	224.12
245.633	239.12
245.866	236.12
246.099	243.12
246.333	246.12
246.566	249.12
246.8	240.12
247.033	232.12
247.266	250.12
247.5	262.12
247.733	262.12
247.966	259.12
248.2	276.12
248.433	265.12
248.666	268.12
248.899	262.12
249.133	261.12
249.366	277.12
249.599	276.12
249.832	264.12
250.066	297.12
250.299	281.12
250.532	296.12
250.765	309.12
250.998	277.12
251.231	346.12
251.465	335.12
251.698	327.12
251.931	325.12
252.164	300.12
252.397	317.12
252.63	306.12
252.863	300.12
253.096	301.12
253.329	327.12
253.562	332.12
253.795	322.12
254.028	325.12
254.261	342.12
254.494	342.12
254.727	340.12
254.96	345.12
255.193	345.12
255.426	331.12
255.659	330.12
255.892	340.12
256.124	368.12
256.357	329.12
256.59	334.12
256.823	366.12
257.056	360.12
257.289	353.12
257.521	368.12
257.754	362.12
257.987	361.12
258.22	364.12
258.452	350.12
258.685	368.12
258.918	379.12
259.151	368.12
259.383	365.12
259.616	386.12
259.849	363.12
260.081	378.12
260.314	382.12
260.547	391.12
260.779	379.12
261.012	406.12
261.244	389.12
261.477	404.12
261.71	406.12
261.942	406.12
262.175	383.12
262.407	404.12
262.64	397.12
262.872	414.12
263.105	416.12
263.337	416.12
263.57	397.12
263.802	407.12
264.035	416.12
264.267	430.12
264.499	416.12
264.732	411.12
264.964	426.12
265.197	424.12
265.429	428.12
265.661	424.12
265.894	429.12
266.126	454.12
266.358	425.12
266.591	436.12
266.823	463.12
267.055	435.12
267.287	453.12
267.52	434.12
267.752	429.12
267.984	445.12
268.216	448.12
268.448	462.12
268.681	437.12
268.913	457.12
269.145	474.12
269.377	455.12
269.609	471.12
269.841	459.12
270.073	465.12
270.306	470.12
270.538	468.12
270.77	491.12
271.002	476.12
271.234	467.12
271.466	480.12
271.698	470.12
271.93	473.12
272.162	477.12
272.394	493.12
272.626	480.12
272.858	500.12
273.09	487.12
273.322	490.12
273.553	476.12
273.785	492.12
274.017	505.12
274.249	501.12
274.481	488.12
274.713	498.12
274.945	506.12
275.176	501.12
275.408	508.12
275.64	514.12
275.872	511.12
276.104	527.12
276.335	496.12
276.567	528.12
276.799	532.12
277.031	539.12
277.262	535.12
277.494	552.12
277.726	526.12
277.957	517.12
278.189	513.12
278.421	520.12
278.652	538.12
278.884	549.12
279.115	562.12
279.347	547.12
279.579	534.12
279.81	556.12
280.042	554.12
280.273	549.12
280.505	540.12
280.736	547.12
280.968	534.12
281.199	556.12
281.431	563.12
281.662	558.12
281.894	565.12
282.125	572.12
282.356	562.12
282.588	568.12
282.819	559.12
283.051	554.12
283.282	582.12
283.513	584.12
283.745	576.12
283.976	581.12
284.207	566.12
284.439	580.12
284.67	563.12
284.901	588.12
285.132	586.12
285.364	590.12
285.595	600.12
285.826	597.12
286.057	600.12
286.288	612.12
286.52	582.12
286.751	581.12
286.982	609.12
287.213	602.12
287.444	597.12
287.675	621.12
287.906	614.12
288.138	619.12
288.369	595.12
288.6	608.12
288.831	614.12
289.062	613.12
289.293	621.12
289.524	626.12
289.755	616.12
289.986	614.12
290.217	624.12
290.448	640.12
290.679	632.12
290.91	619.12
291.141	613.12
291.371	627.12
291.602	617.12
291.833	622.12
292.064	652.12
292.295	594.12
292.526	608.12
292.757	610.12
292.987	621.12
293.218	608.12
293.449	634.12
293.68	645.12
293.91	635.12
294.141	636.12
294.372	625.12
294.603	631.12
294.833	660.12
295.064	640.12
295.295	651.12
295.525	624.12
295.756	633.12
295.987	644.12
296.217	654.12
296.448	635.12
296.679	638.12
296.909	638.12
297.14	659.12
297.37	668.12
297.601	673.12
297.831	676.12
298.062	665.12
298.292	692.12
298.523	697.12
298.753	683.12
298.984	662.12
299.214	678.12
299.445	688.12
299.675	685.12
299.905	683.12
300.136	692.12
300.366	739.12
300.597	728.12
300.827	725.12
301.057	706.12
301.288	709.12
301.518	735.12
301.748	726.12
301.979	707.12
302.209	709.12
302.439	690.12
302.669	694.12
302.9	721.12
303.13	703.12
303.36	724.12
303.59	738.12
303.82	732.12
304.051	736.12
304.281	713.12
304.511	724.12
304.741	733.12
304.971	750.12
305.201	772.12
305.431	768.12
305.661	747.12
305.891	746.12
306.121	738.12
306.352	760.12
306.582	723.12
306.812	722.12
307.042	744.12
307.272	709.12
307.502	716.12
307.731	739.12
307.961	734.12
308.191	747.12
308.421	743.12
308.651	730.12
308.881	713.12
309.111	742.12
309.341	722.12
309.571	749.12
309.8	727.12
310.03	768.12
310.26	800.12
310.49	793.12
310.72	776.12
310.949	744.12
311.179	739.12
311.409	752.12
311.639	746.12
311.868	754.12
312.098	766.12
312.328	778.12
312.557	782.12
312.787	768.12
313.017	783.12
313.246	788.12
313.476	811.12
313.706	799.12
313.935	786.12
314.165	817.12
314.394	805.12
314.624	790.12
314.853	801.12
315.083	789.12
315.312	790.12
315.542	804.12
315.771	788.12
316.001	828.12
316.23	800.12
316.46	826.12
316.689	810.12
316.919	819.12
317.148	833.12
317.377	832.12
317.607	812.12
317.836	813.12
318.065	802.12
318.295	840.12
318.524	846.12
318.753	849.12
318.983	829.12
319.212	818.12
319.441	856.12
319.67	822.12
319.9	860.12
320.129	839.12
320.358	823.12
320.587	854.12
320.816	852.12
321.046	854.12
321.275	843.12
321.504	840.12
321.733	863.12
321.962	869.12
322.191	840.12
322.42	882.12
322.649	875.12
322.878	865.12
323.108	876.12
323.337	908.12
323.566	897.12
323.795	885.12
324.024	887.12
324.253	888.12
324.482	910.12
324.71	893.12
324.939	898.12
325.168	939.12
325.397	890.12
325.626	936.12
325.855	894.12
326.084	908.12
326.313	950.12
326.542	920.12
326.77	931.12
326.999	938.12
327.228	899.12
327.457	919.12
327.686	901.12
327.914	920.12
328.143	944.12
328.372	929.12
328.6	944.12
328.829	923.12
329.058	939.12
329.287	954.12
329.515	944.12
329.744	945.12
329.972	957.12
330.201	973.12
330.43	986.12
330.658	960.12
330.887	1003.12
331.115	963.12
331.344	985.12
331.572	986.12
331.801	1019.12
332.03	1044.12
332.258	1012.12
332.486	1003.12
332.715	1030.12
332.943	1031.12
333.172	1021.12
333.4	1053.12
333.629	1043.12
333.857	1047.12
334.085	1065.12
334.314	1065.12
334.542	1060.12
334.771	1067.12
334.999	1097.12
335.227	1114.12
335.455	1076.12
335.684	1074.12
335.912	1093.12
336.14	1099.12
336.369	1098.12
336.597	1090.12
336.825	1115.12
337.053	1099.12
337.281	1096.12
337.51	1087.12
337.738	1143.12
337.966	1094.12
338.194	1098.12
338.422	1076.12
338.65	1048.12
338.878	1073.12
339.106	1076.12
339.334	1088.12
339.562	1074.12
339.79	1000.12
340.018	1033.12
340.246	1021.12
340.474	1063.12
340.702	1031.12
340.93	1042.12
341.158	1075.12
341.386	1089.12
341.614	1152.12
341.842	1099.12
342.07	1052.12
342.298	1018.12
342.526	1028.12
342.754	1061.12
342.981	1029.12
343.209	1063.12
343.437	1095.12
343.665	1094.12
343.893	1108.12
344.12	1108.12
344.348	1068.12
344.576	1123.12
344.804	1122.12
345.031	1087.12
345.259	1057.12
345.487	1072.12
345.714	1121.12
345.942	1120.12
346.17	1090.12
346.397	1097.12
346.625	1054.12
346.853	1027.12
347.08	1010.12
347.308	1054.12
347.535	1025.12
347.763	1012.12
347.99	1003.12
348.218	1016.12
348.445	970.12
348.673	1032.12
348.9	1011.12
349.128	1026.12
349.355	1044.12
349.583	1049.12
349.81	1013.12
350.037	995.12
350.265	991.12
350.492	994.12
350.72	977.12
350.947	1006.12
351.174	1029.12
351.402	1027.12
351.629	1061.12
351.856	1056.12
352.083	1002.12
352.311	1028.12
352.538	1070.12
352.765	1065.12
352.992	995.12
353.22	948.12
353.447	969.12
353.674	935.12
353.901	962.12
354.128	949.12
354.355	979.12
354.583	965.12
354.81	977.12
355.037	962.12
355.264	957.12
355.491	964.12
355.718	954.12
355.945	917.12
356.172	986.12
356.399	994.12
356.626	1009.12
356.853	1028.12
357.08	1027.12
357.307	975.12
357.534	999.12
357.761	1004.12
357.988	987.12
358.215	978.12
358.441	949.12
358.668	964.12
358.895	968.12
359.122	956.12
359.349	949.12
359.576	958.12
359.802	968.12
360.029	991.12
360.256	979.12
360.483	961.12
360.709	987.12
360.936	995.12
361.163	1002.12
361.39	1015.12
361.616	1014.12
361.843	1015.12
362.07	1060.12
362.296	1048.12
362.523	992.12
362.749	982.12
362.976	1010.12
363.203	964.12
363.429	937.12
363.656	1000.12
363.882	994.12
364.109	984.12
364.335	994.12
364.562	975.12
364.788	966.12
365.015	985.12
365.241	980.12
365.468	983.12
365.694	985.12
365.92	991.12
366.147	1006.12
366.373	996.12
366.599	1014.12
366.826	987.12
367.052	1026.12
367.278	1025.12
367.505	1004.12
367.731	984.12
367.957	969.12
368.184	978.12
368.41	1018.12
368.636	974.12
368.862	1038.12
369.089	1021.12
369.315	1016.12
369.541	998.12
369.767	1020.12
369.993	1016.12
370.219	1028.12
370.445	1036.12
370.672	1034.12
370.898	1043.12
371.124	1048.12
371.35	1069.12
371.576	1053.12
371.802	1037.12
372.028	1044.12
372.254	1050.12
372.48	1029.12
372.706	1066.12
372.932	1058.12
373.158	1073.12
373.384	1053.12
373.61	1059.12
373.835	1059.12
374.061	1020.12
374.287	1083.12
374.513	1070.12
374.739	1088.12
374.965	1063.12
375.191	1099.12
375.416	1044.12
375.642	1071.12
375.868	1064.12
376.094	1033.12
376.319	1030.12
376.545	1056.12
376.771	1034.12
376.997	1037.12
377.222	1044.12
377.448	1051.12
377.674	1067.12
377.899	1040.12
378.125	1041.12
378.35	1032.12
378.576	1014.12
378.802	1048.12
379.027	1008.12
379.253	1044.12
379.478	1015.12
379.704	1046.12
379.929	1028.12
380.155	1022.12
380.38	1030.12
380.606	1014.12
380.831	1042.12
381.057	1038.12
381.282	1032.12
381.507	1020.12
381.733	1034.12
381.958	1031.12
382.184	1069.12
382.409	1056.12
382.634	1037.12
382.86	1031.12
383.085	1092.12
383.31	1093.12
383.535	1096.12
383.761	1035.12
383.986	1050.12
384.211	1088.12
384.436	1083.12
384.662	1101.12
384.887	1097.12
385.112	1126.12
385.337	1127.12
385.562	1105.12
385.787	1113.12
386.013	1142.12
386.238	1158.12
386.463	1128.12
386.688	1164.12
386.913	1141.12
387.138	1148.12
387.363	1127.12
387.588	1162.12
387.813	1168.12
388.038	1134.12
388.263	1172.12
388.488	1160.12
388.713	1167.12
388.938	1109.12
389.163	1180.12
389.387	1171.12
389.612	1144.12
389.837	1157.12
390.062	1170.12
390.287	1192.12
390.512	1172.12
390.736	1170.12
390.961	1164.12
391.186	1174.12
391.411	1181.12
391.636	1180.12
391.86	1187.12
392.085	1194.12
392.31	1236.12
392.534	1214.12
392.759	1203.12
392.984	1209.12
393.208	1244.12
393.433	1210.12
393.658	1191.12
393.882	1200.12
394.107	1196.12
394.331	1214.12
394.556	1199.12
394.78	1186.12
395.005	1188.12
395.229	1208.12
395.454	1226.12
395.678	1253.12
395.903	1230.12
396.127	1236.12
396.352	1245.12
396.576	1220.12
396.801	1228.12
397.025	1261.12
397.249	1258.12
397.474	1248.12
397.698	1261.12
397.922	1267.12
398.147	1285.12
398.371	1273.12
398.595	1308.12
398.82	1348.12
399.044	1355.12
399.268	1369.12
399.492	1413.12
399.717	1482.12
399.941	1464.12
400.165	1438.12
400.389	1452.12
400.613	1434.12
400.837	1388.12
401.062	1412.12
401.286	1365.12
401.51	1346.12
401.734	1314.12
401.958	1332.12
402.182	1336.12
402.406	1331.12
402.63	1367.12
402.854	1336.12
403.078	1325.12
403.302	1348.12
403.526	1351.12
403.75	1345.12
403.974	1339.12
404.198	1342.12
404.422	1374.12
404.645	1347.12
404.869	1320.12
405.093	1363.12
405.317	1354.12
405.541	1365.12
405.765	1377.12
405.988	1379.12
406.212	1398.12
406.436	1385.12
406.66	1423.12
406.883	1432.12
407.107	1431.12
407.331	1477.12
407.555	1481.12
407.778	1471.12
408.002	1469.12
408.226	1469.12
408.449	1468.12
408.673	1469.12
408.896	1435.12
409.12	1412.12
409.344	1483.12
409.567	1416.12
409.791	1434.12
410.014	1430.12
410.238	1418.12
410.461	1417.12
410.685	1429.12
410.908	1406.12
411.132	1376.12
411.355	1375.12
411.578	1397.12
411.802	1395.12
412.025	1385.12
412.249	1386.12
412.472	1393.12
412.695	1394.12
412.919	1371.12
413.142	1392.12
413.365	1376.12
413.589	1355.12
413.812	1350.12
414.035	1345.12
414.258	1358.12
414.482	1346.12
414.705	1355.12
414.928	1341.12
415.151	1363.12
415.374	1332.12
415.597	1335.12
415.821	1322.12
416.044	1295.12
416.267	1319.12
416.49	1307.12
416.713	1310.12
416.936	1329.12
417.159	1316.12
417.382	1276.12
417.605	1283.12
417.828	1284.12
418.051	1304.12
418.274	1313.12
418.497	1278.12
418.72	1311.12
418.943	1276.12
419.166	1371.12
419.389	1380.12
419.611	1394.12
419.834	1366.12
420.057	1356.12
420.28	1323.12
420.503	1283.12
420.726	1272.12
420.948	1268.12
421.171	1296.12
421.394	1254.12
421.617	1272.12
421.839	1268.12
422.062	1301.12
422.285	1286.12
422.507	1294.12
422.73	1284.12
422.953	1260.12
423.175	1317.12
423.398	1304.12
423.621	1289.12
423.843	1299.12
424.066	1266.12
424.288	1312.12
424.511	1240.12
424.733	1270.12
424.956	1278.12
425.178	1271.12
425.401	1272.12
425.623	1282.12
425.846	1257.12
426.068	1237.12
426.291	1270.12
426.513	1269.12
426.735	1272.12
426.958	1279.12
427.18	1212.12
427.402	1237.12
427.625	1288.12
427.847	1227.12
428.069	1259.12
428.292	1270.12
428.514	1261.12
428.736	1248.12
428.958	1288.12
429.181	1245.12
429.403	1256.12
429.625	1252.12
429.847	1246.12
430.069	1238.12
430.292	1252.12
430.514	1258.12
430.736	1266.12
430.958	1269.12
431.18	1250.12
431.402	1258.12
431.624	1241.12
431.846	1240.12
432.068	1254.12
432.29	1250.12
432.512	1233.12
432.734	1285.12
432.956	1272.12
433.178	1302.12
433.4	1292.12
433.622	1297.12
433.844	1316.12
434.066	1301.12
434.287	1315.12
434.509	1300.12
434.731	1273.12
434.953	1289.12
435.175	1293.12
435.397	1326.12
435.618	1301.12
435.84	1302.12
436.062	1243.12
436.284	1295.12
436.505	1289.12
436.727	1257.12
436.949	1294.12
437.17	1294.12
437.392	1282.12
437.614	1260.12
437.835	1229.12
438.057	1257.12
438.278	1201.12
438.5	1201.12
438.721	1244.12
438.943	1217.12
439.165	1212.12
439.386	1206.12
439.608	1268.12
439.829	1243.12
440.05	1275.12
440.272	1260.12
440.493	1274.12
440.715	1313.12
440.936	1286.12
441.158	1273.12
441.379	1301.12
441.6	1349.12
441.822	1300.12
442.043	1288.12
442.264	1293.12
442.486	1277.12
442.707	1316.12
442.928	1256.12
443.149	1312.12
443.371	1350.12
443.592	1379.12
443.813	1353.12
444.034	1335.12
444.255	1330.12
444.476	1376.12
444.698	1356.12
444.919	1409.12
445.14	1469.12
445.361	1396.12
445.582	1366.12
445.803	1300.12
446.024	1257.12
446.245	1318.12
446.466	1316.12
446.687	1222.12
446.908	1260.12
447.129	1239.12
447.35	1227.12
447.571	1225.12
447.792	1216.12
448.013	1207.12
448.234	1184.12
448.455	1173.12
448.675	1175.12
448.896	1183.12
449.117	1195.12
449.338	1182.12
449.559	1157.12
449.779	1163.12
450	1150.12
450.221	1152.12
450.442	1183.12
450.662	1158.12
450.883	1201.12
451.104	1206.12
451.324	1162.12
451.545	1151.12
451.766	1161.12
451.986	1144.12
452.207	1140.12
452.428	1136.12
452.648	1150.12
452.869	1133.12
453.089	1141.12
453.31	1172.12
453.53	1133.12
453.751	1147.12
453.971	1137.12
454.192	1150.12
454.412	1174.12
454.633	1146.12
454.853	1142.12
455.073	1136.12
455.294	1146.12
455.514	1124.12
455.734	1162.12
455.955	1196.12
456.175	1181.12
456.395	1144.12
456.616	1118.12
456.836	1123.12
457.056	1135.12
457.276	1140.12
457.497	1154.12
457.717	1143.12
457.937	1160.12
458.157	1167.12
458.377	1166.12
458.598	1174.12
458.818	1205.12
459.038	1207.12
459.258	1221.12
459.478	1283.12
459.698	1354.12
459.918	1371.12
460.138	1349.12
460.358	1347.12
460.578	1358.12
460.798	1390.12
461.018	1402.12
461.238	1317.12
461.458	1349.12
461.678	1312.12
461.898	1305.12
462.118	1346.12
462.338	1402.12
462.558	1419.12
462.777	1440.12
462.997	1479.12
463.217	1494.12
463.437	1542.12
463.657	1528.12
463.876	1437.12
464.096	1434.12
464.316	1437.12
464.536	1465.12
464.755	1393.12
464.975	1385.12
465.195	1333.12
465.414	1328.12
465.634	1305.12
465.854	1260.12
466.073	1272.12
466.293	1247.12
466.512	1275.12
466.732	1232.12
466.951	1230.12
467.171	1244.12
467.391	1239.12
467.61	1229.12
467.829	1238.12
468.049	1241.12
468.268	1216.12
468.488	1212.12
468.707	1250.12
468.927	1227.12
469.146	1243.12
469.365	1234.12
469.585	1232.12
469.804	1209.12
470.023	1225.12
470.243	1208.12
470.462	1220.12
470.681	1228.12
470.901	1261.12
471.12	1227.12
471.339	1218.12
471.558	1226.12
471.777	1231.12
471.997	1220.12
472.216	1203.12
472.435	1213.12
472.654	1222.12
472.873	1180.12
473.092	1248.12
473.311	1259.12
473.53	1237.12
473.749	1229.12
473.968	1204.12
474.187	1238.12
474.406	1225.12
474.625	1237.12
474.844	1245.12
475.063	1239.12
475.282	1265.12
475.501	1253.12
475.72	1246.12
475.939	1229.12
476.158	1312.12
476.377	1280.12
476.596	1261.12
476.814	1265.12
477.033	1272.12
477.252	1309.12
477.471	1307.12
477.69	1353.12
477.908	1370.12
478.127	1366.12
478.346	1354.12
478.564	1401.12
478.783	1390.12
479.002	1446.12
479.22	1472.12
479.439	1478.12
479.658	1402.12
479.876	1392.12
480.095	1401.12
480.313	1393.12
480.532	1449.12
480.751	1461.12
480.969	1405.12
481.188	1397.12
481.406	1421.12
481.624	1426.12
481.843	1397.12
482.061	1444.12
482.28	1423.12
482.498	1434.12
482.717	1414.12
482.935	1441.12
483.153	1453.12
483.372	1496.12
483.59	1524.12
483.808	1467.12
484.027	1428.12
484.245	1405.12
484.463	1418.12
484.681	1474.12
484.9	1456.12
485.118	1424.12
485.336	1481.12
485.554	1457.12
485.772	1457.12
485.99	1442.12
486.209	1463.12
486.427	1458.12
486.645	1491.12
486.863	1491.12
487.081	1475.12
487.299	1515.12
487.517	1506.12
487.735	1531.12
487.953	1500.12
488.171	1481.12
488.389	1480.12
488.607	1489.12
488.825	1468.12
489.043	1485.12
489.261	1471.12
489.479	1481.12
489.696	1497.12
489.914	1458.12
490.132	1478.12
490.35	1484.12
490.568	1499.12
490.786	1517.12
491.003	1509.12
491.221	1513.12
491.439	1509.12
491.657	1513.12
491.874	1555.12
492.092	1555.12
492.31	1511.12
492.527	1514.12
492.745	1515.12
492.963	1533.12
493.18	1532.12
493.398	1535.12
493.615	1492.12
493.833	1546.12
494.05	1570.12
494.268	1556.12
494.485	1541.12
494.703	1556.12
494.92	1554.12
495.138	1575.12
495.355	1577.12
495.573	1592.12
495.79	1577.12
496.008	1628.12
496.225	1635.12
496.442	1621.12
496.66	1667.12
496.877	1641.12
497.094	1681.12
497.312	1678.12
497.529	1684.12
497.746	1752.12
497.963	1753.12
498.181	1783.12
498.398	1805.12
498.615	1852.12
498.832	1934.12
499.049	1932.12
499.267	1973.12
499.484	2021.12
499.701	2115.12
499.918	2129.12
500.135	2209.12
500.352	2265.12
500.569	2300.12
500.786	2300.12
501.003	2304.12
501.22	2260.12
501.437	2148.12
501.654	2123.12
501.871	2059.12
502.088	1986.12
502.305	1932.12
502.522	1951.12
502.739	1847.12
502.956	1850.12
503.172	1800.12
503.389	1741.12
503.606	1734.12
503.823	1724.12
504.04	1672.12
504.256	1665.12
504.473	1642.12
504.69	1655.12
504.907	1564.12
505.123	1596.12
505.34	1572.12
505.557	1514.12
505.773	1482.12
505.99	1483.12
506.207	1476.12
506.423	1468.12
506.64	1463.12
506.856	1428.12
507.073	1456.12
507.289	1404.12
507.506	1391.12
507.722	1355.12
507.939	1387.12
508.155	1408.12
508.372	1396.12
508.588	1402.12
508.805	1378.12
509.021	1339.12
509.238	1341.12
509.454	1327.12
509.67	1317.12
509.887	1316.12
510.103	1333.12
510.319	1293.12
510.536	1273.12
510.752	1261.12
510.968	1277.12
511.184	1293.12
511.401	1273.12
511.617	1269.12
511.833	1315.12
512.049	1279.12
512.265	1271.12
512.481	1270.12
512.698	1257.12
512.914	1264.12
513.13	1256.12
513.346	1249.12
513.562	1259.12
513.778	1289.12
513.994	1274.12
514.21	1248.12
514.426	1250.12
514.642	1283.12
514.858	1304.12
515.074	1268.12
515.29	1280.12
515.506	1295.12
515.721	1317.12
515.937	1336.12
516.153	1299.12
516.369	1322.12
516.585	1332.12
516.801	1330.12
517.016	1355.12
517.232	1384.12
517.448	1382.12
517.664	1381.12
517.879	1341.12
518.095	1370.12
518.311	1330.12
518.527	1336.12
518.742	1346.12
518.958	1308.12
519.173	1282.12
519.389	1338.12
519.605	1292.12
519.82	1292.12
520.036	1255.12
520.251	1273.12
520.467	1242.12
520.682	1208.12
520.898	1261.12
521.113	1206.12
521.329	1208.12
521.544	1204.12
521.76	1180.12
521.975	1184.12
522.19	1203.12
522.406	1185.12
522.621	1223.12
522.836	1185.12
523.052	1178.12
523.267	1173.12
523.482	1176.12
523.698	1178.12
523.913	1156.12
524.128	1160.12
524.343	1146.12
524.559	1164.12
524.774	1174.12
524.989	1144.12
525.204	1185.12
525.419	1148.12
525.634	1157.12
525.849	1146.12
526.064	1136.12
526.28	1135.12
526.495	1109.12
526.71	1096.12
526.925	1092.12
527.14	1097.12
527.355	1121.12
527.57	1081.12
527.785	1130.12
527.999	1106.12
528.214	1113.12
528.429	1129.12
528.644	1093.12
528.859	1120.12
529.074	1082.12
529.289	1118.12
529.503	1108.12
529.718	1130.12
529.933	1097.12
530.148	1105.12
530.363	1134.12
530.577	1099.12
530.792	1081.12
531.007	1112.12
531.221	1082.12
531.436	1089.12
531.651	1100.12
531.865	1061.12
532.08	1086.12
532.295	1086.12
532.509	1059.12
532.724	1053.12
532.938	1097.12
533.153	1080.12
533.367	1058.12
533.582	1051.12
533.796	1087.12
534.011	1050.12
534.225	1078.12
534.44	1037.12
534.654	1048.12
534.868	1033.12
535.083	1033.12
535.297	1045.12
535.511	1037.12
535.726	1000.12
535.94	1030.12
536.154	1029.12
536.369	996.12
536.583	1058.12
536.797	1047.12
537.011	1030.12
537.225	1004.12
537.44	1013.12
537.654	1001.12
537.868	978.12
538.082	1020.12
538.296	986.12
538.51	985.12
538.724	1010.12
538.938	1024.12
539.153	1008.12
539.367	1009.12
539.581	994.12
539.795	989.12
540.009	993.12
540.222	1027.12
540.436	992.12
540.65	977.12
540.864	995.12
541.078	999.12
541.292	1016.12
541.506	1012.12
541.72	981.12
541.934	1003.12
542.147	992.12
542.361	1016.12
542.575	970.12
542.789	980.12
543.002	979.12
543.216	964.12
543.43	976.12
543.644	956.12
543.857	989.12
544.071	1003.12
544.285	965.12
544.498	985.12
544.712	981.12
544.925	995.12
545.139	978.12
545.352	1002.12
545.566	972.12
545.779	968.12
545.993	952.12
546.206	979.12
546.42	967.12
546.633	953.12
546.847	948.12
547.06	977.12
547.274	968.12
547.487	992.12
547.7	969.12
547.914	948.12
548.127	981.12
548.34	948.12
548.554	989.12
548.767	993.12
548.98	971.12
549.193	968.12
549.407	951.12
549.62	956.12
549.833	967.12
550.046	958.12
550.259	950.12
550.473	964.12
550.686	964.12
550.899	956.12
551.112	933.12
551.325	933.12
551.538	954.12
551.751	960.12
551.964	926.12
552.177	957.12
552.39	960.12
552.603	936.12
552.816	950.12
553.029	950.12
553.242	967.12
553.455	954.12
553.667	949.12
553.88	935.12
554.093	907.12
554.306	915.12
554.519	928.12
554.732	919.12
554.944	883.12
555.157	908.12
555.37	895.12
555.583	890.12
555.795	890.12
556.008	880.12
556.221	866.12
556.433	877.12
556.646	883.12
556.859	855.12
557.071	842.12
557.284	846.12
557.496	851.12
557.709	832.12
557.921	864.12
558.134	841.12
558.346	854.12
558.559	836.12
558.771	830.12
558.984	825.12
559.196	835.12
559.409	837.12
559.621	813.12
559.833	839.12
560.046	824.12
560.258	824.12
560.47	824.12
560.683	801.12
560.895	804.12
561.107	783.12
561.32	821.12
561.532	842.12
561.744	822.12
561.956	816.12
562.168	816.12
562.381	831.12
562.593	818.12
562.805	814.12
563.017	812.12
563.229	782.12
563.441	819.12
563.653	842.12
563.865	844.12
564.077	827.12
564.289	802.12
564.501	830.12
564.713	859.12
564.925	855.12
565.137	846.12
565.349	858.12
565.561	871.12
565.773	872.12
565.985	887.12
566.197	888.12
566.408	887.12
566.62	876.12
566.832	940.12
567.044	926.12
567.255	944.12
567.467	954.12
567.679	954.12
567.891	960.12
568.102	935.12
568.314	916.12
568.526	898.12
568.737	904.12
568.949	881.12
569.161	845.12
569.372	829.12
569.584	836.12
569.795	806.12
570.007	764.12
570.218	793.12
570.43	779.12
570.641	765.12
570.853	765.12
571.064	734.12
571.276	729.12
571.487	753.12
571.698	735.12
571.91	710.12
572.121	712.12
572.333	708.12
572.544	680.12
572.755	702.12
572.966	686.12
573.178	699.12
573.389	688.12
573.6	687.12
573.811	647.12
574.023	672.12
574.234	691.12
574.445	654.12
574.656	637.12
574.867	629.12
575.078	632.12
575.289	644.12
575.501	638.12
575.712	615.12
575.923	616.12
576.134	612.12
576.345	637.12
576.556	640.12
576.767	631.12
576.978	628.12
577.188	584.12
577.399	614.12
577.61	626.12
577.821	599.12
578.032	617.12
578.243	604.12
578.454	614.12
578.665	588.12
578.875	606.12
579.086	588.12
579.297	552.12
579.508	590.12
579.718	600.12
579.929	578.12
580.14	582.12
580.35	552.12
580.561	558.12
580.772	574.12
580.982	557.12
581.193	557.12
581.403	562.12
581.614	588.12
581.825	552.12
582.035	566.12
582.246	577.12
582.456	564.12
582.667	558.12
582.877	552.12
583.087	549.12
583.298	541.12
583.508	551.12
583.719	566.12
583.929	532.12
584.139	540.12
584.35	539.12
584.56	569.12
584.77	553.12
584.981	531.12
585.191	528.12
585.401	501.12
585.611	517.12
585.821	529.12
586.032	544.12
586.242	537.12
586.452	516.12
586.662	534.12
586.872	518.12
587.082	517.12
587.292	528.12
587.502	549.12
587.713	520.12
587.923	539.12
588.133	522.12
588.343	527.12
588.553	511.12
588.762	514.12
588.972	526.12
589.182	594.12
589.392	552.12
589.602	518.12
589.812	565.12
590.022	532.12
590.232	530.12
590.441	501.12
590.651	516.12
590.861	504.12
591.071	526.12
591.281	523.12
591.49	517.12
591.7	512.12
591.91	516.12
592.119	522.12
592.329	528.12
592.539	523.12
592.748	532.12
592.958	539.12
593.167	508.12
593.377	536.12
593.587	525.12
593.796	522.12
594.006	516.12
594.215	520.12
594.424	496.12
594.634	509.12
594.843	504.12
595.053	522.12
595.262	492.12
595.472	498.12
595.681	488.12
595.89	478.12
596.1	492.12
596.309	500.12
596.518	487.12
596.727	475.12
596.937	477.12
597.146	458.12
597.355	480.12
597.564	472.12
597.774	460.12
597.983	456.12
598.192	453.12
598.401	461.12
598.61	453.12
598.819	454.12
599.028	446.12
599.237	450.12
599.446	433.12
599.655	436.12
599.864	446.12
600.073	413.12
600.282	426.12
600.491	413.12
600.7	443.12
600.909	418.12
601.118	429.12
601.327	430.12
601.536	434.12
601.745	425.12
601.953	442.12
602.162	428.12
602.371	412.12
602.58	412.12
602.789	437.12
602.997	403.12
603.206	424.12
603.415	416.12
603.623	411.12
603.832	400.12
604.041	402.12
604.249	403.12
604.458	410.12
604.666	389.12
604.875	410.12
605.084	390.12
605.292	402.12
605.501	398.12
605.709	392.12
605.918	406.12
606.126	406.12
606.334	418.12
606.543	394.12
606.751	401.12
606.96	397.12
607.168	387.12
607.376	395.12
607.585	391.12
607.793	421.12
608.001	420.12
608.21	393.12
608.418	379.12
608.626	392.12
608.834	398.12
609.043	386.12
609.251	364.12
609.459	389.12
609.667	381.12
609.875	389.12
610.083	390.12
610.291	372.12
610.499	373.12
610.707	388.12
610.916	377.12
611.124	376.12
611.332	381.12
611.54	368.12
611.748	370.12
611.955	399.12
612.163	376.12
612.371	393.12
612.579	384.12
612.787	370.12
612.995	377.12
613.203	376.12
613.411	373.12
613.618	364.12
613.826	369.12
614.034	354.12
614.242	376.12
614.449	370.12
614.657	374.12
614.865	385.12
615.072	360.12
615.28	374.12
615.488	386.12
615.695	348.12
615.903	352.12
616.111	352.12
616.318	392.12
616.526	355.12
616.733	357.12
616.941	338.12
617.148	361.12
617.356	356.12
617.563	370.12
617.771	352.12
617.978	352.12
618.185	341.12
618.393	351.12
618.6	363.12
618.807	358.12
619.015	355.12
619.222	346.12
619.429	348.12
619.637	354.12
619.844	344.12
620.051	333.12
620.258	337.12
620.466	329.12
620.673	332.12
620.88	329.12
621.087	320.12
621.294	329.12
621.501	321.12
621.708	335.12
621.915	350.12
622.122	322.12
622.329	324.12
622.536	348.12
622.743	331.12
622.95	331.12
623.157	330.12
623.364	335.12
623.571	336.12
623.778	342.12
623.985	326.12
624.192	325.12
624.399	317.12
624.606	320.12
624.812	320.12
625.019	314.12
625.226	312.12
625.433	327.12
625.639	320.12
625.846	314.12
626.053	306.12
626.259	324.12
626.466	318.12
626.673	302.12
626.879	301.12
627.086	289.12
627.293	307.12
627.499	308.12
627.706	299.12
627.912	338.12
628.119	278.12
628.325	285.12
628.532	303.12
628.738	297.12
628.945	304.12
629.151	292.12
629.357	291.12
629.564	282.12
629.77	297.12
629.976	317.12
630.183	277.12
630.389	304.12
630.595	285.12
630.802	291.12
631.008	294.12
631.214	281.12
631.42	286.12
631.627	284.12
631.833	279.12
632.039	298.12
632.245	295.12
632.451	279.12
632.657	273.12
632.863	290.12
633.069	259.12
633.275	283.12
633.481	290.12
633.688	278.12
633.893	280.12
634.099	275.12
634.305	289.12
634.511	283.12
634.717	290.12
634.923	276.12
635.129	283.12
635.335	285.12
635.541	276.12
635.747	265.12
635.952	279.12
636.158	262.12
636.364	266.12
636.57	285.12
636.775	246.12
636.981	253.12
637.187	281.12
637.392	264.12
637.598	280.12
637.804	276.12
638.009	265.12
638.215	256.12
638.421	279.12
638.626	266.12
638.832	259.12
639.037	268.12
639.243	252.12
639.448	266.12
639.654	264.12
639.859	244.12
640.065	260.12
640.27	258.12
640.475	262.12
640.681	252.12
640.886	271.12
641.091	258.12
641.297	253.12
641.502	253.12
641.707	258.12
641.913	237.12
642.118	256.12
642.323	246.12
642.528	260.12
642.733	259.12
642.939	244.12
643.144	245.12
643.349	256.12
643.554	255.12
643.759	258.12
643.964	225.12
644.169	272.12
644.374	266.12
644.579	255.12
644.784	251.12
644.989	278.12
645.194	261.12
645.399	244.12
645.604	258.12
645.809	256.12
646.014	263.12
646.219	269.12
646.423	269.12
646.628	259.12
646.833	243.12
647.038	269.12
647.243	260.12
647.447	253.12
647.652	260.12
647.857	257.12
648.062	247.12
648.266	256.12
648.471	264.12
648.676	265.12
648.88	256.12
649.085	258.12
649.289	243.12
649.494	256.12
649.698	243.12
649.903	251.12
650.107	250.12
650.312	258.12
650.516	225.12
650.721	240.12
650.925	230.12
651.13	243.12
651.334	240.12
651.539	253.12
651.743	236.12
651.947	235.12
652.152	241.12
652.356	244.12
652.56	226.12
652.764	228.12
652.969	225.12
653.173	232.12
653.377	221.12
653.581	224.12
653.785	217.12
653.99	230.12
654.194	219.12
654.398	212.12
654.602	205.12
654.806	212.12
655.01	218.12
655.214	203.12
655.418	213.12
655.622	204.12
655.826	229.12
656.03	213.12
656.234	216.12
656.438	217.12
656.642	211.12
656.846	199.12
657.049	205.12
657.253	190.12
657.457	189.12
657.661	186.12
657.865	158.12
658.068	166.12
658.272	151.12
658.476	154.12
658.68	162.12
658.883	153.12
659.087	134.12
659.291	140.12
659.494	132.12
659.698	137.12
659.901	125.12
660.105	112.12
660.309	122.12
660.512	116.12
660.716	112.12
660.919	102.12
661.123	123.12
661.326	110.12
661.53	103.12
661.733	96.12
661.936	89.12
662.14	85.12
662.343	97.12
662.546	89.12
662.75	83.12
662.953	95.12
663.156	90.12
663.36	84.12
663.563	82.12
663.766	89.12
663.969	85.12
664.173	93.12
664.376	82.12
664.579	74.12
664.782	85.12
664.985	78.12
665.188	78.12
665.391	73.12
665.594	76.12
665.797	73.12
666	77.12
666.203	74.12
666.406	90.12
666.609	80.12
666.812	92.12
667.015	85.12
667.218	79.12
667.421	85.12
667.624	89.12
667.827	80.12
668.03	88.12
668.232	73.12
668.435	85.12
668.638	76.12
668.841	81.12
669.043	90.12
669.246	84.12
669.449	81.12
669.651	77.12
669.854	76.12
670.057	88.12
670.259	96.12
670.462	82.12
670.665	66.12
670.867	78.12
671.07	69.12
671.272	74.12
671.475	87.12
671.677	83.12
671.88	82.12
672.082	74.12
672.284	82.12
672.487	87.12
672.689	78.12
672.892	73.12
