Data from Ni(NO3)2Standard.Agarose3%.GreenCap.LampEnergy5.5.E.O_HRD10591_14-39-53-188.txt Node
Date: Mon Jul 22 14:39:53 EDT 2019
User: cochatt
Spectrometer: HR+D1059
Trigger mode: 1
Integration Time (sec): 1.000000E-1
Scans to average: 1
Electric dark correction enabled: true
Nonlinearity correction enabled: false
Boxcar width: 0
XAxis mode: Wavelengths
Number of Pixels in Spectrum: 2048
>>>>>Begin Spectral Data<<<<<
223.165	-8.94
223.4	-8.94
223.635	-8.94
223.869	-27.94
224.104	-29.94
224.338	-17.94
224.573	-20.94
224.808	-5.94
225.042	3.06
225.277	1.06
225.511	-9.94
225.746	2.06
225.98	-2.94
226.215	21.06
226.449	26.06
226.683	17.06
226.918	17.06
227.152	37.06
227.387	41.06
227.621	34.06
227.856	33.06
228.09	53.06
228.324	38.06
228.559	54.06
228.793	59.06
229.027	49.06
229.262	62.06
229.496	70.06
229.73	72.06
229.964	69.06
230.199	77.06
230.433	77.06
230.667	68.06
230.901	75.06
231.136	84.06
231.37	80.06
231.604	92.06
231.838	78.06
232.072	67.06
232.306	76.06
232.541	81.06
232.775	85.06
233.009	87.06
233.243	87.06
233.477	88.06
233.711	86.06
233.945	75.06
234.179	79.06
234.413	89.06
234.647	85.06
234.881	82.06
235.115	71.06
235.349	80.06
235.583	82.06
235.817	76.06
236.051	85.06
236.285	82.06
236.519	88.06
236.753	83.06
236.987	89.06
237.221	74.06
237.455	74.06
237.689	68.06
237.922	84.06
238.156	82.06
238.39	74.06
238.624	73.06
238.858	77.06
239.091	84.06
239.325	78.06
239.559	60.06
239.793	81.06
240.027	85.06
240.26	67.06
240.494	90.06
240.728	76.06
240.961	92.06
241.195	68.06
241.429	74.06
241.662	84.06
241.896	78.06
242.13	68.06
242.363	85.06
242.597	75.06
242.83	73.06
243.064	69.06
243.298	79.06
243.531	77.06
243.765	82.06
243.998	71.06
244.232	84.06
244.465	86.06
244.699	87.06
244.932	69.06
245.166	76.06
245.399	83.06
245.633	71.06
245.866	87.06
246.099	74.06
246.333	89.06
246.566	87.06
246.8	77.06
247.033	94.06
247.266	70.06
247.5	92.06
247.733	75.06
247.966	77.06
248.2	86.06
248.433	79.06
248.666	82.06
248.899	73.06
249.133	88.06
249.366	88.06
249.599	81.06
249.832	70.06
250.066	68.06
250.299	86.06
250.532	92.06
250.765	89.06
250.998	91.06
251.231	83.06
251.465	97.06
251.698	78.06
251.931	87.06
252.164	88.06
252.397	80.06
252.63	85.06
252.863	72.06
253.096	67.06
253.329	82.06
253.562	79.06
253.795	92.06
254.028	74.06
254.261	77.06
254.494	89.06
254.727	80.06
254.96	75.06
255.193	63.06
255.426	78.06
255.659	82.06
255.892	80.06
256.124	88.06
256.357	80.06
256.59	73.06
256.823	90.06
257.056	89.06
257.289	75.06
257.521	87.06
257.754	72.06
257.987	72.06
258.22	93.06
258.452	92.06
258.685	82.06
258.918	69.06
259.151	81.06
259.383	80.06
259.616	78.06
259.849	86.06
260.081	81.06
260.314	87.06
260.547	92.06
260.779	85.06
261.012	74.06
261.244	83.06
261.477	79.06
261.71	85.06
261.942	83.06
262.175	89.06
262.407	84.06
262.64	85.06
262.872	73.06
263.105	83.06
263.337	85.06
263.57	73.06
263.802	87.06
264.035	90.06
264.267	84.06
264.499	77.06
264.732	72.06
264.964	76.06
265.197	86.06
265.429	97.06
265.661	89.06
265.894	71.06
266.126	73.06
266.358	80.06
266.591	93.06
266.823	79.06
267.055	82.06
267.287	71.06
267.52	91.06
267.752	79.06
267.984	94.06
268.216	101.06
268.448	78.06
268.681	100.06
268.913	79.06
269.145	74.06
269.377	79.06
269.609	84.06
269.841	78.06
270.073	98.06
270.306	75.06
270.538	71.06
270.77	77.06
271.002	93.06
271.234	94.06
271.466	86.06
271.698	89.06
271.93	83.06
272.162	83.06
272.394	90.06
272.626	83.06
272.858	88.06
273.09	92.06
273.322	103.06
273.553	87.06
273.785	94.06
274.017	82.06
274.249	95.06
274.481	78.06
274.713	79.06
274.945	85.06
275.176	75.06
275.408	89.06
275.64	85.06
275.872	99.06
276.104	93.06
276.335	90.06
276.567	94.06
276.799	97.06
277.031	78.06
277.262	100.06
277.494	96.06
277.726	97.06
277.957	86.06
278.189	81.06
278.421	79.06
278.652	76.06
278.884	90.06
279.115	86.06
279.347	89.06
279.579	91.06
279.81	90.06
280.042	94.06
280.273	81.06
280.505	88.06
280.736	87.06
280.968	95.06
281.199	98.06
281.431	93.06
281.662	99.06
281.894	83.06
282.125	90.06
282.356	96.06
282.588	73.06
282.819	90.06
283.051	90.06
283.282	75.06
283.513	94.06
283.745	88.06
283.976	101.06
284.207	86.06
284.439	82.06
284.67	77.06
284.901	79.06
285.132	83.06
285.364	83.06
285.595	90.06
285.826	99.06
286.057	101.06
286.288	85.06
286.52	77.06
286.751	89.06
286.982	95.06
287.213	91.06
287.444	84.06
287.675	77.06
287.906	73.06
288.138	90.06
288.369	94.06
288.6	88.06
288.831	82.06
289.062	90.06
289.293	88.06
289.524	81.06
289.755	82.06
289.986	83.06
290.217	87.06
290.448	88.06
290.679	79.06
290.91	95.06
291.141	84.06
291.371	93.06
291.602	92.06
291.833	99.06
292.064	92.06
292.295	78.06
292.526	98.06
292.757	75.06
292.987	70.06
293.218	83.06
293.449	83.06
293.68	92.06
293.91	84.06
294.141	94.06
294.372	84.06
294.603	79.06
294.833	89.06
295.064	88.06
295.295	85.06
295.525	90.06
295.756	91.06
295.987	76.06
296.217	76.06
296.448	84.06
296.679	103.06
296.909	94.06
297.14	95.06
297.37	97.06
297.601	91.06
297.831	85.06
298.062	105.06
298.292	84.06
298.523	90.06
298.753	90.06
298.984	88.06
299.214	89.06
299.445	89.06
299.675	95.06
299.905	98.06
300.136	87.06
300.366	93.06
300.597	100.06
300.827	86.06
301.057	77.06
301.288	94.06
301.518	93.06
301.748	74.06
301.979	85.06
302.209	84.06
302.439	85.06
302.669	83.06
302.9	81.06
303.13	74.06
303.36	84.06
303.59	83.06
303.82	94.06
304.051	85.06
304.281	81.06
304.511	94.06
304.741	82.06
304.971	96.06
305.201	89.06
305.431	93.06
305.661	86.06
305.891	89.06
306.121	83.06
306.352	95.06
306.582	95.06
306.812	76.06
307.042	79.06
307.272	87.06
307.502	86.06
307.731	96.06
307.961	97.06
308.191	70.06
308.421	100.06
308.651	81.06
308.881	101.06
309.111	97.06
309.341	97.06
309.571	86.06
309.8	80.06
310.03	98.06
310.26	104.06
310.49	96.06
310.72	96.06
310.949	92.06
311.179	79.06
311.409	72.06
311.639	101.06
311.868	84.06
312.098	92.06
312.328	93.06
312.557	95.06
312.787	81.06
313.017	87.06
313.246	95.06
313.476	73.06
313.706	79.06
313.935	70.06
314.165	85.06
314.394	88.06
314.624	78.06
314.853	83.06
315.083	74.06
315.312	75.06
315.542	88.06
315.771	90.06
316.001	102.06
316.23	100.06
316.46	92.06
316.689	93.06
316.919	97.06
317.148	85.06
317.377	88.06
317.607	95.06
317.836	94.06
318.065	99.06
318.295	97.06
318.524	99.06
318.753	86.06
318.983	90.06
319.212	85.06
319.441	90.06
319.67	80.06
319.9	98.06
320.129	89.06
320.358	85.06
320.587	82.06
320.816	79.06
321.046	84.06
321.275	89.06
321.504	92.06
321.733	94.06
321.962	99.06
322.191	91.06
322.42	79.06
322.649	99.06
322.878	90.06
323.108	96.06
323.337	84.06
323.566	83.06
323.795	91.06
324.024	99.06
324.253	82.06
324.482	79.06
324.71	82.06
324.939	83.06
325.168	83.06
325.397	67.06
325.626	99.06
325.855	96.06
326.084	72.06
326.313	76.06
326.542	78.06
326.77	91.06
326.999	87.06
327.228	91.06
327.457	80.06
327.686	90.06
327.914	80.06
328.143	98.06
328.372	90.06
328.6	89.06
328.829	75.06
329.058	92.06
329.287	87.06
329.515	95.06
329.744	87.06
329.972	104.06
330.201	93.06
330.43	78.06
330.658	75.06
330.887	89.06
331.115	88.06
331.344	90.06
331.572	90.06
331.801	84.06
332.03	76.06
332.258	86.06
332.486	90.06
332.715	93.06
332.943	94.06
333.172	72.06
333.4	102.06
333.629	97.06
333.857	89.06
334.085	95.06
334.314	93.06
334.542	82.06
334.771	85.06
334.999	88.06
335.227	85.06
335.455	89.06
335.684	85.06
335.912	90.06
336.14	85.06
336.369	88.06
336.597	84.06
336.825	98.06
337.053	82.06
337.281	85.06
337.51	85.06
337.738	81.06
337.966	88.06
338.194	98.06
338.422	84.06
338.65	96.06
338.878	86.06
339.106	90.06
339.334	85.06
339.562	87.06
339.79	92.06
340.018	73.06
340.246	89.06
340.474	81.06
340.702	92.06
340.93	85.06
341.158	74.06
341.386	91.06
341.614	80.06
341.842	97.06
342.07	105.06
342.298	104.06
342.526	90.06
342.754	94.06
342.981	88.06
343.209	73.06
343.437	86.06
343.665	81.06
343.893	76.06
344.12	95.06
344.348	102.06
344.576	95.06
344.804	103.06
345.031	76.06
345.259	84.06
345.487	73.06
345.714	90.06
345.942	89.06
346.17	99.06
346.397	107.06
346.625	87.06
346.853	86.06
347.08	87.06
347.308	92.06
347.535	83.06
347.763	91.06
347.99	91.06
348.218	97.06
348.445	74.06
348.673	87.06
348.9	85.06
349.128	82.06
349.355	93.06
349.583	84.06
349.81	90.06
350.037	88.06
350.265	83.06
350.492	89.06
350.72	89.06
350.947	95.06
351.174	87.06
351.402	77.06
351.629	76.06
351.856	95.06
352.083	94.06
352.311	93.06
352.538	91.06
352.765	92.06
352.992	81.06
353.22	86.06
353.447	63.06
353.674	86.06
353.901	97.06
354.128	85.06
354.355	96.06
354.583	84.06
354.81	97.06
355.037	77.06
355.264	97.06
355.491	83.06
355.718	83.06
355.945	84.06
356.172	74.06
356.399	76.06
356.626	82.06
356.853	84.06
357.08	108.06
357.307	87.06
357.534	83.06
357.761	91.06
357.988	82.06
358.215	84.06
358.441	94.06
358.668	85.06
358.895	94.06
359.122	72.06
359.349	88.06
359.576	94.06
359.802	85.06
360.029	95.06
360.256	88.06
360.483	79.06
360.709	96.06
360.936	91.06
361.163	95.06
361.39	75.06
361.616	93.06
361.843	83.06
362.07	89.06
362.296	90.06
362.523	74.06
362.749	85.06
362.976	76.06
363.203	94.06
363.429	92.06
363.656	90.06
363.882	80.06
364.109	86.06
364.335	79.06
364.562	81.06
364.788	79.06
365.015	83.06
365.241	84.06
365.468	83.06
365.694	86.06
365.92	83.06
366.147	77.06
366.373	75.06
366.599	90.06
366.826	82.06
367.052	84.06
367.278	97.06
367.505	84.06
367.731	77.06
367.957	76.06
368.184	74.06
368.41	90.06
368.636	87.06
368.862	83.06
369.089	89.06
369.315	77.06
369.541	93.06
369.767	89.06
369.993	83.06
370.219	79.06
370.445	93.06
370.672	86.06
370.898	94.06
371.124	87.06
371.35	86.06
371.576	87.06
371.802	82.06
372.028	94.06
372.254	89.06
372.48	77.06
372.706	79.06
372.932	105.06
373.158	88.06
373.384	69.06
373.61	79.06
373.835	91.06
374.061	93.06
374.287	70.06
374.513	70.06
374.739	99.06
374.965	92.06
375.191	79.06
375.416	79.06
375.642	85.06
375.868	71.06
376.094	89.06
376.319	86.06
376.545	90.06
376.771	72.06
376.997	96.06
377.222	87.06
377.448	94.06
377.674	87.06
377.899	78.06
378.125	79.06
378.35	83.06
378.576	97.06
378.802	89.06
379.027	92.06
379.253	94.06
379.478	89.06
379.704	79.06
379.929	91.06
380.155	80.06
380.38	95.06
380.606	87.06
380.831	94.06
381.057	92.06
381.282	79.06
381.507	82.06
381.733	73.06
381.958	96.06
382.184	98.06
382.409	81.06
382.634	80.06
382.86	89.06
383.085	84.06
383.31	87.06
383.535	87.06
383.761	87.06
383.986	96.06
384.211	68.06
384.436	87.06
384.662	80.06
384.887	85.06
385.112	69.06
385.337	91.06
385.562	81.06
385.787	80.06
386.013	91.06
386.238	88.06
386.463	80.06
386.688	71.06
386.913	78.06
387.138	88.06
387.363	79.06
387.588	76.06
387.813	76.06
388.038	85.06
388.263	104.06
388.488	72.06
388.713	90.06
388.938	91.06
389.163	91.06
389.387	87.06
389.612	99.06
389.837	72.06
390.062	93.06
390.287	96.06
390.512	74.06
390.736	87.06
390.961	88.06
391.186	92.06
391.411	82.06
391.636	82.06
391.86	87.06
392.085	93.06
392.31	90.06
392.534	85.06
392.759	97.06
392.984	97.06
393.208	94.06
393.433	70.06
393.658	82.06
393.882	85.06
394.107	85.06
394.331	87.06
394.556	68.06
394.78	102.06
395.005	84.06
395.229	86.06
395.454	82.06
395.678	91.06
395.903	86.06
396.127	76.06
396.352	90.06
396.576	93.06
396.801	86.06
397.025	85.06
397.249	94.06
397.474	94.06
397.698	77.06
397.922	88.06
398.147	75.06
398.371	83.06
398.595	84.06
398.82	93.06
399.044	86.06
399.268	78.06
399.492	82.06
399.717	100.06
399.941	89.06
400.165	89.06
400.389	82.06
400.613	73.06
400.837	79.06
401.062	89.06
401.286	78.06
401.51	85.06
401.734	82.06
401.958	85.06
402.182	84.06
402.406	84.06
402.63	78.06
402.854	75.06
403.078	91.06
403.302	95.06
403.526	84.06
403.75	74.06
403.974	89.06
404.198	77.06
404.422	78.06
404.645	79.06
404.869	90.06
405.093	79.06
405.317	82.06
405.541	89.06
405.765	88.06
405.988	83.06
406.212	85.06
406.436	79.06
406.66	88.06
406.883	79.06
407.107	95.06
407.331	76.06
407.555	88.06
407.778	81.06
408.002	89.06
408.226	88.06
408.449	93.06
408.673	88.06
408.896	82.06
409.12	76.06
409.344	83.06
409.567	76.06
409.791	94.06
410.014	75.06
410.238	77.06
410.461	88.06
410.685	95.06
410.908	89.06
411.132	81.06
411.355	86.06
411.578	82.06
411.802	90.06
412.025	90.06
412.249	91.06
412.472	90.06
412.695	92.06
412.919	83.06
413.142	85.06
413.365	97.06
413.589	86.06
413.812	85.06
414.035	92.06
414.258	98.06
414.482	89.06
414.705	95.06
414.928	93.06
415.151	93.06
415.374	79.06
415.597	96.06
415.821	98.06
416.044	100.06
416.267	88.06
416.49	98.06
416.713	86.06
416.936	94.06
417.159	84.06
417.382	72.06
417.605	88.06
417.828	83.06
418.051	77.06
418.274	83.06
418.497	76.06
418.72	97.06
418.943	82.06
419.166	85.06
419.389	71.06
419.611	83.06
419.834	81.06
420.057	83.06
420.28	92.06
420.503	88.06
420.726	89.06
420.948	69.06
421.171	79.06
421.394	79.06
421.617	86.06
421.839	81.06
422.062	87.06
422.285	88.06
422.507	85.06
422.73	96.06
422.953	77.06
423.175	85.06
423.398	79.06
423.621	87.06
423.843	107.06
424.066	93.06
424.288	97.06
424.511	78.06
424.733	90.06
424.956	88.06
425.178	91.06
425.401	86.06
425.623	83.06
425.846	87.06
426.068	83.06
426.291	90.06
426.513	89.06
426.735	86.06
426.958	87.06
427.18	98.06
427.402	81.06
427.625	87.06
427.847	89.06
428.069	80.06
428.292	92.06
428.514	89.06
428.736	97.06
428.958	72.06
429.181	76.06
429.403	79.06
429.625	89.06
429.847	94.06
430.069	92.06
430.292	92.06
430.514	100.06
430.736	80.06
430.958	94.06
431.18	91.06
431.402	85.06
431.624	83.06
431.846	98.06
432.068	95.06
432.29	84.06
432.512	94.06
432.734	92.06
432.956	89.06
433.178	83.06
433.4	94.06
433.622	92.06
433.844	86.06
434.066	94.06
434.287	88.06
434.509	86.06
434.731	88.06
434.953	83.06
435.175	85.06
435.397	73.06
435.618	103.06
435.84	84.06
436.062	84.06
436.284	88.06
436.505	79.06
436.727	69.06
436.949	98.06
437.17	84.06
437.392	96.06
437.614	87.06
437.835	77.06
438.057	84.06
438.278	79.06
438.5	81.06
438.721	91.06
438.943	79.06
439.165	85.06
439.386	91.06
439.608	85.06
439.829	90.06
440.05	80.06
440.272	97.06
440.493	83.06
440.715	93.06
440.936	79.06
441.158	89.06
441.379	83.06
441.6	76.06
441.822	77.06
442.043	74.06
442.264	92.06
442.486	90.06
442.707	94.06
442.928	94.06
443.149	81.06
443.371	92.06
443.592	94.06
443.813	67.06
444.034	84.06
444.255	83.06
444.476	82.06
444.698	84.06
444.919	78.06
445.14	197.06
445.361	140.06
445.582	95.06
445.803	90.06
446.024	90.06
446.245	95.06
446.466	97.06
446.687	78.06
446.908	98.06
447.129	89.06
447.35	74.06
447.571	76.06
447.792	90.06
448.013	76.06
448.234	81.06
448.455	81.06
448.675	89.06
448.896	89.06
449.117	77.06
449.338	79.06
449.559	81.06
449.779	86.06
450	80.06
450.221	85.06
450.442	83.06
450.662	81.06
450.883	78.06
451.104	61.06
451.324	83.06
451.545	86.06
451.766	78.06
451.986	96.06
452.207	91.06
452.428	93.06
452.648	88.06
452.869	85.06
453.089	85.06
453.31	87.06
453.53	88.06
453.751	75.06
453.971	76.06
454.192	93.06
454.412	76.06
454.633	91.06
454.853	84.06
455.073	79.06
455.294	93.06
455.514	90.06
455.734	100.06
455.955	87.06
456.175	80.06
456.395	77.06
456.616	81.06
456.836	86.06
457.056	91.06
457.276	90.06
457.497	90.06
457.717	79.06
457.937	82.06
458.157	95.06
458.377	62.06
458.598	82.06
458.818	76.06
459.038	73.06
459.258	90.06
459.478	76.06
459.698	85.06
459.918	94.06
460.138	93.06
460.358	90.06
460.578	84.06
460.798	82.06
461.018	77.06
461.238	78.06
461.458	75.06
461.678	78.06
461.898	70.06
462.118	93.06
462.338	94.06
462.558	85.06
462.777	77.06
462.997	87.06
463.217	75.06
463.437	91.06
463.657	89.06
463.876	79.06
464.096	100.06
464.316	82.06
464.536	79.06
464.755	83.06
464.975	84.06
465.195	82.06
465.414	95.06
465.634	80.06
465.854	74.06
466.073	77.06
466.293	85.06
466.512	77.06
466.732	76.06
466.951	94.06
467.171	85.06
467.391	91.06
467.61	84.06
467.829	89.06
468.049	93.06
468.268	84.06
468.488	84.06
468.707	91.06
468.927	80.06
469.146	90.06
469.365	94.06
469.585	85.06
469.804	85.06
470.023	93.06
470.243	90.06
470.462	90.06
470.681	91.06
470.901	89.06
471.12	75.06
471.339	84.06
471.558	73.06
471.777	90.06
471.997	93.06
472.216	89.06
472.435	79.06
472.654	90.06
472.873	90.06
473.092	79.06
473.311	86.06
473.53	90.06
473.749	94.06
473.968	91.06
474.187	93.06
474.406	89.06
474.625	77.06
474.844	92.06
475.063	86.06
475.282	85.06
475.501	87.06
475.72	105.06
475.939	102.06
476.158	98.06
476.377	85.06
476.596	93.06
476.814	84.06
477.033	91.06
477.252	93.06
477.471	82.06
477.69	90.06
477.908	84.06
478.127	105.06
478.346	90.06
478.564	87.06
478.783	83.06
479.002	87.06
479.22	93.06
479.439	102.06
479.658	93.06
479.876	95.06
480.095	97.06
480.313	79.06
480.532	98.06
480.751	92.06
480.969	86.06
481.188	83.06
481.406	92.06
481.624	97.06
481.843	83.06
482.061	93.06
482.28	94.06
482.498	101.06
482.717	84.06
482.935	84.06
483.153	106.06
483.372	102.06
483.59	92.06
483.808	87.06
484.027	72.06
484.245	81.06
484.463	91.06
484.681	93.06
484.9	82.06
485.118	94.06
485.336	89.06
485.554	95.06
485.772	92.06
485.99	99.06
486.209	78.06
486.427	91.06
486.645	99.06
486.863	88.06
487.081	91.06
487.299	86.06
487.517	99.06
487.735	99.06
487.953	107.06
488.171	73.06
488.389	100.06
488.607	88.06
488.825	84.06
489.043	89.06
489.261	102.06
489.479	89.06
489.696	88.06
489.914	102.06
490.132	92.06
490.35	102.06
490.568	90.06
490.786	95.06
491.003	99.06
491.221	88.06
491.439	77.06
491.657	101.06
491.874	98.06
492.092	107.06
492.31	101.06
492.527	94.06
492.745	94.06
492.963	102.06
493.18	89.06
493.398	95.06
493.615	101.06
493.833	104.06
494.05	89.06
494.268	105.06
494.485	106.06
494.703	94.06
494.92	98.06
495.138	86.06
495.355	107.06
495.573	113.06
495.79	87.06
496.008	85.06
496.225	101.06
496.442	89.06
496.66	104.06
496.877	103.06
497.094	114.06
497.312	97.06
497.529	97.06
497.746	107.06
497.963	98.06
498.181	86.06
498.398	89.06
498.615	97.06
498.832	100.06
499.049	110.06
499.267	101.06
499.484	102.06
499.701	101.06
499.918	103.06
500.135	111.06
500.352	96.06
500.569	106.06
500.786	111.06
501.003	107.06
501.22	103.06
501.437	101.06
501.654	97.06
501.871	103.06
502.088	92.06
502.305	87.06
502.522	91.06
502.739	105.06
502.956	94.06
503.172	94.06
503.389	96.06
503.606	89.06
503.823	90.06
504.04	93.06
504.256	97.06
504.473	84.06
504.69	102.06
504.907	111.06
505.123	94.06
505.34	83.06
505.557	90.06
505.773	109.06
505.99	105.06
506.207	85.06
506.423	95.06
506.64	86.06
506.856	91.06
507.073	85.06
507.289	91.06
507.506	101.06
507.722	91.06
507.939	86.06
508.155	78.06
508.372	91.06
508.588	92.06
508.805	83.06
509.021	89.06
509.238	89.06
509.454	100.06
509.67	96.06
509.887	76.06
510.103	100.06
510.319	109.06
510.536	100.06
510.752	106.06
510.968	92.06
511.184	98.06
511.401	93.06
511.617	80.06
511.833	92.06
512.049	93.06
512.265	83.06
512.481	95.06
512.698	82.06
512.914	93.06
513.13	91.06
513.346	91.06
513.562	95.06
513.778	88.06
513.994	90.06
514.21	97.06
514.426	92.06
514.642	86.06
514.858	105.06
515.074	75.06
515.29	107.06
515.506	80.06
515.721	83.06
515.937	83.06
516.153	97.06
516.369	93.06
516.585	107.06
516.801	99.06
517.016	84.06
517.232	90.06
517.448	99.06
517.664	98.06
517.879	99.06
518.095	94.06
518.311	85.06
518.527	96.06
518.742	80.06
518.958	89.06
519.173	84.06
519.389	92.06
519.605	92.06
519.82	86.06
520.036	95.06
520.251	98.06
520.467	99.06
520.682	96.06
520.898	82.06
521.113	91.06
521.329	100.06
521.544	91.06
521.76	89.06
521.975	100.06
522.19	84.06
522.406	77.06
522.621	95.06
522.836	97.06
523.052	80.06
523.267	88.06
523.482	87.06
523.698	76.06
523.913	99.06
524.128	94.06
524.343	93.06
524.559	88.06
524.774	77.06
524.989	93.06
525.204	110.06
525.419	82.06
525.634	75.06
525.849	86.06
526.064	92.06
526.28	97.06
526.495	74.06
526.71	86.06
526.925	97.06
527.14	102.06
527.355	98.06
527.57	101.06
527.785	73.06
527.999	98.06
528.214	86.06
528.429	88.06
528.644	76.06
528.859	85.06
529.074	85.06
529.289	95.06
529.503	98.06
529.718	104.06
529.933	86.06
530.148	91.06
530.363	90.06
530.577	97.06
530.792	91.06
531.007	93.06
531.221	92.06
531.436	89.06
531.651	98.06
531.865	96.06
532.08	100.06
532.295	85.06
532.509	93.06
532.724	88.06
532.938	95.06
533.153	105.06
533.367	93.06
533.582	91.06
533.796	85.06
534.011	90.06
534.225	98.06
534.44	86.06
534.654	79.06
534.868	89.06
535.083	93.06
535.297	92.06
535.511	97.06
535.726	100.06
535.94	91.06
536.154	101.06
536.369	85.06
536.583	88.06
536.797	90.06
537.011	98.06
537.225	99.06
537.44	81.06
537.654	75.06
537.868	83.06
538.082	94.06
538.296	93.06
538.51	91.06
538.724	93.06
538.938	103.06
539.153	101.06
539.367	96.06
539.581	90.06
539.795	92.06
540.009	102.06
540.222	110.06
540.436	84.06
540.65	93.06
540.864	95.06
541.078	82.06
541.292	87.06
541.506	103.06
541.72	85.06
541.934	98.06
542.147	95.06
542.361	86.06
542.575	100.06
542.789	88.06
543.002	91.06
543.216	88.06
543.43	94.06
543.644	94.06
543.857	95.06
544.071	104.06
544.285	98.06
544.498	92.06
544.712	97.06
544.925	102.06
545.139	107.06
545.352	88.06
545.566	79.06
545.779	86.06
545.993	94.06
546.206	96.06
546.42	97.06
546.633	102.06
546.847	95.06
547.06	93.06
547.274	101.06
547.487	90.06
547.7	78.06
547.914	99.06
548.127	95.06
548.34	113.06
548.554	92.06
548.767	94.06
548.98	100.06
549.193	98.06
549.407	75.06
549.62	109.06
549.833	103.06
550.046	101.06
550.259	91.06
550.473	91.06
550.686	101.06
550.899	94.06
551.112	97.06
551.325	90.06
551.538	88.06
551.751	88.06
551.964	81.06
552.177	108.06
552.39	93.06
552.603	77.06
552.816	91.06
553.029	96.06
553.242	79.06
553.455	98.06
553.667	96.06
553.88	115.06
554.093	117.06
554.306	91.06
554.519	93.06
554.732	92.06
554.944	100.06
555.157	108.06
555.37	87.06
555.583	89.06
555.795	92.06
556.008	89.06
556.221	89.06
556.433	93.06
556.646	89.06
556.859	90.06
557.071	76.06
557.284	98.06
557.496	98.06
557.709	98.06
557.921	103.06
558.134	92.06
558.346	84.06
558.559	87.06
558.771	91.06
558.984	78.06
559.196	82.06
559.409	93.06
559.621	83.06
559.833	97.06
560.046	91.06
560.258	86.06
560.47	93.06
560.683	94.06
560.895	94.06
561.107	86.06
561.32	83.06
561.532	86.06
561.744	93.06
561.956	95.06
562.168	92.06
562.381	80.06
562.593	104.06
562.805	92.06
563.017	91.06
563.229	78.06
563.441	93.06
563.653	79.06
563.865	102.06
564.077	97.06
564.289	121.06
564.501	79.06
564.713	89.06
564.925	101.06
565.137	81.06
565.349	87.06
565.561	91.06
565.773	92.06
565.985	101.06
566.197	98.06
566.408	99.06
566.62	89.06
566.832	93.06
567.044	85.06
567.255	90.06
567.467	87.06
567.679	89.06
567.891	86.06
568.102	90.06
568.314	110.06
568.526	82.06
568.737	97.06
568.949	94.06
569.161	90.06
569.372	90.06
569.584	77.06
569.795	86.06
570.007	89.06
570.218	87.06
570.43	81.06
570.641	81.06
570.853	95.06
571.064	90.06
571.276	76.06
571.487	85.06
571.698	89.06
571.91	86.06
572.121	80.06
572.333	88.06
572.544	80.06
572.755	106.06
572.966	97.06
573.178	87.06
573.389	85.06
573.6	79.06
573.811	92.06
574.023	91.06
574.234	91.06
574.445	89.06
574.656	72.06
574.867	73.06
575.078	88.06
575.289	90.06
575.501	85.06
575.712	93.06
575.923	88.06
576.134	72.06
576.345	71.06
576.556	86.06
576.767	89.06
576.978	84.06
577.188	96.06
577.399	91.06
577.61	94.06
577.821	96.06
578.032	72.06
578.243	84.06
578.454	84.06
578.665	97.06
578.875	90.06
579.086	92.06
579.297	83.06
579.508	83.06
579.718	91.06
579.929	92.06
580.14	94.06
580.35	88.06
580.561	91.06
580.772	84.06
580.982	85.06
581.193	98.06
581.403	78.06
581.614	98.06
581.825	76.06
582.035	86.06
582.246	98.06
582.456	100.06
582.667	94.06
582.877	70.06
583.087	97.06
583.298	84.06
583.508	87.06
583.719	91.06
583.929	92.06
584.139	100.06
584.35	93.06
584.56	90.06
584.77	107.06
584.981	99.06
585.191	79.06
585.401	90.06
585.611	82.06
585.821	92.06
586.032	79.06
586.242	95.06
586.452	93.06
586.662	92.06
586.872	94.06
587.082	87.06
587.292	72.06
587.502	94.06
587.713	84.06
587.923	95.06
588.133	85.06
588.343	91.06
588.553	87.06
588.762	82.06
588.972	67.06
589.182	78.06
589.392	83.06
589.602	74.06
589.812	79.06
590.022	97.06
590.232	95.06
590.441	87.06
590.651	85.06
590.861	73.06
591.071	79.06
591.281	85.06
591.49	77.06
591.7	77.06
591.91	96.06
592.119	91.06
592.329	74.06
592.539	76.06
592.748	70.06
592.958	75.06
593.167	85.06
593.377	93.06
593.587	101.06
593.796	99.06
594.006	82.06
594.215	95.06
594.424	85.06
594.634	92.06
594.843	104.06
595.053	93.06
595.262	94.06
595.472	98.06
595.681	101.06
595.89	87.06
596.1	82.06
596.309	89.06
596.518	96.06
596.727	78.06
596.937	94.06
597.146	96.06
597.355	85.06
597.564	82.06
597.774	94.06
597.983	92.06
598.192	77.06
598.401	83.06
598.61	88.06
598.819	83.06
599.028	83.06
599.237	91.06
599.446	98.06
599.655	99.06
599.864	90.06
600.073	98.06
600.282	85.06
600.491	78.06
600.7	95.06
600.909	91.06
601.118	85.06
601.327	82.06
601.536	84.06
601.745	79.06
601.953	83.06
602.162	79.06
602.371	93.06
602.58	78.06
602.789	82.06
602.997	82.06
603.206	90.06
603.415	89.06
603.623	87.06
603.832	98.06
604.041	89.06
604.249	85.06
604.458	99.06
604.666	94.06
604.875	84.06
605.084	86.06
605.292	92.06
605.501	76.06
605.709	87.06
605.918	106.06
606.126	81.06
606.334	98.06
606.543	95.06
606.751	90.06
606.96	82.06
607.168	99.06
607.376	90.06
607.585	80.06
607.793	77.06
608.001	88.06
608.21	87.06
608.418	86.06
608.626	87.06
608.834	86.06
609.043	74.06
609.251	71.06
609.459	93.06
609.667	94.06
609.875	79.06
610.083	93.06
610.291	88.06
610.499	86.06
610.707	93.06
610.916	69.06
611.124	77.06
611.332	87.06
611.54	85.06
611.748	79.06
611.955	86.06
612.163	91.06
612.371	80.06
612.579	91.06
612.787	89.06
612.995	85.06
613.203	90.06
613.411	98.06
613.618	81.06
613.826	88.06
614.034	90.06
614.242	83.06
614.449	82.06
614.657	94.06
614.865	83.06
615.072	84.06
615.28	83.06
615.488	86.06
615.695	104.06
615.903	77.06
616.111	102.06
616.318	87.06
616.526	85.06
616.733	91.06
616.941	87.06
617.148	93.06
617.356	89.06
617.563	89.06
617.771	82.06
617.978	82.06
618.185	91.06
618.393	85.06
618.6	75.06
618.807	90.06
619.015	98.06
619.222	85.06
619.429	81.06
619.637	88.06
619.844	78.06
620.051	69.06
620.258	79.06
620.466	84.06
620.673	93.06
620.88	77.06
621.087	86.06
621.294	87.06
621.501	93.06
621.708	77.06
621.915	90.06
622.122	84.06
622.329	89.06
622.536	100.06
622.743	97.06
622.95	85.06
623.157	87.06
623.364	75.06
623.571	81.06
623.778	89.06
623.985	79.06
624.192	85.06
624.399	80.06
624.606	95.06
624.812	96.06
625.019	79.06
625.226	105.06
625.433	87.06
625.639	100.06
625.846	89.06
626.053	99.06
626.259	94.06
626.466	86.06
626.673	86.06
626.879	89.06
627.086	92.06
627.293	83.06
627.499	90.06
627.706	84.06
627.912	76.06
628.119	89.06
628.325	81.06
628.532	84.06
628.738	106.06
628.945	94.06
629.151	93.06
629.357	83.06
629.564	86.06
629.77	86.06
629.976	96.06
630.183	89.06
630.389	90.06
630.595	74.06
630.802	86.06
631.008	91.06
631.214	89.06
631.42	85.06
631.627	94.06
631.833	82.06
632.039	85.06
632.245	86.06
632.451	81.06
632.657	89.06
632.863	82.06
633.069	97.06
633.275	94.06
633.481	95.06
633.688	82.06
633.893	85.06
634.099	92.06
634.305	81.06
634.511	83.06
634.717	69.06
634.923	86.06
635.129	78.06
635.335	79.06
635.541	75.06
635.747	97.06
635.952	85.06
636.158	77.06
636.364	88.06
636.57	70.06
636.775	87.06
636.981	91.06
637.187	77.06
637.392	88.06
637.598	83.06
637.804	77.06
638.009	75.06
638.215	100.06
638.421	84.06
638.626	99.06
638.832	93.06
639.037	85.06
639.243	86.06
639.448	77.06
639.654	87.06
639.859	88.06
640.065	84.06
640.27	98.06
640.475	87.06
640.681	87.06
640.886	92.06
641.091	79.06
641.297	89.06
641.502	94.06
641.707	86.06
641.913	87.06
642.118	93.06
642.323	83.06
642.528	88.06
642.733	93.06
642.939	74.06
643.144	90.06
643.349	93.06
643.554	82.06
643.759	81.06
643.964	86.06
644.169	93.06
644.374	83.06
644.579	85.06
644.784	91.06
644.989	87.06
645.194	77.06
645.399	96.06
645.604	100.06
645.809	79.06
646.014	93.06
646.219	95.06
646.423	97.06
646.628	75.06
646.833	90.06
647.038	85.06
647.243	93.06
647.447	99.06
647.652	76.06
647.857	75.06
648.062	111.06
648.266	85.06
648.471	79.06
648.676	97.06
648.88	87.06
649.085	84.06
649.289	77.06
649.494	77.06
649.698	92.06
649.903	81.06
650.107	92.06
650.312	87.06
650.516	102.06
650.721	89.06
650.925	87.06
651.13	87.06
651.334	97.06
651.539	70.06
651.743	76.06
651.947	81.06
652.152	83.06
652.356	87.06
652.56	70.06
652.764	79.06
652.969	84.06
653.173	96.06
653.377	88.06
653.581	87.06
653.785	85.06
653.99	86.06
654.194	90.06
654.398	79.06
654.602	74.06
654.806	86.06
655.01	83.06
655.214	68.06
655.418	91.06
655.622	91.06
655.826	96.06
656.03	95.06
656.234	97.06
656.438	83.06
656.642	94.06
656.846	87.06
657.049	74.06
657.253	89.06
657.457	79.06
657.661	77.06
657.865	70.06
658.068	96.06
658.272	85.06
658.476	74.06
658.68	75.06
658.883	80.06
659.087	91.06
659.291	85.06
659.494	72.06
659.698	83.06
659.901	90.06
660.105	81.06
660.309	82.06
660.512	90.06
660.716	86.06
660.919	75.06
661.123	75.06
661.326	87.06
661.53	88.06
661.733	88.06
661.936	84.06
662.14	73.06
662.343	78.06
662.546	95.06
662.75	77.06
662.953	90.06
663.156	86.06
663.36	89.06
663.563	76.06
663.766	75.06
663.969	82.06
664.173	77.06
664.376	90.06
664.579	81.06
664.782	91.06
664.985	87.06
665.188	76.06
665.391	77.06
665.594	86.06
665.797	72.06
666	83.06
666.203	92.06
666.406	101.06
666.609	84.06
666.812	94.06
667.015	90.06
667.218	78.06
667.421	103.06
667.624	87.06
667.827	96.06
668.03	90.06
668.232	77.06
668.435	92.06
668.638	85.06
668.841	86.06
669.043	69.06
669.246	89.06
669.449	71.06
669.651	79.06
669.854	83.06
670.057	86.06
670.259	83.06
670.462	83.06
670.665	73.06
670.867	68.06
671.07	78.06
671.272	89.06
671.475	78.06
671.677	91.06
671.88	79.06
672.082	79.06
672.284	77.06
672.487	86.06
672.689	79.06
672.892	78.06
