Data from Ni(NO3)2@0.5M.TitratingCurve.Agarose3%dH2O.NegLispCup.LampEnergy10.LIBS07252019_HRD10591_17-59-51-564.txt Node
Date: Thu Jul 25 17:59:51 EDT 2019
User: cochatt
Spectrometer: HR+D1059
Trigger mode: 1
Integration Time (sec): 1.000000E-1
Scans to average: 1
Electric dark correction enabled: true
Nonlinearity correction enabled: false
Boxcar width: 0
XAxis mode: Wavelengths
Number of Pixels in Spectrum: 2048
>>>>>Begin Spectral Data<<<<<
223.165	-11.38
223.4	-11.38
223.635	-11.38
223.869	-24.38
224.104	-20.38
224.338	-17.38
224.573	-2.38
224.808	-9.38
225.042	-5.38
225.277	1.62
225.511	-7.38
225.746	-4.38
225.98	-0.38
226.215	5.62
226.449	14.62
226.683	18.62
226.918	35.62
227.152	26.62
227.387	27.62
227.621	37.62
227.856	42.62
228.09	30.62
228.324	60.62
228.559	65.62
228.793	76.62
229.027	94.62
229.262	130.62
229.496	138.62
229.73	133.62
229.964	153.62
230.199	187.62
230.433	172.62
230.667	171.62
230.901	168.62
231.136	157.62
231.37	139.62
231.604	147.62
231.838	179.62
232.072	196.62
232.306	183.62
232.541	169.62
232.775	139.62
233.009	138.62
233.243	165.62
233.477	162.62
233.711	156.62
233.945	152.62
234.179	149.62
234.413	158.62
234.647	158.62
234.881	155.62
235.115	159.62
235.349	158.62
235.583	172.62
235.817	163.62
236.051	171.62
236.285	179.62
236.519	152.62
236.753	157.62
236.987	167.62
237.221	149.62
237.455	169.62
237.689	168.62
237.922	167.62
238.156	161.62
238.39	158.62
238.624	163.62
238.858	154.62
239.091	148.62
239.325	173.62
239.559	187.62
239.793	201.62
240.027	210.62
240.26	179.62
240.494	181.62
240.728	184.62
240.961	186.62
241.195	185.62
241.429	177.62
241.662	195.62
241.896	222.62
242.13	219.62
242.363	188.62
242.597	196.62
242.83	174.62
243.064	180.62
243.298	181.62
243.531	191.62
243.765	213.62
243.998	202.62
244.232	207.62
244.465	216.62
244.699	203.62
244.932	207.62
245.166	221.62
245.399	189.62
245.633	210.62
245.866	225.62
246.099	213.62
246.333	219.62
246.566	200.62
246.8	211.62
247.033	209.62
247.266	221.62
247.5	212.62
247.733	232.62
247.966	220.62
248.2	232.62
248.433	210.62
248.666	212.62
248.899	229.62
249.133	235.62
249.366	245.62
249.599	243.62
249.832	226.62
250.066	242.62
250.299	238.62
250.532	243.62
250.765	229.62
250.998	245.62
251.231	279.62
251.465	263.62
251.698	269.62
251.931	262.62
252.164	243.62
252.397	253.62
252.63	262.62
252.863	250.62
253.096	258.62
253.329	278.62
253.562	259.62
253.795	262.62
254.028	276.62
254.261	259.62
254.494	267.62
254.727	267.62
254.96	279.62
255.193	283.62
255.426	288.62
255.659	271.62
255.892	285.62
256.124	286.62
256.357	271.62
256.59	274.62
256.823	310.62
257.056	310.62
257.289	282.62
257.521	273.62
257.754	299.62
257.987	313.62
258.22	312.62
258.452	299.62
258.685	300.62
258.918	288.62
259.151	312.62
259.383	295.62
259.616	299.62
259.849	300.62
260.081	307.62
260.314	300.62
260.547	302.62
260.779	297.62
261.012	294.62
261.244	329.62
261.477	345.62
261.71	319.62
261.942	317.62
262.175	310.62
262.407	318.62
262.64	303.62
262.872	347.62
263.105	311.62
263.337	303.62
263.57	325.62
263.802	343.62
264.035	354.62
264.267	334.62
264.499	331.62
264.732	336.62
264.964	328.62
265.197	337.62
265.429	333.62
265.661	324.62
265.894	356.62
266.126	333.62
266.358	346.62
266.591	346.62
266.823	340.62
267.055	341.62
267.287	346.62
267.52	363.62
267.752	371.62
267.984	355.62
268.216	368.62
268.448	371.62
268.681	362.62
268.913	370.62
269.145	383.62
269.377	368.62
269.609	356.62
269.841	374.62
270.073	365.62
270.306	393.62
270.538	385.62
270.77	366.62
271.002	367.62
271.234	384.62
271.466	387.62
271.698	371.62
271.93	385.62
272.162	371.62
272.394	370.62
272.626	375.62
272.858	392.62
273.09	395.62
273.322	395.62
273.553	402.62
273.785	378.62
274.017	367.62
274.249	391.62
274.481	398.62
274.713	397.62
274.945	421.62
275.176	409.62
275.408	403.62
275.64	418.62
275.872	420.62
276.104	434.62
276.335	410.62
276.567	430.62
276.799	423.62
277.031	430.62
277.262	416.62
277.494	423.62
277.726	408.62
277.957	422.62
278.189	410.62
278.421	420.62
278.652	408.62
278.884	441.62
279.115	435.62
279.347	430.62
279.579	454.62
279.81	424.62
280.042	445.62
280.273	446.62
280.505	434.62
280.736	427.62
280.968	439.62
281.199	432.62
281.431	442.62
281.662	442.62
281.894	462.62
282.125	442.62
282.356	446.62
282.588	457.62
282.819	451.62
283.051	450.62
283.282	468.62
283.513	454.62
283.745	489.62
283.976	478.62
284.207	465.62
284.439	484.62
284.67	448.62
284.901	474.62
285.132	459.62
285.364	467.62
285.595	461.62
285.826	476.62
286.057	476.62
286.288	478.62
286.52	486.62
286.751	461.62
286.982	470.62
287.213	459.62
287.444	471.62
287.675	513.62
287.906	483.62
288.138	497.62
288.369	475.62
288.6	477.62
288.831	481.62
289.062	493.62
289.293	472.62
289.524	487.62
289.755	505.62
289.986	501.62
290.217	501.62
290.448	501.62
290.679	498.62
290.91	512.62
291.141	493.62
291.371	493.62
291.602	498.62
291.833	476.62
292.064	503.62
292.295	494.62
292.526	513.62
292.757	490.62
292.987	493.62
293.218	473.62
293.449	495.62
293.68	510.62
293.91	503.62
294.141	509.62
294.372	493.62
294.603	504.62
294.833	488.62
295.064	521.62
295.295	522.62
295.525	516.62
295.756	505.62
295.987	492.62
296.217	497.62
296.448	531.62
296.679	504.62
296.909	515.62
297.14	514.62
297.37	515.62
297.601	529.62
297.831	525.62
298.062	537.62
298.292	525.62
298.523	545.62
298.753	547.62
298.984	528.62
299.214	547.62
299.445	528.62
299.675	530.62
299.905	539.62
300.136	561.62
300.366	573.62
300.597	587.62
300.827	557.62
301.057	569.62
301.288	580.62
301.518	577.62
301.748	565.62
301.979	570.62
302.209	573.62
302.439	576.62
302.669	570.62
302.9	577.62
303.13	586.62
303.36	574.62
303.59	583.62
303.82	587.62
304.051	586.62
304.281	579.62
304.511	585.62
304.741	598.62
304.971	574.62
305.201	612.62
305.431	614.62
305.661	594.62
305.891	587.62
306.121	590.62
306.352	599.62
306.582	582.62
306.812	566.62
307.042	586.62
307.272	571.62
307.502	581.62
307.731	575.62
307.961	574.62
308.191	580.62
308.421	581.62
308.651	586.62
308.881	593.62
309.111	584.62
309.341	598.62
309.571	600.62
309.8	601.62
310.03	616.62
310.26	620.62
310.49	626.62
310.72	578.62
310.949	598.62
311.179	614.62
311.409	604.62
311.639	599.62
311.868	585.62
312.098	601.62
312.328	606.62
312.557	594.62
312.787	595.62
313.017	618.62
313.246	635.62
313.476	619.62
313.706	649.62
313.935	643.62
314.165	635.62
314.394	615.62
314.624	612.62
314.853	602.62
315.083	606.62
315.312	644.62
315.542	652.62
315.771	637.62
316.001	623.62
316.23	647.62
316.46	621.62
316.689	644.62
316.919	622.62
317.148	643.62
317.377	640.62
317.607	644.62
317.836	648.62
318.065	646.62
318.295	640.62
318.524	634.62
318.753	630.62
318.983	646.62
319.212	652.62
319.441	639.62
319.67	642.62
319.9	655.62
320.129	644.62
320.358	653.62
320.587	618.62
320.816	667.62
321.046	668.62
321.275	669.62
321.504	659.62
321.733	673.62
321.962	675.62
322.191	670.62
322.42	668.62
322.649	672.62
322.878	665.62
323.108	649.62
323.337	679.62
323.566	678.62
323.795	666.62
324.024	674.62
324.253	698.62
324.482	681.62
324.71	672.62
324.939	690.62
325.168	684.62
325.397	674.62
325.626	697.62
325.855	683.62
326.084	707.62
326.313	726.62
326.542	698.62
326.77	726.62
326.999	698.62
327.228	690.62
327.457	705.62
327.686	718.62
327.914	715.62
328.143	732.62
328.372	716.62
328.6	734.62
328.829	733.62
329.058	710.62
329.287	702.62
329.515	740.62
329.744	710.62
329.972	729.62
330.201	733.62
330.43	756.62
330.658	753.62
330.887	747.62
331.115	756.62
331.344	743.62
331.572	755.62
331.801	755.62
332.03	782.62
332.258	793.62
332.486	784.62
332.715	781.62
332.943	799.62
333.172	812.62
333.4	817.62
333.629	796.62
333.857	833.62
334.085	826.62
334.314	837.62
334.542	839.62
334.771	818.62
334.999	834.62
335.227	833.62
335.455	863.62
335.684	831.62
335.912	847.62
336.14	836.62
336.369	843.62
336.597	855.62
336.825	845.62
337.053	830.62
337.281	860.62
337.51	852.62
337.738	834.62
337.966	791.62
338.194	804.62
338.422	846.62
338.65	819.62
338.878	793.62
339.106	797.62
339.334	803.62
339.562	817.62
339.79	771.62
340.018	760.62
340.246	777.62
340.474	798.62
340.702	775.62
340.93	772.62
341.158	780.62
341.386	831.62
341.614	842.62
341.842	804.62
342.07	781.62
342.298	796.62
342.526	800.62
342.754	783.62
342.981	780.62
343.209	796.62
343.437	823.62
343.665	837.62
343.893	846.62
344.12	851.62
344.348	840.62
344.576	797.62
344.804	818.62
345.031	812.62
345.259	812.62
345.487	817.62
345.714	811.62
345.942	806.62
346.17	862.62
346.397	821.62
346.625	772.62
346.853	760.62
347.08	762.62
347.308	743.62
347.535	745.62
347.763	715.62
347.99	741.62
348.218	750.62
348.445	746.62
348.673	721.62
348.9	757.62
349.128	763.62
349.355	749.62
349.583	764.62
349.81	723.62
350.037	723.62
350.265	721.62
350.492	757.62
350.72	724.62
350.947	723.62
351.174	745.62
351.402	758.62
351.629	793.62
351.856	783.62
352.083	754.62
352.311	753.62
352.538	805.62
352.765	803.62
352.992	747.62
353.22	697.62
353.447	706.62
353.674	732.62
353.901	735.62
354.128	732.62
354.355	726.62
354.583	709.62
354.81	712.62
355.037	729.62
355.264	728.62
355.491	711.62
355.718	732.62
355.945	721.62
356.172	730.62
356.399	746.62
356.626	750.62
356.853	740.62
357.08	734.62
357.307	742.62
357.534	720.62
357.761	742.62
357.988	724.62
358.215	726.62
358.441	716.62
358.668	713.62
358.895	740.62
359.122	742.62
359.349	695.62
359.576	730.62
359.802	736.62
360.029	739.62
360.256	725.62
360.483	725.62
360.709	698.62
360.936	770.62
361.163	774.62
361.39	725.62
361.616	753.62
361.843	747.62
362.07	782.62
362.296	799.62
362.523	726.62
362.749	732.62
362.976	759.62
363.203	714.62
363.429	738.62
363.656	730.62
363.882	750.62
364.109	759.62
364.335	758.62
364.562	713.62
364.788	729.62
365.015	736.62
365.241	720.62
365.468	716.62
365.694	713.62
365.92	734.62
366.147	732.62
366.373	739.62
366.599	746.62
366.826	741.62
367.052	736.62
367.278	726.62
367.505	743.62
367.731	722.62
367.957	723.62
368.184	745.62
368.41	744.62
368.636	727.62
368.862	755.62
369.089	744.62
369.315	746.62
369.541	765.62
369.767	757.62
369.993	769.62
370.219	746.62
370.445	770.62
370.672	774.62
370.898	782.62
371.124	789.62
371.35	770.62
371.576	762.62
371.802	779.62
372.028	780.62
372.254	754.62
372.48	771.62
372.706	813.62
372.932	797.62
373.158	796.62
373.384	778.62
373.61	801.62
373.835	784.62
374.061	773.62
374.287	802.62
374.513	793.62
374.739	788.62
374.965	845.62
375.191	807.62
375.416	823.62
375.642	801.62
375.868	785.62
376.094	790.62
376.319	803.62
376.545	791.62
376.771	801.62
376.997	758.62
377.222	760.62
377.448	797.62
377.674	775.62
377.899	779.62
378.125	767.62
378.35	788.62
378.576	766.62
378.802	786.62
379.027	759.62
379.253	758.62
379.478	788.62
379.704	765.62
379.929	776.62
380.155	761.62
380.38	775.62
380.606	777.62
380.831	777.62
381.057	789.62
381.282	770.62
381.507	750.62
381.733	790.62
381.958	764.62
382.184	795.62
382.409	802.62
382.634	778.62
382.86	808.62
383.085	811.62
383.31	816.62
383.535	814.62
383.761	859.62
383.986	821.62
384.211	835.62
384.436	876.62
384.662	852.62
384.887	881.62
385.112	853.62
385.337	853.62
385.562	842.62
385.787	884.62
386.013	886.62
386.238	887.62
386.463	895.62
386.688	860.62
386.913	882.62
387.138	894.62
387.363	893.62
387.588	869.62
387.813	894.62
388.038	877.62
388.263	885.62
388.488	905.62
388.713	903.62
388.938	904.62
389.163	906.62
389.387	891.62
389.612	900.62
389.837	897.62
390.062	889.62
390.287	889.62
390.512	888.62
390.736	911.62
390.961	919.62
391.186	901.62
391.411	903.62
391.636	926.62
391.86	950.62
392.085	972.62
392.31	947.62
392.534	971.62
392.759	937.62
392.984	938.62
393.208	931.62
393.433	936.62
393.658	937.62
393.882	895.62
394.107	913.62
394.331	918.62
394.556	923.62
394.78	936.62
395.005	964.62
395.229	956.62
395.454	940.62
395.678	981.62
395.903	978.62
396.127	960.62
396.352	954.62
396.576	938.62
396.801	982.62
397.025	984.62
397.249	971.62
397.474	986.62
397.698	1004.62
397.922	987.62
398.147	1024.62
398.371	1024.62
398.595	1057.62
398.82	1050.62
399.044	1105.62
399.268	1129.62
399.492	1186.62
399.717	1247.62
399.941	1258.62
400.165	1244.62
400.389	1185.62
400.613	1151.62
400.837	1073.62
401.062	1110.62
401.286	1074.62
401.51	1070.62
401.734	1053.62
401.958	1058.62
402.182	1081.62
402.406	1068.62
402.63	1069.62
402.854	1046.62
403.078	1056.62
403.302	1068.62
403.526	1066.62
403.75	1080.62
403.974	1090.62
404.198	1062.62
404.422	1098.62
404.645	1061.62
404.869	1125.62
405.093	1121.62
405.317	1115.62
405.541	1139.62
405.765	1121.62
405.988	1131.62
406.212	1143.62
406.436	1121.62
406.66	1121.62
406.883	1173.62
407.107	1195.62
407.331	1241.62
407.555	1261.62
407.778	1263.62
408.002	1224.62
408.226	1226.62
408.449	1229.62
408.673	1182.62
408.896	1188.62
409.12	1150.62
409.344	1187.62
409.567	1135.62
409.791	1165.62
410.014	1138.62
410.238	1146.62
410.461	1125.62
410.685	1117.62
410.908	1124.62
411.132	1132.62
411.355	1099.62
411.578	1105.62
411.802	1105.62
412.025	1087.62
412.249	1118.62
412.472	1114.62
412.695	1094.62
412.919	1061.62
413.142	1057.62
413.365	1066.62
413.589	1067.62
413.812	1098.62
414.035	1042.62
414.258	1069.62
414.482	1063.62
414.705	1067.62
414.928	1083.62
415.151	1054.62
415.374	1063.62
415.597	1068.62
415.821	1040.62
416.044	1059.62
416.267	1063.62
416.49	1053.62
416.713	1014.62
416.936	1000.62
417.159	1015.62
417.382	1045.62
417.605	1034.62
417.828	1046.62
418.051	1039.62
418.274	1031.62
418.497	1007.62
418.72	1048.62
418.943	1028.62
419.166	1104.62
419.389	1124.62
419.611	1116.62
419.834	1086.62
420.057	1049.62
420.28	1024.62
420.503	1018.62
420.726	1002.62
420.948	981.62
421.171	1018.62
421.394	1008.62
421.617	1006.62
421.839	1060.62
422.062	1054.62
422.285	1032.62
422.507	1021.62
422.73	1028.62
422.953	1049.62
423.175	1017.62
423.398	1043.62
423.621	1044.62
423.843	1035.62
424.066	1017.62
424.288	1026.62
424.511	1025.62
424.733	1028.62
424.956	1006.62
425.178	1030.62
425.401	1037.62
425.623	1029.62
425.846	983.62
426.068	998.62
426.291	1019.62
426.513	979.62
426.735	993.62
426.958	991.62
427.18	1017.62
427.402	979.62
427.625	955.62
427.847	970.62
428.069	976.62
428.292	981.62
428.514	972.62
428.736	980.62
428.958	964.62
429.181	957.62
429.403	965.62
429.625	974.62
429.847	987.62
430.069	970.62
430.292	970.62
430.514	950.62
430.736	971.62
430.958	969.62
431.18	982.62
431.402	969.62
431.624	973.62
431.846	980.62
432.068	994.62
432.29	990.62
432.512	1007.62
432.734	983.62
432.956	986.62
433.178	1007.62
433.4	1027.62
433.622	1017.62
433.844	1020.62
434.066	1034.62
434.287	1014.62
434.509	1006.62
434.731	1038.62
434.953	1030.62
435.175	1050.62
435.397	1085.62
435.618	1021.62
435.84	1016.62
436.062	989.62
436.284	997.62
436.505	958.62
436.727	1002.62
436.949	995.62
437.17	984.62
437.392	983.62
437.614	965.62
437.835	926.62
438.057	947.62
438.278	913.62
438.5	955.62
438.721	945.62
438.943	942.62
439.165	923.62
439.386	962.62
439.608	968.62
439.829	949.62
440.05	963.62
440.272	968.62
440.493	983.62
440.715	971.62
440.936	1002.62
441.158	1012.62
441.379	1031.62
441.6	1039.62
441.822	1029.62
442.043	1018.62
442.264	1022.62
442.486	1002.62
442.707	1034.62
442.928	1011.62
443.149	1059.62
443.371	1063.62
443.592	1107.62
443.813	1067.62
444.034	1044.62
444.255	1058.62
444.476	1078.62
444.698	1122.62
444.919	1156.62
445.14	1196.62
445.361	1138.62
445.582	1069.62
445.803	1045.62
446.024	1011.62
446.245	990.62
446.466	963.62
446.687	964.62
446.908	955.62
447.129	965.62
447.35	940.62
447.571	946.62
447.792	906.62
448.013	921.62
448.234	895.62
448.455	903.62
448.675	895.62
448.896	883.62
449.117	885.62
449.338	885.62
449.559	880.62
449.779	879.62
450	877.62
450.221	899.62
450.442	873.62
450.662	908.62
450.883	933.62
451.104	933.62
451.324	934.62
451.545	886.62
451.766	881.62
451.986	871.62
452.207	843.62
452.428	881.62
452.648	876.62
452.869	865.62
453.089	867.62
453.31	868.62
453.53	846.62
453.751	858.62
453.971	863.62
454.192	873.62
454.412	883.62
454.633	886.62
454.853	870.62
455.073	855.62
455.294	863.62
455.514	847.62
455.734	883.62
455.955	905.62
456.175	864.62
456.395	829.62
456.616	857.62
456.836	864.62
457.056	831.62
457.276	830.62
457.497	857.62
457.717	877.62
457.937	885.62
458.157	879.62
458.377	905.62
458.598	909.62
458.818	908.62
459.038	905.62
459.258	941.62
459.478	1016.62
459.698	1058.62
459.918	1073.62
460.138	1087.62
460.358	1047.62
460.578	1045.62
460.798	1076.62
461.018	1129.62
461.238	1059.62
461.458	1050.62
461.678	1060.62
461.898	1077.62
462.118	1064.62
462.338	1097.62
462.558	1166.62
462.777	1190.62
462.997	1236.62
463.217	1237.62
463.437	1280.62
463.657	1243.62
463.876	1201.62
464.096	1209.62
464.316	1154.62
464.536	1159.62
464.755	1107.62
464.975	1109.62
465.195	1091.62
465.414	1022.62
465.634	1035.62
465.854	994.62
466.073	973.62
466.293	966.62
466.512	958.62
466.732	930.62
466.951	946.62
467.171	955.62
467.391	958.62
467.61	937.62
467.829	951.62
468.049	905.62
468.268	909.62
468.488	916.62
468.707	927.62
468.927	907.62
469.146	940.62
469.365	936.62
469.585	937.62
469.804	956.62
470.023	961.62
470.243	939.62
470.462	930.62
470.681	940.62
470.901	953.62
471.12	951.62
471.339	929.62
471.558	933.62
471.777	914.62
471.997	947.62
472.216	913.62
472.435	911.62
472.654	947.62
472.873	901.62
473.092	902.62
473.311	885.62
473.53	916.62
473.749	938.62
473.968	910.62
474.187	897.62
474.406	897.62
474.625	922.62
474.844	932.62
475.063	943.62
475.282	958.62
475.501	922.62
475.72	931.62
475.939	988.62
476.158	975.62
476.377	969.62
476.596	942.62
476.814	954.62
477.033	964.62
477.252	974.62
477.471	1001.62
477.69	1008.62
477.908	1009.62
478.127	1040.62
478.346	1045.62
478.564	1105.62
478.783	1087.62
479.002	1130.62
479.22	1157.62
479.439	1151.62
479.658	1091.62
479.876	1136.62
480.095	1135.62
480.313	1128.62
480.532	1106.62
480.751	1158.62
480.969	1141.62
481.188	1095.62
481.406	1117.62
481.624	1086.62
481.843	1096.62
482.061	1082.62
482.28	1097.62
482.498	1071.62
482.717	1110.62
482.935	1130.62
483.153	1102.62
483.372	1116.62
483.59	1157.62
483.808	1130.62
484.027	1113.62
484.245	1113.62
484.463	1108.62
484.681	1159.62
484.9	1137.62
485.118	1157.62
485.336	1112.62
485.554	1129.62
485.772	1153.62
485.99	1144.62
486.209	1145.62
486.427	1137.62
486.645	1154.62
486.863	1140.62
487.081	1138.62
487.299	1138.62
487.517	1152.62
487.735	1183.62
487.953	1146.62
488.171	1152.62
488.389	1171.62
488.607	1111.62
488.825	1131.62
489.043	1121.62
489.261	1124.62
489.479	1126.62
489.696	1122.62
489.914	1126.62
490.132	1126.62
490.35	1123.62
490.568	1143.62
490.786	1129.62
491.003	1141.62
491.221	1167.62
491.439	1168.62
491.657	1164.62
491.874	1183.62
492.092	1150.62
492.31	1166.62
492.527	1158.62
492.745	1158.62
492.963	1136.62
493.18	1161.62
493.398	1174.62
493.615	1163.62
493.833	1133.62
494.05	1177.62
494.268	1179.62
494.485	1163.62
494.703	1145.62
494.92	1147.62
495.138	1190.62
495.355	1169.62
495.573	1185.62
495.79	1171.62
496.008	1217.62
496.225	1213.62
496.442	1219.62
496.66	1216.62
496.877	1253.62
497.094	1251.62
497.312	1278.62
497.529	1293.62
497.746	1307.62
497.963	1321.62
498.181	1369.62
498.398	1407.62
498.615	1459.62
498.832	1510.62
499.049	1577.62
499.267	1660.62
499.484	1713.62
499.701	1802.62
499.918	1913.62
500.135	1980.62
500.352	2093.62
500.569	2104.62
500.786	2097.62
501.003	2056.62
501.22	1962.62
501.437	1891.62
501.654	1758.62
501.871	1699.62
502.088	1582.62
502.305	1553.62
502.522	1514.62
502.739	1469.62
502.956	1371.62
503.172	1359.62
503.389	1314.62
503.606	1313.62
503.823	1275.62
504.04	1297.62
504.256	1223.62
504.473	1251.62
504.69	1215.62
504.907	1221.62
505.123	1196.62
505.34	1166.62
505.557	1123.62
505.773	1093.62
505.99	1085.62
506.207	1069.62
506.423	1038.62
506.64	1076.62
506.856	1050.62
507.073	1033.62
507.289	1031.62
507.506	1036.62
507.722	998.62
507.939	987.62
508.155	1009.62
508.372	980.62
508.588	971.62
508.805	988.62
509.021	961.62
509.238	959.62
509.454	965.62
509.67	964.62
509.887	939.62
510.103	940.62
510.319	947.62
510.536	928.62
510.752	921.62
510.968	916.62
511.184	902.62
511.401	915.62
511.617	917.62
511.833	914.62
512.049	908.62
512.265	899.62
512.481	905.62
512.698	927.62
512.914	916.62
513.13	911.62
513.346	911.62
513.562	914.62
513.778	915.62
513.994	931.62
514.21	919.62
514.426	939.62
514.642	928.62
514.858	952.62
515.074	947.62
515.29	949.62
515.506	922.62
515.721	969.62
515.937	951.62
516.153	984.62
516.369	987.62
516.585	995.62
516.801	993.62
517.016	1023.62
517.232	1032.62
517.448	1060.62
517.664	1065.62
517.879	1029.62
518.095	1069.62
518.311	1058.62
518.527	1039.62
518.742	1011.62
518.958	978.62
519.173	975.62
519.389	962.62
519.605	963.62
519.82	950.62
520.036	955.62
520.251	908.62
520.467	883.62
520.682	916.62
520.898	890.62
521.113	884.62
521.329	891.62
521.544	869.62
521.76	847.62
521.975	866.62
522.19	857.62
522.406	859.62
522.621	839.62
522.836	845.62
523.052	845.62
523.267	871.62
523.482	835.62
523.698	832.62
523.913	838.62
524.128	853.62
524.343	825.62
524.559	835.62
524.774	813.62
524.989	825.62
525.204	803.62
525.419	833.62
525.634	829.62
525.849	834.62
526.064	810.62
526.28	847.62
526.495	793.62
526.71	787.62
526.925	793.62
527.14	813.62
527.355	777.62
527.57	803.62
527.785	810.62
527.999	821.62
528.214	824.62
528.429	795.62
528.644	807.62
528.859	822.62
529.074	780.62
529.289	782.62
529.503	798.62
529.718	795.62
529.933	785.62
530.148	773.62
530.363	784.62
530.577	801.62
530.792	775.62
531.007	768.62
531.221	780.62
531.436	803.62
531.651	803.62
531.865	791.62
532.08	774.62
532.295	739.62
532.509	786.62
532.724	784.62
532.938	754.62
533.153	782.62
533.367	783.62
533.582	783.62
533.796	753.62
534.011	779.62
534.225	773.62
534.44	784.62
534.654	773.62
534.868	742.62
535.083	740.62
535.297	741.62
535.511	746.62
535.726	784.62
535.94	763.62
536.154	742.62
536.369	742.62
536.583	735.62
536.797	747.62
537.011	734.62
537.225	738.62
537.44	718.62
537.654	733.62
537.868	719.62
538.082	723.62
538.296	710.62
538.51	727.62
538.724	721.62
538.938	719.62
539.153	720.62
539.367	744.62
539.581	719.62
539.795	724.62
540.009	705.62
540.222	708.62
540.436	730.62
540.65	717.62
540.864	723.62
541.078	721.62
541.292	729.62
541.506	700.62
541.72	739.62
541.934	717.62
542.147	733.62
542.361	713.62
542.575	696.62
542.789	725.62
543.002	709.62
543.216	710.62
543.43	706.62
543.644	686.62
543.857	719.62
544.071	700.62
544.285	702.62
544.498	715.62
544.712	701.62
544.925	724.62
545.139	703.62
545.352	709.62
545.566	712.62
545.779	696.62
545.993	703.62
546.206	717.62
546.42	732.62
546.633	703.62
546.847	692.62
547.06	701.62
547.274	708.62
547.487	730.62
547.7	705.62
547.914	699.62
548.127	707.62
548.34	731.62
548.554	705.62
548.767	702.62
548.98	734.62
549.193	730.62
549.407	719.62
549.62	728.62
549.833	730.62
550.046	723.62
550.259	713.62
550.473	691.62
550.686	708.62
550.899	707.62
551.112	705.62
551.325	698.62
551.538	698.62
551.751	704.62
551.964	687.62
552.177	681.62
552.39	704.62
552.603	716.62
552.816	706.62
553.029	685.62
553.242	701.62
553.455	710.62
553.667	712.62
553.88	733.62
554.093	679.62
554.306	699.62
554.519	692.62
554.732	665.62
554.944	686.62
555.157	672.62
555.37	667.62
555.583	643.62
555.795	641.62
556.008	631.62
556.221	644.62
556.433	636.62
556.646	632.62
556.859	632.62
557.071	641.62
557.284	631.62
557.496	612.62
557.709	627.62
557.921	611.62
558.134	628.62
558.346	623.62
558.559	598.62
558.771	586.62
558.984	585.62
559.196	618.62
559.409	618.62
559.621	577.62
559.833	606.62
560.046	609.62
560.258	583.62
560.47	595.62
560.683	590.62
560.895	574.62
561.107	603.62
561.32	600.62
561.532	581.62
561.744	582.62
561.956	608.62
562.168	595.62
562.381	593.62
562.593	590.62
562.805	590.62
563.017	610.62
563.229	588.62
563.441	587.62
563.653	606.62
563.865	617.62
564.077	627.62
564.289	630.62
564.501	618.62
564.713	637.62
564.925	636.62
565.137	633.62
565.349	652.62
565.561	666.62
565.773	662.62
565.985	675.62
566.197	713.62
566.408	725.62
566.62	750.62
566.832	791.62
567.044	780.62
567.255	804.62
567.467	799.62
567.679	822.62
567.891	799.62
568.102	782.62
568.314	776.62
568.526	741.62
568.737	703.62
568.949	696.62
569.161	686.62
569.372	666.62
569.584	611.62
569.795	627.62
570.007	602.62
570.218	584.62
570.43	585.62
570.641	591.62
570.853	589.62
571.064	577.62
571.276	559.62
571.487	550.62
571.698	555.62
571.91	531.62
572.121	525.62
572.333	533.62
572.544	521.62
572.755	531.62
572.966	527.62
573.178	508.62
573.389	514.62
573.6	473.62
573.811	490.62
574.023	483.62
574.234	522.62
574.445	494.62
574.656	469.62
574.867	482.62
575.078	486.62
575.289	487.62
575.501	481.62
575.712	461.62
575.923	453.62
576.134	448.62
576.345	462.62
576.556	455.62
576.767	435.62
576.978	459.62
577.188	424.62
577.399	443.62
577.61	436.62
577.821	445.62
578.032	446.62
578.243	444.62
578.454	449.62
578.665	458.62
578.875	434.62
579.086	421.62
579.297	437.62
579.508	439.62
579.718	440.62
579.929	418.62
580.14	429.62
580.35	417.62
580.561	439.62
580.772	441.62
580.982	425.62
581.193	414.62
581.403	415.62
581.614	408.62
581.825	429.62
582.035	408.62
582.246	415.62
582.456	406.62
582.667	412.62
582.877	430.62
583.087	390.62
583.298	416.62
583.508	412.62
583.719	410.62
583.929	408.62
584.139	398.62
584.35	376.62
584.56	398.62
584.77	403.62
584.981	388.62
585.191	413.62
585.401	389.62
585.611	396.62
585.821	402.62
586.032	381.62
586.242	397.62
586.452	413.62
586.662	390.62
586.872	384.62
587.082	403.62
587.292	370.62
587.502	375.62
587.713	391.62
587.923	401.62
588.133	405.62
588.343	408.62
588.553	389.62
588.762	390.62
588.972	381.62
589.182	421.62
589.392	386.62
589.602	405.62
589.812	421.62
590.022	407.62
590.232	406.62
590.441	403.62
590.651	385.62
590.861	396.62
591.071	392.62
591.281	407.62
591.49	398.62
591.7	421.62
591.91	407.62
592.119	411.62
592.329	413.62
592.539	416.62
592.748	414.62
592.958	410.62
593.167	422.62
593.377	445.62
593.587	445.62
593.796	423.62
594.006	410.62
594.215	407.62
594.424	429.62
594.634	412.62
594.843	409.62
595.053	418.62
595.262	413.62
595.472	376.62
595.681	374.62
595.89	402.62
596.1	378.62
596.309	374.62
596.518	363.62
596.727	383.62
596.937	381.62
597.146	371.62
597.355	375.62
597.564	358.62
597.774	366.62
597.983	352.62
598.192	343.62
598.401	339.62
598.61	356.62
598.819	342.62
599.028	347.62
599.237	335.62
599.446	333.62
599.655	332.62
599.864	347.62
600.073	325.62
600.282	335.62
600.491	329.62
600.7	347.62
600.909	322.62
601.118	335.62
601.327	340.62
601.536	321.62
601.745	317.62
601.953	322.62
602.162	313.62
602.371	330.62
602.58	328.62
602.789	336.62
602.997	333.62
603.206	318.62
603.415	317.62
603.623	297.62
603.832	328.62
604.041	323.62
604.249	309.62
604.458	309.62
604.666	310.62
604.875	321.62
605.084	320.62
605.292	314.62
605.501	293.62
605.709	312.62
605.918	298.62
606.126	309.62
606.334	307.62
606.543	289.62
606.751	291.62
606.96	307.62
607.168	300.62
607.376	299.62
607.585	312.62
607.793	300.62
608.001	316.62
608.21	300.62
608.418	303.62
608.626	311.62
608.834	305.62
609.043	311.62
609.251	300.62
609.459	314.62
609.667	296.62
609.875	306.62
610.083	309.62
610.291	295.62
610.499	274.62
610.707	294.62
610.916	299.62
611.124	292.62
611.332	264.62
611.54	298.62
611.748	291.62
611.955	294.62
612.163	284.62
612.371	288.62
612.579	291.62
612.787	298.62
612.995	277.62
613.203	281.62
613.411	284.62
613.618	296.62
613.826	283.62
614.034	307.62
614.242	285.62
614.449	283.62
614.657	290.62
614.865	289.62
615.072	297.62
615.28	304.62
615.488	275.62
615.695	289.62
615.903	287.62
616.111	280.62
616.318	279.62
616.526	290.62
616.733	293.62
616.941	281.62
617.148	263.62
617.356	284.62
617.563	281.62
617.771	299.62
617.978	280.62
618.185	287.62
618.393	282.62
618.6	278.62
618.807	271.62
619.015	281.62
619.222	270.62
619.429	247.62
619.637	276.62
619.844	277.62
620.051	289.62
620.258	274.62
620.466	252.62
620.673	283.62
620.88	284.62
621.087	275.62
621.294	282.62
621.501	269.62
621.708	269.62
621.915	264.62
622.122	265.62
622.329	271.62
622.536	268.62
622.743	261.62
622.95	257.62
623.157	252.62
623.364	269.62
623.571	262.62
623.778	263.62
623.985	256.62
624.192	266.62
624.399	262.62
624.606	267.62
624.812	258.62
625.019	247.62
625.226	246.62
625.433	245.62
625.639	249.62
625.846	238.62
626.053	255.62
626.259	253.62
626.466	250.62
626.673	251.62
626.879	232.62
627.086	245.62
627.293	257.62
627.499	258.62
627.706	238.62
627.912	241.62
628.119	238.62
628.325	246.62
628.532	245.62
628.738	239.62
628.945	239.62
629.151	242.62
629.357	249.62
629.564	239.62
629.77	255.62
629.976	243.62
630.183	252.62
630.389	249.62
630.595	234.62
630.802	236.62
631.008	237.62
631.214	237.62
631.42	253.62
631.627	234.62
631.833	226.62
632.039	230.62
632.245	225.62
632.451	215.62
632.657	227.62
632.863	229.62
633.069	221.62
633.275	233.62
633.481	219.62
633.688	221.62
633.893	233.62
634.099	223.62
634.305	227.62
634.511	236.62
634.717	227.62
634.923	220.62
635.129	209.62
635.335	211.62
635.541	230.62
635.747	221.62
635.952	218.62
636.158	215.62
636.364	224.62
636.57	220.62
636.775	226.62
636.981	227.62
637.187	222.62
637.392	239.62
637.598	226.62
637.804	230.62
638.009	202.62
638.215	226.62
638.421	207.62
638.626	216.62
638.832	214.62
639.037	216.62
639.243	216.62
639.448	223.62
639.654	218.62
639.859	204.62
640.065	216.62
640.27	211.62
640.475	218.62
640.681	210.62
640.886	206.62
641.091	223.62
641.297	218.62
641.502	213.62
641.707	203.62
641.913	217.62
642.118	214.62
642.323	230.62
642.528	213.62
642.733	222.62
642.939	203.62
643.144	228.62
643.349	204.62
643.554	228.62
643.759	210.62
643.964	213.62
644.169	227.62
644.374	221.62
644.579	210.62
644.784	212.62
644.989	212.62
645.194	210.62
645.399	219.62
645.604	217.62
645.809	235.62
646.014	224.62
646.219	242.62
646.423	242.62
646.628	221.62
646.833	235.62
647.038	219.62
647.243	218.62
647.447	221.62
647.652	215.62
647.857	228.62
648.062	233.62
648.266	218.62
648.471	214.62
648.676	219.62
648.88	241.62
649.085	228.62
649.289	222.62
649.494	232.62
649.698	234.62
649.903	223.62
650.107	223.62
650.312	239.62
650.516	241.62
650.721	227.62
650.925	241.62
651.13	216.62
651.334	217.62
651.539	213.62
651.743	202.62
651.947	201.62
652.152	238.62
652.356	219.62
652.56	223.62
652.764	219.62
652.969	229.62
653.173	219.62
653.377	212.62
653.581	228.62
653.785	214.62
653.99	229.62
654.194	212.62
654.398	218.62
654.602	219.62
654.806	228.62
655.01	228.62
655.214	222.62
655.418	234.62
655.622	230.62
655.826	230.62
656.03	248.62
656.234	271.62
656.438	260.62
656.642	246.62
656.846	244.62
657.049	231.62
657.253	215.62
657.457	225.62
657.661	198.62
657.865	181.62
658.068	168.62
658.272	176.62
658.476	152.62
658.68	154.62
658.883	156.62
659.087	134.62
659.291	129.62
659.494	137.62
659.698	129.62
659.901	141.62
660.105	125.62
660.309	117.62
660.512	100.62
660.716	115.62
660.919	102.62
661.123	112.62
661.326	87.62
661.53	105.62
661.733	110.62
661.936	95.62
662.14	101.62
662.343	97.62
662.546	102.62
662.75	80.62
662.953	87.62
663.156	83.62
663.36	98.62
663.563	87.62
663.766	91.62
663.969	89.62
664.173	74.62
664.376	87.62
664.579	81.62
664.782	87.62
664.985	90.62
665.188	83.62
665.391	78.62
665.594	85.62
665.797	86.62
666	94.62
666.203	78.62
666.406	77.62
666.609	79.62
666.812	78.62
667.015	74.62
667.218	88.62
667.421	82.62
667.624	81.62
667.827	80.62
668.03	67.62
668.232	79.62
668.435	73.62
668.638	97.62
668.841	89.62
669.043	82.62
669.246	87.62
669.449	69.62
669.651	77.62
669.854	72.62
670.057	85.62
670.259	72.62
670.462	88.62
670.665	76.62
670.867	81.62
671.07	72.62
671.272	84.62
671.475	86.62
671.677	77.62
671.88	104.62
672.082	70.62
672.284	84.62
672.487	87.62
672.689	76.62
672.892	73.62
