Data from Ni(NO3)2@0.125M.TitratingCurve.Agarose3%dH2O.NegLispCup.LampEnergy10.LIBS07252019_HRD10591_18-11-37-568.txt Node
Date: Thu Jul 25 18:11:37 EDT 2019
User: cochatt
Spectrometer: HR+D1059
Trigger mode: 1
Integration Time (sec): 1.000000E-1
Scans to average: 1
Electric dark correction enabled: true
Nonlinearity correction enabled: false
Boxcar width: 0
XAxis mode: Wavelengths
Number of Pixels in Spectrum: 2048
>>>>>Begin Spectral Data<<<<<
223.165	-7.06
223.4	-7.06
223.635	-7.06
223.869	-32.06
224.104	-26.06
224.338	-9.06
224.573	-12.06
224.808	-0.06
225.042	-16.06
225.277	-2.06
225.511	-1.06
225.746	9.94
225.98	-1.06
226.215	9.94
226.449	15.94
226.683	19.94
226.918	22.94
227.152	27.94
227.387	34.94
227.621	21.94
227.856	40.94
228.09	37.94
228.324	42.94
228.559	63.94
228.793	69.94
229.027	107.94
229.262	118.94
229.496	110.94
229.73	130.94
229.964	129.94
230.199	128.94
230.433	144.94
230.667	139.94
230.901	159.94
231.136	140.94
231.37	160.94
231.604	155.94
231.838	159.94
232.072	159.94
232.306	167.94
232.541	175.94
232.775	175.94
233.009	155.94
233.243	158.94
233.477	166.94
233.711	149.94
233.945	165.94
234.179	151.94
234.413	167.94
234.647	179.94
234.881	173.94
235.115	169.94
235.349	185.94
235.583	177.94
235.817	179.94
236.051	161.94
236.285	164.94
236.519	173.94
236.753	182.94
236.987	192.94
237.221	177.94
237.455	180.94
237.689	168.94
237.922	179.94
238.156	179.94
238.39	200.94
238.624	207.94
238.858	194.94
239.091	201.94
239.325	189.94
239.559	198.94
239.793	219.94
240.027	229.94
240.26	207.94
240.494	217.94
240.728	195.94
240.961	218.94
241.195	218.94
241.429	213.94
241.662	212.94
241.896	242.94
242.13	209.94
242.363	220.94
242.597	229.94
242.83	218.94
243.064	224.94
243.298	243.94
243.531	259.94
243.765	247.94
243.998	230.94
244.232	255.94
244.465	261.94
244.699	235.94
244.932	258.94
245.166	249.94
245.399	257.94
245.633	260.94
245.866	277.94
246.099	239.94
246.333	254.94
246.566	269.94
246.8	265.94
247.033	282.94
247.266	282.94
247.5	271.94
247.733	298.94
247.966	295.94
248.2	293.94
248.433	299.94
248.666	288.94
248.899	282.94
249.133	292.94
249.366	291.94
249.599	281.94
249.832	307.94
250.066	296.94
250.299	295.94
250.532	304.94
250.765	305.94
250.998	297.94
251.231	315.94
251.465	321.94
251.698	335.94
251.931	332.94
252.164	300.94
252.397	313.94
252.63	321.94
252.863	322.94
253.096	331.94
253.329	322.94
253.562	335.94
253.795	357.94
254.028	336.94
254.261	342.94
254.494	337.94
254.727	333.94
254.96	317.94
255.193	351.94
255.426	356.94
255.659	361.94
255.892	344.94
256.124	344.94
256.357	357.94
256.59	350.94
256.823	367.94
257.056	369.94
257.289	362.94
257.521	373.94
257.754	370.94
257.987	364.94
258.22	372.94
258.452	358.94
258.685	367.94
258.918	379.94
259.151	378.94
259.383	373.94
259.616	374.94
259.849	392.94
260.081	388.94
260.314	385.94
260.547	384.94
260.779	405.94
261.012	408.94
261.244	402.94
261.477	389.94
261.71	395.94
261.942	414.94
262.175	398.94
262.407	422.94
262.64	409.94
262.872	406.94
263.105	413.94
263.337	415.94
263.57	411.94
263.802	425.94
264.035	418.94
264.267	414.94
264.499	417.94
264.732	434.94
264.964	447.94
265.197	425.94
265.429	436.94
265.661	431.94
265.894	457.94
266.126	454.94
266.358	443.94
266.591	456.94
266.823	442.94
267.055	447.94
267.287	455.94
267.52	449.94
267.752	453.94
267.984	447.94
268.216	454.94
268.448	445.94
268.681	471.94
268.913	471.94
269.145	464.94
269.377	467.94
269.609	461.94
269.841	464.94
270.073	474.94
270.306	478.94
270.538	465.94
270.77	481.94
271.002	490.94
271.234	477.94
271.466	495.94
271.698	512.94
271.93	501.94
272.162	475.94
272.394	480.94
272.626	493.94
272.858	478.94
273.09	486.94
273.322	502.94
273.553	503.94
273.785	519.94
274.017	517.94
274.249	544.94
274.481	494.94
274.713	518.94
274.945	501.94
275.176	497.94
275.408	521.94
275.64	528.94
275.872	536.94
276.104	549.94
276.335	526.94
276.567	510.94
276.799	526.94
277.031	524.94
277.262	532.94
277.494	543.94
277.726	563.94
277.957	535.94
278.189	559.94
278.421	555.94
278.652	552.94
278.884	543.94
279.115	569.94
279.347	539.94
279.579	565.94
279.81	570.94
280.042	567.94
280.273	577.94
280.505	576.94
280.736	551.94
280.968	565.94
281.199	568.94
281.431	579.94
281.662	585.94
281.894	578.94
282.125	597.94
282.356	597.94
282.588	614.94
282.819	614.94
283.051	601.94
283.282	609.94
283.513	606.94
283.745	601.94
283.976	605.94
284.207	593.94
284.439	604.94
284.67	616.94
284.901	640.94
285.132	615.94
285.364	597.94
285.595	591.94
285.826	626.94
286.057	641.94
286.288	644.94
286.52	638.94
286.751	654.94
286.982	664.94
287.213	641.94
287.444	655.94
287.675	633.94
287.906	655.94
288.138	658.94
288.369	656.94
288.6	663.94
288.831	674.94
289.062	664.94
289.293	668.94
289.524	635.94
289.755	656.94
289.986	665.94
290.217	695.94
290.448	678.94
290.679	650.94
290.91	646.94
291.141	674.94
291.371	643.94
291.602	687.94
291.833	680.94
292.064	693.94
292.295	686.94
292.526	651.94
292.757	677.94
292.987	674.94
293.218	665.94
293.449	679.94
293.68	681.94
293.91	671.94
294.141	656.94
294.372	643.94
294.603	679.94
294.833	673.94
295.064	689.94
295.295	684.94
295.525	681.94
295.756	687.94
295.987	683.94
296.217	687.94
296.448	721.94
296.679	701.94
296.909	705.94
297.14	710.94
297.37	713.94
297.601	731.94
297.831	728.94
298.062	725.94
298.292	740.94
298.523	724.94
298.753	741.94
298.984	745.94
299.214	714.94
299.445	707.94
299.675	712.94
299.905	740.94
300.136	733.94
300.366	741.94
300.597	733.94
300.827	771.94
301.057	799.94
301.288	809.94
301.518	765.94
301.748	769.94
301.979	779.94
302.209	786.94
302.439	774.94
302.669	786.94
302.9	753.94
303.13	735.94
303.36	751.94
303.59	769.94
303.82	778.94
304.051	776.94
304.281	756.94
304.511	783.94
304.741	764.94
304.971	786.94
305.201	803.94
305.431	764.94
305.661	766.94
305.891	743.94
306.121	771.94
306.352	795.94
306.582	743.94
306.812	770.94
307.042	786.94
307.272	731.94
307.502	756.94
307.731	734.94
307.961	759.94
308.191	764.94
308.421	753.94
308.651	735.94
308.881	764.94
309.111	767.94
309.341	751.94
309.571	753.94
309.8	771.94
310.03	757.94
310.26	774.94
310.49	750.94
310.72	745.94
310.949	760.94
311.179	783.94
311.409	750.94
311.639	773.94
311.868	790.94
312.098	764.94
312.328	796.94
312.557	759.94
312.787	797.94
313.017	794.94
313.246	813.94
313.476	824.94
313.706	819.94
313.935	822.94
314.165	837.94
314.394	835.94
314.624	828.94
314.853	815.94
315.083	806.94
315.312	822.94
315.542	807.94
315.771	827.94
316.001	814.94
316.23	798.94
316.46	799.94
316.689	815.94
316.919	803.94
317.148	798.94
317.377	802.94
317.607	772.94
317.836	797.94
318.065	781.94
318.295	810.94
318.524	796.94
318.753	790.94
318.983	797.94
319.212	798.94
319.441	801.94
319.67	774.94
319.9	817.94
320.129	794.94
320.358	809.94
320.587	802.94
320.816	809.94
321.046	816.94
321.275	822.94
321.504	815.94
321.733	847.94
321.962	802.94
322.191	834.94
322.42	823.94
322.649	795.94
322.878	830.94
323.108	855.94
323.337	845.94
323.566	847.94
323.795	834.94
324.024	813.94
324.253	841.94
324.482	823.94
324.71	850.94
324.939	839.94
325.168	836.94
325.397	861.94
325.626	841.94
325.855	874.94
326.084	865.94
326.313	874.94
326.542	870.94
326.77	903.94
326.999	890.94
327.228	890.94
327.457	880.94
327.686	886.94
327.914	900.94
328.143	901.94
328.372	907.94
328.6	900.94
328.829	891.94
329.058	904.94
329.287	920.94
329.515	902.94
329.744	894.94
329.972	906.94
330.201	902.94
330.43	912.94
330.658	889.94
330.887	951.94
331.115	927.94
331.344	950.94
331.572	919.94
331.801	968.94
332.03	981.94
332.258	1000.94
332.486	1028.94
332.715	1087.94
332.943	1120.94
333.172	1194.94
333.4	1233.94
333.629	1254.94
333.857	1280.94
334.085	1266.94
334.314	1208.94
334.542	1159.94
334.771	1144.94
334.999	1146.94
335.227	1129.94
335.455	1111.94
335.684	1141.94
335.912	1124.94
336.14	1091.94
336.369	1064.94
336.597	1081.94
336.825	1085.94
337.053	1067.94
337.281	1062.94
337.51	1015.94
337.738	1006.94
337.966	1001.94
338.194	975.94
338.422	978.94
338.65	962.94
338.878	1006.94
339.106	973.94
339.334	1005.94
339.562	992.94
339.79	933.94
340.018	938.94
340.246	919.94
340.474	935.94
340.702	948.94
340.93	965.94
341.158	930.94
341.386	949.94
341.614	956.94
341.842	930.94
342.07	919.94
342.298	925.94
342.526	933.94
342.754	945.94
342.981	923.94
343.209	953.94
343.437	1023.94
343.665	1036.94
343.893	1172.94
344.12	1184.94
344.348	1134.94
344.576	1076.94
344.804	1024.94
345.031	977.94
345.259	941.94
345.487	953.94
345.714	921.94
345.942	913.94
346.17	927.94
346.397	915.94
346.625	905.94
346.853	927.94
347.08	902.94
347.308	910.94
347.535	928.94
347.763	930.94
347.99	904.94
348.218	914.94
348.445	895.94
348.673	932.94
348.9	887.94
349.128	901.94
349.355	893.94
349.583	898.94
349.81	880.94
350.037	893.94
350.265	902.94
350.492	878.94
350.72	884.94
350.947	885.94
351.174	896.94
351.402	886.94
351.629	859.94
351.856	862.94
352.083	846.94
352.311	875.94
352.538	879.94
352.765	873.94
352.992	880.94
353.22	875.94
353.447	863.94
353.674	852.94
353.901	849.94
354.128	895.94
354.355	881.94
354.583	867.94
354.81	887.94
355.037	891.94
355.264	887.94
355.491	901.94
355.718	892.94
355.945	870.94
356.172	875.94
356.399	882.94
356.626	880.94
356.853	877.94
357.08	855.94
357.307	887.94
357.534	885.94
357.761	903.94
357.988	896.94
358.215	895.94
358.441	895.94
358.668	901.94
358.895	857.94
359.122	876.94
359.349	881.94
359.576	911.94
359.802	899.94
360.029	866.94
360.256	928.94
360.483	865.94
360.709	884.94
360.936	889.94
361.163	874.94
361.39	903.94
361.616	904.94
361.843	878.94
362.07	884.94
362.296	871.94
362.523	882.94
362.749	895.94
362.976	880.94
363.203	874.94
363.429	869.94
363.656	846.94
363.882	895.94
364.109	883.94
364.335	854.94
364.562	853.94
364.788	803.94
365.015	886.94
365.241	873.94
365.468	855.94
365.694	888.94
365.92	904.94
366.147	877.94
366.373	901.94
366.599	850.94
366.826	861.94
367.052	862.94
367.278	880.94
367.505	875.94
367.731	877.94
367.957	861.94
368.184	891.94
368.41	877.94
368.636	885.94
368.862	908.94
369.089	906.94
369.315	905.94
369.541	891.94
369.767	910.94
369.993	911.94
370.219	911.94
370.445	929.94
370.672	928.94
370.898	933.94
371.124	934.94
371.35	970.94
371.576	943.94
371.802	928.94
372.028	954.94
372.254	943.94
372.48	955.94
372.706	986.94
372.932	1007.94
373.158	993.94
373.384	960.94
373.61	959.94
373.835	969.94
374.061	948.94
374.287	985.94
374.513	981.94
374.739	1023.94
374.965	1046.94
375.191	1061.94
375.416	1045.94
375.642	1006.94
375.868	1005.94
376.094	963.94
376.319	979.94
376.545	993.94
376.771	957.94
376.997	962.94
377.222	975.94
377.448	951.94
377.674	949.94
377.899	945.94
378.125	948.94
378.35	947.94
378.576	938.94
378.802	947.94
379.027	954.94
379.253	930.94
379.478	951.94
379.704	921.94
379.929	951.94
380.155	935.94
380.38	957.94
380.606	943.94
380.831	956.94
381.057	958.94
381.282	947.94
381.507	977.94
381.733	971.94
381.958	990.94
382.184	967.94
382.409	1002.94
382.634	1007.94
382.86	1030.94
383.085	1015.94
383.31	1065.94
383.535	1080.94
383.761	1073.94
383.986	1069.94
384.211	1090.94
384.436	1151.94
384.662	1153.94
384.887	1182.94
385.112	1177.94
385.337	1159.94
385.562	1174.94
385.787	1189.94
386.013	1195.94
386.238	1168.94
386.463	1163.94
386.688	1171.94
386.913	1155.94
387.138	1161.94
387.363	1149.94
387.588	1121.94
387.813	1117.94
388.038	1140.94
388.263	1120.94
388.488	1177.94
388.713	1147.94
388.938	1128.94
389.163	1131.94
389.387	1152.94
389.612	1134.94
389.837	1128.94
390.062	1102.94
390.287	1125.94
390.512	1140.94
390.736	1128.94
390.961	1175.94
391.186	1175.94
391.411	1214.94
391.636	1223.94
391.86	1299.94
392.085	1331.94
392.31	1295.94
392.534	1286.94
392.759	1226.94
392.984	1234.94
393.208	1192.94
393.433	1178.94
393.658	1208.94
393.882	1221.94
394.107	1235.94
394.331	1249.94
394.556	1251.94
394.78	1257.94
395.005	1245.94
395.229	1246.94
395.454	1289.94
395.678	1287.94
395.903	1301.94
396.127	1284.94
396.352	1259.94
396.576	1224.94
396.801	1182.94
397.025	1207.94
397.249	1250.94
397.474	1300.94
397.698	1273.94
397.922	1309.94
398.147	1295.94
398.371	1309.94
398.595	1344.94
398.82	1410.94
399.044	1525.94
399.268	1741.94
399.492	2046.94
399.717	2314.94
399.941	2279.94
400.165	2015.94
400.389	1737.94
400.613	1613.94
400.837	1515.94
401.062	1485.94
401.286	1479.94
401.51	1494.94
401.734	1473.94
401.958	1480.94
402.182	1472.94
402.406	1553.94
402.63	1550.94
402.854	1569.94
403.078	1602.94
403.302	1638.94
403.526	1705.94
403.75	1677.94
403.974	1691.94
404.198	1714.94
404.422	1715.94
404.645	1719.94
404.869	1710.94
405.093	1655.94
405.317	1608.94
405.541	1633.94
405.765	1616.94
405.988	1554.94
406.212	1564.94
406.436	1612.94
406.66	1636.94
406.883	1648.94
407.107	1764.94
407.331	1841.94
407.555	1886.94
407.778	1875.94
408.002	1805.94
408.226	1752.94
408.449	1757.94
408.673	1703.94
408.896	1658.94
409.12	1665.94
409.344	1685.94
409.567	1610.94
409.791	1635.94
410.014	1621.94
410.238	1617.94
410.461	1631.94
410.685	1599.94
410.908	1552.94
411.132	1577.94
411.355	1508.94
411.578	1517.94
411.802	1503.94
412.025	1495.94
412.249	1531.94
412.472	1510.94
412.695	1473.94
412.919	1439.94
413.142	1462.94
413.365	1423.94
413.589	1459.94
413.812	1455.94
414.035	1407.94
414.258	1494.94
414.482	1448.94
414.705	1483.94
414.928	1458.94
415.151	1464.94
415.374	1487.94
415.597	1444.94
415.821	1425.94
416.044	1411.94
416.267	1397.94
416.49	1367.94
416.713	1400.94
416.936	1435.94
417.159	1426.94
417.382	1389.94
417.605	1394.94
417.828	1413.94
418.051	1464.94
418.274	1428.94
418.497	1447.94
418.72	1456.94
418.943	1474.94
419.166	1570.94
419.389	1679.94
419.611	1647.94
419.834	1519.94
420.057	1490.94
420.28	1434.94
420.503	1411.94
420.726	1406.94
420.948	1433.94
421.171	1413.94
421.394	1433.94
421.617	1393.94
421.839	1439.94
422.062	1473.94
422.285	1395.94
422.507	1476.94
422.73	1477.94
422.953	1487.94
423.175	1473.94
423.398	1545.94
423.621	1514.94
423.843	1510.94
424.066	1546.94
424.288	1545.94
424.511	1532.94
424.733	1515.94
424.956	1501.94
425.178	1440.94
425.401	1454.94
425.623	1425.94
425.846	1383.94
426.068	1373.94
426.291	1355.94
426.513	1330.94
426.735	1359.94
426.958	1324.94
427.18	1298.94
427.402	1314.94
427.625	1316.94
427.847	1272.94
428.069	1269.94
428.292	1280.94
428.514	1263.94
428.736	1248.94
428.958	1282.94
429.181	1248.94
429.403	1215.94
429.625	1249.94
429.847	1262.94
430.069	1243.94
430.292	1244.94
430.514	1202.94
430.736	1221.94
430.958	1215.94
431.18	1211.94
431.402	1226.94
431.624	1229.94
431.846	1294.94
432.068	1266.94
432.29	1290.94
432.512	1265.94
432.734	1256.94
432.956	1252.94
433.178	1253.94
433.4	1301.94
433.622	1261.94
433.844	1286.94
434.066	1280.94
434.287	1285.94
434.509	1348.94
434.731	1379.94
434.953	1413.94
435.175	1407.94
435.397	1414.94
435.618	1342.94
435.84	1293.94
436.062	1281.94
436.284	1282.94
436.505	1299.94
436.727	1286.94
436.949	1271.94
437.17	1261.94
437.392	1261.94
437.614	1248.94
437.835	1209.94
438.057	1175.94
438.278	1169.94
438.5	1193.94
438.721	1173.94
438.943	1211.94
439.165	1196.94
439.386	1221.94
439.608	1235.94
439.829	1238.94
440.05	1242.94
440.272	1243.94
440.493	1277.94
440.715	1283.94
440.936	1322.94
441.158	1313.94
441.379	1361.94
441.6	1438.94
441.822	1447.94
442.043	1442.94
442.264	1387.94
442.486	1372.94
442.707	1395.94
442.928	1395.94
443.149	1410.94
443.371	1408.94
443.592	1423.94
443.813	1426.94
444.034	1423.94
444.255	1484.94
444.476	1564.94
444.698	1674.94
444.919	1746.94
445.14	1781.94
445.361	1577.94
445.582	1457.94
445.803	1390.94
446.024	1345.94
446.245	1313.94
446.466	1331.94
446.687	1237.94
446.908	1319.94
447.129	1233.94
447.35	1215.94
447.571	1221.94
447.792	1200.94
448.013	1174.94
448.234	1149.94
448.455	1131.94
448.675	1151.94
448.896	1130.94
449.117	1141.94
449.338	1147.94
449.559	1128.94
449.779	1157.94
450	1139.94
450.221	1124.94
450.442	1154.94
450.662	1157.94
450.883	1141.94
451.104	1157.94
451.324	1181.94
451.545	1158.94
451.766	1160.94
451.986	1129.94
452.207	1147.94
452.428	1165.94
452.648	1142.94
452.869	1129.94
453.089	1147.94
453.31	1133.94
453.53	1107.94
453.751	1124.94
453.971	1102.94
454.192	1092.94
454.412	1084.94
454.633	1079.94
454.853	1088.94
455.073	1062.94
455.294	1105.94
455.514	1036.94
455.734	1060.94
455.955	1034.94
456.175	1051.94
456.395	1061.94
456.616	1067.94
456.836	1067.94
457.056	1044.94
457.276	1051.94
457.497	1071.94
457.717	1065.94
457.937	1072.94
458.157	1070.94
458.377	1098.94
458.598	1118.94
458.818	1157.94
459.038	1196.94
459.258	1238.94
459.478	1225.94
459.698	1268.94
459.918	1317.94
460.138	1396.94
460.358	1487.94
460.578	1493.94
460.798	1525.94
461.018	1548.94
461.238	1502.94
461.458	1505.94
461.678	1490.94
461.898	1500.94
462.118	1514.94
462.338	1616.94
462.558	1682.94
462.777	1703.94
462.997	1879.94
463.217	2100.94
463.437	2016.94
463.657	1873.94
463.876	1774.94
464.096	1751.94
464.316	1743.94
464.536	1780.94
464.755	1681.94
464.975	1647.94
465.195	1532.94
465.414	1448.94
465.634	1382.94
465.854	1323.94
466.073	1292.94
466.293	1255.94
466.512	1253.94
466.732	1235.94
466.951	1184.94
467.171	1200.94
467.391	1240.94
467.61	1246.94
467.829	1202.94
468.049	1178.94
468.268	1153.94
468.488	1159.94
468.707	1126.94
468.927	1164.94
469.146	1127.94
469.365	1127.94
469.585	1143.94
469.804	1200.94
470.023	1194.94
470.243	1230.94
470.462	1248.94
470.681	1264.94
470.901	1249.94
471.12	1239.94
471.339	1219.94
471.558	1174.94
471.777	1161.94
471.997	1145.94
472.216	1154.94
472.435	1127.94
472.654	1139.94
472.873	1144.94
473.092	1086.94
473.311	1101.94
473.53	1103.94
473.749	1103.94
473.968	1103.94
474.187	1096.94
474.406	1084.94
474.625	1117.94
474.844	1114.94
475.063	1157.94
475.282	1118.94
475.501	1133.94
475.72	1154.94
475.939	1149.94
476.158	1184.94
476.377	1158.94
476.596	1150.94
476.814	1191.94
477.033	1182.94
477.252	1182.94
477.471	1249.94
477.69	1259.94
477.908	1283.94
478.127	1327.94
478.346	1342.94
478.564	1351.94
478.783	1398.94
479.002	1429.94
479.22	1404.94
479.439	1415.94
479.658	1398.94
479.876	1439.94
480.095	1441.94
480.313	1521.94
480.532	1551.94
480.751	1549.94
480.969	1455.94
481.188	1393.94
481.406	1357.94
481.624	1318.94
481.843	1333.94
482.061	1310.94
482.28	1270.94
482.498	1264.94
482.717	1279.94
482.935	1265.94
483.153	1298.94
483.372	1283.94
483.59	1303.94
483.808	1298.94
484.027	1283.94
484.245	1319.94
484.463	1301.94
484.681	1318.94
484.9	1347.94
485.118	1347.94
485.336	1351.94
485.554	1356.94
485.772	1364.94
485.99	1359.94
486.209	1399.94
486.427	1347.94
486.645	1391.94
486.863	1365.94
487.081	1377.94
487.299	1381.94
487.517	1350.94
487.735	1349.94
487.953	1389.94
488.171	1355.94
488.389	1348.94
488.607	1319.94
488.825	1318.94
489.043	1311.94
489.261	1325.94
489.479	1372.94
489.696	1357.94
489.914	1371.94
490.132	1338.94
490.35	1350.94
490.568	1350.94
490.786	1372.94
491.003	1343.94
491.221	1348.94
491.439	1349.94
491.657	1350.94
491.874	1359.94
492.092	1361.94
492.31	1389.94
492.527	1377.94
492.745	1393.94
492.963	1373.94
493.18	1381.94
493.398	1424.94
493.615	1429.94
493.833	1417.94
494.05	1411.94
494.268	1423.94
494.485	1395.94
494.703	1435.94
494.92	1393.94
495.138	1377.94
495.355	1449.94
495.573	1445.94
495.79	1450.94
496.008	1454.94
496.225	1461.94
496.442	1456.94
496.66	1504.94
496.877	1475.94
497.094	1499.94
497.312	1513.94
497.529	1562.94
497.746	1617.94
497.963	1670.94
498.181	1727.94
498.398	1843.94
498.615	1926.94
498.832	2077.94
499.049	2199.94
499.267	2399.94
499.484	2689.94
499.701	2971.94
499.918	3284.94
500.135	3785.94
500.352	4324.94
500.569	4592.94
500.786	4543.94
501.003	4172.94
501.22	3711.94
501.437	3223.94
501.654	2801.94
501.871	2593.94
502.088	2285.94
502.305	2177.94
502.522	2061.94
502.739	1975.94
502.956	1874.94
503.172	1763.94
503.389	1694.94
503.606	1650.94
503.823	1639.94
504.04	1632.94
504.256	1645.94
504.473	1693.94
504.69	1751.94
504.907	1709.94
505.123	1570.94
505.34	1477.94
505.557	1437.94
505.773	1371.94
505.99	1331.94
506.207	1312.94
506.423	1295.94
506.64	1309.94
506.856	1277.94
507.073	1219.94
507.289	1248.94
507.506	1258.94
507.722	1216.94
507.939	1219.94
508.155	1207.94
508.372	1204.94
508.588	1200.94
508.805	1196.94
509.021	1169.94
509.238	1148.94
509.454	1160.94
509.67	1152.94
509.887	1111.94
510.103	1125.94
510.319	1114.94
510.536	1106.94
510.752	1121.94
510.968	1149.94
511.184	1142.94
511.401	1126.94
511.617	1133.94
511.833	1107.94
512.049	1121.94
512.265	1124.94
512.481	1141.94
512.698	1130.94
512.914	1120.94
513.13	1140.94
513.346	1123.94
513.562	1166.94
513.778	1125.94
513.994	1133.94
514.21	1144.94
514.426	1153.94
514.642	1154.94
514.858	1150.94
515.074	1170.94
515.29	1190.94
515.506	1177.94
515.721	1199.94
515.937	1249.94
516.153	1213.94
516.369	1260.94
516.585	1310.94
516.801	1353.94
517.016	1417.94
517.232	1496.94
517.448	1577.94
517.664	1655.94
517.879	1640.94
518.095	1621.94
518.311	1603.94
518.527	1521.94
518.742	1468.94
518.958	1382.94
519.173	1333.94
519.389	1306.94
519.605	1266.94
519.82	1229.94
520.036	1214.94
520.251	1155.94
520.467	1158.94
520.682	1162.94
520.898	1147.94
521.113	1121.94
521.329	1133.94
521.544	1070.94
521.76	1109.94
521.975	1071.94
522.19	1062.94
522.406	1061.94
522.621	1071.94
522.836	1062.94
523.052	1053.94
523.267	1059.94
523.482	1038.94
523.698	1058.94
523.913	1039.94
524.128	1031.94
524.343	1031.94
524.559	1027.94
524.774	1022.94
524.989	1046.94
525.204	1035.94
525.419	1039.94
525.634	1001.94
525.849	1009.94
526.064	1011.94
526.28	1003.94
526.495	1021.94
526.71	1013.94
526.925	1019.94
527.14	1017.94
527.355	990.94
527.57	1025.94
527.785	1039.94
527.999	1012.94
528.214	1033.94
528.429	1026.94
528.644	1042.94
528.859	1010.94
529.074	1007.94
529.289	1039.94
529.503	1014.94
529.718	1021.94
529.933	1026.94
530.148	979.94
530.363	999.94
530.577	1020.94
530.792	993.94
531.007	993.94
531.221	1020.94
531.436	1025.94
531.651	1013.94
531.865	1024.94
532.08	1006.94
532.295	1007.94
532.509	1008.94
532.724	1007.94
532.938	1017.94
533.153	1045.94
533.367	1022.94
533.582	1001.94
533.796	979.94
534.011	1014.94
534.225	1021.94
534.44	993.94
534.654	1005.94
534.868	973.94
535.083	1011.94
535.297	1009.94
535.511	996.94
535.726	973.94
535.94	962.94
536.154	974.94
536.369	948.94
536.583	930.94
536.797	960.94
537.011	957.94
537.225	945.94
537.44	916.94
537.654	936.94
537.868	961.94
538.082	933.94
538.296	925.94
538.51	935.94
538.724	914.94
538.938	915.94
539.153	899.94
539.367	906.94
539.581	922.94
539.795	899.94
540.009	894.94
540.222	888.94
540.436	890.94
540.65	895.94
540.864	902.94
541.078	905.94
541.292	894.94
541.506	900.94
541.72	913.94
541.934	897.94
542.147	896.94
542.361	860.94
542.575	899.94
542.789	917.94
543.002	902.94
543.216	875.94
543.43	879.94
543.644	873.94
543.857	904.94
544.071	904.94
544.285	879.94
544.498	895.94
544.712	866.94
544.925	921.94
545.139	915.94
545.352	919.94
545.566	934.94
545.779	943.94
545.993	928.94
546.206	941.94
546.42	907.94
546.633	918.94
546.847	917.94
547.06	916.94
547.274	935.94
547.487	890.94
547.7	951.94
547.914	903.94
548.127	969.94
548.34	918.94
548.554	928.94
548.767	918.94
548.98	925.94
549.193	929.94
549.407	956.94
549.62	968.94
549.833	979.94
550.046	965.94
550.259	946.94
550.473	891.94
550.686	925.94
550.899	891.94
551.112	941.94
551.325	889.94
551.538	920.94
551.751	927.94
551.964	909.94
552.177	920.94
552.39	931.94
552.603	928.94
552.816	976.94
553.029	1025.94
553.242	1014.94
553.455	1041.94
553.667	1044.94
553.88	1006.94
554.093	976.94
554.306	935.94
554.519	936.94
554.732	895.94
554.944	895.94
555.157	916.94
555.37	893.94
555.583	868.94
555.795	872.94
556.008	857.94
556.221	797.94
556.433	801.94
556.646	800.94
556.859	790.94
557.071	803.94
557.284	792.94
557.496	776.94
557.709	802.94
557.921	762.94
558.134	758.94
558.346	768.94
558.559	783.94
558.771	745.94
558.984	774.94
559.196	785.94
559.409	769.94
559.621	758.94
559.833	750.94
560.046	746.94
560.258	735.94
560.47	765.94
560.683	737.94
560.895	757.94
561.107	752.94
561.32	783.94
561.532	768.94
561.744	759.94
561.956	753.94
562.168	772.94
562.381	756.94
562.593	751.94
562.805	740.94
563.017	762.94
563.229	765.94
563.441	778.94
563.653	756.94
563.865	779.94
564.077	786.94
564.289	769.94
564.501	805.94
564.713	789.94
564.925	808.94
565.137	818.94
565.349	849.94
565.561	860.94
565.773	903.94
565.985	935.94
566.197	970.94
566.408	1086.94
566.62	1191.94
566.832	1302.94
567.044	1303.94
567.255	1297.94
567.467	1319.94
567.679	1403.94
567.891	1517.94
568.102	1583.94
568.314	1509.94
568.526	1335.94
568.737	1195.94
568.949	1086.94
569.161	996.94
569.372	915.94
569.584	862.94
569.795	813.94
570.007	805.94
570.218	786.94
570.43	790.94
570.641	810.94
570.853	779.94
571.064	802.94
571.276	823.94
571.487	756.94
571.698	729.94
571.91	719.94
572.121	673.94
572.333	665.94
572.544	686.94
572.755	657.94
572.966	637.94
573.178	631.94
573.389	635.94
573.6	610.94
573.811	638.94
574.023	642.94
574.234	610.94
574.445	609.94
574.656	636.94
574.867	629.94
575.078	628.94
575.289	594.94
575.501	607.94
575.712	599.94
575.923	618.94
576.134	602.94
576.345	592.94
576.556	610.94
576.767	580.94
576.978	616.94
577.188	574.94
577.399	567.94
577.61	564.94
577.821	563.94
578.032	549.94
578.243	566.94
578.454	546.94
578.665	575.94
578.875	559.94
579.086	533.94
579.297	532.94
579.508	539.94
579.718	533.94
579.929	528.94
580.14	534.94
580.35	535.94
580.561	545.94
580.772	543.94
580.982	512.94
581.193	518.94
581.403	513.94
581.614	513.94
581.825	517.94
582.035	519.94
582.246	514.94
582.456	521.94
582.667	538.94
582.877	522.94
583.087	490.94
583.298	510.94
583.508	503.94
583.719	504.94
583.929	509.94
584.139	515.94
584.35	510.94
584.56	498.94
584.77	487.94
584.981	484.94
585.191	464.94
585.401	488.94
585.611	526.94
585.821	489.94
586.032	496.94
586.242	490.94
586.452	486.94
586.662	500.94
586.872	490.94
587.082	477.94
587.292	482.94
587.502	471.94
587.713	486.94
587.923	496.94
588.133	472.94
588.343	507.94
588.553	474.94
588.762	490.94
588.972	503.94
589.182	480.94
589.392	472.94
589.602	490.94
589.812	498.94
590.022	486.94
590.232	503.94
590.441	478.94
590.651	499.94
590.861	503.94
591.071	519.94
591.281	533.94
591.49	507.94
591.7	524.94
591.91	549.94
592.119	552.94
592.329	557.94
592.539	560.94
592.748	585.94
592.958	611.94
593.167	617.94
593.377	633.94
593.587	647.94
593.796	639.94
594.006	657.94
594.215	667.94
594.424	664.94
594.634	618.94
594.843	621.94
595.053	583.94
595.262	562.94
595.472	552.94
595.681	537.94
595.89	521.94
596.1	495.94
596.309	488.94
596.518	482.94
596.727	470.94
596.937	457.94
597.146	462.94
597.355	438.94
597.564	426.94
597.774	441.94
597.983	439.94
598.192	438.94
598.401	443.94
598.61	436.94
598.819	424.94
599.028	426.94
599.237	412.94
599.446	428.94
599.655	421.94
599.864	424.94
600.073	415.94
600.282	424.94
600.491	432.94
600.7	400.94
600.909	415.94
601.118	421.94
601.327	424.94
601.536	406.94
601.745	402.94
601.953	404.94
602.162	416.94
602.371	389.94
602.58	400.94
602.789	377.94
602.997	390.94
603.206	373.94
603.415	392.94
603.623	392.94
603.832	382.94
604.041	399.94
604.249	403.94
604.458	383.94
604.666	381.94
604.875	373.94
605.084	373.94
605.292	386.94
605.501	373.94
605.709	391.94
605.918	390.94
606.126	379.94
606.334	362.94
606.543	377.94
606.751	383.94
606.96	362.94
607.168	353.94
607.376	367.94
607.585	370.94
607.793	404.94
608.001	377.94
608.21	371.94
608.418	347.94
608.626	363.94
608.834	348.94
609.043	366.94
609.251	360.94
609.459	373.94
609.667	377.94
609.875	372.94
610.083	361.94
610.291	360.94
610.499	361.94
610.707	362.94
610.916	356.94
611.124	367.94
611.332	363.94
611.54	359.94
611.748	375.94
611.955	342.94
612.163	349.94
612.371	368.94
612.579	357.94
612.787	366.94
612.995	362.94
613.203	359.94
613.411	349.94
613.618	332.94
613.826	357.94
614.034	354.94
614.242	366.94
614.449	347.94
614.657	337.94
614.865	340.94
615.072	360.94
615.28	355.94
615.488	355.94
615.695	358.94
615.903	348.94
616.111	352.94
616.318	356.94
616.526	375.94
616.733	372.94
616.941	366.94
617.148	339.94
617.356	367.94
617.563	357.94
617.771	369.94
617.978	346.94
618.185	330.94
618.393	364.94
618.6	376.94
618.807	347.94
619.015	356.94
619.222	343.94
619.429	352.94
619.637	330.94
619.844	340.94
620.051	351.94
620.258	346.94
620.466	338.94
620.673	315.94
620.88	314.94
621.087	311.94
621.294	326.94
621.501	326.94
621.708	304.94
621.915	312.94
622.122	322.94
622.329	343.94
622.536	319.94
622.743	338.94
622.95	321.94
623.157	325.94
623.364	304.94
623.571	315.94
623.778	303.94
623.985	304.94
624.192	312.94
624.399	309.94
624.606	323.94
624.812	298.94
625.019	295.94
625.226	294.94
625.433	301.94
625.639	297.94
625.846	293.94
626.053	289.94
626.259	285.94
626.466	293.94
626.673	291.94
626.879	288.94
627.086	319.94
627.293	310.94
627.499	283.94
627.706	290.94
627.912	284.94
628.119	289.94
628.325	281.94
628.532	279.94
628.738	281.94
628.945	284.94
629.151	262.94
629.357	275.94
629.564	292.94
629.77	298.94
629.976	284.94
630.183	286.94
630.389	255.94
630.595	287.94
630.802	271.94
631.008	252.94
631.214	259.94
631.42	261.94
631.627	274.94
631.833	271.94
632.039	272.94
632.245	258.94
632.451	261.94
632.657	245.94
632.863	255.94
633.069	258.94
633.275	246.94
633.481	258.94
633.688	241.94
633.893	255.94
634.099	259.94
634.305	247.94
634.511	253.94
634.717	245.94
634.923	264.94
635.129	237.94
635.335	234.94
635.541	253.94
635.747	261.94
635.952	243.94
636.158	235.94
636.364	253.94
636.57	237.94
636.775	249.94
636.981	253.94
637.187	259.94
637.392	248.94
637.598	246.94
637.804	229.94
638.009	244.94
638.215	241.94
638.421	257.94
638.626	251.94
638.832	241.94
639.037	236.94
639.243	243.94
639.448	233.94
639.654	231.94
639.859	246.94
640.065	239.94
640.27	224.94
640.475	241.94
640.681	235.94
640.886	228.94
641.091	229.94
641.297	219.94
641.502	226.94
641.707	230.94
641.913	239.94
642.118	211.94
642.323	225.94
642.528	227.94
642.733	223.94
642.939	235.94
643.144	218.94
643.349	217.94
643.554	230.94
643.759	237.94
643.964	220.94
644.169	229.94
644.374	209.94
644.579	231.94
644.784	209.94
644.989	214.94
645.194	213.94
645.399	219.94
645.604	218.94
645.809	208.94
646.014	219.94
646.219	223.94
646.423	229.94
646.628	207.94
646.833	220.94
647.038	209.94
647.243	239.94
647.447	222.94
647.652	241.94
647.857	233.94
648.062	240.94
648.266	255.94
648.471	261.94
648.676	253.94
648.88	230.94
649.085	242.94
649.289	229.94
649.494	228.94
649.698	224.94
649.903	216.94
650.107	229.94
650.312	207.94
650.516	209.94
650.721	227.94
650.925	217.94
651.13	207.94
651.334	216.94
651.539	201.94
651.743	194.94
651.947	202.94
652.152	187.94
652.356	176.94
652.56	199.94
652.764	180.94
652.969	170.94
653.173	179.94
653.377	181.94
653.581	184.94
653.785	188.94
653.99	175.94
654.194	165.94
654.398	179.94
654.602	168.94
654.806	167.94
655.01	164.94
655.214	181.94
655.418	185.94
655.622	173.94
655.826	177.94
656.03	169.94
656.234	177.94
656.438	194.94
656.642	198.94
656.846	189.94
657.049	186.94
657.253	179.94
657.457	166.94
657.661	145.94
657.865	129.94
658.068	133.94
658.272	126.94
658.476	121.94
658.68	125.94
658.883	94.94
659.087	113.94
659.291	111.94
659.494	110.94
659.698	99.94
659.901	99.94
660.105	119.94
660.309	121.94
660.512	110.94
660.716	106.94
660.919	100.94
661.123	91.94
661.326	96.94
661.53	95.94
661.733	97.94
661.936	89.94
662.14	87.94
662.343	89.94
662.546	80.94
662.75	93.94
662.953	84.94
663.156	82.94
663.36	74.94
663.563	80.94
663.766	68.94
663.969	81.94
664.173	85.94
664.376	88.94
664.579	77.94
664.782	90.94
664.985	91.94
665.188	80.94
665.391	95.94
665.594	69.94
665.797	70.94
666	78.94
666.203	75.94
666.406	71.94
666.609	75.94
666.812	62.94
667.015	73.94
667.218	65.94
667.421	73.94
667.624	78.94
667.827	90.94
668.03	71.94
668.232	97.94
668.435	73.94
668.638	72.94
668.841	80.94
669.043	81.94
669.246	82.94
669.449	67.94
669.651	80.94
669.854	85.94
670.057	73.94
670.259	85.94
670.462	85.94
670.665	74.94
670.867	85.94
671.07	77.94
671.272	89.94
671.475	83.94
671.677	78.94
671.88	85.94
672.082	82.94
672.284	78.94
672.487	91.94
672.689	78.94
672.892	84.94
