Data from Ni(NO3)2@0.125M.TitratingCurve.Agarose3%dH2O.NegLispCup.LampEnergy10.LIBS07252019_HRD10591_18-10-30-568.txt Node
Date: Thu Jul 25 18:10:30 EDT 2019
User: cochatt
Spectrometer: HR+D1059
Trigger mode: 1
Integration Time (sec): 1.000000E-1
Scans to average: 1
Electric dark correction enabled: true
Nonlinearity correction enabled: false
Boxcar width: 0
XAxis mode: Wavelengths
Number of Pixels in Spectrum: 2048
>>>>>Begin Spectral Data<<<<<
223.165	-22.94
223.4	-22.94
223.635	-22.94
223.869	-21.94
224.104	-16.94
224.338	-13.94
224.573	-11.94
224.808	-5.94
225.042	-3.94
225.277	-7.94
225.511	0.06
225.746	11.06
225.98	17.06
226.215	13.06
226.449	12.06
226.683	21.06
226.918	16.06
227.152	15.06
227.387	35.06
227.621	48.06
227.856	48.06
228.09	41.06
228.324	63.06
228.559	59.06
228.793	67.06
229.027	104.06
229.262	78.06
229.496	90.06
229.73	97.06
229.964	81.06
230.199	90.06
230.433	105.06
230.667	87.06
230.901	109.06
231.136	103.06
231.37	113.06
231.604	111.06
231.838	123.06
232.072	126.06
232.306	124.06
232.541	128.06
232.775	126.06
233.009	114.06
233.243	116.06
233.477	119.06
233.711	114.06
233.945	131.06
234.179	126.06
234.413	133.06
234.647	128.06
234.881	118.06
235.115	107.06
235.349	129.06
235.583	118.06
235.817	106.06
236.051	118.06
236.285	118.06
236.519	125.06
236.753	109.06
236.987	130.06
237.221	115.06
237.455	131.06
237.689	125.06
237.922	130.06
238.156	120.06
238.39	128.06
238.624	121.06
238.858	127.06
239.091	115.06
239.325	133.06
239.559	126.06
239.793	127.06
240.027	114.06
240.26	128.06
240.494	127.06
240.728	123.06
240.961	137.06
241.195	136.06
241.429	131.06
241.662	134.06
241.896	138.06
242.13	134.06
242.363	140.06
242.597	136.06
242.83	140.06
243.064	141.06
243.298	142.06
243.531	144.06
243.765	131.06
243.998	135.06
244.232	147.06
244.465	135.06
244.699	146.06
244.932	145.06
245.166	157.06
245.399	138.06
245.633	154.06
245.866	151.06
246.099	154.06
246.333	164.06
246.566	160.06
246.8	162.06
247.033	156.06
247.266	156.06
247.5	156.06
247.733	150.06
247.966	171.06
248.2	150.06
248.433	141.06
248.666	154.06
248.899	162.06
249.133	174.06
249.366	164.06
249.599	175.06
249.832	167.06
250.066	168.06
250.299	169.06
250.532	167.06
250.765	186.06
250.998	160.06
251.231	175.06
251.465	179.06
251.698	181.06
251.931	185.06
252.164	176.06
252.397	180.06
252.63	157.06
252.863	179.06
253.096	166.06
253.329	172.06
253.562	172.06
253.795	194.06
254.028	188.06
254.261	168.06
254.494	186.06
254.727	186.06
254.96	195.06
255.193	194.06
255.426	181.06
255.659	179.06
255.892	192.06
256.124	184.06
256.357	185.06
256.59	194.06
256.823	200.06
257.056	194.06
257.289	189.06
257.521	198.06
257.754	193.06
257.987	202.06
258.22	202.06
258.452	184.06
258.685	183.06
258.918	203.06
259.151	188.06
259.383	191.06
259.616	195.06
259.849	194.06
260.081	208.06
260.314	201.06
260.547	199.06
260.779	197.06
261.012	205.06
261.244	218.06
261.477	208.06
261.71	217.06
261.942	200.06
262.175	212.06
262.407	207.06
262.64	205.06
262.872	199.06
263.105	207.06
263.337	234.06
263.57	203.06
263.802	212.06
264.035	214.06
264.267	183.06
264.499	240.06
264.732	232.06
264.964	230.06
265.197	230.06
265.429	225.06
265.661	242.06
265.894	220.06
266.126	220.06
266.358	221.06
266.591	221.06
266.823	233.06
267.055	214.06
267.287	211.06
267.52	239.06
267.752	229.06
267.984	245.06
268.216	232.06
268.448	236.06
268.681	236.06
268.913	251.06
269.145	236.06
269.377	225.06
269.609	232.06
269.841	235.06
270.073	230.06
270.306	233.06
270.538	232.06
270.77	222.06
271.002	233.06
271.234	238.06
271.466	224.06
271.698	223.06
271.93	259.06
272.162	240.06
272.394	221.06
272.626	235.06
272.858	250.06
273.09	254.06
273.322	257.06
273.553	244.06
273.785	247.06
274.017	278.06
274.249	250.06
274.481	259.06
274.713	241.06
274.945	248.06
275.176	252.06
275.408	246.06
275.64	259.06
275.872	266.06
276.104	262.06
276.335	267.06
276.567	262.06
276.799	263.06
277.031	269.06
277.262	283.06
277.494	265.06
277.726	285.06
277.957	266.06
278.189	263.06
278.421	266.06
278.652	252.06
278.884	269.06
279.115	274.06
279.347	263.06
279.579	278.06
279.81	271.06
280.042	260.06
280.273	270.06
280.505	298.06
280.736	280.06
280.968	288.06
281.199	277.06
281.431	278.06
281.662	293.06
281.894	268.06
282.125	272.06
282.356	294.06
282.588	283.06
282.819	278.06
283.051	295.06
283.282	292.06
283.513	276.06
283.745	279.06
283.976	285.06
284.207	289.06
284.439	306.06
284.67	320.06
284.901	312.06
285.132	302.06
285.364	293.06
285.595	300.06
285.826	302.06
286.057	298.06
286.288	326.06
286.52	310.06
286.751	298.06
286.982	311.06
287.213	308.06
287.444	308.06
287.675	315.06
287.906	322.06
288.138	309.06
288.369	316.06
288.6	329.06
288.831	310.06
289.062	313.06
289.293	303.06
289.524	296.06
289.755	319.06
289.986	326.06
290.217	322.06
290.448	308.06
290.679	325.06
290.91	318.06
291.141	293.06
291.371	299.06
291.602	346.06
291.833	312.06
292.064	322.06
292.295	330.06
292.526	326.06
292.757	323.06
292.987	321.06
293.218	339.06
293.449	326.06
293.68	328.06
293.91	326.06
294.141	322.06
294.372	339.06
294.603	325.06
294.833	330.06
295.064	330.06
295.295	319.06
295.525	335.06
295.756	294.06
295.987	324.06
296.217	318.06
296.448	325.06
296.679	356.06
296.909	317.06
297.14	328.06
297.37	345.06
297.601	347.06
297.831	346.06
298.062	331.06
298.292	331.06
298.523	357.06
298.753	349.06
298.984	334.06
299.214	334.06
299.445	347.06
299.675	333.06
299.905	337.06
300.136	340.06
300.366	349.06
300.597	371.06
300.827	366.06
301.057	346.06
301.288	362.06
301.518	353.06
301.748	359.06
301.979	362.06
302.209	361.06
302.439	349.06
302.669	346.06
302.9	354.06
303.13	344.06
303.36	373.06
303.59	363.06
303.82	342.06
304.051	370.06
304.281	352.06
304.511	368.06
304.741	363.06
304.971	351.06
305.201	340.06
305.431	358.06
305.661	367.06
305.891	359.06
306.121	349.06
306.352	364.06
306.582	351.06
306.812	354.06
307.042	368.06
307.272	364.06
307.502	367.06
307.731	373.06
307.961	336.06
308.191	346.06
308.421	342.06
308.651	354.06
308.881	352.06
309.111	358.06
309.341	351.06
309.571	354.06
309.8	356.06
310.03	339.06
310.26	367.06
310.49	358.06
310.72	372.06
310.949	355.06
311.179	372.06
311.409	365.06
311.639	362.06
311.868	371.06
312.098	386.06
312.328	380.06
312.557	365.06
312.787	372.06
313.017	384.06
313.246	381.06
313.476	363.06
313.706	374.06
313.935	382.06
314.165	370.06
314.394	368.06
314.624	356.06
314.853	356.06
315.083	386.06
315.312	355.06
315.542	355.06
315.771	348.06
316.001	364.06
316.23	366.06
316.46	356.06
316.689	372.06
316.919	365.06
317.148	360.06
317.377	387.06
317.607	380.06
317.836	364.06
318.065	380.06
318.295	366.06
318.524	359.06
318.753	362.06
318.983	375.06
319.212	372.06
319.441	366.06
319.67	358.06
319.9	366.06
320.129	367.06
320.358	376.06
320.587	377.06
320.816	370.06
321.046	366.06
321.275	385.06
321.504	365.06
321.733	382.06
321.962	377.06
322.191	375.06
322.42	376.06
322.649	381.06
322.878	376.06
323.108	382.06
323.337	398.06
323.566	379.06
323.795	392.06
324.024	379.06
324.253	392.06
324.482	389.06
324.71	389.06
324.939	383.06
325.168	393.06
325.397	380.06
325.626	415.06
325.855	381.06
326.084	423.06
326.313	409.06
326.542	415.06
326.77	416.06
326.999	401.06
327.228	398.06
327.457	412.06
327.686	399.06
327.914	399.06
328.143	413.06
328.372	440.06
328.6	406.06
328.829	416.06
329.058	403.06
329.287	415.06
329.515	422.06
329.744	406.06
329.972	419.06
330.201	416.06
330.43	431.06
330.658	411.06
330.887	430.06
331.115	418.06
331.344	426.06
331.572	431.06
331.801	478.06
332.03	444.06
332.258	459.06
332.486	477.06
332.715	473.06
332.943	487.06
333.172	521.06
333.4	547.06
333.629	580.06
333.857	529.06
334.085	544.06
334.314	532.06
334.542	526.06
334.771	516.06
334.999	508.06
335.227	514.06
335.455	512.06
335.684	527.06
335.912	507.06
336.14	495.06
336.369	493.06
336.597	511.06
336.825	486.06
337.053	488.06
337.281	497.06
337.51	474.06
337.738	478.06
337.966	462.06
338.194	461.06
338.422	461.06
338.65	464.06
338.878	442.06
339.106	456.06
339.334	471.06
339.562	448.06
339.79	452.06
340.018	437.06
340.246	412.06
340.474	444.06
340.702	443.06
340.93	420.06
341.158	414.06
341.386	425.06
341.614	433.06
341.842	455.06
342.07	433.06
342.298	443.06
342.526	424.06
342.754	438.06
342.981	438.06
343.209	443.06
343.437	466.06
343.665	493.06
343.893	518.06
344.12	524.06
344.348	510.06
344.576	479.06
344.804	461.06
345.031	463.06
345.259	463.06
345.487	431.06
345.714	438.06
345.942	446.06
346.17	434.06
346.397	442.06
346.625	399.06
346.853	410.06
347.08	434.06
347.308	430.06
347.535	431.06
347.763	442.06
347.99	449.06
348.218	425.06
348.445	450.06
348.673	419.06
348.9	430.06
349.128	414.06
349.355	408.06
349.583	421.06
349.81	422.06
350.037	418.06
350.265	407.06
350.492	399.06
350.72	420.06
350.947	428.06
351.174	399.06
351.402	404.06
351.629	424.06
351.856	402.06
352.083	407.06
352.311	405.06
352.538	412.06
352.765	416.06
352.992	396.06
353.22	386.06
353.447	400.06
353.674	398.06
353.901	386.06
354.128	391.06
354.355	405.06
354.583	404.06
354.81	409.06
355.037	406.06
355.264	408.06
355.491	413.06
355.718	388.06
355.945	422.06
356.172	414.06
356.399	421.06
356.626	412.06
356.853	397.06
357.08	404.06
357.307	400.06
357.534	400.06
357.761	422.06
357.988	406.06
358.215	406.06
358.441	413.06
358.668	403.06
358.895	411.06
359.122	412.06
359.349	401.06
359.576	403.06
359.802	405.06
360.029	413.06
360.256	408.06
360.483	395.06
360.709	387.06
360.936	411.06
361.163	415.06
361.39	404.06
361.616	422.06
361.843	401.06
362.07	409.06
362.296	383.06
362.523	396.06
362.749	401.06
362.976	393.06
363.203	393.06
363.429	388.06
363.656	406.06
363.882	396.06
364.109	402.06
364.335	394.06
364.562	404.06
364.788	402.06
365.015	429.06
365.241	400.06
365.468	392.06
365.694	412.06
365.92	403.06
366.147	388.06
366.373	384.06
366.599	407.06
366.826	418.06
367.052	406.06
367.278	392.06
367.505	406.06
367.731	404.06
367.957	414.06
368.184	408.06
368.41	405.06
368.636	409.06
368.862	414.06
369.089	415.06
369.315	415.06
369.541	429.06
369.767	430.06
369.993	430.06
370.219	427.06
370.445	405.06
370.672	436.06
370.898	435.06
371.124	424.06
371.35	434.06
371.576	425.06
371.802	439.06
372.028	432.06
372.254	423.06
372.48	445.06
372.706	456.06
372.932	463.06
373.158	464.06
373.384	440.06
373.61	445.06
373.835	447.06
374.061	452.06
374.287	429.06
374.513	448.06
374.739	458.06
374.965	500.06
375.191	485.06
375.416	470.06
375.642	466.06
375.868	491.06
376.094	447.06
376.319	435.06
376.545	460.06
376.771	451.06
376.997	459.06
377.222	438.06
377.448	436.06
377.674	430.06
377.899	446.06
378.125	426.06
378.35	438.06
378.576	458.06
378.802	419.06
379.027	436.06
379.253	426.06
379.478	436.06
379.704	420.06
379.929	439.06
380.155	421.06
380.38	428.06
380.606	425.06
380.831	436.06
381.057	430.06
381.282	429.06
381.507	448.06
381.733	414.06
381.958	441.06
382.184	446.06
382.409	467.06
382.634	450.06
382.86	455.06
383.085	461.06
383.31	474.06
383.535	472.06
383.761	488.06
383.986	489.06
384.211	486.06
384.436	518.06
384.662	512.06
384.887	529.06
385.112	519.06
385.337	521.06
385.562	518.06
385.787	533.06
386.013	517.06
386.238	512.06
386.463	522.06
386.688	500.06
386.913	500.06
387.138	508.06
387.363	513.06
387.588	511.06
387.813	521.06
388.038	495.06
388.263	512.06
388.488	565.06
388.713	527.06
388.938	523.06
389.163	512.06
389.387	488.06
389.612	510.06
389.837	486.06
390.062	477.06
390.287	518.06
390.512	491.06
390.736	518.06
390.961	514.06
391.186	515.06
391.411	553.06
391.636	559.06
391.86	559.06
392.085	617.06
392.31	600.06
392.534	554.06
392.759	543.06
392.984	558.06
393.208	547.06
393.433	535.06
393.658	554.06
393.882	544.06
394.107	559.06
394.331	535.06
394.556	526.06
394.78	576.06
395.005	556.06
395.229	540.06
395.454	565.06
395.678	601.06
395.903	590.06
396.127	570.06
396.352	537.06
396.576	541.06
396.801	526.06
397.025	540.06
397.249	561.06
397.474	578.06
397.698	573.06
397.922	552.06
398.147	574.06
398.371	574.06
398.595	583.06
398.82	611.06
399.044	644.06
399.268	696.06
399.492	838.06
399.717	984.06
399.941	970.06
400.165	829.06
400.389	764.06
400.613	680.06
400.837	671.06
401.062	628.06
401.286	632.06
401.51	632.06
401.734	623.06
401.958	639.06
402.182	662.06
402.406	648.06
402.63	664.06
402.854	676.06
403.078	683.06
403.302	726.06
403.526	720.06
403.75	745.06
403.974	754.06
404.198	747.06
404.422	759.06
404.645	764.06
404.869	742.06
405.093	718.06
405.317	710.06
405.541	707.06
405.765	707.06
405.988	720.06
406.212	719.06
406.436	676.06
406.66	699.06
406.883	735.06
407.107	767.06
407.331	799.06
407.555	824.06
407.778	815.06
408.002	780.06
408.226	771.06
408.449	736.06
408.673	713.06
408.896	730.06
409.12	732.06
409.344	720.06
409.567	746.06
409.791	750.06
410.014	762.06
410.238	725.06
410.461	730.06
410.685	729.06
410.908	711.06
411.132	687.06
411.355	655.06
411.578	695.06
411.802	662.06
412.025	662.06
412.249	691.06
412.472	687.06
412.695	632.06
412.919	647.06
413.142	644.06
413.365	641.06
413.589	660.06
413.812	645.06
414.035	621.06
414.258	629.06
414.482	629.06
414.705	665.06
414.928	640.06
415.151	635.06
415.374	651.06
415.597	651.06
415.821	648.06
416.044	611.06
416.267	604.06
416.49	623.06
416.713	627.06
416.936	658.06
417.159	636.06
417.382	645.06
417.605	626.06
417.828	638.06
418.051	638.06
418.274	647.06
418.497	648.06
418.72	654.06
418.943	647.06
419.166	694.06
419.389	747.06
419.611	726.06
419.834	696.06
420.057	663.06
420.28	636.06
420.503	621.06
420.726	622.06
420.948	646.06
421.171	629.06
421.394	651.06
421.617	657.06
421.839	664.06
422.062	655.06
422.285	642.06
422.507	668.06
422.73	651.06
422.953	655.06
423.175	667.06
423.398	707.06
423.621	680.06
423.843	703.06
424.066	711.06
424.288	720.06
424.511	687.06
424.733	699.06
424.956	678.06
425.178	660.06
425.401	670.06
425.623	656.06
425.846	613.06
426.068	625.06
426.291	632.06
426.513	610.06
426.735	592.06
426.958	599.06
427.18	586.06
427.402	592.06
427.625	599.06
427.847	584.06
428.069	581.06
428.292	580.06
428.514	590.06
428.736	564.06
428.958	582.06
429.181	571.06
429.403	591.06
429.625	559.06
429.847	569.06
430.069	587.06
430.292	591.06
430.514	555.06
430.736	574.06
430.958	570.06
431.18	589.06
431.402	562.06
431.624	579.06
431.846	579.06
432.068	567.06
432.29	583.06
432.512	558.06
432.734	559.06
432.956	600.06
433.178	591.06
433.4	597.06
433.622	584.06
433.844	596.06
434.066	594.06
434.287	590.06
434.509	621.06
434.731	651.06
434.953	664.06
435.175	660.06
435.397	666.06
435.618	604.06
435.84	624.06
436.062	588.06
436.284	578.06
436.505	588.06
436.727	593.06
436.949	576.06
437.17	594.06
437.392	590.06
437.614	587.06
437.835	567.06
438.057	558.06
438.278	568.06
438.5	575.06
438.721	573.06
438.943	600.06
439.165	555.06
439.386	578.06
439.608	574.06
439.829	586.06
440.05	573.06
440.272	586.06
440.493	602.06
440.715	612.06
440.936	609.06
441.158	630.06
441.379	642.06
441.6	663.06
441.822	674.06
442.043	694.06
442.264	634.06
442.486	639.06
442.707	641.06
442.928	628.06
443.149	670.06
443.371	665.06
443.592	644.06
443.813	653.06
444.034	669.06
444.255	709.06
444.476	724.06
444.698	763.06
444.919	797.06
445.14	886.06
445.361	775.06
445.582	671.06
445.803	648.06
446.024	631.06
446.245	600.06
446.466	624.06
446.687	593.06
446.908	587.06
447.129	594.06
447.35	581.06
447.571	582.06
447.792	565.06
448.013	565.06
448.234	535.06
448.455	555.06
448.675	557.06
448.896	571.06
449.117	550.06
449.338	542.06
449.559	568.06
449.779	556.06
450	536.06
450.221	553.06
450.442	532.06
450.662	553.06
450.883	555.06
451.104	582.06
451.324	581.06
451.545	574.06
451.766	575.06
451.986	566.06
452.207	586.06
452.428	580.06
452.648	557.06
452.869	538.06
453.089	535.06
453.31	557.06
453.53	552.06
453.751	534.06
453.971	538.06
454.192	524.06
454.412	511.06
454.633	520.06
454.853	517.06
455.073	495.06
455.294	540.06
455.514	510.06
455.734	518.06
455.955	503.06
456.175	484.06
456.395	514.06
456.616	519.06
456.836	527.06
457.056	532.06
457.276	500.06
457.497	492.06
457.717	493.06
457.937	510.06
458.157	518.06
458.377	517.06
458.598	529.06
458.818	541.06
459.038	563.06
459.258	552.06
459.478	570.06
459.698	605.06
459.918	612.06
460.138	650.06
460.358	686.06
460.578	684.06
460.798	675.06
461.018	714.06
461.238	682.06
461.458	673.06
461.678	677.06
461.898	710.06
462.118	694.06
462.338	742.06
462.558	752.06
462.777	777.06
462.997	845.06
463.217	922.06
463.437	942.06
463.657	848.06
463.876	825.06
464.096	806.06
464.316	823.06
464.536	830.06
464.755	798.06
464.975	765.06
465.195	707.06
465.414	667.06
465.634	632.06
465.854	619.06
466.073	606.06
466.293	598.06
466.512	591.06
466.732	581.06
466.951	591.06
467.171	570.06
467.391	593.06
467.61	578.06
467.829	571.06
468.049	582.06
468.268	556.06
468.488	570.06
468.707	558.06
468.927	542.06
469.146	552.06
469.365	540.06
469.585	563.06
469.804	572.06
470.023	584.06
470.243	576.06
470.462	615.06
470.681	610.06
470.901	607.06
471.12	591.06
471.339	565.06
471.558	563.06
471.777	539.06
471.997	543.06
472.216	534.06
472.435	534.06
472.654	523.06
472.873	531.06
473.092	523.06
473.311	518.06
473.53	514.06
473.749	516.06
473.968	536.06
474.187	526.06
474.406	534.06
474.625	523.06
474.844	524.06
475.063	539.06
475.282	555.06
475.501	537.06
475.72	542.06
475.939	554.06
476.158	573.06
476.377	573.06
476.596	568.06
476.814	547.06
477.033	539.06
477.252	543.06
477.471	575.06
477.69	604.06
477.908	608.06
478.127	628.06
478.346	600.06
478.564	634.06
478.783	668.06
479.002	671.06
479.22	659.06
479.439	633.06
479.658	661.06
479.876	658.06
480.095	675.06
480.313	671.06
480.532	718.06
480.751	699.06
480.969	682.06
481.188	634.06
481.406	662.06
481.624	600.06
481.843	603.06
482.061	592.06
482.28	586.06
482.498	619.06
482.717	584.06
482.935	618.06
483.153	611.06
483.372	589.06
483.59	606.06
483.808	609.06
484.027	591.06
484.245	614.06
484.463	616.06
484.681	611.06
484.9	606.06
485.118	632.06
485.336	626.06
485.554	615.06
485.772	642.06
485.99	631.06
486.209	657.06
486.427	639.06
486.645	644.06
486.863	621.06
487.081	637.06
487.299	627.06
487.517	622.06
487.735	612.06
487.953	638.06
488.171	650.06
488.389	629.06
488.607	624.06
488.825	635.06
489.043	623.06
489.261	628.06
489.479	607.06
489.696	630.06
489.914	630.06
490.132	597.06
490.35	610.06
490.568	639.06
490.786	648.06
491.003	641.06
491.221	660.06
491.439	622.06
491.657	656.06
491.874	638.06
492.092	638.06
492.31	659.06
492.527	644.06
492.745	649.06
492.963	668.06
493.18	649.06
493.398	645.06
493.615	673.06
493.833	663.06
494.05	699.06
494.268	649.06
494.485	657.06
494.703	646.06
494.92	672.06
495.138	660.06
495.355	663.06
495.573	681.06
495.79	675.06
496.008	665.06
496.225	676.06
496.442	700.06
496.66	688.06
496.877	688.06
497.094	695.06
497.312	728.06
497.529	752.06
497.746	775.06
497.963	747.06
498.181	800.06
498.398	848.06
498.615	880.06
498.832	924.06
499.049	986.06
499.267	1083.06
499.484	1168.06
499.701	1318.06
499.918	1437.06
500.135	1682.06
500.352	1929.06
500.569	2005.06
500.786	2036.06
501.003	1839.06
501.22	1586.06
501.437	1412.06
501.654	1229.06
501.871	1122.06
502.088	1044.06
502.305	981.06
502.522	897.06
502.739	892.06
502.956	855.06
503.172	792.06
503.389	763.06
503.606	760.06
503.823	754.06
504.04	737.06
504.256	764.06
504.473	756.06
504.69	799.06
504.907	780.06
505.123	703.06
505.34	672.06
505.557	667.06
505.773	640.06
505.99	636.06
506.207	616.06
506.423	628.06
506.64	602.06
506.856	606.06
507.073	586.06
507.289	608.06
507.506	586.06
507.722	598.06
507.939	596.06
508.155	601.06
508.372	578.06
508.588	587.06
508.805	580.06
509.021	558.06
509.238	555.06
509.454	575.06
509.67	551.06
509.887	551.06
510.103	554.06
510.319	550.06
510.536	528.06
510.752	548.06
510.968	536.06
511.184	541.06
511.401	538.06
511.617	549.06
511.833	564.06
512.049	542.06
512.265	529.06
512.481	538.06
512.698	523.06
512.914	538.06
513.13	541.06
513.346	557.06
513.562	542.06
513.778	540.06
513.994	548.06
514.21	549.06
514.426	548.06
514.642	555.06
514.858	550.06
515.074	564.06
515.29	556.06
515.506	568.06
515.721	579.06
515.937	578.06
516.153	563.06
516.369	588.06
516.585	580.06
516.801	642.06
517.016	674.06
517.232	684.06
517.448	763.06
517.664	757.06
517.879	740.06
518.095	740.06
518.311	770.06
518.527	702.06
518.742	680.06
518.958	644.06
519.173	621.06
519.389	625.06
519.605	602.06
519.82	595.06
520.036	572.06
520.251	580.06
520.467	554.06
520.682	560.06
520.898	560.06
521.113	536.06
521.329	535.06
521.544	515.06
521.76	542.06
521.975	527.06
522.19	519.06
522.406	539.06
522.621	528.06
522.836	518.06
523.052	511.06
523.267	530.06
523.482	524.06
523.698	516.06
523.913	514.06
524.128	501.06
524.343	509.06
524.559	528.06
524.774	524.06
524.989	503.06
525.204	497.06
525.419	491.06
525.634	489.06
525.849	494.06
526.064	487.06
526.28	501.06
526.495	508.06
526.71	478.06
526.925	489.06
527.14	496.06
527.355	482.06
527.57	493.06
527.785	498.06
527.999	485.06
528.214	478.06
528.429	495.06
528.644	496.06
528.859	501.06
529.074	500.06
529.289	501.06
529.503	494.06
529.718	518.06
529.933	514.06
530.148	505.06
530.363	499.06
530.577	490.06
530.792	489.06
531.007	499.06
531.221	501.06
531.436	499.06
531.651	512.06
531.865	504.06
532.08	488.06
532.295	511.06
532.509	477.06
532.724	523.06
532.938	499.06
533.153	509.06
533.367	494.06
533.582	487.06
533.796	494.06
534.011	479.06
534.225	488.06
534.44	469.06
534.654	491.06
534.868	501.06
535.083	499.06
535.297	490.06
535.511	470.06
535.726	474.06
535.94	479.06
536.154	482.06
536.369	472.06
536.583	453.06
536.797	446.06
537.011	463.06
537.225	467.06
537.44	446.06
537.654	459.06
537.868	462.06
538.082	466.06
538.296	467.06
538.51	460.06
538.724	474.06
538.938	469.06
539.153	470.06
539.367	443.06
539.581	446.06
539.795	453.06
540.009	442.06
540.222	463.06
540.436	448.06
540.65	459.06
540.864	442.06
541.078	465.06
541.292	466.06
541.506	457.06
541.72	470.06
541.934	469.06
542.147	473.06
542.361	467.06
542.575	461.06
542.789	454.06
543.002	412.06
543.216	443.06
543.43	431.06
543.644	442.06
543.857	438.06
544.071	444.06
544.285	444.06
544.498	470.06
544.712	443.06
544.925	464.06
545.139	467.06
545.352	448.06
545.566	465.06
545.779	461.06
545.993	463.06
546.206	462.06
546.42	452.06
546.633	466.06
546.847	453.06
547.06	455.06
547.274	467.06
547.487	449.06
547.7	478.06
547.914	448.06
548.127	450.06
548.34	479.06
548.554	465.06
548.767	462.06
548.98	452.06
549.193	475.06
549.407	468.06
549.62	482.06
549.833	496.06
550.046	466.06
550.259	475.06
550.473	454.06
550.686	471.06
550.899	460.06
551.112	438.06
551.325	477.06
551.538	455.06
551.751	450.06
551.964	449.06
552.177	454.06
552.39	465.06
552.603	477.06
552.816	487.06
553.029	487.06
553.242	499.06
553.455	530.06
553.667	522.06
553.88	519.06
554.093	487.06
554.306	470.06
554.519	455.06
554.732	475.06
554.944	474.06
555.157	430.06
555.37	458.06
555.583	427.06
555.795	435.06
556.008	419.06
556.221	410.06
556.433	423.06
556.646	400.06
556.859	422.06
557.071	404.06
557.284	403.06
557.496	405.06
557.709	407.06
557.921	403.06
558.134	401.06
558.346	387.06
558.559	394.06
558.771	418.06
558.984	385.06
559.196	408.06
559.409	395.06
559.621	386.06
559.833	381.06
560.046	367.06
560.258	374.06
560.47	402.06
560.683	380.06
560.895	390.06
561.107	399.06
561.32	386.06
561.532	379.06
561.744	396.06
561.956	386.06
562.168	390.06
562.381	384.06
562.593	414.06
562.805	387.06
563.017	397.06
563.229	389.06
563.441	393.06
563.653	390.06
563.865	377.06
564.077	384.06
564.289	399.06
564.501	385.06
564.713	412.06
564.925	408.06
565.137	423.06
565.349	415.06
565.561	441.06
565.773	457.06
565.985	481.06
566.197	501.06
566.408	532.06
566.62	587.06
566.832	615.06
567.044	611.06
567.255	615.06
567.467	642.06
567.679	661.06
567.891	719.06
568.102	751.06
568.314	718.06
568.526	621.06
568.737	573.06
568.949	525.06
569.161	454.06
569.372	453.06
569.584	428.06
569.795	410.06
570.007	420.06
570.218	404.06
570.43	395.06
570.641	398.06
570.853	381.06
571.064	397.06
571.276	411.06
571.487	383.06
571.698	371.06
571.91	368.06
572.121	372.06
572.333	365.06
572.544	346.06
572.755	349.06
572.966	351.06
573.178	335.06
573.389	348.06
573.6	332.06
573.811	347.06
574.023	315.06
574.234	317.06
574.445	326.06
574.656	314.06
574.867	334.06
575.078	313.06
575.289	319.06
575.501	320.06
575.712	320.06
575.923	320.06
576.134	319.06
576.345	321.06
576.556	312.06
576.767	289.06
576.978	303.06
577.188	324.06
577.399	302.06
577.61	294.06
577.821	294.06
578.032	285.06
578.243	291.06
578.454	308.06
578.665	309.06
578.875	298.06
579.086	277.06
579.297	276.06
579.508	293.06
579.718	289.06
579.929	284.06
580.14	319.06
580.35	280.06
580.561	282.06
580.772	279.06
580.982	300.06
581.193	295.06
581.403	293.06
581.614	290.06
581.825	286.06
582.035	278.06
582.246	284.06
582.456	290.06
582.667	287.06
582.877	298.06
583.087	264.06
583.298	272.06
583.508	267.06
583.719	281.06
583.929	271.06
584.139	282.06
584.35	278.06
584.56	267.06
584.77	273.06
584.981	273.06
585.191	283.06
585.401	280.06
585.611	284.06
585.821	272.06
586.032	268.06
586.242	291.06
586.452	276.06
586.662	259.06
586.872	268.06
587.082	256.06
587.292	279.06
587.502	266.06
587.713	271.06
587.923	283.06
588.133	262.06
588.343	266.06
588.553	252.06
588.762	268.06
588.972	267.06
589.182	277.06
589.392	260.06
589.602	248.06
589.812	273.06
590.022	266.06
590.232	251.06
590.441	272.06
590.651	258.06
590.861	259.06
591.071	278.06
591.281	272.06
591.49	269.06
591.7	267.06
591.91	289.06
592.119	298.06
592.329	293.06
592.539	299.06
592.748	311.06
592.958	316.06
593.167	324.06
593.377	336.06
593.587	340.06
593.796	331.06
594.006	333.06
594.215	346.06
594.424	339.06
594.634	323.06
594.843	315.06
595.053	298.06
595.262	300.06
595.472	308.06
595.681	280.06
595.89	260.06
596.1	276.06
596.309	271.06
596.518	252.06
596.727	268.06
596.937	263.06
597.146	246.06
597.355	271.06
597.564	223.06
597.774	230.06
597.983	245.06
598.192	238.06
598.401	249.06
598.61	249.06
598.819	228.06
599.028	246.06
599.237	239.06
599.446	237.06
599.655	235.06
599.864	246.06
600.073	217.06
600.282	221.06
600.491	223.06
600.7	223.06
600.909	209.06
601.118	220.06
601.327	234.06
601.536	216.06
601.745	224.06
601.953	228.06
602.162	216.06
602.371	214.06
602.58	234.06
602.789	229.06
602.997	234.06
603.206	227.06
603.415	242.06
603.623	202.06
603.832	228.06
604.041	213.06
604.249	218.06
604.458	215.06
604.666	217.06
604.875	211.06
605.084	212.06
605.292	226.06
605.501	213.06
605.709	226.06
605.918	218.06
606.126	231.06
606.334	218.06
606.543	218.06
606.751	213.06
606.96	217.06
607.168	199.06
607.376	202.06
607.585	212.06
607.793	210.06
608.001	223.06
608.21	208.06
608.418	208.06
608.626	191.06
608.834	207.06
609.043	193.06
609.251	210.06
609.459	212.06
609.667	211.06
609.875	199.06
610.083	215.06
610.291	213.06
610.499	218.06
610.707	214.06
610.916	214.06
611.124	191.06
611.332	202.06
611.54	202.06
611.748	198.06
611.955	205.06
612.163	208.06
612.371	204.06
612.579	202.06
612.787	208.06
612.995	200.06
613.203	228.06
613.411	214.06
613.618	218.06
613.826	205.06
614.034	196.06
614.242	186.06
614.449	200.06
614.657	215.06
614.865	215.06
615.072	207.06
615.28	208.06
615.488	222.06
615.695	196.06
615.903	195.06
616.111	200.06
616.318	208.06
616.526	210.06
616.733	215.06
616.941	208.06
617.148	186.06
617.356	197.06
617.563	197.06
617.771	227.06
617.978	208.06
618.185	205.06
618.393	236.06
618.6	213.06
618.807	211.06
619.015	199.06
619.222	192.06
619.429	205.06
619.637	201.06
619.844	207.06
620.051	204.06
620.258	205.06
620.466	181.06
620.673	194.06
620.88	206.06
621.087	206.06
621.294	183.06
621.501	187.06
621.708	194.06
621.915	196.06
622.122	186.06
622.329	176.06
622.536	205.06
622.743	182.06
622.95	174.06
623.157	194.06
623.364	198.06
623.571	190.06
623.778	194.06
623.985	179.06
624.192	201.06
624.399	182.06
624.606	164.06
624.812	174.06
625.019	179.06
625.226	180.06
625.433	188.06
625.639	182.06
625.846	174.06
626.053	180.06
626.259	190.06
626.466	185.06
626.673	159.06
626.879	176.06
627.086	182.06
627.293	172.06
627.499	171.06
627.706	172.06
627.912	193.06
628.119	182.06
628.325	182.06
628.532	166.06
628.738	170.06
628.945	178.06
629.151	178.06
629.357	179.06
629.564	179.06
629.77	179.06
629.976	161.06
630.183	159.06
630.389	163.06
630.595	157.06
630.802	167.06
631.008	154.06
631.214	167.06
631.42	179.06
631.627	179.06
631.833	154.06
632.039	156.06
632.245	165.06
632.451	158.06
632.657	160.06
632.863	153.06
633.069	156.06
633.275	162.06
633.481	167.06
633.688	181.06
633.893	170.06
634.099	168.06
634.305	154.06
634.511	141.06
634.717	153.06
634.923	146.06
635.129	162.06
635.335	174.06
635.541	164.06
635.747	154.06
635.952	151.06
636.158	155.06
636.364	171.06
636.57	157.06
636.775	159.06
636.981	153.06
637.187	170.06
637.392	152.06
637.598	151.06
637.804	167.06
638.009	154.06
638.215	158.06
638.421	157.06
638.626	158.06
638.832	152.06
639.037	155.06
639.243	152.06
639.448	158.06
639.654	148.06
639.859	138.06
640.065	132.06
640.27	152.06
640.475	156.06
640.681	145.06
640.886	140.06
641.091	136.06
641.297	143.06
641.502	154.06
641.707	144.06
641.913	139.06
642.118	158.06
642.323	137.06
642.528	163.06
642.733	145.06
642.939	151.06
643.144	133.06
643.349	148.06
643.554	161.06
643.759	148.06
643.964	148.06
644.169	142.06
644.374	156.06
644.579	146.06
644.784	144.06
644.989	152.06
645.194	136.06
645.399	156.06
645.604	139.06
645.809	153.06
646.014	141.06
646.219	150.06
646.423	154.06
646.628	139.06
646.833	162.06
647.038	147.06
647.243	154.06
647.447	137.06
647.652	153.06
647.857	158.06
648.062	167.06
648.266	146.06
648.471	156.06
648.676	147.06
648.88	140.06
649.085	148.06
649.289	149.06
649.494	134.06
649.698	151.06
649.903	139.06
650.107	144.06
650.312	142.06
650.516	138.06
650.721	147.06
650.925	136.06
651.13	126.06
651.334	126.06
651.539	123.06
651.743	130.06
651.947	118.06
652.152	131.06
652.356	146.06
652.56	136.06
652.764	145.06
652.969	132.06
653.173	119.06
653.377	133.06
653.581	113.06
653.785	104.06
653.99	130.06
654.194	118.06
654.398	114.06
654.602	114.06
654.806	97.06
655.01	118.06
655.214	114.06
655.418	125.06
655.622	115.06
655.826	134.06
656.03	112.06
656.234	121.06
656.438	105.06
656.642	126.06
656.846	97.06
657.049	109.06
657.253	103.06
657.457	109.06
657.661	111.06
657.865	103.06
658.068	101.06
658.272	93.06
658.476	94.06
658.68	93.06
658.883	100.06
659.087	100.06
659.291	89.06
659.494	93.06
659.698	90.06
659.901	99.06
660.105	88.06
660.309	88.06
660.512	83.06
660.716	94.06
660.919	87.06
661.123	87.06
661.326	86.06
661.53	107.06
661.733	95.06
661.936	88.06
662.14	75.06
662.343	99.06
662.546	85.06
662.75	63.06
662.953	69.06
663.156	68.06
663.36	89.06
663.563	82.06
663.766	79.06
663.969	82.06
664.173	84.06
664.376	84.06
664.579	74.06
664.782	86.06
664.985	70.06
665.188	84.06
665.391	95.06
665.594	87.06
665.797	78.06
666	90.06
666.203	78.06
666.406	68.06
666.609	83.06
666.812	91.06
667.015	89.06
667.218	85.06
667.421	90.06
667.624	80.06
667.827	90.06
668.03	74.06
668.232	79.06
668.435	84.06
668.638	91.06
668.841	90.06
669.043	81.06
669.246	74.06
669.449	84.06
669.651	92.06
669.854	88.06
670.057	77.06
670.259	87.06
670.462	71.06
670.665	74.06
670.867	74.06
671.07	76.06
671.272	86.06
671.475	90.06
671.677	79.06
671.88	94.06
672.082	100.06
672.284	77.06
672.487	82.06
672.689	84.06
672.892	72.06
