Data from Ni(NO3)2@0.125M.TitratingCurve.Agarose3%dH2O.NegLispCup.LampEnergy10.LIBS07252019_HRD10591_18-09-15-567.txt Node
Date: Thu Jul 25 18:09:15 EDT 2019
User: cochatt
Spectrometer: HR+D1059
Trigger mode: 1
Integration Time (sec): 1.000000E-1
Scans to average: 1
Electric dark correction enabled: true
Nonlinearity correction enabled: false
Boxcar width: 0
XAxis mode: Wavelengths
Number of Pixels in Spectrum: 2048
>>>>>Begin Spectral Data<<<<<
223.165	-14.75
223.4	-14.75
223.635	-14.75
223.869	-4.75
224.104	-29.75
224.338	-26.75
224.573	-16.75
224.808	-9.75
225.042	-9.75
225.277	-7.75
225.511	-10.75
225.746	13.25
225.98	30.25
226.215	13.25
226.449	5.25
226.683	16.25
226.918	31.25
227.152	21.25
227.387	33.25
227.621	27.25
227.856	43.25
228.09	33.25
228.324	39.25
228.559	41.25
228.793	68.25
229.027	104.25
229.262	107.25
229.496	94.25
229.73	109.25
229.964	119.25
230.199	114.25
230.433	119.25
230.667	115.25
230.901	110.25
231.136	123.25
231.37	121.25
231.604	128.25
231.838	125.25
232.072	127.25
232.306	147.25
232.541	122.25
232.775	121.25
233.009	119.25
233.243	129.25
233.477	142.25
233.711	143.25
233.945	129.25
234.179	129.25
234.413	133.25
234.647	138.25
234.881	129.25
235.115	130.25
235.349	149.25
235.583	138.25
235.817	128.25
236.051	125.25
236.285	136.25
236.519	143.25
236.753	131.25
236.987	138.25
237.221	135.25
237.455	150.25
237.689	142.25
237.922	162.25
238.156	139.25
238.39	137.25
238.624	152.25
238.858	157.25
239.091	159.25
239.325	148.25
239.559	154.25
239.793	157.25
240.027	151.25
240.26	153.25
240.494	161.25
240.728	143.25
240.961	156.25
241.195	162.25
241.429	183.25
241.662	155.25
241.896	170.25
242.13	161.25
242.363	173.25
242.597	163.25
242.83	171.25
243.064	171.25
243.298	176.25
243.531	173.25
243.765	170.25
243.998	182.25
244.232	187.25
244.465	171.25
244.699	191.25
244.932	200.25
245.166	196.25
245.399	175.25
245.633	207.25
245.866	199.25
246.099	211.25
246.333	198.25
246.566	202.25
246.8	177.25
247.033	200.25
247.266	225.25
247.5	205.25
247.733	203.25
247.966	201.25
248.2	204.25
248.433	190.25
248.666	216.25
248.899	212.25
249.133	197.25
249.366	220.25
249.599	213.25
249.832	241.25
250.066	245.25
250.299	215.25
250.532	220.25
250.765	231.25
250.998	204.25
251.231	213.25
251.465	232.25
251.698	252.25
251.931	232.25
252.164	240.25
252.397	241.25
252.63	233.25
252.863	235.25
253.096	225.25
253.329	253.25
253.562	241.25
253.795	239.25
254.028	259.25
254.261	248.25
254.494	256.25
254.727	213.25
254.96	227.25
255.193	251.25
255.426	248.25
255.659	261.25
255.892	267.25
256.124	262.25
256.357	259.25
256.59	240.25
256.823	258.25
257.056	255.25
257.289	261.25
257.521	256.25
257.754	254.25
257.987	273.25
258.22	249.25
258.452	260.25
258.685	273.25
258.918	268.25
259.151	271.25
259.383	261.25
259.616	263.25
259.849	287.25
260.081	263.25
260.314	262.25
260.547	278.25
260.779	270.25
261.012	279.25
261.244	280.25
261.477	280.25
261.71	276.25
261.942	277.25
262.175	286.25
262.407	298.25
262.64	280.25
262.872	297.25
263.105	277.25
263.337	289.25
263.57	290.25
263.802	288.25
264.035	293.25
264.267	303.25
264.499	307.25
264.732	317.25
264.964	296.25
265.197	297.25
265.429	307.25
265.661	313.25
265.894	296.25
266.126	329.25
266.358	315.25
266.591	321.25
266.823	324.25
267.055	317.25
267.287	305.25
267.52	317.25
267.752	330.25
267.984	313.25
268.216	325.25
268.448	336.25
268.681	324.25
268.913	327.25
269.145	314.25
269.377	329.25
269.609	329.25
269.841	316.25
270.073	309.25
270.306	338.25
270.538	337.25
270.77	346.25
271.002	314.25
271.234	336.25
271.466	334.25
271.698	358.25
271.93	311.25
272.162	336.25
272.394	352.25
272.626	323.25
272.858	336.25
273.09	344.25
273.322	368.25
273.553	315.25
273.785	332.25
274.017	342.25
274.249	337.25
274.481	353.25
274.713	350.25
274.945	346.25
275.176	375.25
275.408	363.25
275.64	365.25
275.872	355.25
276.104	365.25
276.335	373.25
276.567	371.25
276.799	375.25
277.031	361.25
277.262	366.25
277.494	351.25
277.726	381.25
277.957	370.25
278.189	365.25
278.421	403.25
278.652	390.25
278.884	371.25
279.115	397.25
279.347	403.25
279.579	377.25
279.81	361.25
280.042	391.25
280.273	402.25
280.505	397.25
280.736	376.25
280.968	390.25
281.199	406.25
281.431	415.25
281.662	390.25
281.894	402.25
282.125	377.25
282.356	411.25
282.588	431.25
282.819	408.25
283.051	381.25
283.282	419.25
283.513	418.25
283.745	407.25
283.976	429.25
284.207	425.25
284.439	406.25
284.67	405.25
284.901	425.25
285.132	423.25
285.364	414.25
285.595	426.25
285.826	410.25
286.057	408.25
286.288	439.25
286.52	422.25
286.751	417.25
286.982	441.25
287.213	429.25
287.444	429.25
287.675	434.25
287.906	452.25
288.138	442.25
288.369	447.25
288.6	443.25
288.831	441.25
289.062	454.25
289.293	455.25
289.524	422.25
289.755	444.25
289.986	458.25
290.217	431.25
290.448	446.25
290.679	450.25
290.91	452.25
291.141	446.25
291.371	442.25
291.602	464.25
291.833	473.25
292.064	479.25
292.295	461.25
292.526	445.25
292.757	446.25
292.987	448.25
293.218	445.25
293.449	470.25
293.68	475.25
293.91	469.25
294.141	443.25
294.372	465.25
294.603	456.25
294.833	464.25
295.064	484.25
295.295	450.25
295.525	464.25
295.756	472.25
295.987	461.25
296.217	465.25
296.448	467.25
296.679	478.25
296.909	468.25
297.14	469.25
297.37	496.25
297.601	505.25
297.831	478.25
298.062	495.25
298.292	519.25
298.523	509.25
298.753	507.25
298.984	495.25
299.214	502.25
299.445	494.25
299.675	491.25
299.905	513.25
300.136	481.25
300.366	491.25
300.597	515.25
300.827	523.25
301.057	537.25
301.288	529.25
301.518	538.25
301.748	536.25
301.979	525.25
302.209	525.25
302.439	527.25
302.669	523.25
302.9	522.25
303.13	529.25
303.36	507.25
303.59	513.25
303.82	519.25
304.051	516.25
304.281	502.25
304.511	522.25
304.741	517.25
304.971	531.25
305.201	514.25
305.431	522.25
305.661	523.25
305.891	497.25
306.121	511.25
306.352	487.25
306.582	496.25
306.812	507.25
307.042	511.25
307.272	522.25
307.502	498.25
307.731	520.25
307.961	539.25
308.191	501.25
308.421	515.25
308.651	523.25
308.881	505.25
309.111	497.25
309.341	489.25
309.571	488.25
309.8	513.25
310.03	515.25
310.26	509.25
310.49	504.25
310.72	514.25
310.949	521.25
311.179	487.25
311.409	543.25
311.639	510.25
311.868	511.25
312.098	534.25
312.328	525.25
312.557	553.25
312.787	529.25
313.017	553.25
313.246	542.25
313.476	542.25
313.706	551.25
313.935	554.25
314.165	572.25
314.394	541.25
314.624	545.25
314.853	533.25
315.083	535.25
315.312	554.25
315.542	569.25
315.771	559.25
316.001	541.25
316.23	539.25
316.46	565.25
316.689	539.25
316.919	533.25
317.148	526.25
317.377	530.25
317.607	537.25
317.836	520.25
318.065	558.25
318.295	546.25
318.524	516.25
318.753	523.25
318.983	548.25
319.212	555.25
319.441	545.25
319.67	549.25
319.9	535.25
320.129	530.25
320.358	552.25
320.587	538.25
320.816	511.25
321.046	544.25
321.275	552.25
321.504	549.25
321.733	533.25
321.962	534.25
322.191	555.25
322.42	551.25
322.649	542.25
322.878	512.25
323.108	553.25
323.337	549.25
323.566	562.25
323.795	559.25
324.024	572.25
324.253	571.25
324.482	585.25
324.71	569.25
324.939	547.25
325.168	570.25
325.397	554.25
325.626	576.25
325.855	587.25
326.084	593.25
326.313	631.25
326.542	591.25
326.77	586.25
326.999	599.25
327.228	603.25
327.457	594.25
327.686	587.25
327.914	602.25
328.143	597.25
328.372	610.25
328.6	590.25
328.829	577.25
329.058	576.25
329.287	610.25
329.515	611.25
329.744	602.25
329.972	608.25
330.201	624.25
330.43	613.25
330.658	632.25
330.887	624.25
331.115	642.25
331.344	634.25
331.572	637.25
331.801	634.25
332.03	665.25
332.258	680.25
332.486	713.25
332.715	722.25
332.943	738.25
333.172	800.25
333.4	827.25
333.629	850.25
333.857	857.25
334.085	825.25
334.314	790.25
334.542	793.25
334.771	758.25
334.999	744.25
335.227	760.25
335.455	767.25
335.684	744.25
335.912	745.25
336.14	754.25
336.369	736.25
336.597	735.25
336.825	730.25
337.053	719.25
337.281	724.25
337.51	678.25
337.738	701.25
337.966	687.25
338.194	683.25
338.422	671.25
338.65	657.25
338.878	663.25
339.106	671.25
339.334	661.25
339.562	655.25
339.79	659.25
340.018	642.25
340.246	623.25
340.474	635.25
340.702	635.25
340.93	643.25
341.158	638.25
341.386	624.25
341.614	645.25
341.842	634.25
342.07	623.25
342.298	606.25
342.526	637.25
342.754	624.25
342.981	619.25
343.209	631.25
343.437	688.25
343.665	732.25
343.893	785.25
344.12	833.25
344.348	737.25
344.576	692.25
344.804	670.25
345.031	650.25
345.259	657.25
345.487	661.25
345.714	627.25
345.942	645.25
346.17	642.25
346.397	612.25
346.625	633.25
346.853	601.25
347.08	603.25
347.308	630.25
347.535	624.25
347.763	644.25
347.99	630.25
348.218	617.25
348.445	618.25
348.673	638.25
348.9	628.25
349.128	613.25
349.355	605.25
349.583	617.25
349.81	613.25
350.037	600.25
350.265	603.25
350.492	581.25
350.72	593.25
350.947	585.25
351.174	590.25
351.402	605.25
351.629	622.25
351.856	588.25
352.083	581.25
352.311	577.25
352.538	583.25
352.765	604.25
352.992	590.25
353.22	578.25
353.447	592.25
353.674	562.25
353.901	591.25
354.128	607.25
354.355	558.25
354.583	591.25
354.81	578.25
355.037	615.25
355.264	583.25
355.491	603.25
355.718	592.25
355.945	584.25
356.172	605.25
356.399	612.25
356.626	594.25
356.853	603.25
357.08	603.25
357.307	607.25
357.534	591.25
357.761	614.25
357.988	594.25
358.215	615.25
358.441	600.25
358.668	592.25
358.895	573.25
359.122	586.25
359.349	578.25
359.576	606.25
359.802	601.25
360.029	598.25
360.256	579.25
360.483	610.25
360.709	595.25
360.936	596.25
361.163	596.25
361.39	587.25
361.616	583.25
361.843	597.25
362.07	578.25
362.296	603.25
362.523	567.25
362.749	602.25
362.976	569.25
363.203	600.25
363.429	591.25
363.656	591.25
363.882	586.25
364.109	603.25
364.335	599.25
364.562	606.25
364.788	610.25
365.015	592.25
365.241	557.25
365.468	586.25
365.694	579.25
365.92	561.25
366.147	606.25
366.373	594.25
366.599	598.25
366.826	566.25
367.052	597.25
367.278	604.25
367.505	594.25
367.731	595.25
367.957	578.25
368.184	569.25
368.41	610.25
368.636	592.25
368.862	608.25
369.089	632.25
369.315	606.25
369.541	606.25
369.767	609.25
369.993	615.25
370.219	589.25
370.445	622.25
370.672	641.25
370.898	634.25
371.124	646.25
371.35	639.25
371.576	643.25
371.802	637.25
372.028	656.25
372.254	625.25
372.48	658.25
372.706	653.25
372.932	640.25
373.158	666.25
373.384	635.25
373.61	654.25
373.835	651.25
374.061	645.25
374.287	638.25
374.513	652.25
374.739	685.25
374.965	713.25
375.191	736.25
375.416	699.25
375.642	685.25
375.868	705.25
376.094	675.25
376.319	663.25
376.545	651.25
376.771	675.25
376.997	629.25
377.222	635.25
377.448	633.25
377.674	663.25
377.899	619.25
378.125	639.25
378.35	639.25
378.576	633.25
378.802	628.25
379.027	618.25
379.253	647.25
379.478	632.25
379.704	634.25
379.929	647.25
380.155	610.25
380.38	644.25
380.606	621.25
380.831	639.25
381.057	670.25
381.282	643.25
381.507	656.25
381.733	667.25
381.958	667.25
382.184	667.25
382.409	664.25
382.634	689.25
382.86	664.25
383.085	700.25
383.31	695.25
383.535	696.25
383.761	713.25
383.986	698.25
384.211	734.25
384.436	775.25
384.662	759.25
384.887	766.25
385.112	812.25
385.337	778.25
385.562	773.25
385.787	772.25
386.013	811.25
386.238	771.25
386.463	797.25
386.688	776.25
386.913	785.25
387.138	745.25
387.363	728.25
387.588	758.25
387.813	764.25
388.038	731.25
388.263	755.25
388.488	750.25
388.713	757.25
388.938	761.25
389.163	758.25
389.387	768.25
389.612	739.25
389.837	769.25
390.062	741.25
390.287	725.25
390.512	757.25
390.736	767.25
390.961	782.25
391.186	770.25
391.411	810.25
391.636	817.25
391.86	843.25
392.085	881.25
392.31	891.25
392.534	854.25
392.759	825.25
392.984	807.25
393.208	804.25
393.433	789.25
393.658	812.25
393.882	817.25
394.107	842.25
394.331	828.25
394.556	838.25
394.78	840.25
395.005	825.25
395.229	846.25
395.454	876.25
395.678	859.25
395.903	878.25
396.127	845.25
396.352	811.25
396.576	798.25
396.801	796.25
397.025	805.25
397.249	846.25
397.474	844.25
397.698	860.25
397.922	834.25
398.147	855.25
398.371	903.25
398.595	891.25
398.82	946.25
399.044	1009.25
399.268	1114.25
399.492	1323.25
399.717	1525.25
399.941	1498.25
400.165	1301.25
400.389	1161.25
400.613	1054.25
400.837	1025.25
401.062	974.25
401.286	955.25
401.51	963.25
401.734	975.25
401.958	958.25
402.182	961.25
402.406	1019.25
402.63	1012.25
402.854	1019.25
403.078	1045.25
403.302	1058.25
403.526	1091.25
403.75	1135.25
403.974	1146.25
404.198	1143.25
404.422	1162.25
404.645	1106.25
404.869	1109.25
405.093	1129.25
405.317	1069.25
405.541	1090.25
405.765	1050.25
405.988	1069.25
406.212	1049.25
406.436	1052.25
406.66	1113.25
406.883	1119.25
407.107	1168.25
407.331	1258.25
407.555	1283.25
407.778	1256.25
408.002	1233.25
408.226	1203.25
408.449	1191.25
408.673	1128.25
408.896	1135.25
409.12	1105.25
409.344	1121.25
409.567	1116.25
409.791	1092.25
410.014	1133.25
410.238	1089.25
410.461	1085.25
410.685	1083.25
410.908	1079.25
411.132	1057.25
411.355	992.25
411.578	1009.25
411.802	1011.25
412.025	1007.25
412.249	1024.25
412.472	1036.25
412.695	975.25
412.919	989.25
413.142	979.25
413.365	948.25
413.589	986.25
413.812	936.25
414.035	955.25
414.258	967.25
414.482	961.25
414.705	995.25
414.928	994.25
415.151	991.25
415.374	961.25
415.597	977.25
415.821	926.25
416.044	943.25
416.267	943.25
416.49	921.25
416.713	954.25
416.936	959.25
417.159	930.25
417.382	959.25
417.605	952.25
417.828	955.25
418.051	946.25
418.274	961.25
418.497	973.25
418.72	1013.25
418.943	1014.25
419.166	1081.25
419.389	1079.25
419.611	1109.25
419.834	1059.25
420.057	998.25
420.28	1001.25
420.503	977.25
420.726	960.25
420.948	953.25
421.171	960.25
421.394	963.25
421.617	967.25
421.839	963.25
422.062	989.25
422.285	972.25
422.507	984.25
422.73	1013.25
422.953	1006.25
423.175	1043.25
423.398	1069.25
423.621	1052.25
423.843	1077.25
424.066	1030.25
424.288	1041.25
424.511	1032.25
424.733	1048.25
424.956	977.25
425.178	983.25
425.401	986.25
425.623	969.25
425.846	937.25
426.068	952.25
426.291	929.25
426.513	922.25
426.735	937.25
426.958	897.25
427.18	871.25
427.402	866.25
427.625	913.25
427.847	876.25
428.069	866.25
428.292	880.25
428.514	859.25
428.736	845.25
428.958	861.25
429.181	835.25
429.403	826.25
429.625	868.25
429.847	803.25
430.069	825.25
430.292	850.25
430.514	840.25
430.736	846.25
430.958	847.25
431.18	829.25
431.402	864.25
431.624	855.25
431.846	866.25
432.068	869.25
432.29	890.25
432.512	856.25
432.734	859.25
432.956	865.25
433.178	863.25
433.4	887.25
433.622	889.25
433.844	905.25
434.066	897.25
434.287	882.25
434.509	925.25
434.731	935.25
434.953	979.25
435.175	985.25
435.397	964.25
435.618	950.25
435.84	907.25
436.062	885.25
436.284	866.25
436.505	857.25
436.727	867.25
436.949	836.25
437.17	832.25
437.392	865.25
437.614	868.25
437.835	805.25
438.057	821.25
438.278	822.25
438.5	827.25
438.721	837.25
438.943	857.25
439.165	853.25
439.386	853.25
439.608	872.25
439.829	882.25
440.05	870.25
440.272	881.25
440.493	887.25
440.715	901.25
440.936	924.25
441.158	917.25
441.379	941.25
441.6	970.25
441.822	1006.25
442.043	972.25
442.264	992.25
442.486	939.25
442.707	946.25
442.928	971.25
443.149	953.25
443.371	982.25
443.592	981.25
443.813	988.25
444.034	967.25
444.255	1048.25
444.476	1065.25
444.698	1128.25
444.919	1216.25
445.14	1282.25
445.361	1134.25
445.582	1026.25
445.803	945.25
446.024	913.25
446.245	910.25
446.466	913.25
446.687	872.25
446.908	893.25
447.129	849.25
447.35	852.25
447.571	825.25
447.792	808.25
448.013	851.25
448.234	813.25
448.455	809.25
448.675	788.25
448.896	794.25
449.117	777.25
449.338	779.25
449.559	804.25
449.779	800.25
450	781.25
450.221	796.25
450.442	805.25
450.662	801.25
450.883	835.25
451.104	854.25
451.324	833.25
451.545	808.25
451.766	825.25
451.986	823.25
452.207	793.25
452.428	797.25
452.648	792.25
452.869	805.25
453.089	778.25
453.31	806.25
453.53	784.25
453.751	784.25
453.971	783.25
454.192	778.25
454.412	785.25
454.633	747.25
454.853	767.25
455.073	744.25
455.294	757.25
455.514	749.25
455.734	753.25
455.955	756.25
456.175	753.25
456.395	741.25
456.616	739.25
456.836	732.25
457.056	745.25
457.276	721.25
457.497	729.25
457.717	705.25
457.937	750.25
458.157	737.25
458.377	752.25
458.598	783.25
458.818	798.25
459.038	837.25
459.258	835.25
459.478	874.25
459.698	878.25
459.918	915.25
460.138	946.25
460.358	1040.25
460.578	1027.25
460.798	1053.25
461.018	1035.25
461.238	1028.25
461.458	1008.25
461.678	1046.25
461.898	1047.25
462.118	1044.25
462.338	1110.25
462.558	1114.25
462.777	1154.25
462.997	1266.25
463.217	1418.25
463.437	1427.25
463.657	1269.25
463.876	1179.25
464.096	1187.25
464.316	1234.25
464.536	1217.25
464.755	1181.25
464.975	1121.25
465.195	1086.25
465.414	989.25
465.634	962.25
465.854	906.25
466.073	900.25
466.293	879.25
466.512	855.25
466.732	855.25
466.951	843.25
467.171	843.25
467.391	862.25
467.61	849.25
467.829	843.25
468.049	835.25
468.268	839.25
468.488	788.25
468.707	784.25
468.927	790.25
469.146	841.25
469.365	805.25
469.585	806.25
469.804	847.25
470.023	876.25
470.243	842.25
470.462	855.25
470.681	849.25
470.901	864.25
471.12	865.25
471.339	858.25
471.558	824.25
471.777	836.25
471.997	807.25
472.216	799.25
472.435	789.25
472.654	751.25
472.873	786.25
473.092	766.25
473.311	750.25
473.53	799.25
473.749	754.25
473.968	760.25
474.187	771.25
474.406	763.25
474.625	767.25
474.844	796.25
475.063	754.25
475.282	761.25
475.501	769.25
475.72	781.25
475.939	786.25
476.158	793.25
476.377	798.25
476.596	822.25
476.814	808.25
477.033	822.25
477.252	858.25
477.471	832.25
477.69	862.25
477.908	881.25
478.127	913.25
478.346	934.25
478.564	960.25
478.783	934.25
479.002	991.25
479.22	998.25
479.439	961.25
479.658	946.25
479.876	938.25
480.095	972.25
480.313	1009.25
480.532	1077.25
480.751	1033.25
480.969	1003.25
481.188	949.25
481.406	921.25
481.624	911.25
481.843	903.25
482.061	901.25
482.28	871.25
482.498	883.25
482.717	887.25
482.935	891.25
483.153	882.25
483.372	877.25
483.59	861.25
483.808	887.25
484.027	873.25
484.245	893.25
484.463	893.25
484.681	910.25
484.9	949.25
485.118	939.25
485.336	911.25
485.554	933.25
485.772	908.25
485.99	915.25
486.209	945.25
486.427	940.25
486.645	941.25
486.863	941.25
487.081	925.25
487.299	956.25
487.517	953.25
487.735	943.25
487.953	930.25
488.171	929.25
488.389	945.25
488.607	915.25
488.825	927.25
489.043	896.25
489.261	913.25
489.479	929.25
489.696	915.25
489.914	931.25
490.132	930.25
490.35	923.25
490.568	941.25
490.786	930.25
491.003	924.25
491.221	961.25
491.439	937.25
491.657	919.25
491.874	969.25
492.092	945.25
492.31	987.25
492.527	952.25
492.745	937.25
492.963	970.25
493.18	953.25
493.398	972.25
493.615	1001.25
493.833	980.25
494.05	967.25
494.268	983.25
494.485	969.25
494.703	990.25
494.92	992.25
495.138	1011.25
495.355	976.25
495.573	987.25
495.79	985.25
496.008	958.25
496.225	1005.25
496.442	1001.25
496.66	1019.25
496.877	1026.25
497.094	1059.25
497.312	1046.25
497.529	1089.25
497.746	1109.25
497.963	1153.25
498.181	1185.25
498.398	1241.25
498.615	1313.25
498.832	1385.25
499.049	1498.25
499.267	1649.25
499.484	1866.25
499.701	2006.25
499.918	2236.25
500.135	2623.25
500.352	2987.25
500.569	3160.25
500.786	3140.25
501.003	2906.25
501.22	2541.25
501.437	2199.25
501.654	1868.25
501.871	1707.25
502.088	1605.25
502.305	1493.25
502.522	1375.25
502.739	1334.25
502.956	1283.25
503.172	1218.25
503.389	1144.25
503.606	1151.25
503.823	1147.25
504.04	1089.25
504.256	1108.25
504.473	1167.25
504.69	1201.25
504.907	1159.25
505.123	1087.25
505.34	993.25
505.557	968.25
505.773	941.25
505.99	941.25
506.207	910.25
506.423	907.25
506.64	905.25
506.856	910.25
507.073	878.25
507.289	871.25
507.506	858.25
507.722	865.25
507.939	852.25
508.155	847.25
508.372	827.25
508.588	844.25
508.805	847.25
509.021	826.25
509.238	806.25
509.454	807.25
509.67	818.25
509.887	797.25
510.103	822.25
510.319	810.25
510.536	800.25
510.752	766.25
510.968	795.25
511.184	781.25
511.401	782.25
511.617	794.25
511.833	811.25
512.049	772.25
512.265	780.25
512.481	806.25
512.698	758.25
512.914	783.25
513.13	798.25
513.346	790.25
513.562	782.25
513.778	778.25
513.994	771.25
514.21	799.25
514.426	807.25
514.642	804.25
514.858	825.25
515.074	818.25
515.29	829.25
515.506	817.25
515.721	837.25
515.937	831.25
516.153	857.25
516.369	901.25
516.585	903.25
516.801	958.25
517.016	990.25
517.232	1053.25
517.448	1084.25
517.664	1120.25
517.879	1150.25
518.095	1158.25
518.311	1115.25
518.527	1060.25
518.742	1000.25
518.958	980.25
519.173	937.25
519.389	896.25
519.605	870.25
519.82	806.25
520.036	823.25
520.251	806.25
520.467	806.25
520.682	811.25
520.898	780.25
521.113	762.25
521.329	789.25
521.544	770.25
521.76	785.25
521.975	752.25
522.19	744.25
522.406	773.25
522.621	751.25
522.836	754.25
523.052	741.25
523.267	735.25
523.482	720.25
523.698	735.25
523.913	753.25
524.128	730.25
524.343	734.25
524.559	721.25
524.774	727.25
524.989	741.25
525.204	713.25
525.419	721.25
525.634	728.25
525.849	738.25
526.064	742.25
526.28	691.25
526.495	714.25
526.71	693.25
526.925	714.25
527.14	705.25
527.355	689.25
527.57	711.25
527.785	747.25
527.999	716.25
528.214	719.25
528.429	743.25
528.644	726.25
528.859	721.25
529.074	738.25
529.289	743.25
529.503	719.25
529.718	734.25
529.933	711.25
530.148	702.25
530.363	696.25
530.577	709.25
530.792	729.25
531.007	724.25
531.221	715.25
531.436	706.25
531.651	730.25
531.865	752.25
532.08	701.25
532.295	694.25
532.509	706.25
532.724	713.25
532.938	723.25
533.153	731.25
533.367	718.25
533.582	710.25
533.796	710.25
534.011	711.25
534.225	712.25
534.44	702.25
534.654	701.25
534.868	696.25
535.083	683.25
535.297	692.25
535.511	674.25
535.726	702.25
535.94	693.25
536.154	666.25
536.369	657.25
536.583	675.25
536.797	668.25
537.011	669.25
537.225	655.25
537.44	642.25
537.654	675.25
537.868	656.25
538.082	675.25
538.296	646.25
538.51	644.25
538.724	650.25
538.938	658.25
539.153	665.25
539.367	633.25
539.581	631.25
539.795	642.25
540.009	665.25
540.222	643.25
540.436	641.25
540.65	626.25
540.864	629.25
541.078	652.25
541.292	661.25
541.506	637.25
541.72	657.25
541.934	639.25
542.147	629.25
542.361	650.25
542.575	634.25
542.789	657.25
543.002	623.25
543.216	645.25
543.43	633.25
543.644	645.25
543.857	623.25
544.071	629.25
544.285	645.25
544.498	644.25
544.712	663.25
544.925	635.25
545.139	664.25
545.352	672.25
545.566	689.25
545.779	665.25
545.993	667.25
546.206	655.25
546.42	664.25
546.633	666.25
546.847	642.25
547.06	640.25
547.274	649.25
547.487	652.25
547.7	682.25
547.914	663.25
548.127	693.25
548.34	674.25
548.554	671.25
548.767	662.25
548.98	675.25
549.193	677.25
549.407	675.25
549.62	680.25
549.833	698.25
550.046	713.25
550.259	666.25
550.473	669.25
550.686	659.25
550.899	661.25
551.112	664.25
551.325	648.25
551.538	642.25
551.751	652.25
551.964	632.25
552.177	642.25
552.39	649.25
552.603	687.25
552.816	682.25
553.029	727.25
553.242	729.25
553.455	755.25
553.667	765.25
553.88	755.25
554.093	714.25
554.306	698.25
554.519	685.25
554.732	656.25
554.944	647.25
555.157	598.25
555.37	635.25
555.583	629.25
555.795	606.25
556.008	610.25
556.221	585.25
556.433	565.25
556.646	601.25
556.859	578.25
557.071	560.25
557.284	569.25
557.496	586.25
557.709	585.25
557.921	561.25
558.134	567.25
558.346	545.25
558.559	576.25
558.771	551.25
558.984	565.25
559.196	573.25
559.409	545.25
559.621	564.25
559.833	534.25
560.046	551.25
560.258	535.25
560.47	539.25
560.683	536.25
560.895	553.25
561.107	543.25
561.32	540.25
561.532	550.25
561.744	537.25
561.956	537.25
562.168	567.25
562.381	542.25
562.593	557.25
562.805	538.25
563.017	522.25
563.229	538.25
563.441	533.25
563.653	543.25
563.865	544.25
564.077	551.25
564.289	573.25
564.501	585.25
564.713	566.25
564.925	597.25
565.137	583.25
565.349	586.25
565.561	628.25
565.773	626.25
565.985	673.25
566.197	704.25
566.408	752.25
566.62	825.25
566.832	879.25
567.044	920.25
567.255	907.25
567.467	886.25
567.679	994.25
567.891	1056.25
568.102	1117.25
568.314	1067.25
568.526	936.25
568.737	830.25
568.949	763.25
569.161	718.25
569.372	650.25
569.584	618.25
569.795	577.25
570.007	554.25
570.218	557.25
570.43	545.25
570.641	563.25
570.853	555.25
571.064	557.25
571.276	573.25
571.487	560.25
571.698	507.25
571.91	509.25
572.121	491.25
572.333	466.25
572.544	475.25
572.755	481.25
572.966	485.25
573.178	447.25
573.389	470.25
573.6	445.25
573.811	432.25
574.023	450.25
574.234	444.25
574.445	464.25
574.656	433.25
574.867	456.25
575.078	459.25
575.289	441.25
575.501	433.25
575.712	422.25
575.923	427.25
576.134	414.25
576.345	430.25
576.556	433.25
576.767	440.25
576.978	433.25
577.188	427.25
577.399	414.25
577.61	386.25
577.821	391.25
578.032	397.25
578.243	414.25
578.454	419.25
578.665	401.25
578.875	406.25
579.086	403.25
579.297	401.25
579.508	393.25
579.718	385.25
579.929	395.25
580.14	350.25
580.35	378.25
580.561	388.25
580.772	390.25
580.982	376.25
581.193	384.25
581.403	386.25
581.614	386.25
581.825	378.25
582.035	373.25
582.246	373.25
582.456	375.25
582.667	374.25
582.877	373.25
583.087	357.25
583.298	377.25
583.508	365.25
583.719	360.25
583.929	367.25
584.139	366.25
584.35	360.25
584.56	371.25
584.77	381.25
584.981	355.25
585.191	351.25
585.401	372.25
585.611	362.25
585.821	354.25
586.032	381.25
586.242	373.25
586.452	338.25
586.662	356.25
586.872	354.25
587.082	359.25
587.292	345.25
587.502	362.25
587.713	351.25
587.923	355.25
588.133	361.25
588.343	349.25
588.553	367.25
588.762	361.25
588.972	358.25
589.182	353.25
589.392	345.25
589.602	349.25
589.812	362.25
590.022	369.25
590.232	362.25
590.441	362.25
590.651	365.25
590.861	359.25
591.071	385.25
591.281	376.25
591.49	375.25
591.7	372.25
591.91	397.25
592.119	382.25
592.329	384.25
592.539	420.25
592.748	424.25
592.958	418.25
593.167	445.25
593.377	451.25
593.587	472.25
593.796	473.25
594.006	453.25
594.215	464.25
594.424	466.25
594.634	463.25
594.843	453.25
595.053	414.25
595.262	403.25
595.472	402.25
595.681	381.25
595.89	383.25
596.1	385.25
596.309	361.25
596.518	343.25
596.727	341.25
596.937	346.25
597.146	325.25
597.355	341.25
597.564	336.25
597.774	321.25
597.983	303.25
598.192	307.25
598.401	325.25
598.61	315.25
598.819	311.25
599.028	329.25
599.237	301.25
599.446	308.25
599.655	295.25
599.864	303.25
600.073	301.25
600.282	304.25
600.491	313.25
600.7	305.25
600.909	317.25
601.118	312.25
601.327	303.25
601.536	302.25
601.745	320.25
601.953	290.25
602.162	287.25
602.371	278.25
602.58	309.25
602.789	290.25
602.997	288.25
603.206	280.25
603.415	288.25
603.623	291.25
603.832	290.25
604.041	300.25
604.249	297.25
604.458	272.25
604.666	291.25
604.875	289.25
605.084	290.25
605.292	283.25
605.501	305.25
605.709	300.25
605.918	287.25
606.126	291.25
606.334	290.25
606.543	296.25
606.751	273.25
606.96	261.25
607.168	263.25
607.376	290.25
607.585	282.25
607.793	289.25
608.001	261.25
608.21	276.25
608.418	282.25
608.626	262.25
608.834	279.25
609.043	281.25
609.251	269.25
609.459	279.25
609.667	268.25
609.875	278.25
610.083	262.25
610.291	277.25
610.499	261.25
610.707	271.25
610.916	284.25
611.124	273.25
611.332	289.25
611.54	257.25
611.748	263.25
611.955	276.25
612.163	259.25
612.371	267.25
612.579	264.25
612.787	262.25
612.995	265.25
613.203	266.25
613.411	274.25
613.618	282.25
613.826	275.25
614.034	294.25
614.242	256.25
614.449	277.25
614.657	271.25
614.865	274.25
615.072	277.25
615.28	257.25
615.488	262.25
615.695	249.25
615.903	277.25
616.111	277.25
616.318	271.25
616.526	277.25
616.733	286.25
616.941	280.25
617.148	271.25
617.356	260.25
617.563	275.25
617.771	265.25
617.978	266.25
618.185	247.25
618.393	267.25
618.6	261.25
618.807	262.25
619.015	289.25
619.222	273.25
619.429	245.25
619.637	259.25
619.844	253.25
620.051	262.25
620.258	271.25
620.466	249.25
620.673	250.25
620.88	248.25
621.087	252.25
621.294	231.25
621.501	232.25
621.708	271.25
621.915	234.25
622.122	248.25
622.329	252.25
622.536	244.25
622.743	234.25
622.95	230.25
623.157	222.25
623.364	237.25
623.571	239.25
623.778	230.25
623.985	237.25
624.192	241.25
624.399	253.25
624.606	254.25
624.812	242.25
625.019	244.25
625.226	232.25
625.433	218.25
625.639	219.25
625.846	224.25
626.053	224.25
626.259	227.25
626.466	220.25
626.673	228.25
626.879	219.25
627.086	240.25
627.293	222.25
627.499	221.25
627.706	241.25
627.912	210.25
628.119	202.25
628.325	224.25
628.532	214.25
628.738	240.25
628.945	199.25
629.151	217.25
629.357	217.25
629.564	206.25
629.77	220.25
629.976	200.25
630.183	216.25
630.389	186.25
630.595	208.25
630.802	195.25
631.008	197.25
631.214	192.25
631.42	203.25
631.627	209.25
631.833	207.25
632.039	197.25
632.245	213.25
632.451	202.25
632.657	198.25
632.863	205.25
633.069	193.25
633.275	203.25
633.481	190.25
633.688	208.25
633.893	196.25
634.099	195.25
634.305	211.25
634.511	200.25
634.717	199.25
634.923	188.25
635.129	189.25
635.335	195.25
635.541	193.25
635.747	200.25
635.952	194.25
636.158	199.25
636.364	179.25
636.57	191.25
636.775	192.25
636.981	180.25
637.187	200.25
637.392	193.25
637.598	190.25
637.804	188.25
638.009	185.25
638.215	192.25
638.421	203.25
638.626	185.25
638.832	181.25
639.037	194.25
639.243	187.25
639.448	178.25
639.654	191.25
639.859	192.25
640.065	178.25
640.27	169.25
640.475	183.25
640.681	184.25
640.886	193.25
641.091	174.25
641.297	183.25
641.502	189.25
641.707	191.25
641.913	191.25
642.118	189.25
642.323	180.25
642.528	181.25
642.733	184.25
642.939	173.25
643.144	170.25
643.349	172.25
643.554	177.25
643.759	183.25
643.964	189.25
644.169	174.25
644.374	182.25
644.579	178.25
644.784	180.25
644.989	167.25
645.194	178.25
645.399	164.25
645.604	173.25
645.809	167.25
646.014	186.25
646.219	181.25
646.423	184.25
646.628	183.25
646.833	174.25
647.038	197.25
647.243	186.25
647.447	184.25
647.652	185.25
647.857	187.25
648.062	190.25
648.266	208.25
648.471	207.25
648.676	187.25
648.88	193.25
649.085	193.25
649.289	192.25
649.494	170.25
649.698	175.25
649.903	169.25
650.107	163.25
650.312	177.25
650.516	167.25
650.721	169.25
650.925	159.25
651.13	156.25
651.334	160.25
651.539	154.25
651.743	156.25
651.947	147.25
652.152	159.25
652.356	154.25
652.56	167.25
652.764	150.25
652.969	139.25
653.173	160.25
653.377	137.25
653.581	152.25
653.785	162.25
653.99	134.25
654.194	122.25
654.398	137.25
654.602	153.25
654.806	125.25
655.01	136.25
655.214	153.25
655.418	147.25
655.622	142.25
655.826	143.25
656.03	136.25
656.234	154.25
656.438	160.25
656.642	138.25
656.846	140.25
657.049	134.25
657.253	133.25
657.457	129.25
657.661	125.25
657.865	114.25
658.068	107.25
658.272	113.25
658.476	106.25
658.68	123.25
658.883	102.25
659.087	118.25
659.291	99.25
659.494	109.25
659.698	85.25
659.901	92.25
660.105	82.25
660.309	79.25
660.512	99.25
660.716	98.25
660.919	90.25
661.123	81.25
661.326	88.25
661.53	96.25
661.733	105.25
661.936	86.25
662.14	90.25
662.343	96.25
662.546	81.25
662.75	87.25
662.953	88.25
663.156	85.25
663.36	97.25
663.563	79.25
663.766	83.25
663.969	86.25
664.173	91.25
664.376	84.25
664.579	85.25
664.782	82.25
664.985	82.25
665.188	76.25
665.391	53.25
665.594	77.25
665.797	72.25
666	84.25
666.203	82.25
666.406	76.25
666.609	87.25
666.812	69.25
667.015	74.25
667.218	68.25
667.421	73.25
667.624	87.25
667.827	78.25
668.03	64.25
668.232	79.25
668.435	84.25
668.638	77.25
668.841	81.25
669.043	78.25
669.246	70.25
669.449	75.25
669.651	86.25
669.854	82.25
670.057	77.25
670.259	77.25
670.462	72.25
670.665	81.25
670.867	86.25
671.07	80.25
671.272	69.25
671.475	85.25
671.677	89.25
671.88	72.25
672.082	77.25
672.284	75.25
672.487	75.25
672.689	94.25
672.892	83.25
