Data from Ni(NO3)2@0.125M.TitratingCurve.Agarose3%dH2O.NegLispCup.LampEnergy10.LIBS07252019_HRD10591_18-09-59-568.txt Node
Date: Thu Jul 25 18:09:59 EDT 2019
User: cochatt
Spectrometer: HR+D1059
Trigger mode: 1
Integration Time (sec): 1.000000E-1
Scans to average: 1
Electric dark correction enabled: true
Nonlinearity correction enabled: false
Boxcar width: 0
XAxis mode: Wavelengths
Number of Pixels in Spectrum: 2048
>>>>>Begin Spectral Data<<<<<
223.165	-13.06
223.4	-13.06
223.635	-13.06
223.869	-29.06
224.104	-27.06
224.338	-5.06
224.573	-16.06
224.808	3.94
225.042	-5.06
225.277	-10.06
225.511	-5.06
225.746	5.94
225.98	-3.06
226.215	15.94
226.449	17.94
226.683	7.94
226.918	27.94
227.152	33.94
227.387	27.94
227.621	31.94
227.856	45.94
228.09	45.94
228.324	57.94
228.559	57.94
228.793	65.94
229.027	103.94
229.262	107.94
229.496	115.94
229.73	126.94
229.964	126.94
230.199	131.94
230.433	131.94
230.667	130.94
230.901	133.94
231.136	142.94
231.37	129.94
231.604	137.94
231.838	136.94
232.072	140.94
232.306	145.94
232.541	149.94
232.775	157.94
233.009	133.94
233.243	140.94
233.477	153.94
233.711	159.94
233.945	153.94
234.179	145.94
234.413	134.94
234.647	150.94
234.881	144.94
235.115	152.94
235.349	157.94
235.583	131.94
235.817	147.94
236.051	166.94
236.285	161.94
236.519	158.94
236.753	157.94
236.987	162.94
237.221	158.94
237.455	182.94
237.689	170.94
237.922	149.94
238.156	157.94
238.39	174.94
238.624	163.94
238.858	175.94
239.091	160.94
239.325	186.94
239.559	177.94
239.793	177.94
240.027	187.94
240.26	183.94
240.494	176.94
240.728	185.94
240.961	179.94
241.195	184.94
241.429	192.94
241.662	206.94
241.896	186.94
242.13	175.94
242.363	193.94
242.597	194.94
242.83	214.94
243.064	200.94
243.298	210.94
243.531	204.94
243.765	210.94
243.998	212.94
244.232	213.94
244.465	218.94
244.699	199.94
244.932	210.94
245.166	225.94
245.399	226.94
245.633	233.94
245.866	221.94
246.099	233.94
246.333	226.94
246.566	231.94
246.8	216.94
247.033	223.94
247.266	220.94
247.5	233.94
247.733	246.94
247.966	235.94
248.2	241.94
248.433	262.94
248.666	247.94
248.899	256.94
249.133	257.94
249.366	255.94
249.599	274.94
249.832	251.94
250.066	271.94
250.299	249.94
250.532	263.94
250.765	269.94
250.998	263.94
251.231	264.94
251.465	273.94
251.698	271.94
251.931	257.94
252.164	275.94
252.397	280.94
252.63	278.94
252.863	290.94
253.096	283.94
253.329	268.94
253.562	281.94
253.795	283.94
254.028	290.94
254.261	296.94
254.494	304.94
254.727	290.94
254.96	277.94
255.193	290.94
255.426	291.94
255.659	290.94
255.892	294.94
256.124	289.94
256.357	306.94
256.59	315.94
256.823	310.94
257.056	303.94
257.289	312.94
257.521	301.94
257.754	330.94
257.987	305.94
258.22	314.94
258.452	319.94
258.685	329.94
258.918	338.94
259.151	321.94
259.383	329.94
259.616	311.94
259.849	330.94
260.081	324.94
260.314	321.94
260.547	333.94
260.779	327.94
261.012	354.94
261.244	338.94
261.477	343.94
261.71	338.94
261.942	335.94
262.175	355.94
262.407	343.94
262.64	345.94
262.872	334.94
263.105	335.94
263.337	335.94
263.57	350.94
263.802	358.94
264.035	366.94
264.267	351.94
264.499	369.94
264.732	369.94
264.964	358.94
265.197	354.94
265.429	373.94
265.661	363.94
265.894	358.94
266.126	372.94
266.358	363.94
266.591	373.94
266.823	379.94
267.055	374.94
267.287	397.94
267.52	363.94
267.752	377.94
267.984	377.94
268.216	371.94
268.448	399.94
268.681	383.94
268.913	391.94
269.145	377.94
269.377	403.94
269.609	413.94
269.841	393.94
270.073	386.94
270.306	385.94
270.538	384.94
270.77	375.94
271.002	393.94
271.234	388.94
271.466	406.94
271.698	401.94
271.93	413.94
272.162	434.94
272.394	405.94
272.626	399.94
272.858	406.94
273.09	438.94
273.322	425.94
273.553	420.94
273.785	439.94
274.017	418.94
274.249	434.94
274.481	426.94
274.713	423.94
274.945	425.94
275.176	423.94
275.408	435.94
275.64	450.94
275.872	422.94
276.104	456.94
276.335	445.94
276.567	451.94
276.799	430.94
277.031	439.94
277.262	442.94
277.494	442.94
277.726	440.94
277.957	449.94
278.189	445.94
278.421	449.94
278.652	440.94
278.884	455.94
279.115	463.94
279.347	460.94
279.579	483.94
279.81	473.94
280.042	477.94
280.273	471.94
280.505	474.94
280.736	473.94
280.968	475.94
281.199	493.94
281.431	489.94
281.662	476.94
281.894	484.94
282.125	486.94
282.356	496.94
282.588	493.94
282.819	498.94
283.051	492.94
283.282	487.94
283.513	501.94
283.745	495.94
283.976	522.94
284.207	511.94
284.439	502.94
284.67	493.94
284.901	518.94
285.132	527.94
285.364	506.94
285.595	503.94
285.826	498.94
286.057	536.94
286.288	510.94
286.52	539.94
286.751	523.94
286.982	517.94
287.213	506.94
287.444	545.94
287.675	549.94
287.906	537.94
288.138	522.94
288.369	535.94
288.6	551.94
288.831	544.94
289.062	548.94
289.293	530.94
289.524	534.94
289.755	547.94
289.986	553.94
290.217	547.94
290.448	541.94
290.679	531.94
290.91	541.94
291.141	542.94
291.371	574.94
291.602	553.94
291.833	573.94
292.064	561.94
292.295	540.94
292.526	536.94
292.757	533.94
292.987	563.94
293.218	548.94
293.449	563.94
293.68	566.94
293.91	574.94
294.141	573.94
294.372	571.94
294.603	570.94
294.833	558.94
295.064	569.94
295.295	592.94
295.525	572.94
295.756	566.94
295.987	575.94
296.217	598.94
296.448	585.94
296.679	579.94
296.909	593.94
297.14	600.94
297.37	613.94
297.601	587.94
297.831	585.94
298.062	602.94
298.292	607.94
298.523	615.94
298.753	626.94
298.984	596.94
299.214	600.94
299.445	610.94
299.675	590.94
299.905	621.94
300.136	597.94
300.366	602.94
300.597	603.94
300.827	594.94
301.057	629.94
301.288	630.94
301.518	647.94
301.748	642.94
301.979	633.94
302.209	623.94
302.439	634.94
302.669	622.94
302.9	636.94
303.13	614.94
303.36	633.94
303.59	608.94
303.82	629.94
304.051	622.94
304.281	643.94
304.511	618.94
304.741	635.94
304.971	612.94
305.201	622.94
305.431	608.94
305.661	615.94
305.891	622.94
306.121	621.94
306.352	614.94
306.582	621.94
306.812	599.94
307.042	614.94
307.272	608.94
307.502	622.94
307.731	647.94
307.961	601.94
308.191	587.94
308.421	598.94
308.651	605.94
308.881	616.94
309.111	609.94
309.341	606.94
309.571	588.94
309.8	599.94
310.03	633.94
310.26	598.94
310.49	589.94
310.72	603.94
310.949	604.94
311.179	629.94
311.409	629.94
311.639	634.94
311.868	630.94
312.098	631.94
312.328	640.94
312.557	639.94
312.787	658.94
313.017	644.94
313.246	661.94
313.476	637.94
313.706	657.94
313.935	656.94
314.165	650.94
314.394	658.94
314.624	665.94
314.853	664.94
315.083	654.94
315.312	655.94
315.542	656.94
315.771	649.94
316.001	677.94
316.23	655.94
316.46	660.94
316.689	658.94
316.919	659.94
317.148	665.94
317.377	673.94
317.607	666.94
317.836	641.94
318.065	628.94
318.295	657.94
318.524	664.94
318.753	632.94
318.983	621.94
319.212	651.94
319.441	650.94
319.67	658.94
319.9	656.94
320.129	656.94
320.358	638.94
320.587	660.94
320.816	647.94
321.046	678.94
321.275	656.94
321.504	640.94
321.733	649.94
321.962	655.94
322.191	646.94
322.42	679.94
322.649	673.94
322.878	681.94
323.108	652.94
323.337	669.94
323.566	661.94
323.795	666.94
324.024	684.94
324.253	667.94
324.482	676.94
324.71	683.94
324.939	679.94
325.168	704.94
325.397	699.94
325.626	690.94
325.855	719.94
326.084	733.94
326.313	722.94
326.542	729.94
326.77	729.94
326.999	711.94
327.228	709.94
327.457	701.94
327.686	727.94
327.914	704.94
328.143	723.94
328.372	731.94
328.6	708.94
328.829	722.94
329.058	749.94
329.287	728.94
329.515	732.94
329.744	722.94
329.972	716.94
330.201	734.94
330.43	762.94
330.658	734.94
330.887	730.94
331.115	755.94
331.344	746.94
331.572	760.94
331.801	769.94
332.03	791.94
332.258	817.94
332.486	844.94
332.715	880.94
332.943	901.94
333.172	939.94
333.4	970.94
333.629	1007.94
333.857	1000.94
334.085	1006.94
334.314	941.94
334.542	935.94
334.771	933.94
334.999	929.94
335.227	888.94
335.455	907.94
335.684	906.94
335.912	898.94
336.14	870.94
336.369	893.94
336.597	869.94
336.825	867.94
337.053	868.94
337.281	845.94
337.51	833.94
337.738	849.94
337.966	806.94
338.194	811.94
338.422	801.94
338.65	815.94
338.878	805.94
339.106	784.94
339.334	813.94
339.562	769.94
339.79	757.94
340.018	775.94
340.246	732.94
340.474	769.94
340.702	749.94
340.93	777.94
341.158	768.94
341.386	777.94
341.614	767.94
341.842	754.94
342.07	766.94
342.298	729.94
342.526	751.94
342.754	758.94
342.981	742.94
343.209	803.94
343.437	837.94
343.665	849.94
343.893	910.94
344.12	929.94
344.348	937.94
344.576	870.94
344.804	812.94
345.031	799.94
345.259	807.94
345.487	780.94
345.714	773.94
345.942	745.94
346.17	754.94
346.397	747.94
346.625	745.94
346.853	733.94
347.08	728.94
347.308	742.94
347.535	767.94
347.763	744.94
347.99	757.94
348.218	769.94
348.445	758.94
348.673	746.94
348.9	754.94
349.128	751.94
349.355	741.94
349.583	749.94
349.81	737.94
350.037	719.94
350.265	726.94
350.492	737.94
350.72	708.94
350.947	710.94
351.174	711.94
351.402	718.94
351.629	713.94
351.856	719.94
352.083	718.94
352.311	707.94
352.538	724.94
352.765	695.94
352.992	706.94
353.22	717.94
353.447	684.94
353.674	711.94
353.901	708.94
354.128	728.94
354.355	714.94
354.583	707.94
354.81	697.94
355.037	701.94
355.264	715.94
355.491	714.94
355.718	725.94
355.945	709.94
356.172	705.94
356.399	726.94
356.626	724.94
356.853	738.94
357.08	706.94
357.307	710.94
357.534	729.94
357.761	712.94
357.988	717.94
358.215	701.94
358.441	701.94
358.668	704.94
358.895	695.94
359.122	689.94
359.349	724.94
359.576	694.94
359.802	709.94
360.029	705.94
360.256	712.94
360.483	755.94
360.709	717.94
360.936	704.94
361.163	727.94
361.39	698.94
361.616	728.94
361.843	708.94
362.07	717.94
362.296	722.94
362.523	722.94
362.749	735.94
362.976	730.94
363.203	673.94
363.429	695.94
363.656	729.94
363.882	690.94
364.109	726.94
364.335	716.94
364.562	719.94
364.788	714.94
365.015	692.94
365.241	688.94
365.468	683.94
365.694	690.94
365.92	697.94
366.147	689.94
366.373	702.94
366.599	721.94
366.826	712.94
367.052	708.94
367.278	706.94
367.505	738.94
367.731	731.94
367.957	714.94
368.184	726.94
368.41	715.94
368.636	708.94
368.862	722.94
369.089	733.94
369.315	732.94
369.541	752.94
369.767	751.94
369.993	752.94
370.219	732.94
370.445	737.94
370.672	773.94
370.898	735.94
371.124	765.94
371.35	789.94
371.576	776.94
371.802	769.94
372.028	759.94
372.254	784.94
372.48	762.94
372.706	805.94
372.932	827.94
373.158	825.94
373.384	798.94
373.61	754.94
373.835	773.94
374.061	763.94
374.287	777.94
374.513	787.94
374.739	837.94
374.965	835.94
375.191	878.94
375.416	853.94
375.642	809.94
375.868	830.94
376.094	802.94
376.319	780.94
376.545	777.94
376.771	793.94
376.997	762.94
377.222	760.94
377.448	786.94
377.674	782.94
377.899	785.94
378.125	777.94
378.35	753.94
378.576	765.94
378.802	771.94
379.027	776.94
379.253	777.94
379.478	759.94
379.704	760.94
379.929	776.94
380.155	778.94
380.38	755.94
380.606	733.94
380.831	733.94
381.057	769.94
381.282	781.94
381.507	800.94
381.733	813.94
381.958	777.94
382.184	789.94
382.409	791.94
382.634	822.94
382.86	809.94
383.085	827.94
383.31	846.94
383.535	859.94
383.761	859.94
383.986	871.94
384.211	883.94
384.436	888.94
384.662	918.94
384.887	938.94
385.112	908.94
385.337	933.94
385.562	912.94
385.787	915.94
386.013	954.94
386.238	902.94
386.463	945.94
386.688	930.94
386.913	921.94
387.138	899.94
387.363	903.94
387.588	913.94
387.813	895.94
388.038	903.94
388.263	928.94
388.488	922.94
388.713	936.94
388.938	926.94
389.163	893.94
389.387	886.94
389.612	899.94
389.837	923.94
390.062	902.94
390.287	893.94
390.512	902.94
390.736	927.94
390.961	948.94
391.186	914.94
391.411	957.94
391.636	986.94
391.86	1031.94
392.085	1064.94
392.31	1051.94
392.534	1046.94
392.759	993.94
392.984	979.94
393.208	966.94
393.433	985.94
393.658	984.94
393.882	955.94
394.107	967.94
394.331	1001.94
394.556	989.94
394.78	997.94
395.005	1007.94
395.229	969.94
395.454	1035.94
395.678	1069.94
395.903	1053.94
396.127	999.94
396.352	986.94
396.576	974.94
396.801	961.94
397.025	975.94
397.249	1008.94
397.474	1036.94
397.698	1021.94
397.922	1027.94
398.147	1010.94
398.371	1048.94
398.595	1063.94
398.82	1151.94
399.044	1259.94
399.268	1379.94
399.492	1621.94
399.717	1796.94
399.941	1773.94
400.165	1552.94
400.389	1391.94
400.613	1278.94
400.837	1226.94
401.062	1154.94
401.286	1164.94
401.51	1157.94
401.734	1127.94
401.958	1157.94
402.182	1216.94
402.406	1197.94
402.63	1226.94
402.854	1247.94
403.078	1280.94
403.302	1299.94
403.526	1329.94
403.75	1382.94
403.974	1379.94
404.198	1369.94
404.422	1359.94
404.645	1366.94
404.869	1358.94
405.093	1313.94
405.317	1318.94
405.541	1300.94
405.765	1304.94
405.988	1274.94
406.212	1266.94
406.436	1264.94
406.66	1308.94
406.883	1353.94
407.107	1413.94
407.331	1513.94
407.555	1539.94
407.778	1525.94
408.002	1489.94
408.226	1426.94
408.449	1426.94
408.673	1330.94
408.896	1327.94
409.12	1322.94
409.344	1319.94
409.567	1334.94
409.791	1377.94
410.014	1301.94
410.238	1325.94
410.461	1319.94
410.685	1302.94
410.908	1287.94
411.132	1254.94
411.355	1175.94
411.578	1201.94
411.802	1201.94
412.025	1238.94
412.249	1233.94
412.472	1212.94
412.695	1172.94
412.919	1166.94
413.142	1158.94
413.365	1133.94
413.589	1153.94
413.812	1163.94
414.035	1128.94
414.258	1160.94
414.482	1187.94
414.705	1168.94
414.928	1208.94
415.151	1160.94
415.374	1128.94
415.597	1169.94
415.821	1127.94
416.044	1140.94
416.267	1118.94
416.49	1129.94
416.713	1115.94
416.936	1139.94
417.159	1130.94
417.382	1144.94
417.605	1127.94
417.828	1120.94
418.051	1181.94
418.274	1156.94
418.497	1177.94
418.72	1195.94
418.943	1188.94
419.166	1277.94
419.389	1374.94
419.611	1334.94
419.834	1273.94
420.057	1227.94
420.28	1179.94
420.503	1149.94
420.726	1177.94
420.948	1151.94
421.171	1102.94
421.394	1155.94
421.617	1167.94
421.839	1159.94
422.062	1192.94
422.285	1166.94
422.507	1195.94
422.73	1189.94
422.953	1195.94
423.175	1231.94
423.398	1253.94
423.621	1236.94
423.843	1262.94
424.066	1224.94
424.288	1240.94
424.511	1212.94
424.733	1184.94
424.956	1206.94
425.178	1172.94
425.401	1156.94
425.623	1133.94
425.846	1128.94
426.068	1125.94
426.291	1074.94
426.513	1079.94
426.735	1063.94
426.958	1081.94
427.18	1043.94
427.402	1069.94
427.625	1041.94
427.847	1005.94
428.069	1042.94
428.292	1043.94
428.514	1023.94
428.736	1008.94
428.958	1035.94
429.181	1005.94
429.403	979.94
429.625	999.94
429.847	975.94
430.069	992.94
430.292	1018.94
430.514	1009.94
430.736	1033.94
430.958	1018.94
431.18	947.94
431.402	1021.94
431.624	982.94
431.846	1049.94
432.068	1050.94
432.29	1065.94
432.512	1000.94
432.734	1060.94
432.956	999.94
433.178	1040.94
433.4	1049.94
433.622	1031.94
433.844	1049.94
434.066	1025.94
434.287	1056.94
434.509	1089.94
434.731	1122.94
434.953	1155.94
435.175	1160.94
435.397	1156.94
435.618	1098.94
435.84	1078.94
436.062	1040.94
436.284	1040.94
436.505	1041.94
436.727	1029.94
436.949	1043.94
437.17	1041.94
437.392	1000.94
437.614	980.94
437.835	986.94
438.057	991.94
438.278	973.94
438.5	984.94
438.721	977.94
438.943	1003.94
439.165	1006.94
439.386	1018.94
439.608	1023.94
439.829	1021.94
440.05	1045.94
440.272	1035.94
440.493	1045.94
440.715	1055.94
440.936	1071.94
441.158	1070.94
441.379	1123.94
441.6	1169.94
441.822	1178.94
442.043	1175.94
442.264	1131.94
442.486	1142.94
442.707	1148.94
442.928	1133.94
443.149	1164.94
443.371	1149.94
443.592	1165.94
443.813	1187.94
444.034	1201.94
444.255	1221.94
444.476	1274.94
444.698	1357.94
444.919	1403.94
445.14	1429.94
445.361	1313.94
445.582	1221.94
445.803	1138.94
446.024	1103.94
446.245	1111.94
446.466	1092.94
446.687	1030.94
446.908	1095.94
447.129	1038.94
447.35	1006.94
447.571	1000.94
447.792	979.94
448.013	980.94
448.234	966.94
448.455	984.94
448.675	955.94
448.896	954.94
449.117	944.94
449.338	925.94
449.559	931.94
449.779	945.94
450	972.94
450.221	944.94
450.442	959.94
450.662	991.94
450.883	965.94
451.104	992.94
451.324	963.94
451.545	943.94
451.766	975.94
451.986	949.94
452.207	941.94
452.428	935.94
452.648	959.94
452.869	957.94
453.089	911.94
453.31	955.94
453.53	928.94
453.751	925.94
453.971	914.94
454.192	955.94
454.412	880.94
454.633	909.94
454.853	906.94
455.073	895.94
455.294	922.94
455.514	899.94
455.734	886.94
455.955	893.94
456.175	903.94
456.395	889.94
456.616	877.94
456.836	893.94
457.056	893.94
457.276	870.94
457.497	886.94
457.717	904.94
457.937	926.94
458.157	919.94
458.377	911.94
458.598	929.94
458.818	930.94
459.038	968.94
459.258	1035.94
459.478	1027.94
459.698	1072.94
459.918	1099.94
460.138	1138.94
460.358	1250.94
460.578	1254.94
460.798	1262.94
461.018	1248.94
461.238	1231.94
461.458	1206.94
461.678	1224.94
461.898	1235.94
462.118	1220.94
462.338	1323.94
462.558	1342.94
462.777	1366.94
462.997	1489.94
463.217	1685.94
463.437	1727.94
463.657	1543.94
463.876	1415.94
464.096	1445.94
464.316	1456.94
464.536	1427.94
464.755	1386.94
464.975	1357.94
465.195	1289.94
465.414	1187.94
465.634	1130.94
465.854	1115.94
466.073	1058.94
466.293	1074.94
466.512	1058.94
466.732	988.94
466.951	974.94
467.171	977.94
467.391	1018.94
467.61	996.94
467.829	990.94
468.049	976.94
468.268	959.94
468.488	913.94
468.707	933.94
468.927	935.94
469.146	969.94
469.365	962.94
469.585	965.94
469.804	1001.94
470.023	1002.94
470.243	1023.94
470.462	1018.94
470.681	1058.94
470.901	1040.94
471.12	1018.94
471.339	1016.94
471.558	973.94
471.777	926.94
471.997	942.94
472.216	932.94
472.435	943.94
472.654	951.94
472.873	934.94
473.092	937.94
473.311	921.94
473.53	913.94
473.749	919.94
473.968	944.94
474.187	906.94
474.406	912.94
474.625	914.94
474.844	932.94
475.063	934.94
475.282	929.94
475.501	950.94
475.72	934.94
475.939	959.94
476.158	975.94
476.377	952.94
476.596	934.94
476.814	981.94
477.033	971.94
477.252	1024.94
477.471	1017.94
477.69	1082.94
477.908	1065.94
478.127	1080.94
478.346	1147.94
478.564	1131.94
478.783	1109.94
479.002	1169.94
479.22	1167.94
479.439	1174.94
479.658	1164.94
479.876	1169.94
480.095	1187.94
480.313	1238.94
480.532	1298.94
480.751	1265.94
480.969	1195.94
481.188	1155.94
481.406	1090.94
481.624	1093.94
481.843	1038.94
482.061	1070.94
482.28	1070.94
482.498	1047.94
482.717	1044.94
482.935	1044.94
483.153	1064.94
483.372	1033.94
483.59	1076.94
483.808	1030.94
484.027	1072.94
484.245	1049.94
484.463	1056.94
484.681	1098.94
484.9	1091.94
485.118	1114.94
485.336	1094.94
485.554	1071.94
485.772	1093.94
485.99	1106.94
486.209	1167.94
486.427	1151.94
486.645	1137.94
486.863	1145.94
487.081	1123.94
487.299	1139.94
487.517	1119.94
487.735	1099.94
487.953	1083.94
488.171	1137.94
488.389	1135.94
488.607	1113.94
488.825	1080.94
489.043	1063.94
489.261	1095.94
489.479	1103.94
489.696	1113.94
489.914	1098.94
490.132	1109.94
490.35	1100.94
490.568	1119.94
490.786	1113.94
491.003	1101.94
491.221	1132.94
491.439	1127.94
491.657	1135.94
491.874	1095.94
492.092	1131.94
492.31	1105.94
492.527	1120.94
492.745	1159.94
492.963	1152.94
493.18	1105.94
493.398	1156.94
493.615	1178.94
493.833	1178.94
494.05	1191.94
494.268	1192.94
494.485	1217.94
494.703	1200.94
494.92	1178.94
495.138	1191.94
495.355	1172.94
495.573	1173.94
495.79	1161.94
496.008	1193.94
496.225	1189.94
496.442	1224.94
496.66	1202.94
496.877	1245.94
497.094	1218.94
497.312	1250.94
497.529	1290.94
497.746	1321.94
497.963	1339.94
498.181	1393.94
498.398	1494.94
498.615	1556.94
498.832	1714.94
499.049	1847.94
499.267	1993.94
499.484	2167.94
499.701	2398.94
499.918	2625.94
500.135	3089.94
500.352	3607.94
500.569	3845.94
500.786	3733.94
501.003	3484.94
501.22	3067.94
501.437	2716.94
501.654	2340.94
501.871	2081.94
502.088	1926.94
502.305	1806.94
502.522	1707.94
502.739	1624.94
502.956	1539.94
503.172	1483.94
503.389	1400.94
503.606	1347.94
503.823	1339.94
504.04	1340.94
504.256	1367.94
504.473	1395.94
504.69	1403.94
504.907	1428.94
505.123	1330.94
505.34	1229.94
505.557	1172.94
505.773	1159.94
505.99	1102.94
506.207	1088.94
506.423	1086.94
506.64	1074.94
506.856	1090.94
507.073	1040.94
507.289	1043.94
507.506	1025.94
507.722	1051.94
507.939	1044.94
508.155	994.94
508.372	1018.94
508.588	1001.94
508.805	1018.94
509.021	971.94
509.238	976.94
509.454	962.94
509.67	975.94
509.887	962.94
510.103	976.94
510.319	945.94
510.536	944.94
510.752	963.94
510.968	946.94
511.184	950.94
511.401	916.94
511.617	947.94
511.833	970.94
512.049	936.94
512.265	919.94
512.481	952.94
512.698	945.94
512.914	904.94
513.13	918.94
513.346	956.94
513.562	958.94
513.778	913.94
513.994	972.94
514.21	976.94
514.426	969.94
514.642	971.94
514.858	961.94
515.074	997.94
515.29	993.94
515.506	972.94
515.721	1019.94
515.937	1003.94
516.153	1043.94
516.369	1053.94
516.585	1104.94
516.801	1117.94
517.016	1167.94
517.232	1216.94
517.448	1297.94
517.664	1337.94
517.879	1395.94
518.095	1400.94
518.311	1341.94
518.527	1263.94
518.742	1218.94
518.958	1170.94
519.173	1129.94
519.389	1091.94
519.605	1050.94
519.82	1042.94
520.036	972.94
520.251	997.94
520.467	991.94
520.682	958.94
520.898	950.94
521.113	981.94
521.329	939.94
521.544	912.94
521.76	909.94
521.975	906.94
522.19	918.94
522.406	901.94
522.621	877.94
522.836	889.94
523.052	935.94
523.267	886.94
523.482	866.94
523.698	891.94
523.913	887.94
524.128	895.94
524.343	858.94
524.559	890.94
524.774	870.94
524.989	883.94
525.204	841.94
525.419	881.94
525.634	868.94
525.849	877.94
526.064	886.94
526.28	869.94
526.495	873.94
526.71	871.94
526.925	857.94
527.14	867.94
527.355	860.94
527.57	847.94
527.785	852.94
527.999	850.94
528.214	863.94
528.429	855.94
528.644	866.94
528.859	859.94
529.074	872.94
529.289	862.94
529.503	882.94
529.718	837.94
529.933	832.94
530.148	854.94
530.363	872.94
530.577	846.94
530.792	871.94
531.007	850.94
531.221	877.94
531.436	855.94
531.651	877.94
531.865	881.94
532.08	865.94
532.295	879.94
532.509	841.94
532.724	867.94
532.938	847.94
533.153	860.94
533.367	856.94
533.582	863.94
533.796	856.94
534.011	885.94
534.225	840.94
534.44	832.94
534.654	847.94
534.868	801.94
535.083	833.94
535.297	824.94
535.511	818.94
535.726	819.94
535.94	842.94
536.154	796.94
536.369	783.94
536.583	811.94
536.797	789.94
537.011	767.94
537.225	808.94
537.44	802.94
537.654	803.94
537.868	784.94
538.082	795.94
538.296	809.94
538.51	778.94
538.724	803.94
538.938	766.94
539.153	773.94
539.367	789.94
539.581	782.94
539.795	777.94
540.009	780.94
540.222	783.94
540.436	765.94
540.65	769.94
540.864	757.94
541.078	781.94
541.292	755.94
541.506	778.94
541.72	735.94
541.934	759.94
542.147	772.94
542.361	775.94
542.575	753.94
542.789	747.94
543.002	734.94
543.216	767.94
543.43	770.94
543.644	757.94
543.857	742.94
544.071	737.94
544.285	787.94
544.498	801.94
544.712	766.94
544.925	772.94
545.139	779.94
545.352	786.94
545.566	787.94
545.779	815.94
545.993	809.94
546.206	787.94
546.42	779.94
546.633	793.94
546.847	776.94
547.06	782.94
547.274	794.94
547.487	794.94
547.7	778.94
547.914	791.94
548.127	795.94
548.34	826.94
548.554	792.94
548.767	801.94
548.98	805.94
549.193	811.94
549.407	782.94
549.62	787.94
549.833	803.94
550.046	810.94
550.259	805.94
550.473	776.94
550.686	787.94
550.899	752.94
551.112	783.94
551.325	773.94
551.538	751.94
551.751	763.94
551.964	802.94
552.177	813.94
552.39	807.94
552.603	795.94
552.816	845.94
553.029	858.94
553.242	870.94
553.455	872.94
553.667	871.94
553.88	855.94
554.093	848.94
554.306	831.94
554.519	811.94
554.732	787.94
554.944	757.94
555.157	738.94
555.37	777.94
555.583	742.94
555.795	708.94
556.008	699.94
556.221	673.94
556.433	698.94
556.646	707.94
556.859	689.94
557.071	674.94
557.284	682.94
557.496	651.94
557.709	656.94
557.921	671.94
558.134	658.94
558.346	675.94
558.559	642.94
558.771	658.94
558.984	678.94
559.196	681.94
559.409	673.94
559.621	659.94
559.833	648.94
560.046	655.94
560.258	661.94
560.47	634.94
560.683	655.94
560.895	642.94
561.107	635.94
561.32	650.94
561.532	640.94
561.744	637.94
561.956	662.94
562.168	643.94
562.381	672.94
562.593	657.94
562.805	647.94
563.017	671.94
563.229	625.94
563.441	663.94
563.653	675.94
563.865	664.94
564.077	681.94
564.289	656.94
564.501	678.94
564.713	687.94
564.925	676.94
565.137	704.94
565.349	745.94
565.561	744.94
565.773	766.94
565.985	804.94
566.197	841.94
566.408	905.94
566.62	971.94
566.832	1075.94
567.044	1089.94
567.255	1087.94
567.467	1118.94
567.679	1178.94
567.891	1309.94
568.102	1332.94
568.314	1233.94
568.526	1118.94
568.737	991.94
568.949	920.94
569.161	811.94
569.372	755.94
569.584	727.94
569.795	721.94
570.007	696.94
570.218	690.94
570.43	665.94
570.641	660.94
570.853	646.94
571.064	649.94
571.276	654.94
571.487	674.94
571.698	613.94
571.91	592.94
572.121	582.94
572.333	563.94
572.544	554.94
572.755	538.94
572.966	560.94
573.178	554.94
573.389	543.94
573.6	544.94
573.811	543.94
574.023	523.94
574.234	537.94
574.445	557.94
574.656	537.94
574.867	523.94
575.078	562.94
575.289	520.94
575.501	518.94
575.712	509.94
575.923	509.94
576.134	523.94
576.345	483.94
576.556	518.94
576.767	501.94
576.978	511.94
577.188	498.94
577.399	509.94
577.61	475.94
577.821	479.94
578.032	473.94
578.243	467.94
578.454	468.94
578.665	468.94
578.875	473.94
579.086	486.94
579.297	473.94
579.508	497.94
579.718	476.94
579.929	488.94
580.14	464.94
580.35	451.94
580.561	463.94
580.772	446.94
580.982	460.94
581.193	450.94
581.403	447.94
581.614	453.94
581.825	441.94
582.035	453.94
582.246	456.94
582.456	450.94
582.667	446.94
582.877	439.94
583.087	450.94
583.298	450.94
583.508	431.94
583.719	448.94
583.929	439.94
584.139	418.94
584.35	435.94
584.56	443.94
584.77	426.94
584.981	442.94
585.191	423.94
585.401	419.94
585.611	429.94
585.821	438.94
586.032	418.94
586.242	409.94
586.452	426.94
586.662	401.94
586.872	419.94
587.082	424.94
587.292	422.94
587.502	429.94
587.713	430.94
587.923	431.94
588.133	422.94
588.343	408.94
588.553	412.94
588.762	422.94
588.972	427.94
589.182	420.94
589.392	423.94
589.602	448.94
589.812	427.94
590.022	445.94
590.232	421.94
590.441	438.94
590.651	435.94
590.861	414.94
591.071	411.94
591.281	443.94
591.49	429.94
591.7	429.94
591.91	442.94
592.119	456.94
592.329	480.94
592.539	498.94
592.748	488.94
592.958	512.94
593.167	547.94
593.377	553.94
593.587	564.94
593.796	544.94
594.006	543.94
594.215	577.94
594.424	590.94
594.634	538.94
594.843	527.94
595.053	497.94
595.262	502.94
595.472	477.94
595.681	460.94
595.89	436.94
596.1	416.94
596.309	437.94
596.518	397.94
596.727	419.94
596.937	376.94
597.146	418.94
597.355	393.94
597.564	381.94
597.774	381.94
597.983	380.94
598.192	356.94
598.401	369.94
598.61	378.94
598.819	373.94
599.028	352.94
599.237	367.94
599.446	358.94
599.655	343.94
599.864	358.94
600.073	362.94
600.282	341.94
600.491	351.94
600.7	349.94
600.909	371.94
601.118	370.94
601.327	356.94
601.536	369.94
601.745	346.94
601.953	353.94
602.162	352.94
602.371	369.94
602.58	354.94
602.789	344.94
602.997	355.94
603.206	362.94
603.415	337.94
603.623	333.94
603.832	331.94
604.041	311.94
604.249	330.94
604.458	329.94
604.666	334.94
604.875	337.94
605.084	320.94
605.292	345.94
605.501	346.94
605.709	326.94
605.918	325.94
606.126	328.94
606.334	329.94
606.543	322.94
606.751	335.94
606.96	326.94
607.168	326.94
607.376	329.94
607.585	329.94
607.793	326.94
608.001	319.94
608.21	322.94
608.418	324.94
608.626	323.94
608.834	316.94
609.043	332.94
609.251	316.94
609.459	325.94
609.667	306.94
609.875	334.94
610.083	333.94
610.291	318.94
610.499	321.94
610.707	337.94
610.916	322.94
611.124	317.94
611.332	325.94
611.54	316.94
611.748	318.94
611.955	308.94
612.163	297.94
612.371	313.94
612.579	308.94
612.787	327.94
612.995	315.94
613.203	320.94
613.411	303.94
613.618	307.94
613.826	322.94
614.034	335.94
614.242	297.94
614.449	325.94
614.657	318.94
614.865	305.94
615.072	303.94
615.28	314.94
615.488	305.94
615.695	316.94
615.903	306.94
616.111	306.94
616.318	302.94
616.526	320.94
616.733	331.94
616.941	299.94
617.148	324.94
617.356	303.94
617.563	321.94
617.771	317.94
617.978	314.94
618.185	299.94
618.393	317.94
618.6	321.94
618.807	311.94
619.015	291.94
619.222	304.94
619.429	312.94
619.637	302.94
619.844	291.94
620.051	312.94
620.258	289.94
620.466	292.94
620.673	289.94
620.88	273.94
621.087	287.94
621.294	272.94
621.501	279.94
621.708	288.94
621.915	292.94
622.122	311.94
622.329	275.94
622.536	291.94
622.743	282.94
622.95	275.94
623.157	278.94
623.364	271.94
623.571	291.94
623.778	283.94
623.985	261.94
624.192	271.94
624.399	271.94
624.606	274.94
624.812	242.94
625.019	240.94
625.226	262.94
625.433	271.94
625.639	256.94
625.846	254.94
626.053	255.94
626.259	273.94
626.466	244.94
626.673	233.94
626.879	260.94
627.086	261.94
627.293	264.94
627.499	244.94
627.706	252.94
627.912	230.94
628.119	257.94
628.325	268.94
628.532	249.94
628.738	253.94
628.945	255.94
629.151	250.94
629.357	249.94
629.564	235.94
629.77	243.94
629.976	241.94
630.183	257.94
630.389	248.94
630.595	250.94
630.802	241.94
631.008	247.94
631.214	248.94
631.42	237.94
631.627	234.94
631.833	239.94
632.039	236.94
632.245	230.94
632.451	239.94
632.657	224.94
632.863	226.94
633.069	232.94
633.275	234.94
633.481	206.94
633.688	223.94
633.893	228.94
634.099	223.94
634.305	242.94
634.511	232.94
634.717	215.94
634.923	217.94
635.129	215.94
635.335	204.94
635.541	219.94
635.747	223.94
635.952	208.94
636.158	206.94
636.364	224.94
636.57	231.94
636.775	201.94
636.981	212.94
637.187	209.94
637.392	209.94
637.598	209.94
637.804	220.94
638.009	211.94
638.215	213.94
638.421	207.94
638.626	206.94
638.832	204.94
639.037	212.94
639.243	201.94
639.448	201.94
639.654	205.94
639.859	211.94
640.065	220.94
640.27	212.94
640.475	203.94
640.681	202.94
640.886	207.94
641.091	205.94
641.297	207.94
641.502	200.94
641.707	202.94
641.913	189.94
642.118	213.94
642.323	213.94
642.528	197.94
642.733	208.94
642.939	202.94
643.144	199.94
643.349	209.94
643.554	196.94
643.759	201.94
643.964	182.94
644.169	213.94
644.374	201.94
644.579	206.94
644.784	201.94
644.989	191.94
645.194	190.94
645.399	200.94
645.604	184.94
645.809	184.94
646.014	196.94
646.219	192.94
646.423	201.94
646.628	193.94
646.833	200.94
647.038	213.94
647.243	198.94
647.447	204.94
647.652	203.94
647.857	206.94
648.062	195.94
648.266	203.94
648.471	214.94
648.676	214.94
648.88	216.94
649.085	220.94
649.289	222.94
649.494	194.94
649.698	207.94
649.903	196.94
650.107	198.94
650.312	193.94
650.516	190.94
650.721	190.94
650.925	177.94
651.13	175.94
651.334	165.94
651.539	174.94
651.743	165.94
651.947	175.94
652.152	191.94
652.356	188.94
652.56	150.94
652.764	156.94
652.969	155.94
653.173	173.94
653.377	148.94
653.581	167.94
653.785	161.94
653.99	154.94
654.194	147.94
654.398	147.94
654.602	150.94
654.806	143.94
655.01	140.94
655.214	147.94
655.418	139.94
655.622	134.94
655.826	136.94
656.03	154.94
656.234	154.94
656.438	142.94
656.642	147.94
656.846	128.94
657.049	130.94
657.253	137.94
657.457	127.94
657.661	103.94
657.865	127.94
658.068	111.94
658.272	109.94
658.476	115.94
658.68	105.94
658.883	113.94
659.087	98.94
659.291	89.94
659.494	94.94
659.698	111.94
659.901	92.94
660.105	102.94
660.309	102.94
660.512	102.94
660.716	96.94
660.919	95.94
661.123	94.94
661.326	87.94
661.53	101.94
661.733	107.94
661.936	88.94
662.14	89.94
662.343	84.94
662.546	63.94
662.75	96.94
662.953	84.94
663.156	81.94
663.36	87.94
663.563	80.94
663.766	90.94
663.969	74.94
664.173	78.94
664.376	92.94
664.579	87.94
664.782	82.94
664.985	76.94
665.188	97.94
665.391	81.94
665.594	77.94
665.797	78.94
666	85.94
666.203	77.94
666.406	80.94
666.609	70.94
666.812	79.94
667.015	79.94
667.218	73.94
667.421	83.94
667.624	79.94
667.827	70.94
668.03	70.94
668.232	82.94
668.435	76.94
668.638	69.94
668.841	85.94
669.043	76.94
669.246	83.94
669.449	87.94
669.651	64.94
669.854	69.94
670.057	82.94
670.259	67.94
670.462	95.94
670.665	65.94
670.867	78.94
671.07	73.94
671.272	82.94
671.475	79.94
671.677	84.94
671.88	74.94
672.082	74.94
672.284	72.94
672.487	81.94
672.689	96.94
672.892	89.94
