Data from Ni(NO3)2@0.25M.TitratingCurve.Agarose3%dH2O.NegLispCup.LampEnergy10.LIBS07252019_HRD10591_18-02-39-565.txt Node
Date: Thu Jul 25 18:02:39 EDT 2019
User: cochatt
Spectrometer: HR+D1059
Trigger mode: 1
Integration Time (sec): 1.000000E-1
Scans to average: 1
Electric dark correction enabled: true
Nonlinearity correction enabled: false
Boxcar width: 0
XAxis mode: Wavelengths
Number of Pixels in Spectrum: 2048
>>>>>Begin Spectral Data<<<<<
223.165	-18.62
223.4	-18.62
223.635	-18.62
223.869	-2.62
224.104	-21.62
224.338	-24.62
224.573	-25.62
224.808	5.38
225.042	-14.62
225.277	-11.62
225.511	0.38
225.746	5.38
225.98	13.38
226.215	-5.62
226.449	17.38
226.683	19.38
226.918	22.38
227.152	41.38
227.387	31.38
227.621	27.38
227.856	53.38
228.09	39.38
228.324	55.38
228.559	61.38
228.793	76.38
229.027	113.38
229.262	136.38
229.496	134.38
229.73	140.38
229.964	155.38
230.199	167.38
230.433	184.38
230.667	170.38
230.901	158.38
231.136	142.38
231.37	144.38
231.604	160.38
231.838	183.38
232.072	180.38
232.306	168.38
232.541	146.38
232.775	146.38
233.009	160.38
233.243	138.38
233.477	154.38
233.711	148.38
233.945	156.38
234.179	159.38
234.413	159.38
234.647	165.38
234.881	160.38
235.115	157.38
235.349	156.38
235.583	161.38
235.817	153.38
236.051	152.38
236.285	150.38
236.519	154.38
236.753	132.38
236.987	164.38
237.221	153.38
237.455	152.38
237.689	172.38
237.922	176.38
238.156	180.38
238.39	165.38
238.624	166.38
238.858	168.38
239.091	167.38
239.325	176.38
239.559	188.38
239.793	207.38
240.027	202.38
240.26	184.38
240.494	184.38
240.728	169.38
240.961	170.38
241.195	180.38
241.429	193.38
241.662	193.38
241.896	215.38
242.13	212.38
242.363	190.38
242.597	184.38
242.83	172.38
243.064	192.38
243.298	202.38
243.531	180.38
243.765	200.38
243.998	213.38
244.232	219.38
244.465	193.38
244.699	200.38
244.932	202.38
245.166	198.38
245.399	216.38
245.633	208.38
245.866	217.38
246.099	220.38
246.333	214.38
246.566	224.38
246.8	221.38
247.033	223.38
247.266	238.38
247.5	228.38
247.733	233.38
247.966	240.38
248.2	239.38
248.433	246.38
248.666	240.38
248.899	253.38
249.133	246.38
249.366	244.38
249.599	240.38
249.832	246.38
250.066	256.38
250.299	256.38
250.532	289.38
250.765	269.38
250.998	278.38
251.231	269.38
251.465	297.38
251.698	303.38
251.931	298.38
252.164	283.38
252.397	312.38
252.63	300.38
252.863	300.38
253.096	303.38
253.329	309.38
253.562	288.38
253.795	310.38
254.028	312.38
254.261	304.38
254.494	325.38
254.727	336.38
254.96	327.38
255.193	323.38
255.426	334.38
255.659	350.38
255.892	340.38
256.124	346.38
256.357	348.38
256.59	352.38
256.823	366.38
257.056	343.38
257.289	375.38
257.521	358.38
257.754	378.38
257.987	360.38
258.22	383.38
258.452	364.38
258.685	390.38
258.918	369.38
259.151	375.38
259.383	372.38
259.616	389.38
259.849	368.38
260.081	374.38
260.314	388.38
260.547	404.38
260.779	405.38
261.012	418.38
261.244	425.38
261.477	404.38
261.71	399.38
261.942	396.38
262.175	396.38
262.407	414.38
262.64	417.38
262.872	431.38
263.105	416.38
263.337	439.38
263.57	424.38
263.802	437.38
264.035	423.38
264.267	432.38
264.499	450.38
264.732	427.38
264.964	421.38
265.197	452.38
265.429	422.38
265.661	433.38
265.894	444.38
266.126	446.38
266.358	455.38
266.591	459.38
266.823	454.38
267.055	434.38
267.287	452.38
267.52	448.38
267.752	458.38
267.984	460.38
268.216	453.38
268.448	463.38
268.681	464.38
268.913	465.38
269.145	466.38
269.377	481.38
269.609	462.38
269.841	493.38
270.073	472.38
270.306	464.38
270.538	484.38
270.77	477.38
271.002	484.38
271.234	480.38
271.466	462.38
271.698	492.38
271.93	468.38
272.162	489.38
272.394	487.38
272.626	501.38
272.858	488.38
273.09	491.38
273.322	504.38
273.553	492.38
273.785	496.38
274.017	493.38
274.249	507.38
274.481	497.38
274.713	523.38
274.945	505.38
275.176	506.38
275.408	520.38
275.64	511.38
275.872	500.38
276.104	495.38
276.335	502.38
276.567	530.38
276.799	522.38
277.031	512.38
277.262	525.38
277.494	529.38
277.726	504.38
277.957	550.38
278.189	540.38
278.421	538.38
278.652	529.38
278.884	516.38
279.115	521.38
279.347	543.38
279.579	528.38
279.81	536.38
280.042	523.38
280.273	543.38
280.505	540.38
280.736	542.38
280.968	553.38
281.199	551.38
281.431	532.38
281.662	533.38
281.894	529.38
282.125	550.38
282.356	529.38
282.588	532.38
282.819	538.38
283.051	559.38
283.282	550.38
283.513	566.38
283.745	566.38
283.976	540.38
284.207	538.38
284.439	551.38
284.67	579.38
284.901	557.38
285.132	554.38
285.364	550.38
285.595	570.38
285.826	549.38
286.057	567.38
286.288	555.38
286.52	565.38
286.751	585.38
286.982	566.38
287.213	567.38
287.444	561.38
287.675	561.38
287.906	569.38
288.138	564.38
288.369	576.38
288.6	552.38
288.831	599.38
289.062	583.38
289.293	588.38
289.524	592.38
289.755	597.38
289.986	586.38
290.217	574.38
290.448	556.38
290.679	604.38
290.91	599.38
291.141	591.38
291.371	597.38
291.602	582.38
291.833	550.38
292.064	592.38
292.295	593.38
292.526	591.38
292.757	590.38
292.987	597.38
293.218	582.38
293.449	595.38
293.68	588.38
293.91	587.38
294.141	566.38
294.372	570.38
294.603	588.38
294.833	575.38
295.064	572.38
295.295	606.38
295.525	585.38
295.756	566.38
295.987	574.38
296.217	596.38
296.448	590.38
296.679	583.38
296.909	583.38
297.14	601.38
297.37	639.38
297.601	632.38
297.831	600.38
298.062	595.38
298.292	593.38
298.523	637.38
298.753	633.38
298.984	616.38
299.214	632.38
299.445	618.38
299.675	621.38
299.905	634.38
300.136	636.38
300.366	667.38
300.597	648.38
300.827	666.38
301.057	649.38
301.288	640.38
301.518	642.38
301.748	644.38
301.979	644.38
302.209	654.38
302.439	639.38
302.669	645.38
302.9	653.38
303.13	634.38
303.36	684.38
303.59	673.38
303.82	668.38
304.051	691.38
304.281	662.38
304.511	685.38
304.741	661.38
304.971	684.38
305.201	699.38
305.431	673.38
305.661	714.38
305.891	694.38
306.121	684.38
306.352	658.38
306.582	676.38
306.812	649.38
307.042	684.38
307.272	682.38
307.502	673.38
307.731	670.38
307.961	684.38
308.191	673.38
308.421	690.38
308.651	692.38
308.881	696.38
309.111	658.38
309.341	678.38
309.571	689.38
309.8	721.38
310.03	735.38
310.26	751.38
310.49	729.38
310.72	728.38
310.949	707.38
311.179	738.38
311.409	700.38
311.639	730.38
311.868	722.38
312.098	716.38
312.328	735.38
312.557	747.38
312.787	744.38
313.017	752.38
313.246	748.38
313.476	777.38
313.706	780.38
313.935	754.38
314.165	769.38
314.394	772.38
314.624	774.38
314.853	780.38
315.083	767.38
315.312	788.38
315.542	785.38
315.771	752.38
316.001	815.38
316.23	813.38
316.46	807.38
316.689	796.38
316.919	782.38
317.148	825.38
317.377	841.38
317.607	821.38
317.836	805.38
318.065	806.38
318.295	851.38
318.524	841.38
318.753	781.38
318.983	820.38
319.212	830.38
319.441	832.38
319.67	851.38
319.9	828.38
320.129	840.38
320.358	847.38
320.587	847.38
320.816	874.38
321.046	872.38
321.275	868.38
321.504	876.38
321.733	865.38
321.962	889.38
322.191	902.38
322.42	915.38
322.649	902.38
322.878	896.38
323.108	908.38
323.337	876.38
323.566	910.38
323.795	936.38
324.024	926.38
324.253	925.38
324.482	939.38
324.71	974.38
324.939	942.38
325.168	937.38
325.397	921.38
325.626	933.38
325.855	968.38
326.084	978.38
326.313	985.38
326.542	981.38
326.77	1047.38
326.999	996.38
327.228	1005.38
327.457	1000.38
327.686	1009.38
327.914	1013.38
328.143	1010.38
328.372	1013.38
328.6	1006.38
328.829	1055.38
329.058	1031.38
329.287	1014.38
329.515	997.38
329.744	1015.38
329.972	1006.38
330.201	1048.38
330.43	1046.38
330.658	1073.38
330.887	1087.38
331.115	1087.38
331.344	1088.38
331.572	1084.38
331.801	1110.38
332.03	1096.38
332.258	1086.38
332.486	1109.38
332.715	1125.38
332.943	1132.38
333.172	1121.38
333.4	1104.38
333.629	1130.38
333.857	1135.38
334.085	1154.38
334.314	1160.38
334.542	1144.38
334.771	1169.38
334.999	1167.38
335.227	1212.38
335.455	1195.38
335.684	1208.38
335.912	1201.38
336.14	1208.38
336.369	1192.38
336.597	1190.38
336.825	1234.38
337.053	1232.38
337.281	1222.38
337.51	1209.38
337.738	1224.38
337.966	1216.38
338.194	1196.38
338.422	1191.38
338.65	1151.38
338.878	1162.38
339.106	1198.38
339.334	1201.38
339.562	1218.38
339.79	1174.38
340.018	1154.38
340.246	1144.38
340.474	1160.38
340.702	1124.38
340.93	1164.38
341.158	1156.38
341.386	1214.38
341.614	1233.38
341.842	1171.38
342.07	1141.38
342.298	1188.38
342.526	1169.38
342.754	1150.38
342.981	1117.38
343.209	1162.38
343.437	1168.38
343.665	1189.38
343.893	1197.38
344.12	1198.38
344.348	1201.38
344.576	1223.38
344.804	1219.38
345.031	1177.38
345.259	1192.38
345.487	1161.38
345.714	1181.38
345.942	1190.38
346.17	1234.38
346.397	1198.38
346.625	1129.38
346.853	1146.38
347.08	1132.38
347.308	1150.38
347.535	1152.38
347.763	1108.38
347.99	1161.38
348.218	1136.38
348.445	1130.38
348.673	1126.38
348.9	1128.38
349.128	1153.38
349.355	1168.38
349.583	1161.38
349.81	1118.38
350.037	1087.38
350.265	1114.38
350.492	1131.38
350.72	1116.38
350.947	1132.38
351.174	1158.38
351.402	1158.38
351.629	1147.38
351.856	1165.38
352.083	1127.38
352.311	1130.38
352.538	1160.38
352.765	1170.38
352.992	1096.38
353.22	1053.38
353.447	1076.38
353.674	1101.38
353.901	1092.38
354.128	1103.38
354.355	1108.38
354.583	1067.38
354.81	1100.38
355.037	1115.38
355.264	1110.38
355.491	1104.38
355.718	1097.38
355.945	1090.38
356.172	1110.38
356.399	1112.38
356.626	1141.38
356.853	1124.38
357.08	1127.38
357.307	1116.38
357.534	1097.38
357.761	1109.38
357.988	1073.38
358.215	1112.38
358.441	1096.38
358.668	1093.38
358.895	1093.38
359.122	1099.38
359.349	1069.38
359.576	1093.38
359.802	1094.38
360.029	1097.38
360.256	1081.38
360.483	1074.38
360.709	1118.38
360.936	1108.38
361.163	1122.38
361.39	1081.38
361.616	1102.38
361.843	1084.38
362.07	1146.38
362.296	1120.38
362.523	1084.38
362.749	1088.38
362.976	1093.38
363.203	1088.38
363.429	1050.38
363.656	1063.38
363.882	1089.38
364.109	1076.38
364.335	1080.38
364.562	1095.38
364.788	1131.38
365.015	1110.38
365.241	1094.38
365.468	1106.38
365.694	1074.38
365.92	1071.38
366.147	1063.38
366.373	1094.38
366.599	1098.38
366.826	1097.38
367.052	1089.38
367.278	1108.38
367.505	1105.38
367.731	1107.38
367.957	1100.38
368.184	1115.38
368.41	1096.38
368.636	1105.38
368.862	1083.38
369.089	1076.38
369.315	1105.38
369.541	1130.38
369.767	1105.38
369.993	1091.38
370.219	1088.38
370.445	1067.38
370.672	1111.38
370.898	1103.38
371.124	1108.38
371.35	1111.38
371.576	1101.38
371.802	1091.38
372.028	1100.38
372.254	1090.38
372.48	1124.38
372.706	1129.38
372.932	1106.38
373.158	1119.38
373.384	1112.38
373.61	1097.38
373.835	1103.38
374.061	1114.38
374.287	1102.38
374.513	1090.38
374.739	1090.38
374.965	1091.38
375.191	1133.38
375.416	1149.38
375.642	1057.38
375.868	1105.38
376.094	1083.38
376.319	1074.38
376.545	1089.38
376.771	1074.38
376.997	1087.38
377.222	1076.38
377.448	1068.38
377.674	1113.38
377.899	1076.38
378.125	1056.38
378.35	1056.38
378.576	1060.38
378.802	1071.38
379.027	1048.38
379.253	1057.38
379.478	1042.38
379.704	1016.38
379.929	1066.38
380.155	1057.38
380.38	1072.38
380.606	1077.38
380.831	1086.38
381.057	1053.38
381.282	1052.38
381.507	1066.38
381.733	1076.38
381.958	1076.38
382.184	1085.38
382.409	1040.38
382.634	1081.38
382.86	1058.38
383.085	1059.38
383.31	1055.38
383.535	1072.38
383.761	1062.38
383.986	1098.38
384.211	1068.38
384.436	1098.38
384.662	1083.38
384.887	1135.38
385.112	1116.38
385.337	1126.38
385.562	1106.38
385.787	1112.38
386.013	1170.38
386.238	1185.38
386.463	1162.38
386.688	1125.38
386.913	1115.38
387.138	1107.38
387.363	1129.38
387.588	1140.38
387.813	1158.38
388.038	1115.38
388.263	1150.38
388.488	1162.38
388.713	1143.38
388.938	1129.38
389.163	1148.38
389.387	1172.38
389.612	1143.38
389.837	1149.38
390.062	1148.38
390.287	1143.38
390.512	1149.38
390.736	1166.38
390.961	1183.38
391.186	1143.38
391.411	1196.38
391.636	1151.38
391.86	1193.38
392.085	1206.38
392.31	1189.38
392.534	1180.38
392.759	1210.38
392.984	1176.38
393.208	1166.38
393.433	1185.38
393.658	1190.38
393.882	1170.38
394.107	1151.38
394.331	1188.38
394.556	1148.38
394.78	1174.38
395.005	1185.38
395.229	1162.38
395.454	1185.38
395.678	1192.38
395.903	1200.38
396.127	1208.38
396.352	1186.38
396.576	1193.38
396.801	1215.38
397.025	1228.38
397.249	1226.38
397.474	1223.38
397.698	1226.38
397.922	1232.38
398.147	1271.38
398.371	1271.38
398.595	1273.38
398.82	1272.38
399.044	1315.38
399.268	1309.38
399.492	1305.38
399.717	1365.38
399.941	1336.38
400.165	1368.38
400.389	1365.38
400.613	1316.38
400.837	1312.38
401.062	1356.38
401.286	1302.38
401.51	1274.38
401.734	1302.38
401.958	1308.38
402.182	1289.38
402.406	1308.38
402.63	1281.38
402.854	1323.38
403.078	1298.38
403.302	1276.38
403.526	1271.38
403.75	1275.38
403.974	1296.38
404.198	1288.38
404.422	1276.38
404.645	1299.38
404.869	1297.38
405.093	1346.38
405.317	1330.38
405.541	1319.38
405.765	1296.38
405.988	1304.38
406.212	1349.38
406.436	1329.38
406.66	1376.38
406.883	1366.38
407.107	1393.38
407.331	1387.38
407.555	1419.38
407.778	1408.38
408.002	1393.38
408.226	1437.38
408.449	1412.38
408.673	1381.38
408.896	1418.38
409.12	1389.38
409.344	1418.38
409.567	1387.38
409.791	1404.38
410.014	1381.38
410.238	1354.38
410.461	1368.38
410.685	1348.38
410.908	1353.38
411.132	1349.38
411.355	1345.38
411.578	1357.38
411.802	1347.38
412.025	1352.38
412.249	1329.38
412.472	1352.38
412.695	1347.38
412.919	1314.38
413.142	1337.38
413.365	1358.38
413.589	1351.38
413.812	1300.38
414.035	1289.38
414.258	1358.38
414.482	1313.38
414.705	1348.38
414.928	1305.38
415.151	1310.38
415.374	1340.38
415.597	1294.38
415.821	1310.38
416.044	1305.38
416.267	1306.38
416.49	1302.38
416.713	1274.38
416.936	1269.38
417.159	1326.38
417.382	1275.38
417.605	1290.38
417.828	1281.38
418.051	1275.38
418.274	1244.38
418.497	1260.38
418.72	1282.38
418.943	1246.38
419.166	1323.38
419.389	1418.38
419.611	1398.38
419.834	1319.38
420.057	1313.38
420.28	1293.38
420.503	1288.38
420.726	1269.38
420.948	1274.38
421.171	1277.38
421.394	1286.38
421.617	1284.38
421.839	1293.38
422.062	1287.38
422.285	1268.38
422.507	1290.38
422.73	1279.38
422.953	1271.38
423.175	1287.38
423.398	1297.38
423.621	1268.38
423.843	1278.38
424.066	1293.38
424.288	1307.38
424.511	1298.38
424.733	1298.38
424.956	1295.38
425.178	1305.38
425.401	1290.38
425.623	1327.38
425.846	1300.38
426.068	1305.38
426.291	1280.38
426.513	1311.38
426.735	1310.38
426.958	1293.38
427.18	1275.38
427.402	1256.38
427.625	1302.38
427.847	1251.38
428.069	1259.38
428.292	1291.38
428.514	1306.38
428.736	1272.38
428.958	1311.38
429.181	1277.38
429.403	1275.38
429.625	1282.38
429.847	1281.38
430.069	1281.38
430.292	1301.38
430.514	1308.38
430.736	1313.38
430.958	1318.38
431.18	1265.38
431.402	1328.38
431.624	1292.38
431.846	1276.38
432.068	1248.38
432.29	1324.38
432.512	1294.38
432.734	1301.38
432.956	1276.38
433.178	1341.38
433.4	1350.38
433.622	1376.38
433.844	1358.38
434.066	1338.38
434.287	1322.38
434.509	1302.38
434.731	1272.38
434.953	1342.38
435.175	1342.38
435.397	1401.38
435.618	1332.38
435.84	1311.38
436.062	1297.38
436.284	1312.38
436.505	1307.38
436.727	1304.38
436.949	1323.38
437.17	1291.38
437.392	1289.38
437.614	1265.38
437.835	1246.38
438.057	1267.38
438.278	1234.38
438.5	1292.38
438.721	1239.38
438.943	1300.38
439.165	1265.38
439.386	1284.38
439.608	1301.38
439.829	1312.38
440.05	1327.38
440.272	1289.38
440.493	1317.38
440.715	1306.38
440.936	1323.38
441.158	1329.38
441.379	1341.38
441.6	1348.38
441.822	1344.38
442.043	1369.38
442.264	1362.38
442.486	1349.38
442.707	1343.38
442.928	1340.38
443.149	1341.38
443.371	1340.38
443.592	1378.38
443.813	1359.38
444.034	1345.38
444.255	1335.38
444.476	1354.38
444.698	1345.38
444.919	1386.38
445.14	1520.38
445.361	1450.38
445.582	1403.38
445.803	1334.38
446.024	1322.38
446.245	1311.38
446.466	1284.38
446.687	1289.38
446.908	1312.38
447.129	1273.38
447.35	1248.38
447.571	1287.38
447.792	1246.38
448.013	1245.38
448.234	1236.38
448.455	1229.38
448.675	1230.38
448.896	1223.38
449.117	1196.38
449.338	1226.38
449.559	1220.38
449.779	1186.38
450	1221.38
450.221	1197.38
450.442	1245.38
450.662	1207.38
450.883	1226.38
451.104	1237.38
451.324	1216.38
451.545	1225.38
451.766	1223.38
451.986	1184.38
452.207	1201.38
452.428	1194.38
452.648	1185.38
452.869	1178.38
453.089	1168.38
453.31	1202.38
453.53	1170.38
453.751	1161.38
453.971	1181.38
454.192	1206.38
454.412	1217.38
454.633	1171.38
454.853	1164.38
455.073	1177.38
455.294	1202.38
455.514	1196.38
455.734	1184.38
455.955	1192.38
456.175	1192.38
456.395	1173.38
456.616	1154.38
456.836	1169.38
457.056	1194.38
457.276	1192.38
457.497	1217.38
457.717	1214.38
457.937	1206.38
458.157	1176.38
458.377	1200.38
458.598	1230.38
458.818	1198.38
459.038	1213.38
459.258	1208.38
459.478	1320.38
459.698	1346.38
459.918	1345.38
460.138	1345.38
460.358	1325.38
460.578	1313.38
460.798	1384.38
461.018	1352.38
461.238	1326.38
461.458	1300.38
461.678	1345.38
461.898	1368.38
462.118	1343.38
462.338	1348.38
462.558	1375.38
462.777	1415.38
462.997	1431.38
463.217	1441.38
463.437	1473.38
463.657	1434.38
463.876	1440.38
464.096	1440.38
464.316	1415.38
464.536	1390.38
464.755	1402.38
464.975	1376.38
465.195	1348.38
465.414	1320.38
465.634	1299.38
465.854	1259.38
466.073	1281.38
466.293	1292.38
466.512	1276.38
466.732	1277.38
466.951	1278.38
467.171	1262.38
467.391	1286.38
467.61	1264.38
467.829	1272.38
468.049	1244.38
468.268	1257.38
468.488	1256.38
468.707	1232.38
468.927	1273.38
469.146	1292.38
469.365	1307.38
469.585	1266.38
469.804	1309.38
470.023	1276.38
470.243	1264.38
470.462	1278.38
470.681	1225.38
470.901	1255.38
471.12	1287.38
471.339	1302.38
471.558	1284.38
471.777	1316.38
471.997	1263.38
472.216	1297.38
472.435	1273.38
472.654	1276.38
472.873	1263.38
473.092	1238.38
473.311	1288.38
473.53	1276.38
473.749	1286.38
473.968	1324.38
474.187	1258.38
474.406	1292.38
474.625	1262.38
474.844	1304.38
475.063	1302.38
475.282	1370.38
475.501	1332.38
475.72	1317.38
475.939	1386.38
476.158	1354.38
476.377	1347.38
476.596	1339.38
476.814	1367.38
477.033	1384.38
477.252	1363.38
477.471	1395.38
477.69	1404.38
477.908	1422.38
478.127	1456.38
478.346	1412.38
478.564	1460.38
478.783	1446.38
479.002	1497.38
479.22	1537.38
479.439	1501.38
479.658	1496.38
479.876	1485.38
480.095	1495.38
480.313	1458.38
480.532	1505.38
480.751	1510.38
480.969	1498.38
481.188	1480.38
481.406	1499.38
481.624	1521.38
481.843	1481.38
482.061	1446.38
482.28	1477.38
482.498	1480.38
482.717	1505.38
482.935	1508.38
483.153	1546.38
483.372	1544.38
483.59	1557.38
483.808	1540.38
484.027	1549.38
484.245	1567.38
484.463	1512.38
484.681	1553.38
484.9	1502.38
485.118	1560.38
485.336	1554.38
485.554	1551.38
485.772	1561.38
485.99	1539.38
486.209	1560.38
486.427	1537.38
486.645	1545.38
486.863	1576.38
487.081	1561.38
487.299	1553.38
487.517	1576.38
487.735	1601.38
487.953	1622.38
488.171	1598.38
488.389	1603.38
488.607	1556.38
488.825	1573.38
489.043	1562.38
489.261	1607.38
489.479	1584.38
489.696	1576.38
489.914	1559.38
490.132	1585.38
490.35	1604.38
490.568	1582.38
490.786	1643.38
491.003	1623.38
491.221	1667.38
491.439	1652.38
491.657	1650.38
491.874	1673.38
492.092	1645.38
492.31	1692.38
492.527	1663.38
492.745	1653.38
492.963	1679.38
493.18	1670.38
493.398	1659.38
493.615	1686.38
493.833	1691.38
494.05	1676.38
494.268	1654.38
494.485	1660.38
494.703	1662.38
494.92	1695.38
495.138	1689.38
495.355	1724.38
495.573	1718.38
495.79	1709.38
496.008	1746.38
496.225	1728.38
496.442	1732.38
496.66	1740.38
496.877	1800.38
497.094	1766.38
497.312	1756.38
497.529	1798.38
497.746	1806.38
497.963	1858.38
498.181	1829.38
498.398	1854.38
498.615	1918.38
498.832	1921.38
499.049	1984.38
499.267	1992.38
499.484	2033.38
499.701	2060.38
499.918	2090.38
500.135	2151.38
500.352	2186.38
500.569	2178.38
500.786	2166.38
501.003	2174.38
501.22	2137.38
501.437	2065.38
501.654	2044.38
501.871	2031.38
502.088	2031.38
502.305	1993.38
502.522	1955.38
502.739	1934.38
502.956	1862.38
503.172	1800.38
503.389	1826.38
503.606	1771.38
503.823	1814.38
504.04	1756.38
504.256	1686.38
504.473	1701.38
504.69	1686.38
504.907	1677.38
505.123	1656.38
505.34	1582.38
505.557	1592.38
505.773	1582.38
505.99	1565.38
506.207	1555.38
506.423	1528.38
506.64	1594.38
506.856	1515.38
507.073	1526.38
507.289	1491.38
507.506	1511.38
507.722	1489.38
507.939	1478.38
508.155	1470.38
508.372	1496.38
508.588	1442.38
508.805	1451.38
509.021	1422.38
509.238	1405.38
509.454	1425.38
509.67	1410.38
509.887	1405.38
510.103	1412.38
510.319	1381.38
510.536	1385.38
510.752	1369.38
510.968	1359.38
511.184	1356.38
511.401	1377.38
511.617	1346.38
511.833	1380.38
512.049	1337.38
512.265	1382.38
512.481	1388.38
512.698	1357.38
512.914	1381.38
513.13	1357.38
513.346	1347.38
513.562	1360.38
513.778	1361.38
513.994	1343.38
514.21	1368.38
514.426	1350.38
514.642	1384.38
514.858	1352.38
515.074	1382.38
515.29	1376.38
515.506	1373.38
515.721	1375.38
515.937	1373.38
516.153	1374.38
516.369	1395.38
516.585	1408.38
516.801	1417.38
517.016	1425.38
517.232	1400.38
517.448	1391.38
517.664	1423.38
517.879	1404.38
518.095	1440.38
518.311	1374.38
518.527	1407.38
518.742	1393.38
518.958	1416.38
519.173	1381.38
519.389	1352.38
519.605	1358.38
519.82	1347.38
520.036	1355.38
520.251	1311.38
520.467	1345.38
520.682	1327.38
520.898	1315.38
521.113	1263.38
521.329	1294.38
521.544	1311.38
521.76	1284.38
521.975	1308.38
522.19	1293.38
522.406	1259.38
522.621	1276.38
522.836	1254.38
523.052	1257.38
523.267	1225.38
523.482	1225.38
523.698	1253.38
523.913	1253.38
524.128	1262.38
524.343	1237.38
524.559	1248.38
524.774	1252.38
524.989	1238.38
525.204	1253.38
525.419	1244.38
525.634	1233.38
525.849	1218.38
526.064	1241.38
526.28	1232.38
526.495	1178.38
526.71	1199.38
526.925	1202.38
527.14	1184.38
527.355	1189.38
527.57	1182.38
527.785	1187.38
527.999	1184.38
528.214	1194.38
528.429	1217.38
528.644	1212.38
528.859	1184.38
529.074	1208.38
529.289	1205.38
529.503	1204.38
529.718	1197.38
529.933	1182.38
530.148	1161.38
530.363	1186.38
530.577	1168.38
530.792	1176.38
531.007	1160.38
531.221	1143.38
531.436	1152.38
531.651	1136.38
531.865	1181.38
532.08	1160.38
532.295	1150.38
532.509	1133.38
532.724	1129.38
532.938	1175.38
533.153	1164.38
533.367	1156.38
533.582	1178.38
533.796	1146.38
534.011	1105.38
534.225	1137.38
534.44	1137.38
534.654	1155.38
534.868	1152.38
535.083	1136.38
535.297	1103.38
535.511	1153.38
535.726	1124.38
535.94	1112.38
536.154	1108.38
536.369	1088.38
536.583	1087.38
536.797	1088.38
537.011	1109.38
537.225	1081.38
537.44	1086.38
537.654	1081.38
537.868	1079.38
538.082	1069.38
538.296	1050.38
538.51	1081.38
538.724	1085.38
538.938	1064.38
539.153	1056.38
539.367	1086.38
539.581	1056.38
539.795	1082.38
540.009	1075.38
540.222	1057.38
540.436	1072.38
540.65	1024.38
540.864	1056.38
541.078	1049.38
541.292	1076.38
541.506	1106.38
541.72	1045.38
541.934	1092.38
542.147	1115.38
542.361	1099.38
542.575	1081.38
542.789	1071.38
543.002	1046.38
543.216	1065.38
543.43	1048.38
543.644	1036.38
543.857	1054.38
544.071	1054.38
544.285	1062.38
544.498	1087.38
544.712	1067.38
544.925	1071.38
545.139	1057.38
545.352	1029.38
545.566	1057.38
545.779	1057.38
545.993	1054.38
546.206	1061.38
546.42	1039.38
546.633	1042.38
546.847	1031.38
547.06	1058.38
547.274	1090.38
547.487	1050.38
547.7	1057.38
547.914	1065.38
548.127	1004.38
548.34	1047.38
548.554	1008.38
548.767	1018.38
548.98	1034.38
549.193	1028.38
549.407	1018.38
549.62	1039.38
549.833	1066.38
550.046	1002.38
550.259	1005.38
550.473	1024.38
550.686	1026.38
550.899	1009.38
551.112	1006.38
551.325	1012.38
551.538	1047.38
551.751	986.38
551.964	982.38
552.177	1012.38
552.39	1001.38
552.603	1011.38
552.816	1038.38
553.029	1031.38
553.242	1001.38
553.455	994.38
553.667	1010.38
553.88	990.38
554.093	988.38
554.306	960.38
554.519	984.38
554.732	969.38
554.944	938.38
555.157	939.38
555.37	918.38
555.583	940.38
555.795	950.38
556.008	961.38
556.221	952.38
556.433	913.38
556.646	920.38
556.859	904.38
557.071	908.38
557.284	943.38
557.496	926.38
557.709	894.38
557.921	917.38
558.134	899.38
558.346	898.38
558.559	916.38
558.771	872.38
558.984	893.38
559.196	883.38
559.409	902.38
559.621	889.38
559.833	878.38
560.046	894.38
560.258	878.38
560.47	881.38
560.683	873.38
560.895	855.38
561.107	845.38
561.32	854.38
561.532	889.38
561.744	856.38
561.956	897.38
562.168	862.38
562.381	846.38
562.593	863.38
562.805	872.38
563.017	884.38
563.229	856.38
563.441	861.38
563.653	851.38
563.865	870.38
564.077	854.38
564.289	860.38
564.501	865.38
564.713	863.38
564.925	871.38
565.137	883.38
565.349	906.38
565.561	904.38
565.773	925.38
565.985	920.38
566.197	908.38
566.408	903.38
566.62	930.38
566.832	936.38
567.044	939.38
567.255	950.38
567.467	916.38
567.679	932.38
567.891	920.38
568.102	901.38
568.314	893.38
568.526	858.38
568.737	885.38
568.949	868.38
569.161	847.38
569.372	849.38
569.584	830.38
569.795	821.38
570.007	801.38
570.218	772.38
570.43	780.38
570.641	779.38
570.853	765.38
571.064	760.38
571.276	757.38
571.487	739.38
571.698	732.38
571.91	729.38
572.121	742.38
572.333	742.38
572.544	730.38
572.755	719.38
572.966	723.38
573.178	710.38
573.389	705.38
573.6	687.38
573.811	668.38
574.023	697.38
574.234	698.38
574.445	681.38
574.656	664.38
574.867	674.38
575.078	658.38
575.289	673.38
575.501	672.38
575.712	660.38
575.923	664.38
576.134	659.38
576.345	650.38
576.556	652.38
576.767	621.38
576.978	658.38
577.188	654.38
577.399	651.38
577.61	636.38
577.821	653.38
578.032	634.38
578.243	621.38
578.454	608.38
578.665	632.38
578.875	609.38
579.086	587.38
579.297	614.38
579.508	602.38
579.718	610.38
579.929	586.38
580.14	592.38
580.35	593.38
580.561	601.38
580.772	605.38
580.982	594.38
581.193	592.38
581.403	582.38
581.614	587.38
581.825	579.38
582.035	559.38
582.246	592.38
582.456	574.38
582.667	572.38
582.877	583.38
583.087	557.38
583.298	559.38
583.508	557.38
583.719	574.38
583.929	536.38
584.139	564.38
584.35	566.38
584.56	567.38
584.77	539.38
584.981	557.38
585.191	555.38
585.401	544.38
585.611	542.38
585.821	544.38
586.032	533.38
586.242	543.38
586.452	529.38
586.662	541.38
586.872	538.38
587.082	542.38
587.292	566.38
587.502	530.38
587.713	530.38
587.923	529.38
588.133	530.38
588.343	549.38
588.553	540.38
588.762	534.38
588.972	520.38
589.182	606.38
589.392	571.38
589.602	556.38
589.812	585.38
590.022	526.38
590.232	525.38
590.441	504.38
590.651	529.38
590.861	540.38
591.071	514.38
591.281	534.38
591.49	520.38
591.7	524.38
591.91	534.38
592.119	531.38
592.329	537.38
592.539	564.38
592.748	534.38
592.958	548.38
593.167	532.38
593.377	523.38
593.587	535.38
593.796	534.38
594.006	524.38
594.215	523.38
594.424	504.38
594.634	507.38
594.843	497.38
595.053	504.38
595.262	509.38
595.472	517.38
595.681	479.38
595.89	497.38
596.1	500.38
596.309	491.38
596.518	480.38
596.727	479.38
596.937	495.38
597.146	476.38
597.355	484.38
597.564	455.38
597.774	449.38
597.983	481.38
598.192	460.38
598.401	468.38
598.61	476.38
598.819	472.38
599.028	437.38
599.237	457.38
599.446	443.38
599.655	462.38
599.864	473.38
600.073	449.38
600.282	431.38
600.491	438.38
600.7	458.38
600.909	455.38
601.118	451.38
601.327	429.38
601.536	449.38
601.745	440.38
601.953	433.38
602.162	422.38
602.371	432.38
602.58	444.38
602.789	431.38
602.997	426.38
603.206	460.38
603.415	420.38
603.623	426.38
603.832	420.38
604.041	414.38
604.249	420.38
604.458	414.38
604.666	413.38
604.875	424.38
605.084	401.38
605.292	432.38
605.501	406.38
605.709	440.38
605.918	416.38
606.126	415.38
606.334	430.38
606.543	408.38
606.751	402.38
606.96	414.38
607.168	414.38
607.376	399.38
607.585	408.38
607.793	416.38
608.001	406.38
608.21	400.38
608.418	380.38
608.626	396.38
608.834	393.38
609.043	395.38
609.251	381.38
609.459	373.38
609.667	396.38
609.875	407.38
610.083	405.38
610.291	408.38
610.499	404.38
610.707	400.38
610.916	394.38
611.124	385.38
611.332	382.38
611.54	392.38
611.748	392.38
611.955	391.38
612.163	384.38
612.371	383.38
612.579	382.38
612.787	389.38
612.995	384.38
613.203	394.38
613.411	374.38
613.618	388.38
613.826	395.38
614.034	386.38
614.242	383.38
614.449	378.38
614.657	392.38
614.865	394.38
615.072	380.38
615.28	376.38
615.488	370.38
615.695	366.38
615.903	379.38
616.111	384.38
616.318	372.38
616.526	363.38
616.733	369.38
616.941	391.38
617.148	358.38
617.356	345.38
617.563	364.38
617.771	375.38
617.978	363.38
618.185	377.38
618.393	349.38
618.6	350.38
618.807	364.38
619.015	353.38
619.222	364.38
619.429	364.38
619.637	361.38
619.844	343.38
620.051	350.38
620.258	354.38
620.466	349.38
620.673	349.38
620.88	356.38
621.087	352.38
621.294	351.38
621.501	368.38
621.708	347.38
621.915	347.38
622.122	334.38
622.329	339.38
622.536	349.38
622.743	352.38
622.95	346.38
623.157	328.38
623.364	343.38
623.571	361.38
623.778	349.38
623.985	350.38
624.192	333.38
624.399	350.38
624.606	331.38
624.812	340.38
625.019	328.38
625.226	351.38
625.433	334.38
625.639	332.38
625.846	310.38
626.053	328.38
626.259	320.38
626.466	312.38
626.673	317.38
626.879	308.38
627.086	331.38
627.293	311.38
627.499	339.38
627.706	308.38
627.912	320.38
628.119	303.38
628.325	329.38
628.532	308.38
628.738	317.38
628.945	338.38
629.151	305.38
629.357	306.38
629.564	305.38
629.77	300.38
629.976	318.38
630.183	296.38
630.389	287.38
630.595	312.38
630.802	305.38
631.008	291.38
631.214	293.38
631.42	300.38
631.627	306.38
631.833	319.38
632.039	294.38
632.245	305.38
632.451	305.38
632.657	312.38
632.863	308.38
633.069	307.38
633.275	300.38
633.481	293.38
633.688	292.38
633.893	279.38
634.099	298.38
634.305	279.38
634.511	308.38
634.717	289.38
634.923	292.38
635.129	277.38
635.335	271.38
635.541	276.38
635.747	278.38
635.952	284.38
636.158	285.38
636.364	304.38
636.57	285.38
636.775	258.38
636.981	301.38
637.187	278.38
637.392	273.38
637.598	288.38
637.804	289.38
638.009	286.38
638.215	280.38
638.421	280.38
638.626	285.38
638.832	273.38
639.037	284.38
639.243	255.38
639.448	260.38
639.654	274.38
639.859	262.38
640.065	272.38
640.27	288.38
640.475	256.38
640.681	270.38
640.886	278.38
641.091	268.38
641.297	258.38
641.502	261.38
641.707	254.38
641.913	252.38
642.118	244.38
642.323	259.38
642.528	261.38
642.733	268.38
642.939	270.38
643.144	266.38
643.349	271.38
643.554	276.38
643.759	259.38
643.964	259.38
644.169	254.38
644.374	249.38
644.579	281.38
644.784	254.38
644.989	260.38
645.194	272.38
645.399	256.38
645.604	252.38
645.809	270.38
646.014	267.38
646.219	274.38
646.423	257.38
646.628	264.38
646.833	258.38
647.038	276.38
647.243	280.38
647.447	277.38
647.652	273.38
647.857	280.38
648.062	282.38
648.266	268.38
648.471	279.38
648.676	270.38
648.88	268.38
649.085	271.38
649.289	278.38
649.494	265.38
649.698	261.38
649.903	256.38
650.107	267.38
650.312	269.38
650.516	253.38
650.721	252.38
650.925	261.38
651.13	259.38
651.334	238.38
651.539	239.38
651.743	256.38
651.947	240.38
652.152	243.38
652.356	262.38
652.56	249.38
652.764	235.38
652.969	249.38
653.173	246.38
653.377	214.38
653.581	220.38
653.785	215.38
653.99	229.38
654.194	235.38
654.398	232.38
654.602	221.38
654.806	216.38
655.01	214.38
655.214	199.38
655.418	212.38
655.622	212.38
655.826	230.38
656.03	199.38
656.234	215.38
656.438	224.38
656.642	194.38
656.846	200.38
657.049	197.38
657.253	204.38
657.457	212.38
657.661	181.38
657.865	169.38
658.068	165.38
658.272	177.38
658.476	163.38
658.68	154.38
658.883	150.38
659.087	147.38
659.291	158.38
659.494	139.38
659.698	129.38
659.901	133.38
660.105	130.38
660.309	113.38
660.512	116.38
660.716	115.38
660.919	109.38
661.123	131.38
661.326	127.38
661.53	114.38
661.733	112.38
661.936	101.38
662.14	103.38
662.343	91.38
662.546	103.38
662.75	103.38
662.953	99.38
663.156	94.38
663.36	92.38
663.563	97.38
663.766	92.38
663.969	88.38
664.173	84.38
664.376	95.38
664.579	101.38
664.782	85.38
664.985	88.38
665.188	97.38
665.391	85.38
665.594	74.38
665.797	88.38
666	106.38
666.203	91.38
666.406	79.38
666.609	79.38
666.812	87.38
667.015	87.38
667.218	103.38
667.421	89.38
667.624	80.38
667.827	79.38
668.03	73.38
668.232	90.38
668.435	85.38
668.638	78.38
668.841	85.38
669.043	87.38
669.246	77.38
669.449	88.38
669.651	91.38
669.854	78.38
670.057	87.38
670.259	84.38
670.462	82.38
670.665	89.38
670.867	85.38
671.07	89.38
671.272	82.38
671.475	98.38
671.677	95.38
671.88	76.38
672.082	89.38
672.284	97.38
672.487	82.38
672.689	81.38
672.892	76.38
