Data from Ni(NO3)2@0.25M.TitratingCurve.Agarose3%dH2O.NegLispCup.LampEnergy10.LIBS07252019_HRD10591_18-04-55-566.txt Node
Date: Thu Jul 25 18:04:55 EDT 2019
User: cochatt
Spectrometer: HR+D1059
Trigger mode: 1
Integration Time (sec): 1.000000E-1
Scans to average: 1
Electric dark correction enabled: true
Nonlinearity correction enabled: false
Boxcar width: 0
XAxis mode: Wavelengths
Number of Pixels in Spectrum: 2048
>>>>>Begin Spectral Data<<<<<
223.165	-17.19
223.4	-17.19
223.635	-17.19
223.869	-19.19
224.104	-29.19
224.338	-13.19
224.573	-14.19
224.808	-17.19
225.042	-12.19
225.277	-2.19
225.511	-8.19
225.746	-1.19
225.98	6.81
226.215	14.81
226.449	29.81
226.683	24.81
226.918	27.81
227.152	29.81
227.387	22.81
227.621	33.81
227.856	34.81
228.09	51.81
228.324	45.81
228.559	53.81
228.793	70.81
229.027	94.81
229.262	95.81
229.496	105.81
229.73	85.81
229.964	119.81
230.199	114.81
230.433	99.81
230.667	120.81
230.901	113.81
231.136	120.81
231.37	115.81
231.604	117.81
231.838	127.81
232.072	136.81
232.306	145.81
232.541	126.81
232.775	135.81
233.009	138.81
233.243	143.81
233.477	139.81
233.711	141.81
233.945	135.81
234.179	115.81
234.413	147.81
234.647	143.81
234.881	142.81
235.115	123.81
235.349	125.81
235.583	145.81
235.817	135.81
236.051	143.81
236.285	108.81
236.519	133.81
236.753	117.81
236.987	138.81
237.221	155.81
237.455	130.81
237.689	145.81
237.922	135.81
238.156	127.81
238.39	147.81
238.624	140.81
238.858	141.81
239.091	150.81
239.325	157.81
239.559	133.81
239.793	150.81
240.027	162.81
240.26	166.81
240.494	147.81
240.728	154.81
240.961	143.81
241.195	169.81
241.429	161.81
241.662	151.81
241.896	162.81
242.13	164.81
242.363	162.81
242.597	179.81
242.83	165.81
243.064	170.81
243.298	166.81
243.531	162.81
243.765	190.81
243.998	166.81
244.232	176.81
244.465	187.81
244.699	182.81
244.932	189.81
245.166	189.81
245.399	188.81
245.633	183.81
245.866	191.81
246.099	197.81
246.333	177.81
246.566	198.81
246.8	181.81
247.033	181.81
247.266	188.81
247.5	186.81
247.733	194.81
247.966	172.81
248.2	177.81
248.433	206.81
248.666	213.81
248.899	217.81
249.133	216.81
249.366	219.81
249.599	232.81
249.832	208.81
250.066	233.81
250.299	229.81
250.532	219.81
250.765	224.81
250.998	232.81
251.231	233.81
251.465	242.81
251.698	244.81
251.931	237.81
252.164	224.81
252.397	251.81
252.63	238.81
252.863	261.81
253.096	262.81
253.329	271.81
253.562	256.81
253.795	252.81
254.028	245.81
254.261	266.81
254.494	263.81
254.727	256.81
254.96	237.81
255.193	266.81
255.426	260.81
255.659	259.81
255.892	261.81
256.124	269.81
256.357	271.81
256.59	259.81
256.823	277.81
257.056	303.81
257.289	295.81
257.521	290.81
257.754	301.81
257.987	299.81
258.22	291.81
258.452	286.81
258.685	292.81
258.918	304.81
259.151	303.81
259.383	297.81
259.616	307.81
259.849	315.81
260.081	295.81
260.314	308.81
260.547	312.81
260.779	315.81
261.012	307.81
261.244	308.81
261.477	318.81
261.71	324.81
261.942	319.81
262.175	305.81
262.407	337.81
262.64	328.81
262.872	330.81
263.105	333.81
263.337	347.81
263.57	339.81
263.802	339.81
264.035	339.81
264.267	338.81
264.499	333.81
264.732	342.81
264.964	344.81
265.197	328.81
265.429	363.81
265.661	345.81
265.894	355.81
266.126	342.81
266.358	354.81
266.591	344.81
266.823	352.81
267.055	348.81
267.287	359.81
267.52	348.81
267.752	339.81
267.984	336.81
268.216	352.81
268.448	338.81
268.681	365.81
268.913	357.81
269.145	367.81
269.377	374.81
269.609	361.81
269.841	369.81
270.073	373.81
270.306	368.81
270.538	348.81
270.77	356.81
271.002	359.81
271.234	361.81
271.466	357.81
271.698	369.81
271.93	387.81
272.162	367.81
272.394	369.81
272.626	399.81
272.858	383.81
273.09	378.81
273.322	388.81
273.553	371.81
273.785	376.81
274.017	381.81
274.249	417.81
274.481	394.81
274.713	383.81
274.945	377.81
275.176	367.81
275.408	386.81
275.64	396.81
275.872	407.81
276.104	399.81
276.335	398.81
276.567	399.81
276.799	408.81
277.031	423.81
277.262	404.81
277.494	438.81
277.726	410.81
277.957	408.81
278.189	416.81
278.421	399.81
278.652	418.81
278.884	448.81
279.115	418.81
279.347	426.81
279.579	432.81
279.81	424.81
280.042	425.81
280.273	414.81
280.505	429.81
280.736	455.81
280.968	423.81
281.199	428.81
281.431	420.81
281.662	439.81
281.894	433.81
282.125	468.81
282.356	440.81
282.588	431.81
282.819	452.81
283.051	431.81
283.282	437.81
283.513	443.81
283.745	467.81
283.976	432.81
284.207	424.81
284.439	480.81
284.67	473.81
284.901	460.81
285.132	461.81
285.364	467.81
285.595	459.81
285.826	449.81
286.057	491.81
286.288	469.81
286.52	466.81
286.751	483.81
286.982	455.81
287.213	464.81
287.444	467.81
287.675	480.81
287.906	476.81
288.138	468.81
288.369	479.81
288.6	485.81
288.831	482.81
289.062	470.81
289.293	464.81
289.524	484.81
289.755	481.81
289.986	484.81
290.217	472.81
290.448	477.81
290.679	481.81
290.91	489.81
291.141	490.81
291.371	475.81
291.602	475.81
291.833	494.81
292.064	473.81
292.295	496.81
292.526	476.81
292.757	480.81
292.987	478.81
293.218	482.81
293.449	495.81
293.68	494.81
293.91	487.81
294.141	471.81
294.372	491.81
294.603	487.81
294.833	487.81
295.064	507.81
295.295	493.81
295.525	494.81
295.756	502.81
295.987	497.81
296.217	477.81
296.448	483.81
296.679	494.81
296.909	480.81
297.14	491.81
297.37	529.81
297.601	522.81
297.831	504.81
298.062	497.81
298.292	513.81
298.523	535.81
298.753	510.81
298.984	539.81
299.214	522.81
299.445	540.81
299.675	499.81
299.905	525.81
300.136	529.81
300.366	545.81
300.597	548.81
300.827	535.81
301.057	555.81
301.288	541.81
301.518	567.81
301.748	566.81
301.979	578.81
302.209	575.81
302.439	564.81
302.669	549.81
302.9	572.81
303.13	547.81
303.36	566.81
303.59	555.81
303.82	555.81
304.051	560.81
304.281	564.81
304.511	557.81
304.741	565.81
304.971	575.81
305.201	556.81
305.431	565.81
305.661	574.81
305.891	560.81
306.121	535.81
306.352	555.81
306.582	544.81
306.812	534.81
307.042	567.81
307.272	539.81
307.502	551.81
307.731	539.81
307.961	561.81
308.191	552.81
308.421	549.81
308.651	553.81
308.881	544.81
309.111	543.81
309.341	545.81
309.571	564.81
309.8	561.81
310.03	576.81
310.26	576.81
310.49	549.81
310.72	548.81
310.949	555.81
311.179	561.81
311.409	562.81
311.639	564.81
311.868	591.81
312.098	566.81
312.328	594.81
312.557	565.81
312.787	580.81
313.017	577.81
313.246	598.81
313.476	575.81
313.706	620.81
313.935	603.81
314.165	603.81
314.394	611.81
314.624	633.81
314.853	613.81
315.083	613.81
315.312	632.81
315.542	614.81
315.771	620.81
316.001	625.81
316.23	605.81
316.46	629.81
316.689	606.81
316.919	604.81
317.148	612.81
317.377	635.81
317.607	617.81
317.836	627.81
318.065	621.81
318.295	611.81
318.524	633.81
318.753	609.81
318.983	615.81
319.212	602.81
319.441	599.81
319.67	625.81
319.9	616.81
320.129	615.81
320.358	647.81
320.587	636.81
320.816	631.81
321.046	631.81
321.275	633.81
321.504	632.81
321.733	657.81
321.962	612.81
322.191	657.81
322.42	651.81
322.649	633.81
322.878	648.81
323.108	662.81
323.337	645.81
323.566	649.81
323.795	635.81
324.024	664.81
324.253	667.81
324.482	650.81
324.71	655.81
324.939	692.81
325.168	668.81
325.397	683.81
325.626	687.81
325.855	695.81
326.084	712.81
326.313	720.81
326.542	686.81
326.77	723.81
326.999	700.81
327.228	711.81
327.457	722.81
327.686	689.81
327.914	709.81
328.143	720.81
328.372	709.81
328.6	713.81
328.829	699.81
329.058	758.81
329.287	727.81
329.515	749.81
329.744	765.81
329.972	738.81
330.201	738.81
330.43	751.81
330.658	747.81
330.887	780.81
331.115	765.81
331.344	765.81
331.572	800.81
331.801	801.81
332.03	793.81
332.258	815.81
332.486	857.81
332.715	877.81
332.943	851.81
333.172	919.81
333.4	957.81
333.629	960.81
333.857	989.81
334.085	971.81
334.314	956.81
334.542	967.81
334.771	987.81
334.999	953.81
335.227	950.81
335.455	954.81
335.684	941.81
335.912	934.81
336.14	923.81
336.369	911.81
336.597	919.81
336.825	949.81
337.053	931.81
337.281	935.81
337.51	901.81
337.738	897.81
337.966	867.81
338.194	887.81
338.422	832.81
338.65	840.81
338.878	829.81
339.106	827.81
339.334	841.81
339.562	840.81
339.79	797.81
340.018	813.81
340.246	786.81
340.474	802.81
340.702	780.81
340.93	815.81
341.158	801.81
341.386	823.81
341.614	829.81
341.842	829.81
342.07	803.81
342.298	771.81
342.526	801.81
342.754	776.81
342.981	808.81
343.209	838.81
343.437	857.81
343.665	894.81
343.893	941.81
344.12	925.81
344.348	936.81
344.576	913.81
344.804	901.81
345.031	856.81
345.259	856.81
345.487	842.81
345.714	813.81
345.942	815.81
346.17	818.81
346.397	813.81
346.625	789.81
346.853	792.81
347.08	786.81
347.308	789.81
347.535	790.81
347.763	791.81
347.99	745.81
348.218	783.81
348.445	776.81
348.673	787.81
348.9	771.81
349.128	760.81
349.355	756.81
349.583	770.81
349.81	771.81
350.037	763.81
350.265	744.81
350.492	754.81
350.72	744.81
350.947	724.81
351.174	767.81
351.402	768.81
351.629	769.81
351.856	753.81
352.083	752.81
352.311	754.81
352.538	735.81
352.765	756.81
352.992	760.81
353.22	749.81
353.447	749.81
353.674	736.81
353.901	734.81
354.128	742.81
354.355	745.81
354.583	741.81
354.81	736.81
355.037	729.81
355.264	731.81
355.491	734.81
355.718	725.81
355.945	753.81
356.172	749.81
356.399	736.81
356.626	761.81
356.853	763.81
357.08	771.81
357.307	743.81
357.534	747.81
357.761	757.81
357.988	747.81
358.215	737.81
358.441	738.81
358.668	743.81
358.895	753.81
359.122	724.81
359.349	737.81
359.576	763.81
359.802	733.81
360.029	718.81
360.256	750.81
360.483	723.81
360.709	738.81
360.936	735.81
361.163	762.81
361.39	733.81
361.616	721.81
361.843	780.81
362.07	767.81
362.296	758.81
362.523	739.81
362.749	747.81
362.976	723.81
363.203	752.81
363.429	733.81
363.656	756.81
363.882	743.81
364.109	736.81
364.335	718.81
364.562	715.81
364.788	742.81
365.015	731.81
365.241	735.81
365.468	731.81
365.694	735.81
365.92	726.81
366.147	722.81
366.373	748.81
366.599	752.81
366.826	697.81
367.052	748.81
367.278	720.81
367.505	717.81
367.731	755.81
367.957	743.81
368.184	732.81
368.41	733.81
368.636	721.81
368.862	765.81
369.089	738.81
369.315	759.81
369.541	760.81
369.767	772.81
369.993	770.81
370.219	789.81
370.445	789.81
370.672	749.81
370.898	739.81
371.124	781.81
371.35	765.81
371.576	809.81
371.802	790.81
372.028	797.81
372.254	780.81
372.48	775.81
372.706	818.81
372.932	817.81
373.158	783.81
373.384	832.81
373.61	801.81
373.835	810.81
374.061	824.81
374.287	775.81
374.513	774.81
374.739	826.81
374.965	877.81
375.191	871.81
375.416	861.81
375.642	847.81
375.868	839.81
376.094	818.81
376.319	811.81
376.545	785.81
376.771	821.81
376.997	793.81
377.222	774.81
377.448	792.81
377.674	790.81
377.899	772.81
378.125	807.81
378.35	739.81
378.576	764.81
378.802	762.81
379.027	774.81
379.253	769.81
379.478	773.81
379.704	742.81
379.929	760.81
380.155	753.81
380.38	771.81
380.606	785.81
380.831	804.81
381.057	790.81
381.282	788.81
381.507	768.81
381.733	788.81
381.958	805.81
382.184	781.81
382.409	788.81
382.634	809.81
382.86	796.81
383.085	824.81
383.31	849.81
383.535	844.81
383.761	857.81
383.986	862.81
384.211	875.81
384.436	851.81
384.662	876.81
384.887	911.81
385.112	870.81
385.337	929.81
385.562	965.81
385.787	929.81
386.013	951.81
386.238	913.81
386.463	957.81
386.688	931.81
386.913	948.81
387.138	921.81
387.363	915.81
387.588	945.81
387.813	923.81
388.038	928.81
388.263	933.81
388.488	929.81
388.713	908.81
388.938	915.81
389.163	891.81
389.387	916.81
389.612	936.81
389.837	925.81
390.062	909.81
390.287	922.81
390.512	900.81
390.736	910.81
390.961	951.81
391.186	969.81
391.411	990.81
391.636	990.81
391.86	1045.81
392.085	1059.81
392.31	1053.81
392.534	1011.81
392.759	989.81
392.984	977.81
393.208	986.81
393.433	1011.81
393.658	1011.81
393.882	973.81
394.107	979.81
394.331	977.81
394.556	1020.81
394.78	1009.81
395.005	1000.81
395.229	1012.81
395.454	1041.81
395.678	1047.81
395.903	1047.81
396.127	1049.81
396.352	1032.81
396.576	1000.81
396.801	989.81
397.025	1012.81
397.249	1059.81
397.474	1087.81
397.698	1060.81
397.922	1088.81
398.147	1096.81
398.371	1099.81
398.595	1126.81
398.82	1165.81
399.044	1318.81
399.268	1379.81
399.492	1501.81
399.717	1629.81
399.941	1626.81
400.165	1573.81
400.389	1519.81
400.613	1377.81
400.837	1324.81
401.062	1298.81
401.286	1222.81
401.51	1213.81
401.734	1199.81
401.958	1223.81
402.182	1233.81
402.406	1236.81
402.63	1241.81
402.854	1250.81
403.078	1242.81
403.302	1286.81
403.526	1281.81
403.75	1305.81
403.974	1288.81
404.198	1288.81
404.422	1294.81
404.645	1292.81
404.869	1288.81
405.093	1270.81
405.317	1273.81
405.541	1308.81
405.765	1315.81
405.988	1319.81
406.212	1292.81
406.436	1323.81
406.66	1347.81
406.883	1363.81
407.107	1469.81
407.331	1493.81
407.555	1510.81
407.778	1541.81
408.002	1479.81
408.226	1447.81
408.449	1411.81
408.673	1405.81
408.896	1356.81
409.12	1353.81
409.344	1384.81
409.567	1339.81
409.791	1353.81
410.014	1375.81
410.238	1320.81
410.461	1327.81
410.685	1291.81
410.908	1306.81
411.132	1276.81
411.355	1252.81
411.578	1254.81
411.802	1239.81
412.025	1271.81
412.249	1277.81
412.472	1310.81
412.695	1257.81
412.919	1241.81
413.142	1238.81
413.365	1231.81
413.589	1225.81
413.812	1229.81
414.035	1196.81
414.258	1200.81
414.482	1179.81
414.705	1235.81
414.928	1222.81
415.151	1254.81
415.374	1238.81
415.597	1230.81
415.821	1185.81
416.044	1182.81
416.267	1166.81
416.49	1171.81
416.713	1165.81
416.936	1203.81
417.159	1191.81
417.382	1196.81
417.605	1167.81
417.828	1226.81
418.051	1195.81
418.274	1160.81
418.497	1208.81
418.72	1200.81
418.943	1204.81
419.166	1330.81
419.389	1434.81
419.611	1375.81
419.834	1296.81
420.057	1249.81
420.28	1216.81
420.503	1221.81
420.726	1202.81
420.948	1177.81
421.171	1205.81
421.394	1190.81
421.617	1201.81
421.839	1197.81
422.062	1213.81
422.285	1217.81
422.507	1208.81
422.73	1224.81
422.953	1234.81
423.175	1212.81
423.398	1239.81
423.621	1210.81
423.843	1247.81
424.066	1239.81
424.288	1228.81
424.511	1260.81
424.733	1195.81
424.956	1210.81
425.178	1219.81
425.401	1218.81
425.623	1205.81
425.846	1169.81
426.068	1171.81
426.291	1165.81
426.513	1176.81
426.735	1176.81
426.958	1140.81
427.18	1089.81
427.402	1151.81
427.625	1127.81
427.847	1126.81
428.069	1108.81
428.292	1105.81
428.514	1108.81
428.736	1125.81
428.958	1129.81
429.181	1097.81
429.403	1104.81
429.625	1086.81
429.847	1080.81
430.069	1070.81
430.292	1067.81
430.514	1059.81
430.736	1088.81
430.958	1077.81
431.18	1053.81
431.402	1065.81
431.624	1050.81
431.846	1071.81
432.068	1103.81
432.29	1097.81
432.512	1095.81
432.734	1102.81
432.956	1071.81
433.178	1129.81
433.4	1077.81
433.622	1101.81
433.844	1094.81
434.066	1107.81
434.287	1126.81
434.509	1134.81
434.731	1171.81
434.953	1199.81
435.175	1233.81
435.397	1245.81
435.618	1156.81
435.84	1112.81
436.062	1112.81
436.284	1107.81
436.505	1120.81
436.727	1119.81
436.949	1094.81
437.17	1096.81
437.392	1094.81
437.614	1075.81
437.835	1071.81
438.057	1073.81
438.278	1065.81
438.5	1048.81
438.721	1065.81
438.943	1067.81
439.165	1073.81
439.386	1077.81
439.608	1111.81
439.829	1098.81
440.05	1091.81
440.272	1085.81
440.493	1126.81
440.715	1124.81
440.936	1159.81
441.158	1171.81
441.379	1209.81
441.6	1230.81
441.822	1254.81
442.043	1246.81
442.264	1208.81
442.486	1180.81
442.707	1188.81
442.928	1178.81
443.149	1223.81
443.371	1215.81
443.592	1222.81
443.813	1229.81
444.034	1230.81
444.255	1269.81
444.476	1295.81
444.698	1351.81
444.919	1423.81
445.14	1479.81
445.361	1400.81
445.582	1316.81
445.803	1239.81
446.024	1188.81
446.245	1203.81
446.466	1200.81
446.687	1135.81
446.908	1135.81
447.129	1085.81
447.35	1086.81
447.571	1093.81
447.792	1089.81
448.013	1070.81
448.234	1045.81
448.455	1050.81
448.675	1071.81
448.896	1019.81
449.117	1050.81
449.338	1022.81
449.559	1021.81
449.779	987.81
450	1046.81
450.221	1041.81
450.442	995.81
450.662	1003.81
450.883	991.81
451.104	1039.81
451.324	1019.81
451.545	1034.81
451.766	1020.81
451.986	1020.81
452.207	996.81
452.428	1014.81
452.648	1007.81
452.869	992.81
453.089	975.81
453.31	986.81
453.53	971.81
453.751	967.81
453.971	955.81
454.192	950.81
454.412	941.81
454.633	947.81
454.853	992.81
455.073	965.81
455.294	943.81
455.514	917.81
455.734	947.81
455.955	915.81
456.175	932.81
456.395	920.81
456.616	957.81
456.836	965.81
457.056	965.81
457.276	942.81
457.497	971.81
457.717	936.81
457.937	932.81
458.157	950.81
458.377	980.81
458.598	1026.81
458.818	1017.81
459.038	1061.81
459.258	1071.81
459.478	1123.81
459.698	1148.81
459.918	1173.81
460.138	1220.81
460.358	1244.81
460.578	1262.81
460.798	1283.81
461.018	1313.81
461.238	1300.81
461.458	1265.81
461.678	1316.81
461.898	1314.81
462.118	1327.81
462.338	1378.81
462.558	1437.81
462.777	1467.81
462.997	1548.81
463.217	1661.81
463.437	1655.81
463.657	1589.81
463.876	1539.81
464.096	1520.81
464.316	1465.81
464.536	1494.81
464.755	1448.81
464.975	1387.81
465.195	1296.81
465.414	1249.81
465.634	1222.81
465.854	1180.81
466.073	1174.81
466.293	1122.81
466.512	1096.81
466.732	1108.81
466.951	1092.81
467.171	1038.81
467.391	1048.81
467.61	1072.81
467.829	1060.81
468.049	1057.81
468.268	1000.81
468.488	1007.81
468.707	1019.81
468.927	1030.81
469.146	1028.81
469.365	1045.81
469.585	1063.81
469.804	1076.81
470.023	1063.81
470.243	1078.81
470.462	1079.81
470.681	1134.81
470.901	1118.81
471.12	1085.81
471.339	1085.81
471.558	1072.81
471.777	1071.81
471.997	1031.81
472.216	1047.81
472.435	1007.81
472.654	1007.81
472.873	997.81
473.092	995.81
473.311	1030.81
473.53	989.81
473.749	981.81
473.968	992.81
474.187	990.81
474.406	995.81
474.625	1017.81
474.844	963.81
475.063	999.81
475.282	1007.81
475.501	1021.81
475.72	1022.81
475.939	1052.81
476.158	1029.81
476.377	1051.81
476.596	1055.81
476.814	1093.81
477.033	1058.81
477.252	1084.81
477.471	1110.81
477.69	1077.81
477.908	1162.81
478.127	1160.81
478.346	1176.81
478.564	1207.81
478.783	1184.81
479.002	1260.81
479.22	1266.81
479.439	1233.81
479.658	1234.81
479.876	1227.81
480.095	1241.81
480.313	1263.81
480.532	1321.81
480.751	1275.81
480.969	1255.81
481.188	1216.81
481.406	1217.81
481.624	1173.81
481.843	1183.81
482.061	1139.81
482.28	1114.81
482.498	1125.81
482.717	1140.81
482.935	1131.81
483.153	1157.81
483.372	1160.81
483.59	1155.81
483.808	1153.81
484.027	1127.81
484.245	1141.81
484.463	1138.81
484.681	1161.81
484.9	1156.81
485.118	1148.81
485.336	1172.81
485.554	1166.81
485.772	1196.81
485.99	1219.81
486.209	1179.81
486.427	1156.81
486.645	1177.81
486.863	1179.81
487.081	1199.81
487.299	1197.81
487.517	1174.81
487.735	1177.81
487.953	1172.81
488.171	1200.81
488.389	1172.81
488.607	1173.81
488.825	1171.81
489.043	1141.81
489.261	1155.81
489.479	1162.81
489.696	1151.81
489.914	1183.81
490.132	1216.81
490.35	1197.81
490.568	1178.81
490.786	1188.81
491.003	1223.81
491.221	1160.81
491.439	1222.81
491.657	1186.81
491.874	1234.81
492.092	1235.81
492.31	1232.81
492.527	1249.81
492.745	1247.81
492.963	1235.81
493.18	1244.81
493.398	1210.81
493.615	1228.81
493.833	1248.81
494.05	1255.81
494.268	1279.81
494.485	1281.81
494.703	1261.81
494.92	1337.81
495.138	1287.81
495.355	1306.81
495.573	1314.81
495.79	1325.81
496.008	1343.81
496.225	1353.81
496.442	1380.81
496.66	1371.81
496.877	1379.81
497.094	1420.81
497.312	1441.81
497.529	1489.81
497.746	1537.81
497.963	1602.81
498.181	1665.81
498.398	1725.81
498.615	1812.81
498.832	1944.81
499.049	2032.81
499.267	2175.81
499.484	2387.81
499.701	2595.81
499.918	2776.81
500.135	3046.81
500.352	3331.81
500.569	3388.81
500.786	3401.81
501.003	3207.81
501.22	3041.81
501.437	2759.81
501.654	2509.81
501.871	2343.81
502.088	2176.81
502.305	2020.81
502.522	1940.81
502.739	1873.81
502.956	1745.81
503.172	1685.81
503.389	1654.81
503.606	1581.81
503.823	1538.81
504.04	1568.81
504.256	1475.81
504.473	1515.81
504.69	1475.81
504.907	1473.81
505.123	1424.81
505.34	1395.81
505.557	1318.81
505.773	1291.81
505.99	1260.81
506.207	1217.81
506.423	1193.81
506.64	1189.81
506.856	1152.81
507.073	1169.81
507.289	1139.81
507.506	1117.81
507.722	1136.81
507.939	1112.81
508.155	1131.81
508.372	1131.81
508.588	1113.81
508.805	1088.81
509.021	1090.81
509.238	1097.81
509.454	1080.81
509.67	1064.81
509.887	1067.81
510.103	1041.81
510.319	1037.81
510.536	1041.81
510.752	1035.81
510.968	1051.81
511.184	991.81
511.401	1026.81
511.617	1036.81
511.833	1047.81
512.049	1017.81
512.265	1041.81
512.481	1019.81
512.698	1024.81
512.914	1035.81
513.13	1050.81
513.346	1026.81
513.562	1005.81
513.778	1042.81
513.994	1055.81
514.21	1025.81
514.426	1043.81
514.642	1051.81
514.858	1063.81
515.074	1056.81
515.29	1078.81
515.506	1089.81
515.721	1094.81
515.937	1136.81
516.153	1141.81
516.369	1213.81
516.585	1219.81
516.801	1218.81
517.016	1271.81
517.232	1299.81
517.448	1357.81
517.664	1372.81
517.879	1368.81
518.095	1384.81
518.311	1363.81
518.527	1329.81
518.742	1279.81
518.958	1205.81
519.173	1222.81
519.389	1159.81
519.605	1136.81
519.82	1103.81
520.036	1076.81
520.251	1123.81
520.467	1067.81
520.682	1085.81
520.898	1040.81
521.113	1031.81
521.329	1048.81
521.544	977.81
521.76	1004.81
521.975	986.81
522.19	984.81
522.406	984.81
522.621	981.81
522.836	962.81
523.052	990.81
523.267	952.81
523.482	935.81
523.698	963.81
523.913	955.81
524.128	964.81
524.343	944.81
524.559	945.81
524.774	924.81
524.989	936.81
525.204	935.81
525.419	927.81
525.634	940.81
525.849	950.81
526.064	939.81
526.28	913.81
526.495	902.81
526.71	937.81
526.925	895.81
527.14	923.81
527.355	880.81
527.57	917.81
527.785	886.81
527.999	915.81
528.214	899.81
528.429	917.81
528.644	896.81
528.859	916.81
529.074	914.81
529.289	912.81
529.503	923.81
529.718	917.81
529.933	897.81
530.148	931.81
530.363	917.81
530.577	925.81
530.792	926.81
531.007	893.81
531.221	934.81
531.436	918.81
531.651	915.81
531.865	911.81
532.08	930.81
532.295	914.81
532.509	901.81
532.724	895.81
532.938	919.81
533.153	917.81
533.367	916.81
533.582	921.81
533.796	897.81
534.011	904.81
534.225	893.81
534.44	870.81
534.654	879.81
534.868	905.81
535.083	865.81
535.297	911.81
535.511	902.81
535.726	885.81
535.94	882.81
536.154	892.81
536.369	887.81
536.583	857.81
536.797	838.81
537.011	836.81
537.225	840.81
537.44	869.81
537.654	830.81
537.868	832.81
538.082	823.81
538.296	824.81
538.51	833.81
538.724	862.81
538.938	837.81
539.153	847.81
539.367	840.81
539.581	858.81
539.795	835.81
540.009	836.81
540.222	831.81
540.436	821.81
540.65	827.81
540.864	799.81
541.078	842.81
541.292	834.81
541.506	833.81
541.72	824.81
541.934	843.81
542.147	856.81
542.361	836.81
542.575	839.81
542.789	827.81
543.002	806.81
543.216	820.81
543.43	807.81
543.644	799.81
543.857	831.81
544.071	805.81
544.285	838.81
544.498	829.81
544.712	829.81
544.925	869.81
545.139	859.81
545.352	832.81
545.566	850.81
545.779	865.81
545.993	836.81
546.206	841.81
546.42	841.81
546.633	860.81
546.847	857.81
547.06	853.81
547.274	846.81
547.487	861.81
547.7	887.81
547.914	888.81
548.127	872.81
548.34	866.81
548.554	863.81
548.767	891.81
548.98	860.81
549.193	857.81
549.407	857.81
549.62	884.81
549.833	875.81
550.046	881.81
550.259	859.81
550.473	846.81
550.686	837.81
550.899	829.81
551.112	821.81
551.325	845.81
551.538	853.81
551.751	816.81
551.964	850.81
552.177	872.81
552.39	867.81
552.603	891.81
552.816	891.81
553.029	917.81
553.242	890.81
553.455	931.81
553.667	917.81
553.88	908.81
554.093	877.81
554.306	875.81
554.519	860.81
554.732	852.81
554.944	828.81
555.157	807.81
555.37	776.81
555.583	808.81
555.795	769.81
556.008	781.81
556.221	748.81
556.433	782.81
556.646	742.81
556.859	741.81
557.071	733.81
557.284	749.81
557.496	721.81
557.709	724.81
557.921	707.81
558.134	721.81
558.346	688.81
558.559	701.81
558.771	701.81
558.984	714.81
559.196	705.81
559.409	701.81
559.621	708.81
559.833	694.81
560.046	691.81
560.258	699.81
560.47	690.81
560.683	706.81
560.895	706.81
561.107	696.81
561.32	679.81
561.532	685.81
561.744	701.81
561.956	703.81
562.168	689.81
562.381	713.81
562.593	708.81
562.805	692.81
563.017	699.81
563.229	732.81
563.441	713.81
563.653	707.81
563.865	739.81
564.077	708.81
564.289	736.81
564.501	749.81
564.713	754.81
564.925	777.81
565.137	798.81
565.349	804.81
565.561	812.81
565.773	835.81
565.985	887.81
566.197	909.81
566.408	975.81
566.62	1055.81
566.832	1075.81
567.044	1086.81
567.255	1109.81
567.467	1152.81
567.679	1178.81
567.891	1224.81
568.102	1177.81
568.314	1142.81
568.526	1067.81
568.737	997.81
568.949	946.81
569.161	916.81
569.372	856.81
569.584	821.81
569.795	786.81
570.007	757.81
570.218	713.81
570.43	742.81
570.641	740.81
570.853	721.81
571.064	709.81
571.276	708.81
571.487	696.81
571.698	661.81
571.91	664.81
572.121	687.81
572.333	632.81
572.544	599.81
572.755	619.81
572.966	589.81
573.178	595.81
573.389	613.81
573.6	616.81
573.811	593.81
574.023	584.81
574.234	563.81
574.445	564.81
574.656	564.81
574.867	559.81
575.078	556.81
575.289	564.81
575.501	560.81
575.712	548.81
575.923	556.81
576.134	541.81
576.345	546.81
576.556	549.81
576.767	522.81
576.978	542.81
577.188	521.81
577.399	504.81
577.61	517.81
577.821	533.81
578.032	542.81
578.243	507.81
578.454	508.81
578.665	512.81
578.875	514.81
579.086	514.81
579.297	514.81
579.508	465.81
579.718	519.81
579.929	511.81
580.14	491.81
580.35	496.81
580.561	503.81
580.772	489.81
580.982	502.81
581.193	457.81
581.403	499.81
581.614	500.81
581.825	483.81
582.035	459.81
582.246	483.81
582.456	465.81
582.667	500.81
582.877	469.81
583.087	454.81
583.298	479.81
583.508	462.81
583.719	476.81
583.929	469.81
584.139	470.81
584.35	470.81
584.56	472.81
584.77	458.81
584.981	460.81
585.191	447.81
585.401	486.81
585.611	460.81
585.821	447.81
586.032	457.81
586.242	472.81
586.452	468.81
586.662	456.81
586.872	449.81
587.082	472.81
587.292	443.81
587.502	458.81
587.713	453.81
587.923	458.81
588.133	460.81
588.343	454.81
588.553	433.81
588.762	471.81
588.972	464.81
589.182	487.81
589.392	472.81
589.602	464.81
589.812	463.81
590.022	457.81
590.232	461.81
590.441	452.81
590.651	461.81
590.861	475.81
591.071	457.81
591.281	481.81
591.49	509.81
591.7	478.81
591.91	473.81
592.119	495.81
592.329	515.81
592.539	535.81
592.748	542.81
592.958	534.81
593.167	559.81
593.377	555.81
593.587	546.81
593.796	552.81
594.006	583.81
594.215	576.81
594.424	528.81
594.634	544.81
594.843	522.81
595.053	520.81
595.262	505.81
595.472	495.81
595.681	475.81
595.89	483.81
596.1	473.81
596.309	453.81
596.518	436.81
596.727	445.81
596.937	407.81
597.146	437.81
597.355	444.81
597.564	408.81
597.774	403.81
597.983	404.81
598.192	418.81
598.401	379.81
598.61	412.81
598.819	396.81
599.028	390.81
599.237	387.81
599.446	373.81
599.655	383.81
599.864	397.81
600.073	398.81
600.282	375.81
600.491	371.81
600.7	379.81
600.909	356.81
601.118	377.81
601.327	377.81
601.536	367.81
601.745	372.81
601.953	355.81
602.162	389.81
602.371	353.81
602.58	369.81
602.789	362.81
602.997	374.81
603.206	369.81
603.415	360.81
603.623	343.81
603.832	361.81
604.041	356.81
604.249	343.81
604.458	343.81
604.666	346.81
604.875	363.81
605.084	342.81
605.292	349.81
605.501	356.81
605.709	349.81
605.918	343.81
606.126	334.81
606.334	360.81
606.543	351.81
606.751	360.81
606.96	334.81
607.168	329.81
607.376	338.81
607.585	352.81
607.793	340.81
608.001	342.81
608.21	327.81
608.418	331.81
608.626	352.81
608.834	350.81
609.043	342.81
609.251	331.81
609.459	320.81
609.667	323.81
609.875	336.81
610.083	322.81
610.291	337.81
610.499	316.81
610.707	335.81
610.916	323.81
611.124	314.81
611.332	342.81
611.54	328.81
611.748	318.81
611.955	315.81
612.163	324.81
612.371	336.81
612.579	319.81
612.787	339.81
612.995	325.81
613.203	320.81
613.411	313.81
613.618	308.81
613.826	301.81
614.034	308.81
614.242	328.81
614.449	340.81
614.657	311.81
614.865	308.81
615.072	310.81
615.28	321.81
615.488	297.81
615.695	319.81
615.903	325.81
616.111	308.81
616.318	322.81
616.526	316.81
616.733	292.81
616.941	292.81
617.148	300.81
617.356	311.81
617.563	328.81
617.771	323.81
617.978	317.81
618.185	302.81
618.393	308.81
618.6	312.81
618.807	297.81
619.015	285.81
619.222	309.81
619.429	307.81
619.637	315.81
619.844	307.81
620.051	303.81
620.258	305.81
620.466	299.81
620.673	300.81
620.88	292.81
621.087	289.81
621.294	280.81
621.501	290.81
621.708	290.81
621.915	308.81
622.122	285.81
622.329	297.81
622.536	293.81
622.743	317.81
622.95	279.81
623.157	271.81
623.364	288.81
623.571	288.81
623.778	276.81
623.985	289.81
624.192	292.81
624.399	276.81
624.606	273.81
624.812	290.81
625.019	301.81
625.226	275.81
625.433	280.81
625.639	266.81
625.846	274.81
626.053	279.81
626.259	274.81
626.466	269.81
626.673	262.81
626.879	259.81
627.086	262.81
627.293	284.81
627.499	265.81
627.706	275.81
627.912	263.81
628.119	248.81
628.325	252.81
628.532	242.81
628.738	275.81
628.945	265.81
629.151	264.81
629.357	251.81
629.564	259.81
629.77	265.81
629.976	233.81
630.183	243.81
630.389	244.81
630.595	237.81
630.802	262.81
631.008	257.81
631.214	254.81
631.42	246.81
631.627	257.81
631.833	262.81
632.039	223.81
632.245	241.81
632.451	238.81
632.657	245.81
632.863	232.81
633.069	235.81
633.275	267.81
633.481	236.81
633.688	239.81
633.893	247.81
634.099	232.81
634.305	227.81
634.511	235.81
634.717	237.81
634.923	239.81
635.129	244.81
635.335	233.81
635.541	214.81
635.747	237.81
635.952	223.81
636.158	257.81
636.364	212.81
636.57	222.81
636.775	231.81
636.981	220.81
637.187	225.81
637.392	221.81
637.598	230.81
637.804	216.81
638.009	230.81
638.215	228.81
638.421	228.81
638.626	211.81
638.832	215.81
639.037	212.81
639.243	216.81
639.448	209.81
639.654	220.81
639.859	202.81
640.065	219.81
640.27	210.81
640.475	210.81
640.681	199.81
640.886	187.81
641.091	201.81
641.297	204.81
641.502	227.81
641.707	198.81
641.913	222.81
642.118	211.81
642.323	195.81
642.528	211.81
642.733	210.81
642.939	197.81
643.144	219.81
643.349	216.81
643.554	209.81
643.759	205.81
643.964	196.81
644.169	193.81
644.374	194.81
644.579	210.81
644.784	192.81
644.989	221.81
645.194	206.81
645.399	200.81
645.604	192.81
645.809	196.81
646.014	202.81
646.219	199.81
646.423	201.81
646.628	207.81
646.833	220.81
647.038	207.81
647.243	213.81
647.447	191.81
647.652	210.81
647.857	203.81
648.062	196.81
648.266	210.81
648.471	197.81
648.676	203.81
648.88	211.81
649.085	207.81
649.289	203.81
649.494	205.81
649.698	201.81
649.903	199.81
650.107	196.81
650.312	165.81
650.516	175.81
650.721	189.81
650.925	184.81
651.13	187.81
651.334	191.81
651.539	161.81
651.743	179.81
651.947	174.81
652.152	169.81
652.356	158.81
652.56	172.81
652.764	162.81
652.969	168.81
653.173	167.81
653.377	171.81
653.581	147.81
653.785	158.81
653.99	144.81
654.194	156.81
654.398	132.81
654.602	164.81
654.806	143.81
655.01	142.81
655.214	161.81
655.418	137.81
655.622	152.81
655.826	134.81
656.03	132.81
656.234	147.81
656.438	141.81
656.642	120.81
656.846	130.81
657.049	132.81
657.253	127.81
657.457	119.81
657.661	116.81
657.865	123.81
658.068	115.81
658.272	120.81
658.476	131.81
658.68	120.81
658.883	99.81
659.087	110.81
659.291	102.81
659.494	98.81
659.698	94.81
659.901	99.81
660.105	96.81
660.309	95.81
660.512	100.81
660.716	106.81
660.919	75.81
661.123	85.81
661.326	89.81
661.53	78.81
661.733	101.81
661.936	91.81
662.14	84.81
662.343	75.81
662.546	77.81
662.75	83.81
662.953	95.81
663.156	72.81
663.36	101.81
663.563	71.81
663.766	80.81
663.969	72.81
664.173	83.81
664.376	79.81
664.579	93.81
664.782	81.81
664.985	70.81
665.188	79.81
665.391	75.81
665.594	74.81
665.797	77.81
666	76.81
666.203	66.81
666.406	82.81
666.609	88.81
666.812	77.81
667.015	67.81
667.218	70.81
667.421	62.81
667.624	76.81
667.827	75.81
668.03	73.81
668.232	80.81
668.435	74.81
668.638	70.81
668.841	86.81
669.043	83.81
669.246	82.81
669.449	70.81
669.651	84.81
669.854	78.81
670.057	78.81
670.259	80.81
670.462	73.81
670.665	74.81
670.867	86.81
671.07	84.81
671.272	72.81
671.475	75.81
671.677	82.81
671.88	65.81
672.082	83.81
672.284	79.81
672.487	75.81
672.689	93.81
672.892	84.81
