Data from Ni(NO3)2@0.25M.TitratingCurve.Agarose3%dH2O.NegLispCup.LampEnergy10.LIBS07252019_HRD10591_18-04-52-566.txt Node
Date: Thu Jul 25 18:04:52 EDT 2019
User: cochatt
Spectrometer: HR+D1059
Trigger mode: 1
Integration Time (sec): 1.000000E-1
Scans to average: 1
Electric dark correction enabled: true
Nonlinearity correction enabled: false
Boxcar width: 0
XAxis mode: Wavelengths
Number of Pixels in Spectrum: 2048
>>>>>Begin Spectral Data<<<<<
223.165	-21.5
223.4	-21.5
223.635	-21.5
223.869	-4.5
224.104	-11.5
224.338	-28.5
224.573	-27.5
224.808	-14.5
225.042	-15.5
225.277	-7.5
225.511	7.5
225.746	7.5
225.98	6.5
226.215	9.5
226.449	14.5
226.683	17.5
226.918	30.5
227.152	37.5
227.387	36.5
227.621	33.5
227.856	30.5
228.09	48.5
228.324	59.5
228.559	40.5
228.793	70.5
229.027	105.5
229.262	100.5
229.496	103.5
229.73	107.5
229.964	111.5
230.199	131.5
230.433	134.5
230.667	129.5
230.901	147.5
231.136	137.5
231.37	117.5
231.604	129.5
231.838	137.5
232.072	145.5
232.306	144.5
232.541	140.5
232.775	137.5
233.009	150.5
233.243	135.5
233.477	143.5
233.711	148.5
233.945	149.5
234.179	134.5
234.413	144.5
234.647	160.5
234.881	127.5
235.115	154.5
235.349	144.5
235.583	142.5
235.817	135.5
236.051	158.5
236.285	142.5
236.519	149.5
236.753	127.5
236.987	129.5
237.221	147.5
237.455	146.5
237.689	149.5
237.922	167.5
238.156	152.5
238.39	160.5
238.624	152.5
238.858	151.5
239.091	146.5
239.325	161.5
239.559	141.5
239.793	167.5
240.027	176.5
240.26	154.5
240.494	167.5
240.728	151.5
240.961	173.5
241.195	157.5
241.429	174.5
241.662	183.5
241.896	164.5
242.13	163.5
242.363	191.5
242.597	169.5
242.83	180.5
243.064	190.5
243.298	178.5
243.531	185.5
243.765	191.5
243.998	191.5
244.232	187.5
244.465	193.5
244.699	195.5
244.932	188.5
245.166	198.5
245.399	198.5
245.633	197.5
245.866	199.5
246.099	209.5
246.333	223.5
246.566	210.5
246.8	201.5
247.033	205.5
247.266	224.5
247.5	228.5
247.733	234.5
247.966	220.5
248.2	225.5
248.433	218.5
248.666	211.5
248.899	243.5
249.133	213.5
249.366	235.5
249.599	225.5
249.832	235.5
250.066	244.5
250.299	242.5
250.532	256.5
250.765	258.5
250.998	272.5
251.231	258.5
251.465	274.5
251.698	284.5
251.931	296.5
252.164	280.5
252.397	281.5
252.63	290.5
252.863	284.5
253.096	300.5
253.329	280.5
253.562	313.5
253.795	304.5
254.028	306.5
254.261	309.5
254.494	311.5
254.727	329.5
254.96	331.5
255.193	322.5
255.426	322.5
255.659	347.5
255.892	340.5
256.124	330.5
256.357	331.5
256.59	333.5
256.823	337.5
257.056	350.5
257.289	331.5
257.521	342.5
257.754	355.5
257.987	366.5
258.22	370.5
258.452	372.5
258.685	381.5
258.918	368.5
259.151	379.5
259.383	380.5
259.616	373.5
259.849	372.5
260.081	393.5
260.314	376.5
260.547	391.5
260.779	384.5
261.012	387.5
261.244	383.5
261.477	404.5
261.71	390.5
261.942	390.5
262.175	382.5
262.407	414.5
262.64	415.5
262.872	406.5
263.105	399.5
263.337	408.5
263.57	420.5
263.802	394.5
264.035	424.5
264.267	409.5
264.499	414.5
264.732	443.5
264.964	422.5
265.197	414.5
265.429	415.5
265.661	428.5
265.894	439.5
266.126	419.5
266.358	426.5
266.591	419.5
266.823	450.5
267.055	458.5
267.287	434.5
267.52	433.5
267.752	461.5
267.984	448.5
268.216	476.5
268.448	466.5
268.681	452.5
268.913	472.5
269.145	464.5
269.377	470.5
269.609	470.5
269.841	450.5
270.073	450.5
270.306	456.5
270.538	466.5
270.77	451.5
271.002	469.5
271.234	465.5
271.466	451.5
271.698	471.5
271.93	466.5
272.162	483.5
272.394	487.5
272.626	481.5
272.858	479.5
273.09	478.5
273.322	477.5
273.553	466.5
273.785	507.5
274.017	487.5
274.249	468.5
274.481	488.5
274.713	488.5
274.945	486.5
275.176	493.5
275.408	487.5
275.64	500.5
275.872	499.5
276.104	499.5
276.335	500.5
276.567	482.5
276.799	514.5
277.031	528.5
277.262	500.5
277.494	512.5
277.726	527.5
277.957	494.5
278.189	511.5
278.421	516.5
278.652	508.5
278.884	511.5
279.115	539.5
279.347	526.5
279.579	508.5
279.81	512.5
280.042	507.5
280.273	525.5
280.505	532.5
280.736	524.5
280.968	539.5
281.199	530.5
281.431	545.5
281.662	521.5
281.894	527.5
282.125	545.5
282.356	547.5
282.588	543.5
282.819	539.5
283.051	524.5
283.282	536.5
283.513	540.5
283.745	563.5
283.976	568.5
284.207	529.5
284.439	532.5
284.67	543.5
284.901	548.5
285.132	563.5
285.364	549.5
285.595	552.5
285.826	578.5
286.057	551.5
286.288	541.5
286.52	555.5
286.751	530.5
286.982	564.5
287.213	569.5
287.444	556.5
287.675	582.5
287.906	553.5
288.138	561.5
288.369	569.5
288.6	562.5
288.831	572.5
289.062	591.5
289.293	566.5
289.524	575.5
289.755	562.5
289.986	539.5
290.217	550.5
290.448	582.5
290.679	553.5
290.91	572.5
291.141	574.5
291.371	558.5
291.602	583.5
291.833	560.5
292.064	562.5
292.295	564.5
292.526	558.5
292.757	573.5
292.987	567.5
293.218	566.5
293.449	570.5
293.68	574.5
293.91	587.5
294.141	593.5
294.372	575.5
294.603	576.5
294.833	569.5
295.064	551.5
295.295	566.5
295.525	545.5
295.756	580.5
295.987	552.5
296.217	588.5
296.448	568.5
296.679	584.5
296.909	598.5
297.14	573.5
297.37	577.5
297.601	571.5
297.831	567.5
298.062	588.5
298.292	609.5
298.523	609.5
298.753	599.5
298.984	592.5
299.214	631.5
299.445	592.5
299.675	606.5
299.905	595.5
300.136	604.5
300.366	630.5
300.597	642.5
300.827	592.5
301.057	619.5
301.288	626.5
301.518	634.5
301.748	653.5
301.979	651.5
302.209	658.5
302.439	631.5
302.669	614.5
302.9	640.5
303.13	640.5
303.36	645.5
303.59	667.5
303.82	653.5
304.051	658.5
304.281	661.5
304.511	619.5
304.741	630.5
304.971	658.5
305.201	670.5
305.431	680.5
305.661	656.5
305.891	670.5
306.121	662.5
306.352	661.5
306.582	660.5
306.812	652.5
307.042	640.5
307.272	620.5
307.502	638.5
307.731	658.5
307.961	649.5
308.191	644.5
308.421	661.5
308.651	680.5
308.881	651.5
309.111	656.5
309.341	671.5
309.571	649.5
309.8	674.5
310.03	690.5
310.26	685.5
310.49	666.5
310.72	688.5
310.949	685.5
311.179	689.5
311.409	673.5
311.639	686.5
311.868	683.5
312.098	707.5
312.328	707.5
312.557	704.5
312.787	715.5
313.017	741.5
313.246	729.5
313.476	745.5
313.706	747.5
313.935	768.5
314.165	722.5
314.394	746.5
314.624	769.5
314.853	730.5
315.083	738.5
315.312	762.5
315.542	758.5
315.771	758.5
316.001	739.5
316.23	758.5
316.46	788.5
316.689	788.5
316.919	753.5
317.148	771.5
317.377	786.5
317.607	802.5
317.836	773.5
318.065	805.5
318.295	777.5
318.524	754.5
318.753	788.5
318.983	787.5
319.212	788.5
319.441	839.5
319.67	826.5
319.9	786.5
320.129	812.5
320.358	810.5
320.587	797.5
320.816	809.5
321.046	852.5
321.275	850.5
321.504	844.5
321.733	827.5
321.962	862.5
322.191	834.5
322.42	838.5
322.649	849.5
322.878	877.5
323.108	870.5
323.337	864.5
323.566	884.5
323.795	870.5
324.024	898.5
324.253	894.5
324.482	926.5
324.71	896.5
324.939	899.5
325.168	903.5
325.397	921.5
325.626	934.5
325.855	931.5
326.084	940.5
326.313	949.5
326.542	950.5
326.77	948.5
326.999	960.5
327.228	932.5
327.457	964.5
327.686	949.5
327.914	989.5
328.143	967.5
328.372	994.5
328.6	996.5
328.829	1001.5
329.058	984.5
329.287	978.5
329.515	1038.5
329.744	999.5
329.972	1027.5
330.201	1043.5
330.43	1047.5
330.658	1005.5
330.887	1051.5
331.115	1048.5
331.344	1065.5
331.572	1050.5
331.801	1097.5
332.03	1117.5
332.258	1076.5
332.486	1108.5
332.715	1130.5
332.943	1118.5
333.172	1182.5
333.4	1194.5
333.629	1174.5
333.857	1208.5
334.085	1218.5
334.314	1218.5
334.542	1199.5
334.771	1243.5
334.999	1252.5
335.227	1222.5
335.455	1266.5
335.684	1242.5
335.912	1256.5
336.14	1248.5
336.369	1236.5
336.597	1233.5
336.825	1262.5
337.053	1240.5
337.281	1254.5
337.51	1200.5
337.738	1232.5
337.966	1229.5
338.194	1201.5
338.422	1226.5
338.65	1179.5
338.878	1183.5
339.106	1163.5
339.334	1156.5
339.562	1169.5
339.79	1121.5
340.018	1156.5
340.246	1131.5
340.474	1164.5
340.702	1138.5
340.93	1130.5
341.158	1134.5
341.386	1175.5
341.614	1195.5
341.842	1175.5
342.07	1130.5
342.298	1140.5
342.526	1163.5
342.754	1148.5
342.981	1144.5
343.209	1146.5
343.437	1172.5
343.665	1165.5
343.893	1194.5
344.12	1257.5
344.348	1222.5
344.576	1242.5
344.804	1246.5
345.031	1186.5
345.259	1156.5
345.487	1192.5
345.714	1190.5
345.942	1198.5
346.17	1174.5
346.397	1152.5
346.625	1131.5
346.853	1110.5
347.08	1094.5
347.308	1115.5
347.535	1102.5
347.763	1085.5
347.99	1103.5
348.218	1106.5
348.445	1104.5
348.673	1088.5
348.9	1105.5
349.128	1104.5
349.355	1101.5
349.583	1144.5
349.81	1119.5
350.037	1092.5
350.265	1083.5
350.492	1066.5
350.72	1063.5
350.947	1073.5
351.174	1090.5
351.402	1128.5
351.629	1110.5
351.856	1092.5
352.083	1093.5
352.311	1090.5
352.538	1109.5
352.765	1099.5
352.992	1074.5
353.22	1048.5
353.447	1033.5
353.674	1052.5
353.901	1029.5
354.128	1036.5
354.355	1024.5
354.583	1046.5
354.81	1043.5
355.037	1073.5
355.264	1031.5
355.491	1048.5
355.718	1059.5
355.945	1044.5
356.172	1036.5
356.399	1056.5
356.626	1069.5
356.853	1115.5
357.08	1078.5
357.307	1088.5
357.534	1057.5
357.761	1089.5
357.988	1060.5
358.215	1063.5
358.441	1052.5
358.668	1050.5
358.895	1040.5
359.122	1067.5
359.349	1068.5
359.576	1033.5
359.802	1055.5
360.029	1055.5
360.256	1047.5
360.483	1043.5
360.709	1088.5
360.936	1071.5
361.163	1056.5
361.39	1086.5
361.616	1060.5
361.843	1062.5
362.07	1103.5
362.296	1086.5
362.523	1051.5
362.749	1075.5
362.976	1030.5
363.203	1057.5
363.429	1049.5
363.656	1067.5
363.882	1044.5
364.109	1046.5
364.335	1040.5
364.562	1046.5
364.788	1046.5
365.015	1091.5
365.241	1054.5
365.468	1049.5
365.694	1036.5
365.92	1064.5
366.147	1027.5
366.373	1032.5
366.599	1060.5
366.826	1078.5
367.052	1038.5
367.278	1066.5
367.505	1055.5
367.731	1072.5
367.957	1057.5
368.184	1056.5
368.41	1074.5
368.636	1056.5
368.862	1074.5
369.089	1072.5
369.315	1044.5
369.541	1066.5
369.767	1062.5
369.993	1080.5
370.219	1056.5
370.445	1053.5
370.672	1085.5
370.898	1086.5
371.124	1089.5
371.35	1092.5
371.576	1083.5
371.802	1094.5
372.028	1088.5
372.254	1102.5
372.48	1095.5
372.706	1086.5
372.932	1118.5
373.158	1097.5
373.384	1102.5
373.61	1088.5
373.835	1119.5
374.061	1096.5
374.287	1115.5
374.513	1096.5
374.739	1146.5
374.965	1131.5
375.191	1131.5
375.416	1128.5
375.642	1107.5
375.868	1123.5
376.094	1080.5
376.319	1089.5
376.545	1087.5
376.771	1111.5
376.997	1068.5
377.222	1118.5
377.448	1088.5
377.674	1077.5
377.899	1044.5
378.125	1039.5
378.35	1044.5
378.576	1077.5
378.802	1073.5
379.027	1058.5
379.253	1016.5
379.478	1042.5
379.704	1054.5
379.929	1066.5
380.155	1032.5
380.38	1056.5
380.606	1049.5
380.831	1042.5
381.057	1048.5
381.282	1063.5
381.507	1057.5
381.733	1051.5
381.958	1067.5
382.184	1091.5
382.409	1117.5
382.634	1088.5
382.86	1074.5
383.085	1106.5
383.31	1113.5
383.535	1103.5
383.761	1111.5
383.986	1100.5
384.211	1113.5
384.436	1130.5
384.662	1124.5
384.887	1158.5
385.112	1154.5
385.337	1162.5
385.562	1164.5
385.787	1164.5
386.013	1195.5
386.238	1208.5
386.463	1163.5
386.688	1193.5
386.913	1200.5
387.138	1210.5
387.363	1202.5
387.588	1187.5
387.813	1196.5
388.038	1213.5
388.263	1204.5
388.488	1213.5
388.713	1225.5
388.938	1236.5
389.163	1202.5
389.387	1222.5
389.612	1198.5
389.837	1196.5
390.062	1208.5
390.287	1156.5
390.512	1228.5
390.736	1227.5
390.961	1200.5
391.186	1241.5
391.411	1266.5
391.636	1240.5
391.86	1290.5
392.085	1282.5
392.31	1308.5
392.534	1269.5
392.759	1316.5
392.984	1279.5
393.208	1270.5
393.433	1258.5
393.658	1288.5
393.882	1292.5
394.107	1299.5
394.331	1267.5
394.556	1266.5
394.78	1270.5
395.005	1258.5
395.229	1287.5
395.454	1301.5
395.678	1316.5
395.903	1308.5
396.127	1314.5
396.352	1310.5
396.576	1311.5
396.801	1310.5
397.025	1321.5
397.249	1388.5
397.474	1373.5
397.698	1358.5
397.922	1388.5
398.147	1385.5
398.371	1397.5
398.595	1462.5
398.82	1472.5
399.044	1509.5
399.268	1601.5
399.492	1675.5
399.717	1740.5
399.941	1824.5
400.165	1767.5
400.389	1719.5
400.613	1638.5
400.837	1600.5
401.062	1560.5
401.286	1514.5
401.51	1513.5
401.734	1489.5
401.958	1501.5
402.182	1504.5
402.406	1497.5
402.63	1497.5
402.854	1481.5
403.078	1498.5
403.302	1499.5
403.526	1491.5
403.75	1501.5
403.974	1521.5
404.198	1530.5
404.422	1509.5
404.645	1524.5
404.869	1501.5
405.093	1560.5
405.317	1550.5
405.541	1547.5
405.765	1523.5
405.988	1563.5
406.212	1591.5
406.436	1616.5
406.66	1630.5
406.883	1632.5
407.107	1689.5
407.331	1701.5
407.555	1706.5
407.778	1742.5
408.002	1748.5
408.226	1702.5
408.449	1688.5
408.673	1688.5
408.896	1688.5
409.12	1647.5
409.344	1643.5
409.567	1629.5
409.791	1633.5
410.014	1598.5
410.238	1587.5
410.461	1608.5
410.685	1617.5
410.908	1596.5
411.132	1551.5
411.355	1522.5
411.578	1559.5
411.802	1561.5
412.025	1551.5
412.249	1566.5
412.472	1601.5
412.695	1556.5
412.919	1562.5
413.142	1556.5
413.365	1530.5
413.589	1603.5
413.812	1521.5
414.035	1523.5
414.258	1544.5
414.482	1545.5
414.705	1533.5
414.928	1503.5
415.151	1534.5
415.374	1547.5
415.597	1514.5
415.821	1485.5
416.044	1494.5
416.267	1496.5
416.49	1493.5
416.713	1462.5
416.936	1496.5
417.159	1481.5
417.382	1482.5
417.605	1436.5
417.828	1483.5
418.051	1480.5
418.274	1505.5
418.497	1492.5
418.72	1516.5
418.943	1460.5
419.166	1594.5
419.389	1690.5
419.611	1662.5
419.834	1606.5
420.057	1561.5
420.28	1513.5
420.503	1505.5
420.726	1469.5
420.948	1507.5
421.171	1523.5
421.394	1498.5
421.617	1526.5
421.839	1540.5
422.062	1511.5
422.285	1522.5
422.507	1522.5
422.73	1526.5
422.953	1486.5
423.175	1493.5
423.398	1486.5
423.621	1482.5
423.843	1520.5
424.066	1539.5
424.288	1507.5
424.511	1519.5
424.733	1511.5
424.956	1497.5
425.178	1502.5
425.401	1519.5
425.623	1512.5
425.846	1538.5
426.068	1530.5
426.291	1494.5
426.513	1475.5
426.735	1493.5
426.958	1466.5
427.18	1425.5
427.402	1484.5
427.625	1473.5
427.847	1504.5
428.069	1458.5
428.292	1463.5
428.514	1433.5
428.736	1434.5
428.958	1488.5
429.181	1470.5
429.403	1449.5
429.625	1452.5
429.847	1442.5
430.069	1434.5
430.292	1437.5
430.514	1433.5
430.736	1435.5
430.958	1444.5
431.18	1481.5
431.402	1438.5
431.624	1417.5
431.846	1492.5
432.068	1446.5
432.29	1466.5
432.512	1484.5
432.734	1502.5
432.956	1483.5
433.178	1493.5
433.4	1512.5
433.622	1466.5
433.844	1497.5
434.066	1491.5
434.287	1463.5
434.509	1488.5
434.731	1543.5
434.953	1542.5
435.175	1579.5
435.397	1571.5
435.618	1521.5
435.84	1537.5
436.062	1520.5
436.284	1518.5
436.505	1466.5
436.727	1475.5
436.949	1475.5
437.17	1481.5
437.392	1425.5
437.614	1436.5
437.835	1407.5
438.057	1424.5
438.278	1421.5
438.5	1444.5
438.721	1427.5
438.943	1457.5
439.165	1399.5
439.386	1411.5
439.608	1483.5
439.829	1437.5
440.05	1466.5
440.272	1474.5
440.493	1426.5
440.715	1452.5
440.936	1541.5
441.158	1490.5
441.379	1512.5
441.6	1554.5
441.822	1498.5
442.043	1531.5
442.264	1557.5
442.486	1518.5
442.707	1561.5
442.928	1536.5
443.149	1536.5
443.371	1549.5
443.592	1550.5
443.813	1550.5
444.034	1551.5
444.255	1596.5
444.476	1611.5
444.698	1673.5
444.919	1650.5
445.14	1763.5
445.361	1673.5
445.582	1615.5
445.803	1594.5
446.024	1542.5
446.245	1539.5
446.466	1506.5
446.687	1498.5
446.908	1530.5
447.129	1448.5
447.35	1418.5
447.571	1447.5
447.792	1414.5
448.013	1420.5
448.234	1422.5
448.455	1392.5
448.675	1378.5
448.896	1406.5
449.117	1359.5
449.338	1337.5
449.559	1330.5
449.779	1315.5
450	1348.5
450.221	1350.5
450.442	1355.5
450.662	1368.5
450.883	1370.5
451.104	1364.5
451.324	1355.5
451.545	1360.5
451.766	1354.5
451.986	1327.5
452.207	1318.5
452.428	1308.5
452.648	1321.5
452.869	1288.5
453.089	1314.5
453.31	1342.5
453.53	1298.5
453.751	1302.5
453.971	1320.5
454.192	1314.5
454.412	1283.5
454.633	1321.5
454.853	1303.5
455.073	1262.5
455.294	1318.5
455.514	1272.5
455.734	1287.5
455.955	1303.5
456.175	1267.5
456.395	1275.5
456.616	1276.5
456.836	1263.5
457.056	1292.5
457.276	1313.5
457.497	1280.5
457.717	1297.5
457.937	1331.5
458.157	1310.5
458.377	1325.5
458.598	1344.5
458.818	1367.5
459.038	1377.5
459.258	1427.5
459.478	1464.5
459.698	1493.5
459.918	1477.5
460.138	1516.5
460.358	1578.5
460.578	1594.5
460.798	1602.5
461.018	1632.5
461.238	1613.5
461.458	1608.5
461.678	1630.5
461.898	1658.5
462.118	1650.5
462.338	1712.5
462.558	1715.5
462.777	1764.5
462.997	1844.5
463.217	1884.5
463.437	1936.5
463.657	1877.5
463.876	1863.5
464.096	1814.5
464.316	1791.5
464.536	1785.5
464.755	1770.5
464.975	1748.5
465.195	1649.5
465.414	1612.5
465.634	1558.5
465.854	1512.5
466.073	1508.5
466.293	1491.5
466.512	1489.5
466.732	1462.5
466.951	1449.5
467.171	1466.5
467.391	1451.5
467.61	1434.5
467.829	1408.5
468.049	1418.5
468.268	1400.5
468.488	1395.5
468.707	1420.5
468.927	1408.5
469.146	1398.5
469.365	1432.5
469.585	1404.5
469.804	1437.5
470.023	1438.5
470.243	1427.5
470.462	1448.5
470.681	1421.5
470.901	1472.5
471.12	1458.5
471.339	1418.5
471.558	1430.5
471.777	1419.5
471.997	1394.5
472.216	1430.5
472.435	1406.5
472.654	1390.5
472.873	1384.5
473.092	1428.5
473.311	1416.5
473.53	1424.5
473.749	1395.5
473.968	1411.5
474.187	1391.5
474.406	1412.5
474.625	1425.5
474.844	1414.5
475.063	1422.5
475.282	1426.5
475.501	1434.5
475.72	1433.5
475.939	1457.5
476.158	1504.5
476.377	1504.5
476.596	1472.5
476.814	1483.5
477.033	1496.5
477.252	1548.5
477.471	1551.5
477.69	1566.5
477.908	1576.5
478.127	1583.5
478.346	1614.5
478.564	1649.5
478.783	1680.5
479.002	1692.5
479.22	1672.5
479.439	1681.5
479.658	1702.5
479.876	1721.5
480.095	1662.5
480.313	1718.5
480.532	1740.5
480.751	1742.5
480.969	1754.5
481.188	1700.5
481.406	1705.5
481.624	1682.5
481.843	1664.5
482.061	1673.5
482.28	1680.5
482.498	1656.5
482.717	1679.5
482.935	1676.5
483.153	1655.5
483.372	1687.5
483.59	1697.5
483.808	1686.5
484.027	1691.5
484.245	1671.5
484.463	1680.5
484.681	1716.5
484.9	1690.5
485.118	1654.5
485.336	1699.5
485.554	1729.5
485.772	1743.5
485.99	1697.5
486.209	1701.5
486.427	1697.5
486.645	1727.5
486.863	1734.5
487.081	1723.5
487.299	1704.5
487.517	1726.5
487.735	1726.5
487.953	1729.5
488.171	1760.5
488.389	1753.5
488.607	1739.5
488.825	1718.5
489.043	1739.5
489.261	1731.5
489.479	1717.5
489.696	1708.5
489.914	1751.5
490.132	1776.5
490.35	1765.5
490.568	1710.5
490.786	1736.5
491.003	1746.5
491.221	1798.5
491.439	1792.5
491.657	1780.5
491.874	1783.5
492.092	1795.5
492.31	1765.5
492.527	1805.5
492.745	1822.5
492.963	1818.5
493.18	1817.5
493.398	1810.5
493.615	1834.5
493.833	1846.5
494.05	1835.5
494.268	1868.5
494.485	1848.5
494.703	1876.5
494.92	1866.5
495.138	1886.5
495.355	1887.5
495.573	1918.5
495.79	1913.5
496.008	1914.5
496.225	1903.5
496.442	1977.5
496.66	1985.5
496.877	2005.5
497.094	2011.5
497.312	2045.5
497.529	2124.5
497.746	2151.5
497.963	2175.5
498.181	2315.5
498.398	2362.5
498.615	2397.5
498.832	2469.5
499.049	2626.5
499.267	2710.5
499.484	2877.5
499.701	2961.5
499.918	3122.5
500.135	3272.5
500.352	3357.5
500.569	3444.5
500.786	3396.5
501.003	3341.5
501.22	3302.5
501.437	3102.5
501.654	2948.5
501.871	2868.5
502.088	2719.5
502.305	2627.5
502.522	2548.5
502.739	2417.5
502.956	2337.5
503.172	2294.5
503.389	2238.5
503.606	2174.5
503.823	2169.5
504.04	2076.5
504.256	2091.5
504.473	2070.5
504.69	2098.5
504.907	1976.5
505.123	2008.5
505.34	1924.5
505.557	1904.5
505.773	1879.5
505.99	1789.5
506.207	1801.5
506.423	1793.5
506.64	1763.5
506.856	1722.5
507.073	1712.5
507.289	1697.5
507.506	1698.5
507.722	1670.5
507.939	1656.5
508.155	1671.5
508.372	1630.5
508.588	1604.5
508.805	1633.5
509.021	1599.5
509.238	1566.5
509.454	1573.5
509.67	1548.5
509.887	1535.5
510.103	1544.5
510.319	1536.5
510.536	1541.5
510.752	1488.5
510.968	1512.5
511.184	1505.5
511.401	1502.5
511.617	1506.5
511.833	1492.5
512.049	1537.5
512.265	1515.5
512.481	1492.5
512.698	1487.5
512.914	1498.5
513.13	1522.5
513.346	1540.5
513.562	1496.5
513.778	1537.5
513.994	1525.5
514.21	1505.5
514.426	1536.5
514.642	1540.5
514.858	1558.5
515.074	1558.5
515.29	1540.5
515.506	1548.5
515.721	1567.5
515.937	1577.5
516.153	1573.5
516.369	1616.5
516.585	1663.5
516.801	1658.5
517.016	1675.5
517.232	1721.5
517.448	1717.5
517.664	1724.5
517.879	1743.5
518.095	1748.5
518.311	1717.5
518.527	1694.5
518.742	1668.5
518.958	1674.5
519.173	1618.5
519.389	1613.5
519.605	1584.5
519.82	1624.5
520.036	1573.5
520.251	1506.5
520.467	1542.5
520.682	1492.5
520.898	1480.5
521.113	1472.5
521.329	1461.5
521.544	1428.5
521.76	1443.5
521.975	1424.5
522.19	1427.5
522.406	1412.5
522.621	1379.5
522.836	1427.5
523.052	1414.5
523.267	1396.5
523.482	1394.5
523.698	1387.5
523.913	1395.5
524.128	1386.5
524.343	1383.5
524.559	1375.5
524.774	1399.5
524.989	1400.5
525.204	1370.5
525.419	1367.5
525.634	1339.5
525.849	1358.5
526.064	1352.5
526.28	1332.5
526.495	1306.5
526.71	1314.5
526.925	1347.5
527.14	1304.5
527.355	1312.5
527.57	1329.5
527.785	1335.5
527.999	1335.5
528.214	1308.5
528.429	1337.5
528.644	1324.5
528.859	1318.5
529.074	1344.5
529.289	1344.5
529.503	1314.5
529.718	1331.5
529.933	1298.5
530.148	1310.5
530.363	1317.5
530.577	1343.5
530.792	1318.5
531.007	1311.5
531.221	1288.5
531.436	1295.5
531.651	1310.5
531.865	1270.5
532.08	1306.5
532.295	1292.5
532.509	1322.5
532.724	1308.5
532.938	1318.5
533.153	1306.5
533.367	1286.5
533.582	1262.5
533.796	1283.5
534.011	1257.5
534.225	1266.5
534.44	1256.5
534.654	1274.5
534.868	1283.5
535.083	1311.5
535.297	1285.5
535.511	1265.5
535.726	1275.5
535.94	1228.5
536.154	1244.5
536.369	1247.5
536.583	1231.5
536.797	1219.5
537.011	1209.5
537.225	1200.5
537.44	1218.5
537.654	1287.5
537.868	1228.5
538.082	1203.5
538.296	1195.5
538.51	1184.5
538.724	1224.5
538.938	1200.5
539.153	1189.5
539.367	1227.5
539.581	1216.5
539.795	1182.5
540.009	1202.5
540.222	1160.5
540.436	1192.5
540.65	1191.5
540.864	1207.5
541.078	1137.5
541.292	1162.5
541.506	1180.5
541.72	1178.5
541.934	1203.5
542.147	1196.5
542.361	1204.5
542.575	1169.5
542.789	1186.5
543.002	1190.5
543.216	1175.5
543.43	1177.5
543.644	1168.5
543.857	1182.5
544.071	1182.5
544.285	1142.5
544.498	1165.5
544.712	1172.5
544.925	1164.5
545.139	1198.5
545.352	1157.5
545.566	1180.5
545.779	1197.5
545.993	1184.5
546.206	1188.5
546.42	1188.5
546.633	1175.5
546.847	1202.5
547.06	1199.5
547.274	1158.5
547.487	1199.5
547.7	1200.5
547.914	1162.5
548.127	1200.5
548.34	1212.5
548.554	1187.5
548.767	1172.5
548.98	1186.5
549.193	1160.5
549.407	1183.5
549.62	1196.5
549.833	1180.5
550.046	1176.5
550.259	1163.5
550.473	1170.5
550.686	1161.5
550.899	1195.5
551.112	1170.5
551.325	1150.5
551.538	1181.5
551.751	1156.5
551.964	1174.5
552.177	1138.5
552.39	1168.5
552.603	1164.5
552.816	1204.5
553.029	1208.5
553.242	1202.5
553.455	1168.5
553.667	1167.5
553.88	1174.5
554.093	1165.5
554.306	1155.5
554.519	1129.5
554.732	1142.5
554.944	1129.5
555.157	1107.5
555.37	1091.5
555.583	1078.5
555.795	1082.5
556.008	1052.5
556.221	1061.5
556.433	1040.5
556.646	1051.5
556.859	1054.5
557.071	1032.5
557.284	1034.5
557.496	1039.5
557.709	1041.5
557.921	1004.5
558.134	1031.5
558.346	1006.5
558.559	1018.5
558.771	1026.5
558.984	976.5
559.196	1009.5
559.409	1006.5
559.621	991.5
559.833	986.5
560.046	991.5
560.258	977.5
560.47	988.5
560.683	1012.5
560.895	1010.5
561.107	993.5
561.32	1001.5
561.532	1017.5
561.744	1001.5
561.956	1010.5
562.168	1007.5
562.381	989.5
562.593	979.5
562.805	1012.5
563.017	1012.5
563.229	1018.5
563.441	1015.5
563.653	1047.5
563.865	1030.5
564.077	1040.5
564.289	1039.5
564.501	1062.5
564.713	1052.5
564.925	1080.5
565.137	1089.5
565.349	1097.5
565.561	1096.5
565.773	1137.5
565.985	1179.5
566.197	1189.5
566.408	1220.5
566.62	1237.5
566.832	1237.5
567.044	1267.5
567.255	1280.5
567.467	1330.5
567.679	1311.5
567.891	1315.5
568.102	1286.5
568.314	1249.5
568.526	1264.5
568.737	1184.5
568.949	1176.5
569.161	1088.5
569.372	1048.5
569.584	1049.5
569.795	1056.5
570.007	1038.5
570.218	1011.5
570.43	976.5
570.641	988.5
570.853	974.5
571.064	958.5
571.276	959.5
571.487	931.5
571.698	915.5
571.91	894.5
572.121	880.5
572.333	863.5
572.544	878.5
572.755	852.5
572.966	854.5
573.178	834.5
573.389	844.5
573.6	834.5
573.811	829.5
574.023	804.5
574.234	792.5
574.445	806.5
574.656	780.5
574.867	792.5
575.078	789.5
575.289	785.5
575.501	780.5
575.712	759.5
575.923	771.5
576.134	786.5
576.345	763.5
576.556	760.5
576.767	777.5
576.978	748.5
577.188	744.5
577.399	740.5
577.61	707.5
577.821	719.5
578.032	726.5
578.243	697.5
578.454	714.5
578.665	707.5
578.875	728.5
579.086	717.5
579.297	709.5
579.508	705.5
579.718	713.5
579.929	702.5
580.14	679.5
580.35	699.5
580.561	700.5
580.772	711.5
580.982	706.5
581.193	670.5
581.403	680.5
581.614	688.5
581.825	666.5
582.035	690.5
582.246	671.5
582.456	677.5
582.667	668.5
582.877	649.5
583.087	650.5
583.298	668.5
583.508	632.5
583.719	629.5
583.929	660.5
584.139	650.5
584.35	645.5
584.56	648.5
584.77	648.5
584.981	635.5
585.191	644.5
585.401	640.5
585.611	640.5
585.821	640.5
586.032	646.5
586.242	620.5
586.452	638.5
586.662	648.5
586.872	640.5
587.082	626.5
587.292	634.5
587.502	647.5
587.713	633.5
587.923	616.5
588.133	640.5
588.343	634.5
588.553	634.5
588.762	628.5
588.972	626.5
589.182	664.5
589.392	650.5
589.602	632.5
589.812	645.5
590.022	642.5
590.232	631.5
590.441	627.5
590.651	620.5
590.861	658.5
591.071	622.5
591.281	641.5
591.49	637.5
591.7	629.5
591.91	669.5
592.119	666.5
592.329	644.5
592.539	659.5
592.748	686.5
592.958	658.5
593.167	655.5
593.377	658.5
593.587	694.5
593.796	659.5
594.006	670.5
594.215	690.5
594.424	665.5
594.634	683.5
594.843	647.5
595.053	649.5
595.262	617.5
595.472	611.5
595.681	619.5
595.89	610.5
596.1	609.5
596.309	607.5
596.518	610.5
596.727	589.5
596.937	571.5
597.146	576.5
597.355	558.5
597.564	588.5
597.774	550.5
597.983	536.5
598.192	543.5
598.401	534.5
598.61	548.5
598.819	561.5
599.028	529.5
599.237	547.5
599.446	550.5
599.655	553.5
599.864	525.5
600.073	508.5
600.282	521.5
600.491	504.5
600.7	512.5
600.909	526.5
601.118	490.5
601.327	494.5
601.536	506.5
601.745	483.5
601.953	492.5
602.162	513.5
602.371	509.5
602.58	475.5
602.789	514.5
602.997	481.5
603.206	501.5
603.415	474.5
603.623	485.5
603.832	479.5
604.041	495.5
604.249	466.5
604.458	464.5
604.666	473.5
604.875	476.5
605.084	491.5
605.292	474.5
605.501	475.5
605.709	490.5
605.918	480.5
606.126	462.5
606.334	464.5
606.543	485.5
606.751	470.5
606.96	469.5
607.168	474.5
607.376	461.5
607.585	458.5
607.793	454.5
608.001	457.5
608.21	446.5
608.418	477.5
608.626	447.5
608.834	450.5
609.043	488.5
609.251	467.5
609.459	448.5
609.667	455.5
609.875	438.5
610.083	452.5
610.291	432.5
610.499	444.5
610.707	442.5
610.916	453.5
611.124	436.5
611.332	427.5
611.54	431.5
611.748	432.5
611.955	436.5
612.163	449.5
612.371	436.5
612.579	430.5
612.787	434.5
612.995	442.5
613.203	447.5
613.411	446.5
613.618	433.5
613.826	439.5
614.034	424.5
614.242	440.5
614.449	410.5
614.657	427.5
614.865	439.5
615.072	438.5
615.28	428.5
615.488	424.5
615.695	434.5
615.903	404.5
616.111	418.5
616.318	402.5
616.526	427.5
616.733	433.5
616.941	398.5
617.148	418.5
617.356	436.5
617.563	410.5
617.771	408.5
617.978	404.5
618.185	421.5
618.393	433.5
618.6	425.5
618.807	399.5
619.015	418.5
619.222	403.5
619.429	399.5
619.637	412.5
619.844	404.5
620.051	385.5
620.258	383.5
620.466	389.5
620.673	386.5
620.88	378.5
621.087	373.5
621.294	379.5
621.501	402.5
621.708	402.5
621.915	385.5
622.122	391.5
622.329	372.5
622.536	394.5
622.743	381.5
622.95	374.5
623.157	371.5
623.364	402.5
623.571	390.5
623.778	380.5
623.985	388.5
624.192	367.5
624.399	375.5
624.606	372.5
624.812	379.5
625.019	368.5
625.226	369.5
625.433	357.5
625.639	355.5
625.846	358.5
626.053	354.5
626.259	368.5
626.466	355.5
626.673	361.5
626.879	359.5
627.086	342.5
627.293	352.5
627.499	365.5
627.706	352.5
627.912	353.5
628.119	348.5
628.325	366.5
628.532	366.5
628.738	367.5
628.945	347.5
629.151	344.5
629.357	332.5
629.564	342.5
629.77	326.5
629.976	342.5
630.183	331.5
630.389	336.5
630.595	338.5
630.802	322.5
631.008	316.5
631.214	318.5
631.42	314.5
631.627	335.5
631.833	328.5
632.039	323.5
632.245	321.5
632.451	312.5
632.657	322.5
632.863	329.5
633.069	312.5
633.275	306.5
633.481	321.5
633.688	315.5
633.893	333.5
634.099	313.5
634.305	311.5
634.511	320.5
634.717	305.5
634.923	315.5
635.129	330.5
635.335	314.5
635.541	294.5
635.747	318.5
635.952	306.5
636.158	294.5
636.364	308.5
636.57	305.5
636.775	304.5
636.981	322.5
637.187	312.5
637.392	290.5
637.598	321.5
637.804	281.5
638.009	307.5
638.215	283.5
638.421	300.5
638.626	290.5
638.832	287.5
639.037	307.5
639.243	306.5
639.448	291.5
639.654	293.5
639.859	288.5
640.065	279.5
640.27	295.5
640.475	288.5
640.681	285.5
640.886	288.5
641.091	294.5
641.297	284.5
641.502	296.5
641.707	299.5
641.913	282.5
642.118	295.5
642.323	275.5
642.528	288.5
642.733	302.5
642.939	281.5
643.144	281.5
643.349	276.5
643.554	286.5
643.759	280.5
643.964	275.5
644.169	282.5
644.374	263.5
644.579	270.5
644.784	287.5
644.989	270.5
645.194	283.5
645.399	281.5
645.604	249.5
645.809	283.5
646.014	280.5
646.219	281.5
646.423	281.5
646.628	269.5
646.833	275.5
647.038	281.5
647.243	293.5
647.447	302.5
647.652	289.5
647.857	266.5
648.062	284.5
648.266	277.5
648.471	271.5
648.676	271.5
648.88	274.5
649.085	276.5
649.289	274.5
649.494	282.5
649.698	286.5
649.903	270.5
650.107	274.5
650.312	277.5
650.516	272.5
650.721	259.5
650.925	269.5
651.13	241.5
651.334	268.5
651.539	270.5
651.743	240.5
651.947	256.5
652.152	236.5
652.356	250.5
652.56	246.5
652.764	223.5
652.969	248.5
653.173	254.5
653.377	255.5
653.581	224.5
653.785	219.5
653.99	223.5
654.194	238.5
654.398	221.5
654.602	238.5
654.806	217.5
655.01	214.5
655.214	215.5
655.418	200.5
655.622	224.5
655.826	200.5
656.03	218.5
656.234	210.5
656.438	197.5
656.642	187.5
656.846	187.5
657.049	179.5
657.253	163.5
657.457	182.5
657.661	178.5
657.865	167.5
658.068	174.5
658.272	168.5
658.476	159.5
658.68	145.5
658.883	142.5
659.087	140.5
659.291	134.5
659.494	133.5
659.698	130.5
659.901	122.5
660.105	119.5
660.309	123.5
660.512	117.5
660.716	122.5
660.919	110.5
661.123	103.5
661.326	114.5
661.53	107.5
661.733	75.5
661.936	93.5
662.14	98.5
662.343	74.5
662.546	77.5
662.75	94.5
662.953	78.5
663.156	88.5
663.36	86.5
663.563	88.5
663.766	96.5
663.969	78.5
664.173	90.5
664.376	72.5
664.579	80.5
664.782	67.5
664.985	96.5
665.188	64.5
665.391	87.5
665.594	88.5
665.797	81.5
666	82.5
666.203	86.5
666.406	78.5
666.609	79.5
666.812	80.5
667.015	76.5
667.218	81.5
667.421	75.5
667.624	65.5
667.827	68.5
668.03	81.5
668.232	64.5
668.435	66.5
668.638	64.5
668.841	75.5
669.043	86.5
669.246	74.5
669.449	80.5
669.651	69.5
669.854	80.5
670.057	75.5
670.259	64.5
670.462	69.5
670.665	76.5
670.867	67.5
671.07	81.5
671.272	84.5
671.475	90.5
671.677	72.5
671.88	76.5
672.082	67.5
672.284	85.5
672.487	75.5
672.689	104.5
672.892	77.5
