Data from Ni(NO3)2@0.0625M.TitratingCurve.Agarose3%dH2O.NegLispCup.LampEnergy10.LIBS07252019_HRD10591_18-15-45-569.txt Node
Date: Thu Jul 25 18:15:45 EDT 2019
User: cochatt
Spectrometer: HR+D1059
Trigger mode: 1
Integration Time (sec): 1.000000E-1
Scans to average: 1
Electric dark correction enabled: true
Nonlinearity correction enabled: false
Boxcar width: 0
XAxis mode: Wavelengths
Number of Pixels in Spectrum: 2048
>>>>>Begin Spectral Data<<<<<
223.165	-14.75
223.4	-14.75
223.635	-14.75
223.869	-15.75
224.104	-31.75
224.338	-19.75
224.573	-27.75
224.808	0.25
225.042	-13.75
225.277	3.25
225.511	3.25
225.746	5.25
225.98	5.25
226.215	8.25
226.449	13.25
226.683	20.25
226.918	21.25
227.152	43.25
227.387	36.25
227.621	52.25
227.856	36.25
228.09	35.25
228.324	44.25
228.559	64.25
228.793	72.25
229.027	105.25
229.262	124.25
229.496	96.25
229.73	92.25
229.964	98.25
230.199	128.25
230.433	115.25
230.667	116.25
230.901	134.25
231.136	120.25
231.37	123.25
231.604	112.25
231.838	128.25
232.072	125.25
232.306	120.25
232.541	118.25
232.775	124.25
233.009	127.25
233.243	125.25
233.477	134.25
233.711	127.25
233.945	112.25
234.179	121.25
234.413	125.25
234.647	130.25
234.881	140.25
235.115	141.25
235.349	128.25
235.583	117.25
235.817	144.25
236.051	115.25
236.285	143.25
236.519	140.25
236.753	142.25
236.987	134.25
237.221	138.25
237.455	132.25
237.689	134.25
237.922	130.25
238.156	132.25
238.39	150.25
238.624	126.25
238.858	141.25
239.091	136.25
239.325	135.25
239.559	140.25
239.793	156.25
240.027	154.25
240.26	138.25
240.494	144.25
240.728	148.25
240.961	157.25
241.195	150.25
241.429	163.25
241.662	153.25
241.896	156.25
242.13	155.25
242.363	146.25
242.597	146.25
242.83	157.25
243.064	154.25
243.298	169.25
243.531	160.25
243.765	168.25
243.998	170.25
244.232	156.25
244.465	172.25
244.699	163.25
244.932	155.25
245.166	153.25
245.399	181.25
245.633	179.25
245.866	185.25
246.099	188.25
246.333	164.25
246.566	185.25
246.8	171.25
247.033	179.25
247.266	186.25
247.5	191.25
247.733	190.25
247.966	200.25
248.2	199.25
248.433	174.25
248.666	169.25
248.899	189.25
249.133	180.25
249.366	187.25
249.599	193.25
249.832	196.25
250.066	204.25
250.299	201.25
250.532	203.25
250.765	204.25
250.998	186.25
251.231	201.25
251.465	210.25
251.698	196.25
251.931	196.25
252.164	200.25
252.397	210.25
252.63	224.25
252.863	208.25
253.096	211.25
253.329	197.25
253.562	199.25
253.795	210.25
254.028	212.25
254.261	219.25
254.494	214.25
254.727	211.25
254.96	215.25
255.193	217.25
255.426	220.25
255.659	216.25
255.892	222.25
256.124	219.25
256.357	223.25
256.59	227.25
256.823	224.25
257.056	233.25
257.289	214.25
257.521	231.25
257.754	224.25
257.987	221.25
258.22	240.25
258.452	242.25
258.685	225.25
258.918	225.25
259.151	242.25
259.383	226.25
259.616	245.25
259.849	245.25
260.081	236.25
260.314	243.25
260.547	240.25
260.779	242.25
261.012	273.25
261.244	256.25
261.477	239.25
261.71	256.25
261.942	250.25
262.175	251.25
262.407	242.25
262.64	270.25
262.872	248.25
263.105	269.25
263.337	272.25
263.57	256.25
263.802	242.25
264.035	268.25
264.267	262.25
264.499	258.25
264.732	276.25
264.964	265.25
265.197	274.25
265.429	269.25
265.661	253.25
265.894	259.25
266.126	279.25
266.358	268.25
266.591	264.25
266.823	296.25
267.055	269.25
267.287	279.25
267.52	283.25
267.752	288.25
267.984	275.25
268.216	296.25
268.448	288.25
268.681	285.25
268.913	292.25
269.145	301.25
269.377	252.25
269.609	272.25
269.841	284.25
270.073	281.25
270.306	298.25
270.538	270.25
270.77	288.25
271.002	282.25
271.234	288.25
271.466	312.25
271.698	311.25
271.93	294.25
272.162	308.25
272.394	298.25
272.626	294.25
272.858	310.25
273.09	291.25
273.322	305.25
273.553	288.25
273.785	313.25
274.017	308.25
274.249	305.25
274.481	308.25
274.713	309.25
274.945	320.25
275.176	314.25
275.408	317.25
275.64	322.25
275.872	326.25
276.104	318.25
276.335	325.25
276.567	313.25
276.799	320.25
277.031	304.25
277.262	340.25
277.494	339.25
277.726	322.25
277.957	324.25
278.189	326.25
278.421	338.25
278.652	328.25
278.884	322.25
279.115	339.25
279.347	328.25
279.579	350.25
279.81	343.25
280.042	357.25
280.273	365.25
280.505	332.25
280.736	344.25
280.968	320.25
281.199	337.25
281.431	340.25
281.662	337.25
281.894	349.25
282.125	375.25
282.356	363.25
282.588	357.25
282.819	348.25
283.051	362.25
283.282	362.25
283.513	346.25
283.745	345.25
283.976	357.25
284.207	370.25
284.439	347.25
284.67	372.25
284.901	377.25
285.132	362.25
285.364	374.25
285.595	369.25
285.826	360.25
286.057	372.25
286.288	382.25
286.52	391.25
286.751	384.25
286.982	391.25
287.213	376.25
287.444	376.25
287.675	379.25
287.906	382.25
288.138	411.25
288.369	400.25
288.6	377.25
288.831	366.25
289.062	388.25
289.293	392.25
289.524	384.25
289.755	408.25
289.986	405.25
290.217	398.25
290.448	413.25
290.679	402.25
290.91	385.25
291.141	396.25
291.371	396.25
291.602	407.25
291.833	396.25
292.064	380.25
292.295	391.25
292.526	411.25
292.757	389.25
292.987	386.25
293.218	395.25
293.449	387.25
293.68	394.25
293.91	410.25
294.141	406.25
294.372	410.25
294.603	398.25
294.833	426.25
295.064	411.25
295.295	396.25
295.525	401.25
295.756	405.25
295.987	398.25
296.217	415.25
296.448	414.25
296.679	408.25
296.909	416.25
297.14	402.25
297.37	425.25
297.601	446.25
297.831	424.25
298.062	426.25
298.292	441.25
298.523	452.25
298.753	427.25
298.984	435.25
299.214	437.25
299.445	443.25
299.675	432.25
299.905	429.25
300.136	450.25
300.366	451.25
300.597	439.25
300.827	437.25
301.057	448.25
301.288	456.25
301.518	462.25
301.748	462.25
301.979	463.25
302.209	488.25
302.439	457.25
302.669	447.25
302.9	466.25
303.13	456.25
303.36	454.25
303.59	450.25
303.82	454.25
304.051	454.25
304.281	429.25
304.511	441.25
304.741	471.25
304.971	472.25
305.201	455.25
305.431	453.25
305.661	455.25
305.891	446.25
306.121	435.25
306.352	444.25
306.582	450.25
306.812	421.25
307.042	452.25
307.272	414.25
307.502	444.25
307.731	432.25
307.961	443.25
308.191	443.25
308.421	449.25
308.651	469.25
308.881	436.25
309.111	435.25
309.341	452.25
309.571	441.25
309.8	449.25
310.03	448.25
310.26	442.25
310.49	452.25
310.72	445.25
310.949	449.25
311.179	435.25
311.409	427.25
311.639	453.25
311.868	445.25
312.098	469.25
312.328	454.25
312.557	463.25
312.787	440.25
313.017	456.25
313.246	460.25
313.476	473.25
313.706	472.25
313.935	470.25
314.165	485.25
314.394	452.25
314.624	467.25
314.853	451.25
315.083	450.25
315.312	475.25
315.542	484.25
315.771	454.25
316.001	459.25
316.23	471.25
316.46	456.25
316.689	464.25
316.919	450.25
317.148	481.25
317.377	461.25
317.607	479.25
317.836	461.25
318.065	446.25
318.295	459.25
318.524	456.25
318.753	458.25
318.983	455.25
319.212	453.25
319.441	441.25
319.67	447.25
319.9	462.25
320.129	474.25
320.358	478.25
320.587	473.25
320.816	477.25
321.046	475.25
321.275	473.25
321.504	482.25
321.733	471.25
321.962	454.25
322.191	484.25
322.42	461.25
322.649	460.25
322.878	485.25
323.108	484.25
323.337	472.25
323.566	477.25
323.795	466.25
324.024	496.25
324.253	479.25
324.482	475.25
324.71	483.25
324.939	498.25
325.168	491.25
325.397	485.25
325.626	501.25
325.855	490.25
326.084	500.25
326.313	493.25
326.542	506.25
326.77	518.25
326.999	509.25
327.228	490.25
327.457	510.25
327.686	483.25
327.914	510.25
328.143	516.25
328.372	509.25
328.6	487.25
328.829	500.25
329.058	514.25
329.287	515.25
329.515	484.25
329.744	506.25
329.972	492.25
330.201	532.25
330.43	539.25
330.658	522.25
330.887	523.25
331.115	540.25
331.344	544.25
331.572	553.25
331.801	542.25
332.03	568.25
332.258	539.25
332.486	593.25
332.715	608.25
332.943	634.25
333.172	658.25
333.4	666.25
333.629	695.25
333.857	677.25
334.085	660.25
334.314	683.25
334.542	650.25
334.771	644.25
334.999	621.25
335.227	629.25
335.455	630.25
335.684	603.25
335.912	616.25
336.14	621.25
336.369	619.25
336.597	631.25
336.825	622.25
337.053	603.25
337.281	593.25
337.51	590.25
337.738	606.25
337.966	569.25
338.194	582.25
338.422	578.25
338.65	549.25
338.878	577.25
339.106	571.25
339.334	558.25
339.562	567.25
339.79	546.25
340.018	530.25
340.246	515.25
340.474	562.25
340.702	557.25
340.93	540.25
341.158	553.25
341.386	532.25
341.614	545.25
341.842	548.25
342.07	533.25
342.298	536.25
342.526	541.25
342.754	537.25
342.981	550.25
343.209	548.25
343.437	593.25
343.665	609.25
343.893	632.25
344.12	644.25
344.348	625.25
344.576	602.25
344.804	577.25
345.031	556.25
345.259	558.25
345.487	573.25
345.714	548.25
345.942	550.25
346.17	545.25
346.397	541.25
346.625	547.25
346.853	558.25
347.08	547.25
347.308	544.25
347.535	557.25
347.763	531.25
347.99	540.25
348.218	547.25
348.445	538.25
348.673	554.25
348.9	521.25
349.128	521.25
349.355	531.25
349.583	518.25
349.81	514.25
350.037	522.25
350.265	510.25
350.492	493.25
350.72	500.25
350.947	480.25
351.174	517.25
351.402	521.25
351.629	506.25
351.856	526.25
352.083	508.25
352.311	482.25
352.538	512.25
352.765	538.25
352.992	512.25
353.22	491.25
353.447	482.25
353.674	506.25
353.901	499.25
354.128	510.25
354.355	501.25
354.583	522.25
354.81	516.25
355.037	514.25
355.264	520.25
355.491	483.25
355.718	505.25
355.945	493.25
356.172	505.25
356.399	499.25
356.626	528.25
356.853	549.25
357.08	498.25
357.307	478.25
357.534	499.25
357.761	505.25
357.988	497.25
358.215	491.25
358.441	485.25
358.668	522.25
358.895	506.25
359.122	502.25
359.349	492.25
359.576	508.25
359.802	496.25
360.029	505.25
360.256	525.25
360.483	523.25
360.709	481.25
360.936	518.25
361.163	521.25
361.39	514.25
361.616	487.25
361.843	514.25
362.07	517.25
362.296	509.25
362.523	499.25
362.749	521.25
362.976	495.25
363.203	514.25
363.429	479.25
363.656	498.25
363.882	504.25
364.109	518.25
364.335	522.25
364.562	499.25
364.788	527.25
365.015	499.25
365.241	517.25
365.468	494.25
365.694	490.25
365.92	485.25
366.147	503.25
366.373	500.25
366.599	514.25
366.826	491.25
367.052	493.25
367.278	513.25
367.505	510.25
367.731	506.25
367.957	513.25
368.184	510.25
368.41	515.25
368.636	519.25
368.862	531.25
369.089	522.25
369.315	517.25
369.541	523.25
369.767	523.25
369.993	524.25
370.219	527.25
370.445	522.25
370.672	539.25
370.898	527.25
371.124	560.25
371.35	541.25
371.576	559.25
371.802	547.25
372.028	554.25
372.254	554.25
372.48	552.25
372.706	556.25
372.932	549.25
373.158	551.25
373.384	574.25
373.61	549.25
373.835	555.25
374.061	565.25
374.287	557.25
374.513	568.25
374.739	563.25
374.965	608.25
375.191	594.25
375.416	607.25
375.642	585.25
375.868	590.25
376.094	587.25
376.319	558.25
376.545	565.25
376.771	572.25
376.997	569.25
377.222	565.25
377.448	553.25
377.674	574.25
377.899	544.25
378.125	541.25
378.35	541.25
378.576	564.25
378.802	524.25
379.027	539.25
379.253	554.25
379.478	545.25
379.704	539.25
379.929	538.25
380.155	532.25
380.38	552.25
380.606	578.25
380.831	564.25
381.057	570.25
381.282	575.25
381.507	546.25
381.733	557.25
381.958	568.25
382.184	568.25
382.409	555.25
382.634	557.25
382.86	598.25
383.085	585.25
383.31	594.25
383.535	571.25
383.761	611.25
383.986	616.25
384.211	645.25
384.436	618.25
384.662	665.25
384.887	639.25
385.112	653.25
385.337	640.25
385.562	677.25
385.787	658.25
386.013	672.25
386.238	657.25
386.463	655.25
386.688	663.25
386.913	638.25
387.138	634.25
387.363	632.25
387.588	639.25
387.813	644.25
388.038	667.25
388.263	652.25
388.488	664.25
388.713	638.25
388.938	662.25
389.163	638.25
389.387	618.25
389.612	631.25
389.837	649.25
390.062	622.25
390.287	637.25
390.512	648.25
390.736	642.25
390.961	679.25
391.186	674.25
391.411	686.25
391.636	729.25
391.86	709.25
392.085	741.25
392.31	740.25
392.534	709.25
392.759	706.25
392.984	676.25
393.208	673.25
393.433	688.25
393.658	682.25
393.882	677.25
394.107	665.25
394.331	697.25
394.556	700.25
394.78	676.25
395.005	686.25
395.229	683.25
395.454	713.25
395.678	749.25
395.903	749.25
396.127	709.25
396.352	702.25
396.576	689.25
396.801	696.25
397.025	701.25
397.249	722.25
397.474	718.25
397.698	724.25
397.922	755.25
398.147	713.25
398.371	727.25
398.595	785.25
398.82	803.25
399.044	839.25
399.268	920.25
399.492	1064.25
399.717	1206.25
399.941	1208.25
400.165	1076.25
400.389	973.25
400.613	910.25
400.837	843.25
401.062	823.25
401.286	798.25
401.51	817.25
401.734	788.25
401.958	837.25
402.182	784.25
402.406	822.25
402.63	867.25
402.854	879.25
403.078	880.25
403.302	876.25
403.526	922.25
403.75	936.25
403.974	934.25
404.198	936.25
404.422	962.25
404.645	950.25
404.869	926.25
405.093	894.25
405.317	898.25
405.541	918.25
405.765	880.25
405.988	873.25
406.212	872.25
406.436	890.25
406.66	905.25
406.883	908.25
407.107	974.25
407.331	1001.25
407.555	1052.25
407.778	1038.25
408.002	1025.25
408.226	980.25
408.449	974.25
408.673	948.25
408.896	916.25
409.12	928.25
409.344	925.25
409.567	923.25
409.791	937.25
410.014	919.25
410.238	941.25
410.461	946.25
410.685	884.25
410.908	897.25
411.132	891.25
411.355	848.25
411.578	870.25
411.802	848.25
412.025	845.25
412.249	873.25
412.472	861.25
412.695	838.25
412.919	796.25
413.142	805.25
413.365	815.25
413.589	806.25
413.812	806.25
414.035	787.25
414.258	827.25
414.482	829.25
414.705	819.25
414.928	821.25
415.151	831.25
415.374	843.25
415.597	813.25
415.821	804.25
416.044	799.25
416.267	788.25
416.49	803.25
416.713	792.25
416.936	776.25
417.159	795.25
417.382	788.25
417.605	763.25
417.828	801.25
418.051	818.25
418.274	798.25
418.497	780.25
418.72	837.25
418.943	821.25
419.166	875.25
419.389	937.25
419.611	913.25
419.834	870.25
420.057	871.25
420.28	836.25
420.503	763.25
420.726	791.25
420.948	792.25
421.171	793.25
421.394	811.25
421.617	771.25
421.839	808.25
422.062	798.25
422.285	798.25
422.507	821.25
422.73	826.25
422.953	830.25
423.175	836.25
423.398	853.25
423.621	836.25
423.843	862.25
424.066	833.25
424.288	859.25
424.511	828.25
424.733	818.25
424.956	832.25
425.178	836.25
425.401	825.25
425.623	809.25
425.846	809.25
426.068	771.25
426.291	769.25
426.513	781.25
426.735	737.25
426.958	752.25
427.18	732.25
427.402	731.25
427.625	737.25
427.847	717.25
428.069	723.25
428.292	706.25
428.514	692.25
428.736	715.25
428.958	746.25
429.181	690.25
429.403	692.25
429.625	708.25
429.847	686.25
430.069	701.25
430.292	700.25
430.514	685.25
430.736	718.25
430.958	722.25
431.18	701.25
431.402	713.25
431.624	691.25
431.846	717.25
432.068	730.25
432.29	765.25
432.512	736.25
432.734	743.25
432.956	737.25
433.178	738.25
433.4	715.25
433.622	735.25
433.844	741.25
434.066	724.25
434.287	748.25
434.509	796.25
434.731	798.25
434.953	829.25
435.175	839.25
435.397	841.25
435.618	797.25
435.84	762.25
436.062	728.25
436.284	728.25
436.505	721.25
436.727	714.25
436.949	722.25
437.17	744.25
437.392	725.25
437.614	709.25
437.835	699.25
438.057	718.25
438.278	688.25
438.5	678.25
438.721	708.25
438.943	706.25
439.165	679.25
439.386	705.25
439.608	726.25
439.829	740.25
440.05	716.25
440.272	733.25
440.493	720.25
440.715	757.25
440.936	753.25
441.158	766.25
441.379	784.25
441.6	804.25
441.822	843.25
442.043	821.25
442.264	817.25
442.486	797.25
442.707	808.25
442.928	816.25
443.149	797.25
443.371	812.25
443.592	797.25
443.813	822.25
444.034	827.25
444.255	837.25
444.476	898.25
444.698	948.25
444.919	970.25
445.14	1050.25
445.361	932.25
445.582	840.25
445.803	768.25
446.024	771.25
446.245	763.25
446.466	751.25
446.687	739.25
446.908	733.25
447.129	728.25
447.35	702.25
447.571	706.25
447.792	705.25
448.013	688.25
448.234	673.25
448.455	685.25
448.675	660.25
448.896	683.25
449.117	661.25
449.338	663.25
449.559	661.25
449.779	681.25
450	657.25
450.221	645.25
450.442	683.25
450.662	709.25
450.883	715.25
451.104	687.25
451.324	689.25
451.545	679.25
451.766	698.25
451.986	668.25
452.207	666.25
452.428	680.25
452.648	678.25
452.869	688.25
453.089	671.25
453.31	669.25
453.53	654.25
453.751	663.25
453.971	630.25
454.192	648.25
454.412	648.25
454.633	662.25
454.853	660.25
455.073	642.25
455.294	622.25
455.514	644.25
455.734	622.25
455.955	636.25
456.175	647.25
456.395	621.25
456.616	612.25
456.836	636.25
457.056	640.25
457.276	636.25
457.497	622.25
457.717	632.25
457.937	632.25
458.157	630.25
458.377	657.25
458.598	648.25
458.818	671.25
459.038	686.25
459.258	694.25
459.478	752.25
459.698	749.25
459.918	773.25
460.138	812.25
460.358	838.25
460.578	859.25
460.798	854.25
461.018	882.25
461.238	848.25
461.458	828.25
461.678	807.25
461.898	852.25
462.118	856.25
462.338	942.25
462.558	902.25
462.777	958.25
462.997	1079.25
463.217	1144.25
463.437	1184.25
463.657	1055.25
463.876	1000.25
464.096	987.25
464.316	1002.25
464.536	1015.25
464.755	985.25
464.975	943.25
465.195	886.25
465.414	837.25
465.634	818.25
465.854	776.25
466.073	724.25
466.293	713.25
466.512	734.25
466.732	717.25
466.951	706.25
467.171	731.25
467.391	711.25
467.61	731.25
467.829	710.25
468.049	714.25
468.268	690.25
468.488	661.25
468.707	686.25
468.927	661.25
469.146	694.25
469.365	675.25
469.585	688.25
469.804	707.25
470.023	717.25
470.243	709.25
470.462	721.25
470.681	739.25
470.901	745.25
471.12	744.25
471.339	699.25
471.558	708.25
471.777	658.25
471.997	670.25
472.216	681.25
472.435	662.25
472.654	680.25
472.873	660.25
473.092	658.25
473.311	662.25
473.53	654.25
473.749	654.25
473.968	680.25
474.187	664.25
474.406	649.25
474.625	664.25
474.844	682.25
475.063	686.25
475.282	665.25
475.501	692.25
475.72	691.25
475.939	682.25
476.158	692.25
476.377	700.25
476.596	692.25
476.814	693.25
477.033	698.25
477.252	743.25
477.471	752.25
477.69	774.25
477.908	771.25
478.127	781.25
478.346	787.25
478.564	801.25
478.783	793.25
479.002	823.25
479.22	852.25
479.439	842.25
479.658	810.25
479.876	829.25
480.095	820.25
480.313	879.25
480.532	876.25
480.751	902.25
480.969	832.25
481.188	825.25
481.406	808.25
481.624	778.25
481.843	786.25
482.061	767.25
482.28	800.25
482.498	796.25
482.717	788.25
482.935	768.25
483.153	763.25
483.372	788.25
483.59	781.25
483.808	790.25
484.027	765.25
484.245	782.25
484.463	768.25
484.681	785.25
484.9	801.25
485.118	817.25
485.336	820.25
485.554	818.25
485.772	814.25
485.99	834.25
486.209	820.25
486.427	829.25
486.645	818.25
486.863	818.25
487.081	851.25
487.299	840.25
487.517	809.25
487.735	824.25
487.953	796.25
488.171	784.25
488.389	803.25
488.607	812.25
488.825	781.25
489.043	802.25
489.261	798.25
489.479	830.25
489.696	808.25
489.914	802.25
490.132	798.25
490.35	785.25
490.568	801.25
490.786	782.25
491.003	798.25
491.221	785.25
491.439	793.25
491.657	835.25
491.874	816.25
492.092	839.25
492.31	841.25
492.527	842.25
492.745	798.25
492.963	804.25
493.18	824.25
493.398	852.25
493.615	843.25
493.833	851.25
494.05	826.25
494.268	837.25
494.485	834.25
494.703	830.25
494.92	850.25
495.138	820.25
495.355	828.25
495.573	870.25
495.79	860.25
496.008	867.25
496.225	881.25
496.442	851.25
496.66	873.25
496.877	884.25
497.094	886.25
497.312	921.25
497.529	916.25
497.746	931.25
497.963	966.25
498.181	988.25
498.398	1031.25
498.615	1086.25
498.832	1173.25
499.049	1262.25
499.267	1348.25
499.484	1493.25
499.701	1626.25
499.918	1790.25
500.135	2034.25
500.352	2379.25
500.569	2458.25
500.786	2420.25
501.003	2248.25
501.22	2010.25
501.437	1773.25
501.654	1560.25
501.871	1427.25
502.088	1314.25
502.305	1237.25
502.522	1161.25
502.739	1123.25
502.956	1072.25
503.172	1025.25
503.389	1030.25
503.606	974.25
503.823	934.25
504.04	964.25
504.256	950.25
504.473	992.25
504.69	1005.25
504.907	1003.25
505.123	937.25
505.34	891.25
505.557	850.25
505.773	824.25
505.99	780.25
506.207	785.25
506.423	754.25
506.64	761.25
506.856	733.25
507.073	755.25
507.289	726.25
507.506	760.25
507.722	756.25
507.939	741.25
508.155	709.25
508.372	714.25
508.588	724.25
508.805	716.25
509.021	694.25
509.238	702.25
509.454	695.25
509.67	700.25
509.887	698.25
510.103	688.25
510.319	666.25
510.536	693.25
510.752	709.25
510.968	694.25
511.184	695.25
511.401	686.25
511.617	664.25
511.833	666.25
512.049	653.25
512.265	662.25
512.481	652.25
512.698	669.25
512.914	684.25
513.13	689.25
513.346	688.25
513.562	693.25
513.778	685.25
513.994	688.25
514.21	682.25
514.426	696.25
514.642	694.25
514.858	667.25
515.074	714.25
515.29	729.25
515.506	702.25
515.721	725.25
515.937	708.25
516.153	728.25
516.369	746.25
516.585	780.25
516.801	797.25
517.016	814.25
517.232	840.25
517.448	902.25
517.664	932.25
517.879	918.25
518.095	940.25
518.311	909.25
518.527	896.25
518.742	846.25
518.958	827.25
519.173	781.25
519.389	749.25
519.605	757.25
519.82	738.25
520.036	738.25
520.251	717.25
520.467	664.25
520.682	686.25
520.898	675.25
521.113	696.25
521.329	658.25
521.544	659.25
521.76	685.25
521.975	666.25
522.19	649.25
522.406	659.25
522.621	673.25
522.836	647.25
523.052	661.25
523.267	671.25
523.482	638.25
523.698	649.25
523.913	628.25
524.128	653.25
524.343	625.25
524.559	651.25
524.774	646.25
524.989	636.25
525.204	635.25
525.419	648.25
525.634	620.25
525.849	629.25
526.064	640.25
526.28	619.25
526.495	638.25
526.71	622.25
526.925	629.25
527.14	636.25
527.355	630.25
527.57	630.25
527.785	631.25
527.999	609.25
528.214	626.25
528.429	629.25
528.644	620.25
528.859	624.25
529.074	627.25
529.289	627.25
529.503	622.25
529.718	626.25
529.933	615.25
530.148	604.25
530.363	612.25
530.577	612.25
530.792	619.25
531.007	619.25
531.221	653.25
531.436	632.25
531.651	639.25
531.865	630.25
532.08	609.25
532.295	634.25
532.509	636.25
532.724	637.25
532.938	615.25
533.153	636.25
533.367	627.25
533.582	652.25
533.796	621.25
534.011	591.25
534.225	618.25
534.44	636.25
534.654	604.25
534.868	594.25
535.083	604.25
535.297	605.25
535.511	630.25
535.726	613.25
535.94	606.25
536.154	585.25
536.369	589.25
536.583	592.25
536.797	588.25
537.011	579.25
537.225	594.25
537.44	584.25
537.654	588.25
537.868	584.25
538.082	568.25
538.296	589.25
538.51	593.25
538.724	570.25
538.938	557.25
539.153	580.25
539.367	573.25
539.581	583.25
539.795	576.25
540.009	570.25
540.222	565.25
540.436	552.25
540.65	558.25
540.864	548.25
541.078	558.25
541.292	569.25
541.506	548.25
541.72	573.25
541.934	574.25
542.147	553.25
542.361	551.25
542.575	560.25
542.789	571.25
543.002	549.25
543.216	565.25
543.43	558.25
543.644	550.25
543.857	555.25
544.071	554.25
544.285	555.25
544.498	524.25
544.712	549.25
544.925	553.25
545.139	561.25
545.352	574.25
545.566	560.25
545.779	584.25
545.993	568.25
546.206	564.25
546.42	570.25
546.633	565.25
546.847	572.25
547.06	562.25
547.274	547.25
547.487	566.25
547.7	549.25
547.914	568.25
548.127	560.25
548.34	589.25
548.554	583.25
548.767	542.25
548.98	580.25
549.193	566.25
549.407	573.25
549.62	573.25
549.833	602.25
550.046	599.25
550.259	588.25
550.473	558.25
550.686	568.25
550.899	576.25
551.112	567.25
551.325	566.25
551.538	572.25
551.751	568.25
551.964	568.25
552.177	560.25
552.39	541.25
552.603	578.25
552.816	593.25
553.029	596.25
553.242	615.25
553.455	621.25
553.667	630.25
553.88	618.25
554.093	592.25
554.306	569.25
554.519	582.25
554.732	546.25
554.944	549.25
555.157	557.25
555.37	551.25
555.583	532.25
555.795	564.25
556.008	524.25
556.221	544.25
556.433	525.25
556.646	524.25
556.859	522.25
557.071	516.25
557.284	505.25
557.496	498.25
557.709	500.25
557.921	500.25
558.134	470.25
558.346	482.25
558.559	516.25
558.771	482.25
558.984	507.25
559.196	465.25
559.409	452.25
559.621	487.25
559.833	484.25
560.046	482.25
560.258	462.25
560.47	450.25
560.683	458.25
560.895	472.25
561.107	472.25
561.32	475.25
561.532	474.25
561.744	480.25
561.956	477.25
562.168	500.25
562.381	488.25
562.593	477.25
562.805	509.25
563.017	459.25
563.229	492.25
563.441	468.25
563.653	505.25
563.865	483.25
564.077	475.25
564.289	491.25
564.501	498.25
564.713	501.25
564.925	514.25
565.137	488.25
565.349	520.25
565.561	536.25
565.773	561.25
565.985	581.25
566.197	628.25
566.408	653.25
566.62	701.25
566.832	769.25
567.044	738.25
567.255	756.25
567.467	778.25
567.679	835.25
567.891	897.25
568.102	901.25
568.314	863.25
568.526	752.25
568.737	716.25
568.949	642.25
569.161	584.25
569.372	565.25
569.584	555.25
569.795	512.25
570.007	511.25
570.218	499.25
570.43	500.25
570.641	497.25
570.853	488.25
571.064	518.25
571.276	496.25
571.487	481.25
571.698	468.25
571.91	448.25
572.121	438.25
572.333	450.25
572.544	416.25
572.755	421.25
572.966	423.25
573.178	403.25
573.389	430.25
573.6	424.25
573.811	406.25
574.023	422.25
574.234	404.25
574.445	399.25
574.656	403.25
574.867	402.25
575.078	405.25
575.289	409.25
575.501	385.25
575.712	394.25
575.923	381.25
576.134	376.25
576.345	378.25
576.556	369.25
576.767	359.25
576.978	384.25
577.188	380.25
577.399	376.25
577.61	360.25
577.821	360.25
578.032	389.25
578.243	368.25
578.454	356.25
578.665	359.25
578.875	357.25
579.086	358.25
579.297	350.25
579.508	357.25
579.718	360.25
579.929	331.25
580.14	368.25
580.35	357.25
580.561	363.25
580.772	360.25
580.982	361.25
581.193	354.25
581.403	372.25
581.614	345.25
581.825	342.25
582.035	352.25
582.246	342.25
582.456	355.25
582.667	362.25
582.877	327.25
583.087	346.25
583.298	332.25
583.508	332.25
583.719	341.25
583.929	353.25
584.139	344.25
584.35	312.25
584.56	340.25
584.77	346.25
584.981	340.25
585.191	323.25
585.401	327.25
585.611	316.25
585.821	337.25
586.032	341.25
586.242	347.25
586.452	323.25
586.662	328.25
586.872	314.25
587.082	319.25
587.292	324.25
587.502	327.25
587.713	333.25
587.923	349.25
588.133	337.25
588.343	316.25
588.553	332.25
588.762	354.25
588.972	305.25
589.182	328.25
589.392	344.25
589.602	345.25
589.812	319.25
590.022	298.25
590.232	330.25
590.441	321.25
590.651	313.25
590.861	331.25
591.071	326.25
591.281	331.25
591.49	317.25
591.7	345.25
591.91	334.25
592.119	324.25
592.329	359.25
592.539	354.25
592.748	386.25
592.958	395.25
593.167	405.25
593.377	409.25
593.587	405.25
593.796	398.25
594.006	390.25
594.215	423.25
594.424	414.25
594.634	398.25
594.843	389.25
595.053	384.25
595.262	362.25
595.472	351.25
595.681	346.25
595.89	344.25
596.1	343.25
596.309	328.25
596.518	315.25
596.727	308.25
596.937	318.25
597.146	308.25
597.355	310.25
597.564	310.25
597.774	316.25
597.983	295.25
598.192	298.25
598.401	301.25
598.61	272.25
598.819	288.25
599.028	282.25
599.237	280.25
599.446	288.25
599.655	294.25
599.864	288.25
600.073	292.25
600.282	284.25
600.491	283.25
600.7	281.25
600.909	271.25
601.118	260.25
601.327	286.25
601.536	273.25
601.745	260.25
601.953	262.25
602.162	277.25
602.371	270.25
602.58	265.25
602.789	262.25
602.997	275.25
603.206	259.25
603.415	258.25
603.623	266.25
603.832	281.25
604.041	278.25
604.249	256.25
604.458	263.25
604.666	259.25
604.875	252.25
605.084	260.25
605.292	274.25
605.501	262.25
605.709	253.25
605.918	274.25
606.126	258.25
606.334	258.25
606.543	261.25
606.751	273.25
606.96	260.25
607.168	246.25
607.376	257.25
607.585	238.25
607.793	244.25
608.001	262.25
608.21	241.25
608.418	243.25
608.626	239.25
608.834	247.25
609.043	247.25
609.251	242.25
609.459	244.25
609.667	260.25
609.875	246.25
610.083	254.25
610.291	233.25
610.499	255.25
610.707	232.25
610.916	236.25
611.124	240.25
611.332	246.25
611.54	252.25
611.748	257.25
611.955	252.25
612.163	256.25
612.371	264.25
612.579	246.25
612.787	242.25
612.995	256.25
613.203	239.25
613.411	244.25
613.618	238.25
613.826	238.25
614.034	249.25
614.242	248.25
614.449	229.25
614.657	244.25
614.865	251.25
615.072	244.25
615.28	244.25
615.488	239.25
615.695	229.25
615.903	222.25
616.111	246.25
616.318	242.25
616.526	246.25
616.733	248.25
616.941	246.25
617.148	240.25
617.356	253.25
617.563	250.25
617.771	243.25
617.978	271.25
618.185	243.25
618.393	233.25
618.6	231.25
618.807	237.25
619.015	236.25
619.222	235.25
619.429	234.25
619.637	260.25
619.844	231.25
620.051	234.25
620.258	230.25
620.466	216.25
620.673	213.25
620.88	227.25
621.087	234.25
621.294	240.25
621.501	233.25
621.708	217.25
621.915	228.25
622.122	226.25
622.329	218.25
622.536	216.25
622.743	229.25
622.95	218.25
623.157	208.25
623.364	232.25
623.571	232.25
623.778	223.25
623.985	212.25
624.192	230.25
624.399	205.25
624.606	220.25
624.812	214.25
625.019	204.25
625.226	221.25
625.433	221.25
625.639	214.25
625.846	198.25
626.053	200.25
626.259	202.25
626.466	216.25
626.673	219.25
626.879	202.25
627.086	198.25
627.293	213.25
627.499	198.25
627.706	225.25
627.912	213.25
628.119	207.25
628.325	220.25
628.532	200.25
628.738	196.25
628.945	199.25
629.151	207.25
629.357	191.25
629.564	194.25
629.77	210.25
629.976	182.25
630.183	191.25
630.389	207.25
630.595	195.25
630.802	198.25
631.008	202.25
631.214	205.25
631.42	214.25
631.627	194.25
631.833	210.25
632.039	184.25
632.245	177.25
632.451	192.25
632.657	195.25
632.863	187.25
633.069	203.25
633.275	205.25
633.481	186.25
633.688	182.25
633.893	179.25
634.099	178.25
634.305	181.25
634.511	188.25
634.717	181.25
634.923	190.25
635.129	168.25
635.335	189.25
635.541	180.25
635.747	182.25
635.952	190.25
636.158	165.25
636.364	164.25
636.57	187.25
636.775	166.25
636.981	187.25
637.187	190.25
637.392	179.25
637.598	168.25
637.804	185.25
638.009	172.25
638.215	197.25
638.421	178.25
638.626	192.25
638.832	179.25
639.037	167.25
639.243	188.25
639.448	174.25
639.654	167.25
639.859	177.25
640.065	176.25
640.27	187.25
640.475	184.25
640.681	181.25
640.886	185.25
641.091	166.25
641.297	172.25
641.502	186.25
641.707	191.25
641.913	169.25
642.118	169.25
642.323	186.25
642.528	185.25
642.733	169.25
642.939	171.25
643.144	165.25
643.349	174.25
643.554	176.25
643.759	164.25
643.964	166.25
644.169	172.25
644.374	169.25
644.579	180.25
644.784	178.25
644.989	158.25
645.194	169.25
645.399	169.25
645.604	174.25
645.809	168.25
646.014	172.25
646.219	176.25
646.423	176.25
646.628	171.25
646.833	169.25
647.038	171.25
647.243	176.25
647.447	170.25
647.652	188.25
647.857	176.25
648.062	168.25
648.266	195.25
648.471	199.25
648.676	152.25
648.88	169.25
649.085	178.25
649.289	165.25
649.494	166.25
649.698	165.25
649.903	171.25
650.107	173.25
650.312	187.25
650.516	165.25
650.721	148.25
650.925	148.25
651.13	156.25
651.334	164.25
651.539	155.25
651.743	148.25
651.947	165.25
652.152	164.25
652.356	146.25
652.56	150.25
652.764	148.25
652.969	161.25
653.173	150.25
653.377	173.25
653.581	156.25
653.785	141.25
653.99	149.25
654.194	154.25
654.398	143.25
654.602	144.25
654.806	130.25
655.01	122.25
655.214	121.25
655.418	143.25
655.622	133.25
655.826	154.25
656.03	150.25
656.234	145.25
656.438	139.25
656.642	153.25
656.846	143.25
657.049	148.25
657.253	123.25
657.457	127.25
657.661	128.25
657.865	115.25
658.068	128.25
658.272	122.25
658.476	123.25
658.68	125.25
658.883	100.25
659.087	97.25
659.291	106.25
659.494	113.25
659.698	101.25
659.901	90.25
660.105	85.25
660.309	109.25
660.512	93.25
660.716	91.25
660.919	90.25
661.123	87.25
661.326	91.25
661.53	85.25
661.733	94.25
661.936	99.25
662.14	100.25
662.343	87.25
662.546	91.25
662.75	76.25
662.953	78.25
663.156	74.25
663.36	85.25
663.563	87.25
663.766	86.25
663.969	83.25
664.173	73.25
664.376	86.25
664.579	84.25
664.782	78.25
664.985	76.25
665.188	75.25
665.391	85.25
665.594	68.25
665.797	71.25
666	87.25
666.203	78.25
666.406	83.25
666.609	80.25
666.812	84.25
667.015	84.25
667.218	85.25
667.421	92.25
667.624	88.25
667.827	77.25
668.03	90.25
668.232	76.25
668.435	71.25
668.638	76.25
668.841	84.25
669.043	76.25
669.246	71.25
669.449	70.25
669.651	80.25
669.854	68.25
670.057	85.25
670.259	76.25
670.462	84.25
670.665	72.25
670.867	72.25
671.07	77.25
671.272	76.25
671.475	75.25
671.677	80.25
671.88	80.25
672.082	80.25
672.284	90.25
672.487	87.25
672.689	78.25
672.892	76.25
