Data from Ni(NO3)2@0.25M.TitratingCurve.Agarose3%dH2O.NegLispCup.LampEnergy10.LIBS07252019_HRD10591_18-03-59-565.txt Node
Date: Thu Jul 25 18:03:59 EDT 2019
User: cochatt
Spectrometer: HR+D1059
Trigger mode: 1
Integration Time (sec): 1.000000E-1
Scans to average: 1
Electric dark correction enabled: true
Nonlinearity correction enabled: false
Boxcar width: 0
XAxis mode: Wavelengths
Number of Pixels in Spectrum: 2048
>>>>>Begin Spectral Data<<<<<
223.165	-9.44
223.4	-9.44
223.635	-9.44
223.869	-24.44
224.104	-25.44
224.338	-5.44
224.573	-6.44
224.808	-18.44
225.042	-6.44
225.277	3.56
225.511	5.56
225.746	10.56
225.98	-4.44
226.215	0.56
226.449	12.56
226.683	11.56
226.918	26.56
227.152	29.56
227.387	21.56
227.621	40.56
227.856	32.56
228.09	44.56
228.324	64.56
228.559	47.56
228.793	58.56
229.027	90.56
229.262	96.56
229.496	102.56
229.73	95.56
229.964	103.56
230.199	97.56
230.433	107.56
230.667	101.56
230.901	99.56
231.136	120.56
231.37	113.56
231.604	106.56
231.838	106.56
232.072	117.56
232.306	107.56
232.541	119.56
232.775	126.56
233.009	111.56
233.243	108.56
233.477	111.56
233.711	101.56
233.945	127.56
234.179	126.56
234.413	124.56
234.647	115.56
234.881	129.56
235.115	123.56
235.349	116.56
235.583	112.56
235.817	122.56
236.051	119.56
236.285	127.56
236.519	121.56
236.753	123.56
236.987	124.56
237.221	114.56
237.455	122.56
237.689	118.56
237.922	131.56
238.156	122.56
238.39	116.56
238.624	120.56
238.858	127.56
239.091	119.56
239.325	120.56
239.559	131.56
239.793	149.56
240.027	139.56
240.26	133.56
240.494	126.56
240.728	124.56
240.961	130.56
241.195	143.56
241.429	146.56
241.662	127.56
241.896	132.56
242.13	140.56
242.363	141.56
242.597	133.56
242.83	134.56
243.064	138.56
243.298	139.56
243.531	141.56
243.765	141.56
243.998	165.56
244.232	141.56
244.465	140.56
244.699	144.56
244.932	150.56
245.166	153.56
245.399	147.56
245.633	145.56
245.866	150.56
246.099	166.56
246.333	151.56
246.566	145.56
246.8	152.56
247.033	160.56
247.266	163.56
247.5	154.56
247.733	179.56
247.966	180.56
248.2	186.56
248.433	160.56
248.666	168.56
248.899	175.56
249.133	177.56
249.366	182.56
249.599	199.56
249.832	199.56
250.066	198.56
250.299	196.56
250.532	201.56
250.765	200.56
250.998	200.56
251.231	201.56
251.465	210.56
251.698	196.56
251.931	211.56
252.164	213.56
252.397	223.56
252.63	196.56
252.863	210.56
253.096	210.56
253.329	201.56
253.562	213.56
253.795	233.56
254.028	235.56
254.261	239.56
254.494	220.56
254.727	223.56
254.96	246.56
255.193	236.56
255.426	246.56
255.659	256.56
255.892	254.56
256.124	235.56
256.357	252.56
256.59	259.56
256.823	251.56
257.056	268.56
257.289	262.56
257.521	265.56
257.754	270.56
257.987	273.56
258.22	250.56
258.452	252.56
258.685	249.56
258.918	270.56
259.151	283.56
259.383	285.56
259.616	288.56
259.849	281.56
260.081	308.56
260.314	305.56
260.547	292.56
260.779	282.56
261.012	308.56
261.244	276.56
261.477	300.56
261.71	296.56
261.942	294.56
262.175	307.56
262.407	295.56
262.64	308.56
262.872	288.56
263.105	293.56
263.337	303.56
263.57	292.56
263.802	327.56
264.035	314.56
264.267	312.56
264.499	319.56
264.732	315.56
264.964	300.56
265.197	340.56
265.429	321.56
265.661	322.56
265.894	313.56
266.126	316.56
266.358	332.56
266.591	327.56
266.823	329.56
267.055	344.56
267.287	335.56
267.52	331.56
267.752	347.56
267.984	321.56
268.216	314.56
268.448	331.56
268.681	332.56
268.913	331.56
269.145	343.56
269.377	327.56
269.609	322.56
269.841	336.56
270.073	327.56
270.306	317.56
270.538	353.56
270.77	325.56
271.002	328.56
271.234	324.56
271.466	344.56
271.698	345.56
271.93	319.56
272.162	351.56
272.394	364.56
272.626	340.56
272.858	328.56
273.09	357.56
273.322	335.56
273.553	359.56
273.785	346.56
274.017	353.56
274.249	347.56
274.481	358.56
274.713	371.56
274.945	379.56
275.176	363.56
275.408	367.56
275.64	344.56
275.872	363.56
276.104	379.56
276.335	356.56
276.567	372.56
276.799	360.56
277.031	358.56
277.262	371.56
277.494	362.56
277.726	353.56
277.957	377.56
278.189	355.56
278.421	336.56
278.652	383.56
278.884	373.56
279.115	358.56
279.347	372.56
279.579	370.56
279.81	372.56
280.042	373.56
280.273	361.56
280.505	375.56
280.736	379.56
280.968	380.56
281.199	393.56
281.431	392.56
281.662	387.56
281.894	377.56
282.125	376.56
282.356	376.56
282.588	388.56
282.819	371.56
283.051	375.56
283.282	374.56
283.513	376.56
283.745	377.56
283.976	388.56
284.207	384.56
284.439	361.56
284.67	379.56
284.901	387.56
285.132	379.56
285.364	379.56
285.595	377.56
285.826	368.56
286.057	379.56
286.288	392.56
286.52	377.56
286.751	394.56
286.982	415.56
287.213	397.56
287.444	402.56
287.675	379.56
287.906	402.56
288.138	386.56
288.369	389.56
288.6	391.56
288.831	410.56
289.062	393.56
289.293	404.56
289.524	395.56
289.755	397.56
289.986	391.56
290.217	392.56
290.448	384.56
290.679	390.56
290.91	392.56
291.141	400.56
291.371	406.56
291.602	393.56
291.833	391.56
292.064	396.56
292.295	397.56
292.526	387.56
292.757	403.56
292.987	397.56
293.218	378.56
293.449	396.56
293.68	405.56
293.91	402.56
294.141	379.56
294.372	412.56
294.603	402.56
294.833	399.56
295.064	384.56
295.295	381.56
295.525	411.56
295.756	399.56
295.987	405.56
296.217	405.56
296.448	403.56
296.679	413.56
296.909	406.56
297.14	428.56
297.37	420.56
297.601	400.56
297.831	426.56
298.062	418.56
298.292	431.56
298.523	448.56
298.753	428.56
298.984	417.56
299.214	429.56
299.445	446.56
299.675	419.56
299.905	434.56
300.136	419.56
300.366	427.56
300.597	443.56
300.827	427.56
301.057	433.56
301.288	444.56
301.518	457.56
301.748	431.56
301.979	456.56
302.209	435.56
302.439	443.56
302.669	428.56
302.9	461.56
303.13	454.56
303.36	451.56
303.59	439.56
303.82	449.56
304.051	448.56
304.281	466.56
304.511	437.56
304.741	441.56
304.971	445.56
305.201	455.56
305.431	465.56
305.661	457.56
305.891	468.56
306.121	456.56
306.352	449.56
306.582	447.56
306.812	441.56
307.042	459.56
307.272	445.56
307.502	433.56
307.731	427.56
307.961	441.56
308.191	454.56
308.421	438.56
308.651	444.56
308.881	443.56
309.111	454.56
309.341	456.56
309.571	482.56
309.8	461.56
310.03	475.56
310.26	480.56
310.49	483.56
310.72	497.56
310.949	453.56
311.179	467.56
311.409	497.56
311.639	477.56
311.868	476.56
312.098	504.56
312.328	497.56
312.557	487.56
312.787	512.56
313.017	487.56
313.246	505.56
313.476	475.56
313.706	518.56
313.935	517.56
314.165	517.56
314.394	522.56
314.624	511.56
314.853	538.56
315.083	532.56
315.312	538.56
315.542	539.56
315.771	550.56
316.001	527.56
316.23	535.56
316.46	510.56
316.689	555.56
316.919	548.56
317.148	548.56
317.377	547.56
317.607	536.56
317.836	542.56
318.065	549.56
318.295	552.56
318.524	581.56
318.753	571.56
318.983	569.56
319.212	575.56
319.441	584.56
319.67	583.56
319.9	558.56
320.129	581.56
320.358	601.56
320.587	590.56
320.816	595.56
321.046	585.56
321.275	588.56
321.504	623.56
321.733	615.56
321.962	622.56
322.191	603.56
322.42	625.56
322.649	607.56
322.878	636.56
323.108	611.56
323.337	636.56
323.566	641.56
323.795	649.56
324.024	671.56
324.253	649.56
324.482	665.56
324.71	657.56
324.939	691.56
325.168	651.56
325.397	689.56
325.626	671.56
325.855	692.56
326.084	708.56
326.313	752.56
326.542	723.56
326.77	717.56
326.999	699.56
327.228	692.56
327.457	731.56
327.686	745.56
327.914	724.56
328.143	709.56
328.372	724.56
328.6	728.56
328.829	732.56
329.058	741.56
329.287	768.56
329.515	747.56
329.744	744.56
329.972	767.56
330.201	751.56
330.43	765.56
330.658	791.56
330.887	803.56
331.115	783.56
331.344	761.56
331.572	781.56
331.801	831.56
332.03	812.56
332.258	840.56
332.486	876.56
332.715	874.56
332.943	872.56
333.172	864.56
333.4	896.56
333.629	906.56
333.857	947.56
334.085	928.56
334.314	952.56
334.542	932.56
334.771	929.56
334.999	948.56
335.227	969.56
335.455	934.56
335.684	936.56
335.912	929.56
336.14	904.56
336.369	916.56
336.597	938.56
336.825	944.56
337.053	933.56
337.281	923.56
337.51	916.56
337.738	913.56
337.966	899.56
338.194	876.56
338.422	877.56
338.65	870.56
338.878	889.56
339.106	872.56
339.334	887.56
339.562	880.56
339.79	871.56
340.018	853.56
340.246	848.56
340.474	848.56
340.702	834.56
340.93	859.56
341.158	861.56
341.386	868.56
341.614	895.56
341.842	868.56
342.07	849.56
342.298	845.56
342.526	855.56
342.754	842.56
342.981	853.56
343.209	876.56
343.437	900.56
343.665	917.56
343.893	960.56
344.12	963.56
344.348	936.56
344.576	933.56
344.804	932.56
345.031	885.56
345.259	860.56
345.487	891.56
345.714	909.56
345.942	863.56
346.17	909.56
346.397	881.56
346.625	845.56
346.853	838.56
347.08	833.56
347.308	852.56
347.535	831.56
347.763	863.56
347.99	856.56
348.218	821.56
348.445	849.56
348.673	839.56
348.9	843.56
349.128	809.56
349.355	835.56
349.583	851.56
349.81	843.56
350.037	805.56
350.265	810.56
350.492	839.56
350.72	827.56
350.947	799.56
351.174	791.56
351.402	820.56
351.629	832.56
351.856	809.56
352.083	809.56
352.311	820.56
352.538	833.56
352.765	827.56
352.992	826.56
353.22	792.56
353.447	785.56
353.674	810.56
353.901	808.56
354.128	807.56
354.355	787.56
354.583	806.56
354.81	795.56
355.037	817.56
355.264	811.56
355.491	798.56
355.718	782.56
355.945	814.56
356.172	808.56
356.399	794.56
356.626	808.56
356.853	836.56
357.08	802.56
357.307	821.56
357.534	816.56
357.761	796.56
357.988	802.56
358.215	776.56
358.441	772.56
358.668	805.56
358.895	789.56
359.122	778.56
359.349	801.56
359.576	817.56
359.802	786.56
360.029	811.56
360.256	808.56
360.483	808.56
360.709	811.56
360.936	815.56
361.163	807.56
361.39	816.56
361.616	780.56
361.843	815.56
362.07	827.56
362.296	818.56
362.523	785.56
362.749	808.56
362.976	806.56
363.203	780.56
363.429	797.56
363.656	790.56
363.882	784.56
364.109	786.56
364.335	758.56
364.562	780.56
364.788	806.56
365.015	787.56
365.241	756.56
365.468	772.56
365.694	800.56
365.92	793.56
366.147	760.56
366.373	792.56
366.599	763.56
366.826	770.56
367.052	793.56
367.278	779.56
367.505	793.56
367.731	817.56
367.957	771.56
368.184	804.56
368.41	811.56
368.636	825.56
368.862	784.56
369.089	785.56
369.315	791.56
369.541	791.56
369.767	806.56
369.993	792.56
370.219	773.56
370.445	792.56
370.672	838.56
370.898	807.56
371.124	812.56
371.35	841.56
371.576	811.56
371.802	785.56
372.028	827.56
372.254	817.56
372.48	835.56
372.706	826.56
372.932	829.56
373.158	815.56
373.384	834.56
373.61	812.56
373.835	819.56
374.061	799.56
374.287	802.56
374.513	827.56
374.739	813.56
374.965	848.56
375.191	819.56
375.416	865.56
375.642	818.56
375.868	851.56
376.094	798.56
376.319	793.56
376.545	803.56
376.771	801.56
376.997	788.56
377.222	772.56
377.448	765.56
377.674	783.56
377.899	781.56
378.125	763.56
378.35	755.56
378.576	782.56
378.802	744.56
379.027	775.56
379.253	773.56
379.478	758.56
379.704	755.56
379.929	769.56
380.155	757.56
380.38	776.56
380.606	783.56
380.831	783.56
381.057	766.56
381.282	776.56
381.507	746.56
381.733	766.56
381.958	746.56
382.184	782.56
382.409	778.56
382.634	780.56
382.86	792.56
383.085	804.56
383.31	816.56
383.535	801.56
383.761	793.56
383.986	821.56
384.211	812.56
384.436	812.56
384.662	857.56
384.887	865.56
385.112	860.56
385.337	844.56
385.562	856.56
385.787	843.56
386.013	859.56
386.238	883.56
386.463	869.56
386.688	877.56
386.913	903.56
387.138	851.56
387.363	853.56
387.588	853.56
387.813	873.56
388.038	866.56
388.263	881.56
388.488	860.56
388.713	856.56
388.938	865.56
389.163	879.56
389.387	871.56
389.612	852.56
389.837	843.56
390.062	867.56
390.287	869.56
390.512	847.56
390.736	888.56
390.961	893.56
391.186	874.56
391.411	923.56
391.636	895.56
391.86	933.56
392.085	906.56
392.31	917.56
392.534	935.56
392.759	931.56
392.984	882.56
393.208	915.56
393.433	915.56
393.658	925.56
393.882	938.56
394.107	924.56
394.331	934.56
394.556	917.56
394.78	939.56
395.005	937.56
395.229	909.56
395.454	927.56
395.678	971.56
395.903	972.56
396.127	954.56
396.352	920.56
396.576	913.56
396.801	950.56
397.025	941.56
397.249	945.56
397.474	960.56
397.698	977.56
397.922	985.56
398.147	994.56
398.371	1009.56
398.595	1029.56
398.82	1052.56
399.044	1114.56
399.268	1154.56
399.492	1265.56
399.717	1333.56
399.941	1328.56
400.165	1293.56
400.389	1203.56
400.613	1177.56
400.837	1103.56
401.062	1124.56
401.286	1099.56
401.51	1065.56
401.734	1069.56
401.958	1079.56
402.182	1063.56
402.406	1091.56
402.63	1099.56
402.854	1074.56
403.078	1109.56
403.302	1099.56
403.526	1120.56
403.75	1145.56
403.974	1145.56
404.198	1137.56
404.422	1146.56
404.645	1144.56
404.869	1147.56
405.093	1147.56
405.317	1141.56
405.541	1156.56
405.765	1129.56
405.988	1137.56
406.212	1176.56
406.436	1165.56
406.66	1175.56
406.883	1169.56
407.107	1210.56
407.331	1221.56
407.555	1275.56
407.778	1295.56
408.002	1276.56
408.226	1289.56
408.449	1246.56
408.673	1225.56
408.896	1215.56
409.12	1200.56
409.344	1209.56
409.567	1186.56
409.791	1165.56
410.014	1200.56
410.238	1201.56
410.461	1178.56
410.685	1181.56
410.908	1140.56
411.132	1151.56
411.355	1123.56
411.578	1191.56
411.802	1150.56
412.025	1125.56
412.249	1154.56
412.472	1175.56
412.695	1119.56
412.919	1129.56
413.142	1125.56
413.365	1103.56
413.589	1144.56
413.812	1127.56
414.035	1112.56
414.258	1123.56
414.482	1126.56
414.705	1143.56
414.928	1131.56
415.151	1142.56
415.374	1151.56
415.597	1089.56
415.821	1085.56
416.044	1098.56
416.267	1089.56
416.49	1110.56
416.713	1101.56
416.936	1107.56
417.159	1120.56
417.382	1115.56
417.605	1091.56
417.828	1127.56
418.051	1089.56
418.274	1148.56
418.497	1121.56
418.72	1143.56
418.943	1118.56
419.166	1216.56
419.389	1265.56
419.611	1227.56
419.834	1207.56
420.057	1161.56
420.28	1145.56
420.503	1104.56
420.726	1110.56
420.948	1100.56
421.171	1153.56
421.394	1141.56
421.617	1112.56
421.839	1116.56
422.062	1120.56
422.285	1149.56
422.507	1132.56
422.73	1161.56
422.953	1126.56
423.175	1141.56
423.398	1133.56
423.621	1131.56
423.843	1163.56
424.066	1145.56
424.288	1162.56
424.511	1143.56
424.733	1156.56
424.956	1159.56
425.178	1141.56
425.401	1127.56
425.623	1154.56
425.846	1137.56
426.068	1163.56
426.291	1147.56
426.513	1142.56
426.735	1139.56
426.958	1147.56
427.18	1093.56
427.402	1103.56
427.625	1129.56
427.847	1064.56
428.069	1097.56
428.292	1101.56
428.514	1102.56
428.736	1109.56
428.958	1106.56
429.181	1059.56
429.403	1083.56
429.625	1092.56
429.847	1079.56
430.069	1101.56
430.292	1090.56
430.514	1094.56
430.736	1079.56
430.958	1126.56
431.18	1088.56
431.402	1098.56
431.624	1082.56
431.846	1136.56
432.068	1104.56
432.29	1130.56
432.512	1098.56
432.734	1107.56
432.956	1108.56
433.178	1136.56
433.4	1113.56
433.622	1155.56
433.844	1139.56
434.066	1112.56
434.287	1144.56
434.509	1174.56
434.731	1165.56
434.953	1195.56
435.175	1189.56
435.397	1204.56
435.618	1149.56
435.84	1142.56
436.062	1125.56
436.284	1127.56
436.505	1086.56
436.727	1148.56
436.949	1127.56
437.17	1116.56
437.392	1113.56
437.614	1107.56
437.835	1107.56
438.057	1061.56
438.278	1111.56
438.5	1079.56
438.721	1083.56
438.943	1094.56
439.165	1112.56
439.386	1114.56
439.608	1142.56
439.829	1125.56
440.05	1126.56
440.272	1098.56
440.493	1131.56
440.715	1121.56
440.936	1139.56
441.158	1148.56
441.379	1149.56
441.6	1212.56
441.822	1199.56
442.043	1207.56
442.264	1205.56
442.486	1165.56
442.707	1177.56
442.928	1189.56
443.149	1179.56
443.371	1189.56
443.592	1186.56
443.813	1209.56
444.034	1201.56
444.255	1218.56
444.476	1250.56
444.698	1289.56
444.919	1268.56
445.14	1346.56
445.361	1285.56
445.582	1239.56
445.803	1228.56
446.024	1179.56
446.245	1139.56
446.466	1152.56
446.687	1133.56
446.908	1153.56
447.129	1111.56
447.35	1113.56
447.571	1094.56
447.792	1087.56
448.013	1074.56
448.234	1069.56
448.455	1056.56
448.675	1060.56
448.896	1075.56
449.117	1014.56
449.338	1072.56
449.559	1052.56
449.779	1031.56
450	1047.56
450.221	1065.56
450.442	1044.56
450.662	1055.56
450.883	1053.56
451.104	1053.56
451.324	1069.56
451.545	1050.56
451.766	1057.56
451.986	1055.56
452.207	1036.56
452.428	1041.56
452.648	1027.56
452.869	1023.56
453.089	997.56
453.31	1002.56
453.53	988.56
453.751	1000.56
453.971	1005.56
454.192	1015.56
454.412	993.56
454.633	1002.56
454.853	987.56
455.073	1015.56
455.294	1016.56
455.514	1011.56
455.734	1001.56
455.955	995.56
456.175	996.56
456.395	954.56
456.616	1003.56
456.836	971.56
457.056	1003.56
457.276	943.56
457.497	989.56
457.717	978.56
457.937	999.56
458.157	987.56
458.377	1028.56
458.598	1025.56
458.818	1066.56
459.038	1032.56
459.258	1096.56
459.478	1108.56
459.698	1105.56
459.918	1160.56
460.138	1164.56
460.358	1242.56
460.578	1215.56
460.798	1244.56
461.018	1234.56
461.238	1239.56
461.458	1254.56
461.678	1212.56
461.898	1254.56
462.118	1249.56
462.338	1339.56
462.558	1331.56
462.777	1369.56
462.997	1404.56
463.217	1487.56
463.437	1487.56
463.657	1431.56
463.876	1388.56
464.096	1409.56
464.316	1383.56
464.536	1367.56
464.755	1353.56
464.975	1315.56
465.195	1267.56
465.414	1225.56
465.634	1142.56
465.854	1153.56
466.073	1164.56
466.293	1125.56
466.512	1108.56
466.732	1111.56
466.951	1135.56
467.171	1097.56
467.391	1101.56
467.61	1052.56
467.829	1073.56
468.049	1073.56
468.268	1054.56
468.488	1071.56
468.707	1063.56
468.927	1083.56
469.146	1072.56
469.365	1075.56
469.585	1083.56
469.804	1094.56
470.023	1117.56
470.243	1102.56
470.462	1106.56
470.681	1132.56
470.901	1141.56
471.12	1121.56
471.339	1119.56
471.558	1076.56
471.777	1095.56
471.997	1094.56
472.216	1085.56
472.435	1114.56
472.654	1050.56
472.873	1056.56
473.092	1057.56
473.311	1093.56
473.53	1050.56
473.749	1052.56
473.968	1061.56
474.187	1083.56
474.406	1089.56
474.625	1089.56
474.844	1104.56
475.063	1112.56
475.282	1084.56
475.501	1100.56
475.72	1136.56
475.939	1115.56
476.158	1128.56
476.377	1126.56
476.596	1108.56
476.814	1147.56
477.033	1140.56
477.252	1142.56
477.471	1175.56
477.69	1211.56
477.908	1193.56
478.127	1215.56
478.346	1227.56
478.564	1218.56
478.783	1221.56
479.002	1264.56
479.22	1311.56
479.439	1276.56
479.658	1282.56
479.876	1299.56
480.095	1301.56
480.313	1317.56
480.532	1279.56
480.751	1313.56
480.969	1313.56
481.188	1269.56
481.406	1256.56
481.624	1271.56
481.843	1241.56
482.061	1224.56
482.28	1229.56
482.498	1224.56
482.717	1235.56
482.935	1244.56
483.153	1209.56
483.372	1299.56
483.59	1264.56
483.808	1274.56
484.027	1269.56
484.245	1233.56
484.463	1274.56
484.681	1280.56
484.9	1275.56
485.118	1258.56
485.336	1268.56
485.554	1261.56
485.772	1281.56
485.99	1276.56
486.209	1290.56
486.427	1288.56
486.645	1291.56
486.863	1299.56
487.081	1316.56
487.299	1313.56
487.517	1297.56
487.735	1317.56
487.953	1314.56
488.171	1332.56
488.389	1298.56
488.607	1273.56
488.825	1302.56
489.043	1267.56
489.261	1287.56
489.479	1265.56
489.696	1300.56
489.914	1328.56
490.132	1302.56
490.35	1299.56
490.568	1321.56
490.786	1332.56
491.003	1345.56
491.221	1332.56
491.439	1339.56
491.657	1344.56
491.874	1355.56
492.092	1364.56
492.31	1381.56
492.527	1366.56
492.745	1352.56
492.963	1375.56
493.18	1391.56
493.398	1375.56
493.615	1352.56
493.833	1370.56
494.05	1391.56
494.268	1431.56
494.485	1439.56
494.703	1407.56
494.92	1400.56
495.138	1395.56
495.355	1410.56
495.573	1434.56
495.79	1412.56
496.008	1391.56
496.225	1445.56
496.442	1463.56
496.66	1475.56
496.877	1482.56
497.094	1508.56
497.312	1542.56
497.529	1511.56
497.746	1587.56
497.963	1615.56
498.181	1652.56
498.398	1678.56
498.615	1764.56
498.832	1840.56
499.049	1899.56
499.267	1962.56
499.484	2116.56
499.701	2258.56
499.918	2384.56
500.135	2583.56
500.352	2716.56
500.569	2803.56
500.786	2764.56
501.003	2649.56
501.22	2517.56
501.437	2360.56
501.654	2181.56
501.871	2085.56
502.088	1952.56
502.305	1898.56
502.522	1852.56
502.739	1756.56
502.956	1668.56
503.172	1673.56
503.389	1632.56
503.606	1591.56
503.823	1570.56
504.04	1585.56
504.256	1525.56
504.473	1522.56
504.69	1541.56
504.907	1517.56
505.123	1468.56
505.34	1449.56
505.557	1401.56
505.773	1382.56
505.99	1394.56
506.207	1354.56
506.423	1334.56
506.64	1301.56
506.856	1289.56
507.073	1301.56
507.289	1267.56
507.506	1288.56
507.722	1219.56
507.939	1237.56
508.155	1243.56
508.372	1219.56
508.588	1210.56
508.805	1227.56
509.021	1187.56
509.238	1200.56
509.454	1167.56
509.67	1177.56
509.887	1187.56
510.103	1165.56
510.319	1157.56
510.536	1181.56
510.752	1137.56
510.968	1131.56
511.184	1145.56
511.401	1158.56
511.617	1128.56
511.833	1151.56
512.049	1145.56
512.265	1194.56
512.481	1157.56
512.698	1130.56
512.914	1121.56
513.13	1163.56
513.346	1130.56
513.562	1130.56
513.778	1140.56
513.994	1173.56
514.21	1150.56
514.426	1155.56
514.642	1186.56
514.858	1160.56
515.074	1166.56
515.29	1184.56
515.506	1171.56
515.721	1177.56
515.937	1185.56
516.153	1221.56
516.369	1216.56
516.585	1218.56
516.801	1260.56
517.016	1273.56
517.232	1308.56
517.448	1344.56
517.664	1360.56
517.879	1333.56
518.095	1354.56
518.311	1327.56
518.527	1301.56
518.742	1300.56
518.958	1269.56
519.173	1272.56
519.389	1211.56
519.605	1180.56
519.82	1206.56
520.036	1159.56
520.251	1152.56
520.467	1161.56
520.682	1142.56
520.898	1156.56
521.113	1102.56
521.329	1097.56
521.544	1083.56
521.76	1081.56
521.975	1104.56
522.19	1080.56
522.406	1107.56
522.621	1073.56
522.836	1075.56
523.052	1088.56
523.267	1074.56
523.482	1036.56
523.698	1060.56
523.913	1057.56
524.128	1045.56
524.343	1067.56
524.559	1052.56
524.774	1052.56
524.989	1049.56
525.204	1052.56
525.419	1040.56
525.634	1048.56
525.849	1060.56
526.064	1052.56
526.28	1053.56
526.495	1024.56
526.71	1025.56
526.925	988.56
527.14	1014.56
527.355	1043.56
527.57	1039.56
527.785	1024.56
527.999	1020.56
528.214	1005.56
528.429	1026.56
528.644	1045.56
528.859	1052.56
529.074	1018.56
529.289	1042.56
529.503	1043.56
529.718	1055.56
529.933	1034.56
530.148	1001.56
530.363	984.56
530.577	1004.56
530.792	1007.56
531.007	1003.56
531.221	983.56
531.436	1009.56
531.651	1015.56
531.865	972.56
532.08	984.56
532.295	999.56
532.509	975.56
532.724	967.56
532.938	1009.56
533.153	1007.56
533.367	991.56
533.582	1000.56
533.796	983.56
534.011	967.56
534.225	967.56
534.44	956.56
534.654	980.56
534.868	979.56
535.083	969.56
535.297	969.56
535.511	970.56
535.726	963.56
535.94	968.56
536.154	957.56
536.369	959.56
536.583	943.56
536.797	934.56
537.011	963.56
537.225	938.56
537.44	945.56
537.654	935.56
537.868	943.56
538.082	962.56
538.296	939.56
538.51	930.56
538.724	913.56
538.938	922.56
539.153	935.56
539.367	931.56
539.581	919.56
539.795	904.56
540.009	917.56
540.222	891.56
540.436	917.56
540.65	918.56
540.864	913.56
541.078	904.56
541.292	931.56
541.506	909.56
541.72	933.56
541.934	950.56
542.147	951.56
542.361	923.56
542.575	912.56
542.789	911.56
543.002	880.56
543.216	912.56
543.43	898.56
543.644	881.56
543.857	907.56
544.071	918.56
544.285	937.56
544.498	900.56
544.712	891.56
544.925	921.56
545.139	931.56
545.352	907.56
545.566	919.56
545.779	916.56
545.993	927.56
546.206	911.56
546.42	902.56
546.633	935.56
546.847	941.56
547.06	913.56
547.274	944.56
547.487	937.56
547.7	940.56
547.914	939.56
548.127	923.56
548.34	926.56
548.554	915.56
548.767	928.56
548.98	917.56
549.193	922.56
549.407	914.56
549.62	938.56
549.833	914.56
550.046	906.56
550.259	897.56
550.473	904.56
550.686	927.56
550.899	962.56
551.112	893.56
551.325	901.56
551.538	891.56
551.751	888.56
551.964	924.56
552.177	901.56
552.39	921.56
552.603	916.56
552.816	951.56
553.029	949.56
553.242	935.56
553.455	949.56
553.667	938.56
553.88	935.56
554.093	924.56
554.306	905.56
554.519	922.56
554.732	880.56
554.944	885.56
555.157	864.56
555.37	864.56
555.583	843.56
555.795	851.56
556.008	829.56
556.221	820.56
556.433	801.56
556.646	824.56
556.859	825.56
557.071	782.56
557.284	783.56
557.496	805.56
557.709	796.56
557.921	805.56
558.134	785.56
558.346	755.56
558.559	803.56
558.771	772.56
558.984	804.56
559.196	772.56
559.409	811.56
559.621	780.56
559.833	771.56
560.046	796.56
560.258	753.56
560.47	746.56
560.683	762.56
560.895	768.56
561.107	747.56
561.32	751.56
561.532	759.56
561.744	780.56
561.956	777.56
562.168	769.56
562.381	767.56
562.593	763.56
562.805	785.56
563.017	780.56
563.229	765.56
563.441	775.56
563.653	778.56
563.865	785.56
564.077	787.56
564.289	781.56
564.501	784.56
564.713	785.56
564.925	803.56
565.137	823.56
565.349	824.56
565.561	817.56
565.773	856.56
565.985	880.56
566.197	879.56
566.408	923.56
566.62	959.56
566.832	995.56
567.044	997.56
567.255	996.56
567.467	1024.56
567.679	1047.56
567.891	1053.56
568.102	1047.56
568.314	1021.56
568.526	976.56
568.737	922.56
568.949	897.56
569.161	844.56
569.372	822.56
569.584	811.56
569.795	761.56
570.007	764.56
570.218	736.56
570.43	723.56
570.641	748.56
570.853	729.56
571.064	758.56
571.276	743.56
571.487	732.56
571.698	685.56
571.91	678.56
572.121	681.56
572.333	655.56
572.544	657.56
572.755	667.56
572.966	653.56
573.178	646.56
573.389	649.56
573.6	638.56
573.811	603.56
574.023	612.56
574.234	623.56
574.445	617.56
574.656	628.56
574.867	628.56
575.078	605.56
575.289	619.56
575.501	577.56
575.712	586.56
575.923	587.56
576.134	582.56
576.345	588.56
576.556	580.56
576.767	580.56
576.978	584.56
577.188	579.56
577.399	560.56
577.61	556.56
577.821	568.56
578.032	568.56
578.243	547.56
578.454	554.56
578.665	553.56
578.875	555.56
579.086	566.56
579.297	547.56
579.508	561.56
579.718	569.56
579.929	539.56
580.14	544.56
580.35	532.56
580.561	536.56
580.772	547.56
580.982	550.56
581.193	553.56
581.403	528.56
581.614	525.56
581.825	512.56
582.035	503.56
582.246	537.56
582.456	518.56
582.667	529.56
582.877	513.56
583.087	512.56
583.298	523.56
583.508	531.56
583.719	523.56
583.929	519.56
584.139	530.56
584.35	534.56
584.56	512.56
584.77	473.56
584.981	491.56
585.191	502.56
585.401	488.56
585.611	499.56
585.821	511.56
586.032	499.56
586.242	504.56
586.452	507.56
586.662	481.56
586.872	505.56
587.082	507.56
587.292	489.56
587.502	483.56
587.713	476.56
587.923	507.56
588.133	493.56
588.343	489.56
588.553	471.56
588.762	481.56
588.972	499.56
589.182	492.56
589.392	495.56
589.602	484.56
589.812	498.56
590.022	492.56
590.232	471.56
590.441	480.56
590.651	485.56
590.861	477.56
591.071	491.56
591.281	484.56
591.49	501.56
591.7	503.56
591.91	493.56
592.119	521.56
592.329	473.56
592.539	507.56
592.748	523.56
592.958	517.56
593.167	524.56
593.377	512.56
593.587	522.56
593.796	534.56
594.006	537.56
594.215	514.56
594.424	532.56
594.634	541.56
594.843	496.56
595.053	499.56
595.262	501.56
595.472	488.56
595.681	490.56
595.89	498.56
596.1	465.56
596.309	445.56
596.518	469.56
596.727	452.56
596.937	457.56
597.146	444.56
597.355	453.56
597.564	443.56
597.774	427.56
597.983	409.56
598.192	423.56
598.401	428.56
598.61	411.56
598.819	419.56
599.028	421.56
599.237	423.56
599.446	413.56
599.655	396.56
599.864	402.56
600.073	401.56
600.282	415.56
600.491	397.56
600.7	396.56
600.909	405.56
601.118	407.56
601.327	413.56
601.536	393.56
601.745	388.56
601.953	416.56
602.162	392.56
602.371	391.56
602.58	407.56
602.789	393.56
602.997	394.56
603.206	389.56
603.415	383.56
603.623	389.56
603.832	379.56
604.041	389.56
604.249	378.56
604.458	363.56
604.666	374.56
604.875	364.56
605.084	373.56
605.292	379.56
605.501	387.56
605.709	377.56
605.918	373.56
606.126	380.56
606.334	375.56
606.543	375.56
606.751	368.56
606.96	361.56
607.168	373.56
607.376	365.56
607.585	366.56
607.793	375.56
608.001	384.56
608.21	372.56
608.418	368.56
608.626	359.56
608.834	364.56
609.043	349.56
609.251	371.56
609.459	360.56
609.667	362.56
609.875	351.56
610.083	365.56
610.291	370.56
610.499	363.56
610.707	341.56
610.916	359.56
611.124	339.56
611.332	351.56
611.54	351.56
611.748	342.56
611.955	349.56
612.163	354.56
612.371	350.56
612.579	339.56
612.787	366.56
612.995	348.56
613.203	354.56
613.411	343.56
613.618	335.56
613.826	353.56
614.034	331.56
614.242	339.56
614.449	346.56
614.657	343.56
614.865	342.56
615.072	357.56
615.28	340.56
615.488	334.56
615.695	354.56
615.903	344.56
616.111	338.56
616.318	336.56
616.526	341.56
616.733	333.56
616.941	333.56
617.148	326.56
617.356	319.56
617.563	348.56
617.771	327.56
617.978	340.56
618.185	330.56
618.393	324.56
618.6	327.56
618.807	332.56
619.015	319.56
619.222	323.56
619.429	316.56
619.637	323.56
619.844	314.56
620.051	309.56
620.258	303.56
620.466	322.56
620.673	319.56
620.88	321.56
621.087	311.56
621.294	315.56
621.501	308.56
621.708	312.56
621.915	296.56
622.122	307.56
622.329	314.56
622.536	320.56
622.743	321.56
622.95	300.56
623.157	298.56
623.364	301.56
623.571	315.56
623.778	313.56
623.985	295.56
624.192	306.56
624.399	304.56
624.606	292.56
624.812	311.56
625.019	308.56
625.226	299.56
625.433	280.56
625.639	279.56
625.846	292.56
626.053	282.56
626.259	309.56
626.466	293.56
626.673	277.56
626.879	267.56
627.086	296.56
627.293	294.56
627.499	279.56
627.706	276.56
627.912	289.56
628.119	279.56
628.325	297.56
628.532	274.56
628.738	301.56
628.945	282.56
629.151	265.56
629.357	280.56
629.564	279.56
629.77	278.56
629.976	270.56
630.183	263.56
630.389	274.56
630.595	281.56
630.802	295.56
631.008	259.56
631.214	259.56
631.42	267.56
631.627	272.56
631.833	263.56
632.039	262.56
632.245	275.56
632.451	257.56
632.657	256.56
632.863	256.56
633.069	255.56
633.275	272.56
633.481	271.56
633.688	267.56
633.893	236.56
634.099	243.56
634.305	261.56
634.511	255.56
634.717	243.56
634.923	247.56
635.129	250.56
635.335	245.56
635.541	272.56
635.747	266.56
635.952	255.56
636.158	268.56
636.364	233.56
636.57	250.56
636.775	239.56
636.981	249.56
637.187	241.56
637.392	265.56
637.598	232.56
637.804	241.56
638.009	239.56
638.215	235.56
638.421	229.56
638.626	236.56
638.832	223.56
639.037	229.56
639.243	229.56
639.448	231.56
639.654	235.56
639.859	227.56
640.065	232.56
640.27	221.56
640.475	228.56
640.681	227.56
640.886	240.56
641.091	241.56
641.297	243.56
641.502	228.56
641.707	243.56
641.913	227.56
642.118	221.56
642.323	226.56
642.528	229.56
642.733	229.56
642.939	214.56
643.144	230.56
643.349	224.56
643.554	232.56
643.759	238.56
643.964	209.56
644.169	223.56
644.374	200.56
644.579	234.56
644.784	201.56
644.989	222.56
645.194	247.56
645.399	203.56
645.604	211.56
645.809	199.56
646.014	226.56
646.219	220.56
646.423	225.56
646.628	215.56
646.833	220.56
647.038	203.56
647.243	219.56
647.447	214.56
647.652	209.56
647.857	210.56
648.062	216.56
648.266	228.56
648.471	225.56
648.676	220.56
648.88	230.56
649.085	223.56
649.289	212.56
649.494	222.56
649.698	225.56
649.903	216.56
650.107	220.56
650.312	204.56
650.516	205.56
650.721	204.56
650.925	187.56
651.13	195.56
651.334	194.56
651.539	199.56
651.743	191.56
651.947	194.56
652.152	179.56
652.356	204.56
652.56	183.56
652.764	178.56
652.969	184.56
653.173	181.56
653.377	188.56
653.581	172.56
653.785	175.56
653.99	168.56
654.194	166.56
654.398	148.56
654.602	180.56
654.806	168.56
655.01	166.56
655.214	167.56
655.418	170.56
655.622	148.56
655.826	161.56
656.03	147.56
656.234	155.56
656.438	147.56
656.642	167.56
656.846	131.56
657.049	135.56
657.253	156.56
657.457	147.56
657.661	134.56
657.865	149.56
658.068	133.56
658.272	120.56
658.476	125.56
658.68	103.56
658.883	129.56
659.087	121.56
659.291	106.56
659.494	108.56
659.698	113.56
659.901	109.56
660.105	111.56
660.309	93.56
660.512	84.56
660.716	92.56
660.919	105.56
661.123	96.56
661.326	92.56
661.53	86.56
661.733	90.56
661.936	89.56
662.14	95.56
662.343	87.56
662.546	89.56
662.75	80.56
662.953	77.56
663.156	73.56
663.36	85.56
663.563	98.56
663.766	83.56
663.969	84.56
664.173	83.56
664.376	83.56
664.579	77.56
664.782	86.56
664.985	82.56
665.188	78.56
665.391	84.56
665.594	86.56
665.797	92.56
666	69.56
666.203	80.56
666.406	85.56
666.609	74.56
666.812	85.56
667.015	75.56
667.218	80.56
667.421	78.56
667.624	82.56
667.827	72.56
668.03	86.56
668.232	86.56
668.435	81.56
668.638	97.56
668.841	67.56
669.043	78.56
669.246	78.56
669.449	82.56
669.651	88.56
669.854	90.56
670.057	91.56
670.259	85.56
670.462	102.56
670.665	77.56
670.867	96.56
671.07	85.56
671.272	70.56
671.475	79.56
671.677	83.56
671.88	87.56
672.082	85.56
672.284	83.56
672.487	80.56
672.689	77.56
672.892	71.56
