Data from Ni(NO3)2@0.125M.TitratingCurve.Agarose3%dH2O.NegLispCup.LampEnergy10.LIBS07252019_HRD10591_18-09-05-567.txt Node
Date: Thu Jul 25 18:09:05 EDT 2019
User: cochatt
Spectrometer: HR+D1059
Trigger mode: 1
Integration Time (sec): 1.000000E-1
Scans to average: 1
Electric dark correction enabled: true
Nonlinearity correction enabled: false
Boxcar width: 0
XAxis mode: Wavelengths
Number of Pixels in Spectrum: 2048
>>>>>Begin Spectral Data<<<<<
223.165	-12.38
223.4	-12.38
223.635	-12.38
223.869	-22.38
224.104	-24.38
224.338	-23.38
224.573	-28.38
224.808	-9.38
225.042	0.62
225.277	-10.38
225.511	-3.38
225.746	5.62
225.98	9.62
226.215	10.62
226.449	20.62
226.683	23.62
226.918	30.62
227.152	32.62
227.387	29.62
227.621	40.62
227.856	46.62
228.09	54.62
228.324	40.62
228.559	48.62
228.793	62.62
229.027	81.62
229.262	89.62
229.496	106.62
229.73	108.62
229.964	104.62
230.199	98.62
230.433	103.62
230.667	109.62
230.901	105.62
231.136	111.62
231.37	122.62
231.604	135.62
231.838	108.62
232.072	111.62
232.306	114.62
232.541	130.62
232.775	123.62
233.009	124.62
233.243	127.62
233.477	120.62
233.711	126.62
233.945	123.62
234.179	114.62
234.413	140.62
234.647	130.62
234.881	118.62
235.115	131.62
235.349	122.62
235.583	127.62
235.817	125.62
236.051	134.62
236.285	124.62
236.519	150.62
236.753	142.62
236.987	139.62
237.221	128.62
237.455	129.62
237.689	124.62
237.922	125.62
238.156	125.62
238.39	128.62
238.624	134.62
238.858	155.62
239.091	147.62
239.325	139.62
239.559	139.62
239.793	152.62
240.027	152.62
240.26	149.62
240.494	141.62
240.728	156.62
240.961	142.62
241.195	136.62
241.429	138.62
241.662	157.62
241.896	154.62
242.13	146.62
242.363	143.62
242.597	162.62
242.83	159.62
243.064	146.62
243.298	151.62
243.531	156.62
243.765	166.62
243.998	165.62
244.232	181.62
244.465	175.62
244.699	167.62
244.932	169.62
245.166	166.62
245.399	142.62
245.633	170.62
245.866	167.62
246.099	179.62
246.333	177.62
246.566	193.62
246.8	161.62
247.033	176.62
247.266	169.62
247.5	192.62
247.733	187.62
247.966	183.62
248.2	184.62
248.433	189.62
248.666	214.62
248.899	201.62
249.133	194.62
249.366	207.62
249.599	214.62
249.832	206.62
250.066	206.62
250.299	190.62
250.532	208.62
250.765	215.62
250.998	202.62
251.231	210.62
251.465	204.62
251.698	198.62
251.931	220.62
252.164	208.62
252.397	215.62
252.63	219.62
252.863	214.62
253.096	213.62
253.329	223.62
253.562	220.62
253.795	226.62
254.028	201.62
254.261	231.62
254.494	234.62
254.727	211.62
254.96	230.62
255.193	228.62
255.426	211.62
255.659	217.62
255.892	245.62
256.124	230.62
256.357	241.62
256.59	235.62
256.823	230.62
257.056	258.62
257.289	240.62
257.521	223.62
257.754	250.62
257.987	236.62
258.22	251.62
258.452	245.62
258.685	249.62
258.918	240.62
259.151	245.62
259.383	238.62
259.616	257.62
259.849	248.62
260.081	259.62
260.314	249.62
260.547	243.62
260.779	254.62
261.012	263.62
261.244	253.62
261.477	270.62
261.71	274.62
261.942	261.62
262.175	253.62
262.407	263.62
262.64	260.62
262.872	264.62
263.105	254.62
263.337	255.62
263.57	273.62
263.802	282.62
264.035	264.62
264.267	266.62
264.499	272.62
264.732	281.62
264.964	274.62
265.197	266.62
265.429	268.62
265.661	286.62
265.894	281.62
266.126	296.62
266.358	287.62
266.591	291.62
266.823	293.62
267.055	284.62
267.287	289.62
267.52	292.62
267.752	292.62
267.984	287.62
268.216	276.62
268.448	310.62
268.681	300.62
268.913	307.62
269.145	290.62
269.377	295.62
269.609	316.62
269.841	313.62
270.073	311.62
270.306	292.62
270.538	291.62
270.77	313.62
271.002	310.62
271.234	286.62
271.466	308.62
271.698	277.62
271.93	300.62
272.162	299.62
272.394	306.62
272.626	290.62
272.858	328.62
273.09	324.62
273.322	318.62
273.553	315.62
273.785	315.62
274.017	330.62
274.249	314.62
274.481	323.62
274.713	323.62
274.945	329.62
275.176	325.62
275.408	319.62
275.64	324.62
275.872	324.62
276.104	337.62
276.335	316.62
276.567	323.62
276.799	340.62
277.031	334.62
277.262	342.62
277.494	348.62
277.726	343.62
277.957	324.62
278.189	338.62
278.421	328.62
278.652	324.62
278.884	349.62
279.115	350.62
279.347	344.62
279.579	340.62
279.81	340.62
280.042	342.62
280.273	354.62
280.505	359.62
280.736	364.62
280.968	362.62
281.199	350.62
281.431	352.62
281.662	389.62
281.894	356.62
282.125	355.62
282.356	384.62
282.588	354.62
282.819	374.62
283.051	377.62
283.282	371.62
283.513	343.62
283.745	364.62
283.976	376.62
284.207	383.62
284.439	374.62
284.67	368.62
284.901	364.62
285.132	398.62
285.364	376.62
285.595	388.62
285.826	370.62
286.057	365.62
286.288	392.62
286.52	403.62
286.751	400.62
286.982	382.62
287.213	384.62
287.444	394.62
287.675	396.62
287.906	395.62
288.138	393.62
288.369	398.62
288.6	390.62
288.831	397.62
289.062	388.62
289.293	402.62
289.524	415.62
289.755	404.62
289.986	394.62
290.217	413.62
290.448	410.62
290.679	418.62
290.91	411.62
291.141	405.62
291.371	414.62
291.602	389.62
291.833	419.62
292.064	408.62
292.295	413.62
292.526	406.62
292.757	403.62
292.987	412.62
293.218	394.62
293.449	432.62
293.68	409.62
293.91	405.62
294.141	414.62
294.372	405.62
294.603	407.62
294.833	418.62
295.064	412.62
295.295	414.62
295.525	405.62
295.756	412.62
295.987	430.62
296.217	421.62
296.448	432.62
296.679	432.62
296.909	419.62
297.14	438.62
297.37	434.62
297.601	430.62
297.831	454.62
298.062	426.62
298.292	461.62
298.523	446.62
298.753	456.62
298.984	440.62
299.214	429.62
299.445	455.62
299.675	442.62
299.905	454.62
300.136	449.62
300.366	441.62
300.597	454.62
300.827	469.62
301.057	453.62
301.288	448.62
301.518	473.62
301.748	464.62
301.979	472.62
302.209	475.62
302.439	454.62
302.669	456.62
302.9	473.62
303.13	450.62
303.36	449.62
303.59	457.62
303.82	467.62
304.051	453.62
304.281	461.62
304.511	463.62
304.741	467.62
304.971	453.62
305.201	435.62
305.431	454.62
305.661	485.62
305.891	436.62
306.121	453.62
306.352	463.62
306.582	430.62
306.812	452.62
307.042	441.62
307.272	455.62
307.502	456.62
307.731	445.62
307.961	438.62
308.191	448.62
308.421	452.62
308.651	451.62
308.881	454.62
309.111	454.62
309.341	442.62
309.571	462.62
309.8	465.62
310.03	453.62
310.26	480.62
310.49	471.62
310.72	460.62
310.949	452.62
311.179	463.62
311.409	451.62
311.639	449.62
311.868	462.62
312.098	482.62
312.328	489.62
312.557	489.62
312.787	478.62
313.017	466.62
313.246	468.62
313.476	479.62
313.706	493.62
313.935	477.62
314.165	480.62
314.394	481.62
314.624	485.62
314.853	498.62
315.083	494.62
315.312	486.62
315.542	484.62
315.771	477.62
316.001	494.62
316.23	465.62
316.46	474.62
316.689	482.62
316.919	456.62
317.148	477.62
317.377	454.62
317.607	464.62
317.836	452.62
318.065	463.62
318.295	479.62
318.524	497.62
318.753	497.62
318.983	480.62
319.212	476.62
319.441	474.62
319.67	482.62
319.9	476.62
320.129	488.62
320.358	477.62
320.587	481.62
320.816	488.62
321.046	519.62
321.275	501.62
321.504	475.62
321.733	502.62
321.962	483.62
322.191	483.62
322.42	496.62
322.649	487.62
322.878	479.62
323.108	500.62
323.337	500.62
323.566	498.62
323.795	512.62
324.024	509.62
324.253	509.62
324.482	502.62
324.71	511.62
324.939	496.62
325.168	510.62
325.397	516.62
325.626	498.62
325.855	526.62
326.084	568.62
326.313	553.62
326.542	548.62
326.77	561.62
326.999	546.62
327.228	538.62
327.457	540.62
327.686	557.62
327.914	544.62
328.143	541.62
328.372	541.62
328.6	548.62
328.829	556.62
329.058	538.62
329.287	532.62
329.515	560.62
329.744	549.62
329.972	568.62
330.201	558.62
330.43	556.62
330.658	570.62
330.887	563.62
331.115	580.62
331.344	567.62
331.572	580.62
331.801	607.62
332.03	618.62
332.258	612.62
332.486	643.62
332.715	645.62
332.943	689.62
333.172	738.62
333.4	754.62
333.629	766.62
333.857	738.62
334.085	756.62
334.314	709.62
334.542	715.62
334.771	724.62
334.999	703.62
335.227	686.62
335.455	700.62
335.684	668.62
335.912	675.62
336.14	665.62
336.369	651.62
336.597	705.62
336.825	663.62
337.053	646.62
337.281	622.62
337.51	644.62
337.738	613.62
337.966	636.62
338.194	596.62
338.422	606.62
338.65	602.62
338.878	618.62
339.106	592.62
339.334	591.62
339.562	577.62
339.79	554.62
340.018	593.62
340.246	582.62
340.474	581.62
340.702	583.62
340.93	569.62
341.158	565.62
341.386	582.62
341.614	592.62
341.842	573.62
342.07	570.62
342.298	583.62
342.526	572.62
342.754	594.62
342.981	590.62
343.209	584.62
343.437	633.62
343.665	660.62
343.893	682.62
344.12	739.62
344.348	705.62
344.576	660.62
344.804	624.62
345.031	597.62
345.259	604.62
345.487	578.62
345.714	581.62
345.942	596.62
346.17	578.62
346.397	542.62
346.625	566.62
346.853	572.62
347.08	550.62
347.308	567.62
347.535	588.62
347.763	602.62
347.99	573.62
348.218	607.62
348.445	572.62
348.673	566.62
348.9	536.62
349.128	536.62
349.355	582.62
349.583	565.62
349.81	566.62
350.037	535.62
350.265	529.62
350.492	540.62
350.72	541.62
350.947	543.62
351.174	558.62
351.402	545.62
351.629	553.62
351.856	557.62
352.083	542.62
352.311	535.62
352.538	529.62
352.765	559.62
352.992	529.62
353.22	561.62
353.447	525.62
353.674	494.62
353.901	538.62
354.128	535.62
354.355	527.62
354.583	535.62
354.81	540.62
355.037	552.62
355.264	562.62
355.491	528.62
355.718	548.62
355.945	545.62
356.172	545.62
356.399	535.62
356.626	556.62
356.853	546.62
357.08	554.62
357.307	569.62
357.534	547.62
357.761	537.62
357.988	531.62
358.215	522.62
358.441	545.62
358.668	529.62
358.895	530.62
359.122	535.62
359.349	547.62
359.576	541.62
359.802	545.62
360.029	528.62
360.256	526.62
360.483	534.62
360.709	548.62
360.936	535.62
361.163	551.62
361.39	542.62
361.616	544.62
361.843	543.62
362.07	557.62
362.296	533.62
362.523	522.62
362.749	545.62
362.976	539.62
363.203	547.62
363.429	534.62
363.656	542.62
363.882	553.62
364.109	531.62
364.335	534.62
364.562	534.62
364.788	526.62
365.015	524.62
365.241	537.62
365.468	552.62
365.694	533.62
365.92	547.62
366.147	540.62
366.373	548.62
366.599	534.62
366.826	542.62
367.052	560.62
367.278	529.62
367.505	530.62
367.731	534.62
367.957	541.62
368.184	557.62
368.41	537.62
368.636	553.62
368.862	551.62
369.089	562.62
369.315	572.62
369.541	566.62
369.767	566.62
369.993	559.62
370.219	544.62
370.445	556.62
370.672	576.62
370.898	569.62
371.124	569.62
371.35	586.62
371.576	572.62
371.802	578.62
372.028	562.62
372.254	594.62
372.48	592.62
372.706	605.62
372.932	596.62
373.158	598.62
373.384	609.62
373.61	586.62
373.835	580.62
374.061	572.62
374.287	590.62
374.513	604.62
374.739	614.62
374.965	661.62
375.191	638.62
375.416	649.62
375.642	614.62
375.868	636.62
376.094	604.62
376.319	585.62
376.545	592.62
376.771	579.62
376.997	574.62
377.222	599.62
377.448	587.62
377.674	597.62
377.899	573.62
378.125	581.62
378.35	573.62
378.576	560.62
378.802	565.62
379.027	543.62
379.253	566.62
379.478	567.62
379.704	576.62
379.929	583.62
380.155	586.62
380.38	574.62
380.606	590.62
380.831	571.62
381.057	597.62
381.282	595.62
381.507	572.62
381.733	607.62
381.958	599.62
382.184	596.62
382.409	597.62
382.634	606.62
382.86	593.62
383.085	600.62
383.31	630.62
383.535	625.62
383.761	632.62
383.986	671.62
384.211	660.62
384.436	658.62
384.662	674.62
384.887	693.62
385.112	702.62
385.337	713.62
385.562	699.62
385.787	717.62
386.013	703.62
386.238	705.62
386.463	696.62
386.688	700.62
386.913	690.62
387.138	706.62
387.363	696.62
387.588	690.62
387.813	672.62
388.038	674.62
388.263	684.62
388.488	695.62
388.713	672.62
388.938	656.62
389.163	688.62
389.387	658.62
389.612	641.62
389.837	698.62
390.062	710.62
390.287	666.62
390.512	666.62
390.736	672.62
390.961	686.62
391.186	701.62
391.411	725.62
391.636	753.62
391.86	776.62
392.085	783.62
392.31	744.62
392.534	757.62
392.759	762.62
392.984	746.62
393.208	724.62
393.433	710.62
393.658	718.62
393.882	738.62
394.107	752.62
394.331	742.62
394.556	718.62
394.78	763.62
395.005	744.62
395.229	731.62
395.454	782.62
395.678	786.62
395.903	753.62
396.127	753.62
396.352	708.62
396.576	723.62
396.801	724.62
397.025	715.62
397.249	752.62
397.474	739.62
397.698	782.62
397.922	762.62
398.147	767.62
398.371	764.62
398.595	798.62
398.82	813.62
399.044	906.62
399.268	992.62
399.492	1168.62
399.717	1352.62
399.941	1312.62
400.165	1143.62
400.389	1057.62
400.613	954.62
400.837	883.62
401.062	860.62
401.286	871.62
401.51	873.62
401.734	851.62
401.958	876.62
402.182	883.62
402.406	870.62
402.63	914.62
402.854	916.62
403.078	956.62
403.302	981.62
403.526	980.62
403.75	1021.62
403.974	1022.62
404.198	1029.62
404.422	1031.62
404.645	1029.62
404.869	985.62
405.093	976.62
405.317	975.62
405.541	968.62
405.765	937.62
405.988	923.62
406.212	971.62
406.436	970.62
406.66	957.62
406.883	988.62
407.107	1027.62
407.331	1105.62
407.555	1148.62
407.778	1104.62
408.002	1117.62
408.226	1081.62
408.449	1031.62
408.673	997.62
408.896	972.62
409.12	970.62
409.344	984.62
409.567	1013.62
409.791	1029.62
410.014	999.62
410.238	965.62
410.461	1001.62
410.685	995.62
410.908	940.62
411.132	920.62
411.355	905.62
411.578	912.62
411.802	935.62
412.025	926.62
412.249	938.62
412.472	933.62
412.695	885.62
412.919	867.62
413.142	854.62
413.365	864.62
413.589	898.62
413.812	870.62
414.035	869.62
414.258	864.62
414.482	891.62
414.705	892.62
414.928	903.62
415.151	891.62
415.374	868.62
415.597	882.62
415.821	876.62
416.044	880.62
416.267	845.62
416.49	857.62
416.713	856.62
416.936	869.62
417.159	845.62
417.382	868.62
417.605	869.62
417.828	888.62
418.051	884.62
418.274	876.62
418.497	857.62
418.72	876.62
418.943	903.62
419.166	957.62
419.389	1033.62
419.611	1013.62
419.834	937.62
420.057	890.62
420.28	885.62
420.503	870.62
420.726	867.62
420.948	899.62
421.171	886.62
421.394	871.62
421.617	883.62
421.839	881.62
422.062	903.62
422.285	865.62
422.507	865.62
422.73	900.62
422.953	920.62
423.175	912.62
423.398	915.62
423.621	913.62
423.843	946.62
424.066	957.62
424.288	956.62
424.511	907.62
424.733	930.62
424.956	899.62
425.178	892.62
425.401	884.62
425.623	886.62
425.846	876.62
426.068	836.62
426.291	824.62
426.513	823.62
426.735	833.62
426.958	832.62
427.18	794.62
427.402	792.62
427.625	799.62
427.847	764.62
428.069	791.62
428.292	806.62
428.514	779.62
428.736	776.62
428.958	780.62
429.181	784.62
429.403	776.62
429.625	785.62
429.847	759.62
430.069	751.62
430.292	786.62
430.514	775.62
430.736	736.62
430.958	757.62
431.18	770.62
431.402	782.62
431.624	790.62
431.846	810.62
432.068	779.62
432.29	809.62
432.512	782.62
432.734	792.62
432.956	797.62
433.178	822.62
433.4	788.62
433.622	784.62
433.844	804.62
434.066	804.62
434.287	806.62
434.509	820.62
434.731	846.62
434.953	884.62
435.175	918.62
435.397	874.62
435.618	836.62
435.84	833.62
436.062	799.62
436.284	792.62
436.505	793.62
436.727	788.62
436.949	800.62
437.17	781.62
437.392	793.62
437.614	777.62
437.835	721.62
438.057	746.62
438.278	727.62
438.5	754.62
438.721	770.62
438.943	761.62
439.165	776.62
439.386	762.62
439.608	814.62
439.829	800.62
440.05	788.62
440.272	816.62
440.493	802.62
440.715	835.62
440.936	836.62
441.158	834.62
441.379	871.62
441.6	921.62
441.822	930.62
442.043	887.62
442.264	871.62
442.486	866.62
442.707	887.62
442.928	876.62
443.149	894.62
443.371	892.62
443.592	920.62
443.813	868.62
444.034	908.62
444.255	959.62
444.476	1004.62
444.698	1058.62
444.919	1068.62
445.14	1191.62
445.361	1015.62
445.582	945.62
445.803	860.62
446.024	816.62
446.245	848.62
446.466	830.62
446.687	815.62
446.908	806.62
447.129	795.62
447.35	770.62
447.571	767.62
447.792	748.62
448.013	749.62
448.234	745.62
448.455	734.62
448.675	730.62
448.896	753.62
449.117	737.62
449.338	754.62
449.559	724.62
449.779	738.62
450	731.62
450.221	742.62
450.442	757.62
450.662	767.62
450.883	739.62
451.104	739.62
451.324	775.62
451.545	757.62
451.766	751.62
451.986	737.62
452.207	768.62
452.428	760.62
452.648	745.62
452.869	719.62
453.089	720.62
453.31	748.62
453.53	701.62
453.751	720.62
453.971	686.62
454.192	725.62
454.412	672.62
454.633	692.62
454.853	714.62
455.073	698.62
455.294	691.62
455.514	685.62
455.734	671.62
455.955	685.62
456.175	646.62
456.395	678.62
456.616	686.62
456.836	667.62
457.056	668.62
457.276	664.62
457.497	682.62
457.717	711.62
457.937	669.62
458.157	701.62
458.377	716.62
458.598	728.62
458.818	751.62
459.038	754.62
459.258	798.62
459.478	808.62
459.698	823.62
459.918	842.62
460.138	903.62
460.358	942.62
460.578	953.62
460.798	914.62
461.018	962.62
461.238	974.62
461.458	920.62
461.678	949.62
461.898	916.62
462.118	935.62
462.338	1011.62
462.558	1033.62
462.777	1058.62
462.997	1158.62
463.217	1286.62
463.437	1292.62
463.657	1162.62
463.876	1116.62
464.096	1084.62
464.316	1084.62
464.536	1112.62
464.755	1098.62
464.975	1029.62
465.195	968.62
465.414	896.62
465.634	879.62
465.854	822.62
466.073	810.62
466.293	805.62
466.512	788.62
466.732	778.62
466.951	775.62
467.171	775.62
467.391	774.62
467.61	749.62
467.829	778.62
468.049	773.62
468.268	729.62
468.488	749.62
468.707	753.62
468.927	725.62
469.146	758.62
469.365	753.62
469.585	772.62
469.804	756.62
470.023	799.62
470.243	780.62
470.462	814.62
470.681	834.62
470.901	805.62
471.12	792.62
471.339	764.62
471.558	715.62
471.777	752.62
471.997	760.62
472.216	737.62
472.435	726.62
472.654	710.62
472.873	704.62
473.092	687.62
473.311	723.62
473.53	714.62
473.749	716.62
473.968	731.62
474.187	704.62
474.406	694.62
474.625	705.62
474.844	697.62
475.063	708.62
475.282	720.62
475.501	709.62
475.72	717.62
475.939	720.62
476.158	710.62
476.377	743.62
476.596	728.62
476.814	751.62
477.033	742.62
477.252	730.62
477.471	753.62
477.69	771.62
477.908	820.62
478.127	846.62
478.346	874.62
478.564	856.62
478.783	860.62
479.002	885.62
479.22	896.62
479.439	908.62
479.658	862.62
479.876	907.62
480.095	887.62
480.313	927.62
480.532	964.62
480.751	977.62
480.969	906.62
481.188	868.62
481.406	851.62
481.624	814.62
481.843	798.62
482.061	830.62
482.28	812.62
482.498	817.62
482.717	781.62
482.935	792.62
483.153	809.62
483.372	799.62
483.59	822.62
483.808	798.62
484.027	812.62
484.245	824.62
484.463	813.62
484.681	836.62
484.9	858.62
485.118	855.62
485.336	852.62
485.554	848.62
485.772	877.62
485.99	865.62
486.209	866.62
486.427	868.62
486.645	862.62
486.863	862.62
487.081	882.62
487.299	866.62
487.517	882.62
487.735	890.62
487.953	877.62
488.171	865.62
488.389	865.62
488.607	826.62
488.825	821.62
489.043	813.62
489.261	844.62
489.479	842.62
489.696	852.62
489.914	869.62
490.132	869.62
490.35	844.62
490.568	852.62
490.786	853.62
491.003	872.62
491.221	901.62
491.439	880.62
491.657	873.62
491.874	869.62
492.092	885.62
492.31	883.62
492.527	913.62
492.745	872.62
492.963	893.62
493.18	856.62
493.398	899.62
493.615	882.62
493.833	922.62
494.05	920.62
494.268	899.62
494.485	918.62
494.703	905.62
494.92	926.62
495.138	918.62
495.355	942.62
495.573	945.62
495.79	936.62
496.008	922.62
496.225	935.62
496.442	947.62
496.66	970.62
496.877	965.62
497.094	967.62
497.312	975.62
497.529	993.62
497.746	1004.62
497.963	1038.62
498.181	1076.62
498.398	1116.62
498.615	1174.62
498.832	1262.62
499.049	1352.62
499.267	1473.62
499.484	1653.62
499.701	1830.62
499.918	2035.62
500.135	2359.62
500.352	2736.62
500.569	2868.62
500.786	2802.62
501.003	2607.62
501.22	2292.62
501.437	2034.62
501.654	1728.62
501.871	1592.62
502.088	1462.62
502.305	1335.62
502.522	1313.62
502.739	1240.62
502.956	1147.62
503.172	1120.62
503.389	1056.62
503.606	1021.62
503.823	1013.62
504.04	1025.62
504.256	1056.62
504.473	1067.62
504.69	1078.62
504.907	1079.62
505.123	983.62
505.34	908.62
505.557	894.62
505.773	864.62
505.99	862.62
506.207	856.62
506.423	825.62
506.64	846.62
506.856	823.62
507.073	828.62
507.289	805.62
507.506	809.62
507.722	778.62
507.939	785.62
508.155	754.62
508.372	778.62
508.588	770.62
508.805	750.62
509.021	752.62
509.238	770.62
509.454	739.62
509.67	737.62
509.887	744.62
510.103	749.62
510.319	729.62
510.536	748.62
510.752	737.62
510.968	719.62
511.184	710.62
511.401	724.62
511.617	728.62
511.833	730.62
512.049	708.62
512.265	740.62
512.481	720.62
512.698	710.62
512.914	729.62
513.13	737.62
513.346	734.62
513.562	714.62
513.778	743.62
513.994	723.62
514.21	718.62
514.426	720.62
514.642	726.62
514.858	714.62
515.074	751.62
515.29	764.62
515.506	762.62
515.721	775.62
515.937	776.62
516.153	802.62
516.369	827.62
516.585	841.62
516.801	861.62
517.016	920.62
517.232	947.62
517.448	976.62
517.664	1028.62
517.879	1069.62
518.095	1038.62
518.311	1015.62
518.527	968.62
518.742	906.62
518.958	866.62
519.173	858.62
519.389	818.62
519.605	816.62
519.82	788.62
520.036	753.62
520.251	747.62
520.467	735.62
520.682	748.62
520.898	753.62
521.113	738.62
521.329	703.62
521.544	716.62
521.76	723.62
521.975	701.62
522.19	684.62
522.406	702.62
522.621	700.62
522.836	701.62
523.052	714.62
523.267	715.62
523.482	702.62
523.698	694.62
523.913	690.62
524.128	710.62
524.343	713.62
524.559	681.62
524.774	668.62
524.989	688.62
525.204	676.62
525.419	675.62
525.634	672.62
525.849	676.62
526.064	655.62
526.28	670.62
526.495	666.62
526.71	663.62
526.925	688.62
527.14	642.62
527.355	671.62
527.57	677.62
527.785	664.62
527.999	656.62
528.214	670.62
528.429	656.62
528.644	662.62
528.859	704.62
529.074	652.62
529.289	670.62
529.503	681.62
529.718	672.62
529.933	680.62
530.148	666.62
530.363	685.62
530.577	679.62
530.792	682.62
531.007	655.62
531.221	661.62
531.436	649.62
531.651	668.62
531.865	673.62
532.08	668.62
532.295	678.62
532.509	650.62
532.724	681.62
532.938	649.62
533.153	648.62
533.367	662.62
533.582	668.62
533.796	657.62
534.011	674.62
534.225	668.62
534.44	651.62
534.654	658.62
534.868	651.62
535.083	653.62
535.297	667.62
535.511	640.62
535.726	644.62
535.94	646.62
536.154	630.62
536.369	597.62
536.583	640.62
536.797	629.62
537.011	611.62
537.225	627.62
537.44	596.62
537.654	605.62
537.868	622.62
538.082	604.62
538.296	592.62
538.51	595.62
538.724	614.62
538.938	605.62
539.153	608.62
539.367	608.62
539.581	602.62
539.795	579.62
540.009	604.62
540.222	596.62
540.436	599.62
540.65	599.62
540.864	561.62
541.078	629.62
541.292	617.62
541.506	603.62
541.72	604.62
541.934	614.62
542.147	607.62
542.361	612.62
542.575	596.62
542.789	598.62
543.002	591.62
543.216	590.62
543.43	589.62
543.644	582.62
543.857	594.62
544.071	580.62
544.285	580.62
544.498	585.62
544.712	599.62
544.925	634.62
545.139	581.62
545.352	632.62
545.566	620.62
545.779	625.62
545.993	617.62
546.206	636.62
546.42	620.62
546.633	627.62
546.847	611.62
547.06	601.62
547.274	612.62
547.487	611.62
547.7	636.62
547.914	630.62
548.127	633.62
548.34	614.62
548.554	636.62
548.767	624.62
548.98	650.62
549.193	623.62
549.407	634.62
549.62	642.62
549.833	663.62
550.046	644.62
550.259	661.62
550.473	626.62
550.686	613.62
550.899	596.62
551.112	594.62
551.325	601.62
551.538	625.62
551.751	570.62
551.964	600.62
552.177	602.62
552.39	603.62
552.603	634.62
552.816	660.62
553.029	662.62
553.242	686.62
553.455	707.62
553.667	680.62
553.88	699.62
554.093	657.62
554.306	620.62
554.519	625.62
554.732	633.62
554.944	617.62
555.157	611.62
555.37	592.62
555.583	570.62
555.795	580.62
556.008	558.62
556.221	561.62
556.433	557.62
556.646	560.62
556.859	558.62
557.071	530.62
557.284	538.62
557.496	523.62
557.709	530.62
557.921	506.62
558.134	524.62
558.346	540.62
558.559	509.62
558.771	520.62
558.984	509.62
559.196	499.62
559.409	511.62
559.621	504.62
559.833	514.62
560.046	505.62
560.258	498.62
560.47	510.62
560.683	505.62
560.895	500.62
561.107	517.62
561.32	486.62
561.532	494.62
561.744	489.62
561.956	496.62
562.168	514.62
562.381	516.62
562.593	505.62
562.805	513.62
563.017	522.62
563.229	498.62
563.441	501.62
563.653	518.62
563.865	520.62
564.077	544.62
564.289	515.62
564.501	533.62
564.713	536.62
564.925	540.62
565.137	544.62
565.349	566.62
565.561	581.62
565.773	597.62
565.985	625.62
566.197	660.62
566.408	697.62
566.62	762.62
566.832	826.62
567.044	842.62
567.255	826.62
567.467	842.62
567.679	896.62
567.891	978.62
568.102	1018.62
568.314	976.62
568.526	851.62
568.737	775.62
568.949	714.62
569.161	638.62
569.372	602.62
569.584	559.62
569.795	534.62
570.007	545.62
570.218	517.62
570.43	506.62
570.641	519.62
570.853	504.62
571.064	528.62
571.276	522.62
571.487	486.62
571.698	491.62
571.91	462.62
572.121	458.62
572.333	454.62
572.544	418.62
572.755	449.62
572.966	469.62
573.178	439.62
573.389	447.62
573.6	440.62
573.811	444.62
574.023	419.62
574.234	426.62
574.445	434.62
574.656	432.62
574.867	440.62
575.078	423.62
575.289	428.62
575.501	406.62
575.712	398.62
575.923	401.62
576.134	376.62
576.345	398.62
576.556	380.62
576.767	390.62
576.978	417.62
577.188	405.62
577.399	395.62
577.61	382.62
577.821	388.62
578.032	369.62
578.243	380.62
578.454	377.62
578.665	376.62
578.875	371.62
579.086	371.62
579.297	381.62
579.508	376.62
579.718	370.62
579.929	383.62
580.14	367.62
580.35	365.62
580.561	366.62
580.772	353.62
580.982	361.62
581.193	353.62
581.403	362.62
581.614	357.62
581.825	362.62
582.035	356.62
582.246	352.62
582.456	347.62
582.667	357.62
582.877	364.62
583.087	354.62
583.298	344.62
583.508	330.62
583.719	343.62
583.929	346.62
584.139	359.62
584.35	349.62
584.56	335.62
584.77	354.62
584.981	350.62
585.191	333.62
585.401	356.62
585.611	360.62
585.821	329.62
586.032	340.62
586.242	334.62
586.452	337.62
586.662	353.62
586.872	347.62
587.082	333.62
587.292	321.62
587.502	328.62
587.713	329.62
587.923	342.62
588.133	322.62
588.343	321.62
588.553	321.62
588.762	333.62
588.972	346.62
589.182	334.62
589.392	345.62
589.602	337.62
589.812	328.62
590.022	335.62
590.232	346.62
590.441	344.62
590.651	341.62
590.861	327.62
591.071	353.62
591.281	355.62
591.49	344.62
591.7	354.62
591.91	366.62
592.119	359.62
592.329	373.62
592.539	400.62
592.748	411.62
592.958	414.62
593.167	417.62
593.377	441.62
593.587	441.62
593.796	436.62
594.006	451.62
594.215	433.62
594.424	449.62
594.634	431.62
594.843	413.62
595.053	395.62
595.262	379.62
595.472	369.62
595.681	357.62
595.89	353.62
596.1	347.62
596.309	345.62
596.518	335.62
596.727	317.62
596.937	327.62
597.146	324.62
597.355	319.62
597.564	293.62
597.774	308.62
597.983	327.62
598.192	304.62
598.401	305.62
598.61	294.62
598.819	306.62
599.028	311.62
599.237	270.62
599.446	307.62
599.655	279.62
599.864	287.62
600.073	303.62
600.282	284.62
600.491	276.62
600.7	280.62
600.909	278.62
601.118	283.62
601.327	287.62
601.536	272.62
601.745	287.62
601.953	269.62
602.162	276.62
602.371	292.62
602.58	280.62
602.789	300.62
602.997	294.62
603.206	270.62
603.415	261.62
603.623	270.62
603.832	273.62
604.041	284.62
604.249	265.62
604.458	289.62
604.666	280.62
604.875	280.62
605.084	271.62
605.292	268.62
605.501	274.62
605.709	284.62
605.918	272.62
606.126	277.62
606.334	268.62
606.543	264.62
606.751	252.62
606.96	274.62
607.168	263.62
607.376	280.62
607.585	256.62
607.793	287.62
608.001	264.62
608.21	242.62
608.418	264.62
608.626	241.62
608.834	272.62
609.043	271.62
609.251	269.62
609.459	271.62
609.667	272.62
609.875	263.62
610.083	260.62
610.291	265.62
610.499	256.62
610.707	256.62
610.916	274.62
611.124	256.62
611.332	256.62
611.54	255.62
611.748	253.62
611.955	255.62
612.163	265.62
612.371	259.62
612.579	257.62
612.787	265.62
612.995	243.62
613.203	271.62
613.411	253.62
613.618	236.62
613.826	254.62
614.034	248.62
614.242	255.62
614.449	264.62
614.657	239.62
614.865	249.62
615.072	259.62
615.28	242.62
615.488	247.62
615.695	260.62
615.903	261.62
616.111	256.62
616.318	261.62
616.526	264.62
616.733	252.62
616.941	260.62
617.148	268.62
617.356	247.62
617.563	257.62
617.771	262.62
617.978	254.62
618.185	244.62
618.393	256.62
618.6	263.62
618.807	257.62
619.015	232.62
619.222	244.62
619.429	228.62
619.637	249.62
619.844	241.62
620.051	241.62
620.258	238.62
620.466	253.62
620.673	232.62
620.88	225.62
621.087	232.62
621.294	231.62
621.501	246.62
621.708	237.62
621.915	226.62
622.122	225.62
622.329	232.62
622.536	249.62
622.743	234.62
622.95	228.62
623.157	220.62
623.364	247.62
623.571	207.62
623.778	219.62
623.985	224.62
624.192	217.62
624.399	228.62
624.606	222.62
624.812	214.62
625.019	229.62
625.226	219.62
625.433	229.62
625.639	207.62
625.846	222.62
626.053	208.62
626.259	223.62
626.466	215.62
626.673	230.62
626.879	197.62
627.086	229.62
627.293	212.62
627.499	195.62
627.706	212.62
627.912	226.62
628.119	198.62
628.325	189.62
628.532	213.62
628.738	195.62
628.945	206.62
629.151	210.62
629.357	198.62
629.564	214.62
629.77	210.62
629.976	200.62
630.183	201.62
630.389	196.62
630.595	199.62
630.802	176.62
631.008	196.62
631.214	199.62
631.42	198.62
631.627	200.62
631.833	214.62
632.039	194.62
632.245	196.62
632.451	184.62
632.657	183.62
632.863	189.62
633.069	190.62
633.275	201.62
633.481	186.62
633.688	193.62
633.893	195.62
634.099	181.62
634.305	180.62
634.511	177.62
634.717	192.62
634.923	180.62
635.129	181.62
635.335	172.62
635.541	178.62
635.747	184.62
635.952	176.62
636.158	173.62
636.364	184.62
636.57	173.62
636.775	202.62
636.981	189.62
637.187	185.62
637.392	181.62
637.598	160.62
637.804	184.62
638.009	181.62
638.215	168.62
638.421	190.62
638.626	188.62
638.832	168.62
639.037	166.62
639.243	174.62
639.448	171.62
639.654	181.62
639.859	160.62
640.065	184.62
640.27	196.62
640.475	185.62
640.681	161.62
640.886	173.62
641.091	167.62
641.297	167.62
641.502	168.62
641.707	164.62
641.913	167.62
642.118	172.62
642.323	184.62
642.528	177.62
642.733	175.62
642.939	167.62
643.144	177.62
643.349	172.62
643.554	138.62
643.759	190.62
643.964	177.62
644.169	168.62
644.374	168.62
644.579	141.62
644.784	172.62
644.989	176.62
645.194	160.62
645.399	176.62
645.604	165.62
645.809	158.62
646.014	167.62
646.219	167.62
646.423	159.62
646.628	167.62
646.833	162.62
647.038	181.62
647.243	170.62
647.447	167.62
647.652	160.62
647.857	163.62
648.062	183.62
648.266	171.62
648.471	188.62
648.676	177.62
648.88	175.62
649.085	174.62
649.289	188.62
649.494	166.62
649.698	174.62
649.903	152.62
650.107	162.62
650.312	157.62
650.516	144.62
650.721	158.62
650.925	159.62
651.13	165.62
651.334	163.62
651.539	166.62
651.743	151.62
651.947	134.62
652.152	149.62
652.356	146.62
652.56	146.62
652.764	151.62
652.969	132.62
653.173	147.62
653.377	150.62
653.581	133.62
653.785	130.62
653.99	135.62
654.194	143.62
654.398	147.62
654.602	128.62
654.806	134.62
655.01	126.62
655.214	114.62
655.418	124.62
655.622	118.62
655.826	135.62
656.03	134.62
656.234	111.62
656.438	114.62
656.642	119.62
656.846	113.62
657.049	128.62
657.253	118.62
657.457	121.62
657.661	111.62
657.865	116.62
658.068	106.62
658.272	115.62
658.476	101.62
658.68	115.62
658.883	87.62
659.087	99.62
659.291	81.62
659.494	96.62
659.698	100.62
659.901	82.62
660.105	86.62
660.309	102.62
660.512	98.62
660.716	82.62
660.919	93.62
661.123	75.62
661.326	85.62
661.53	96.62
661.733	87.62
661.936	89.62
662.14	95.62
662.343	93.62
662.546	88.62
662.75	81.62
662.953	84.62
663.156	89.62
663.36	77.62
663.563	85.62
663.766	91.62
663.969	79.62
664.173	72.62
664.376	78.62
664.579	84.62
664.782	72.62
664.985	61.62
665.188	79.62
665.391	79.62
665.594	60.62
665.797	79.62
666	69.62
666.203	79.62
666.406	90.62
666.609	85.62
666.812	80.62
667.015	69.62
667.218	68.62
667.421	82.62
667.624	80.62
667.827	72.62
668.03	75.62
668.232	78.62
668.435	84.62
668.638	78.62
668.841	80.62
669.043	77.62
669.246	86.62
669.449	73.62
669.651	82.62
669.854	78.62
670.057	85.62
670.259	85.62
670.462	73.62
670.665	70.62
670.867	76.62
671.07	77.62
671.272	79.62
671.475	77.62
671.677	87.62
671.88	88.62
672.082	71.62
672.284	75.62
672.487	83.62
672.689	70.62
672.892	76.62
