Data from Ni(NO3)2@0.125M.TitratingCurve.Agarose3%dH2O.NegLispCup.LampEnergy10.LIBS07252019_HRD10591_18-10-39-567.txt Node
Date: Thu Jul 25 18:10:39 EDT 2019
User: cochatt
Spectrometer: HR+D1059
Trigger mode: 1
Integration Time (sec): 1.000000E-1
Scans to average: 1
Electric dark correction enabled: true
Nonlinearity correction enabled: false
Boxcar width: 0
XAxis mode: Wavelengths
Number of Pixels in Spectrum: 2048
>>>>>Begin Spectral Data<<<<<
223.165	-17.31
223.4	-17.31
223.635	-17.31
223.869	-26.31
224.104	-24.31
224.338	-13.31
224.573	-16.31
224.808	-20.31
225.042	-12.31
225.277	3.69
225.511	-18.31
225.746	6.69
225.98	11.69
226.215	6.69
226.449	13.69
226.683	17.69
226.918	39.69
227.152	48.69
227.387	48.69
227.621	51.69
227.856	25.69
228.09	40.69
228.324	43.69
228.559	64.69
228.793	63.69
229.027	111.69
229.262	107.69
229.496	121.69
229.73	127.69
229.964	122.69
230.199	147.69
230.433	135.69
230.667	151.69
230.901	132.69
231.136	147.69
231.37	154.69
231.604	158.69
231.838	145.69
232.072	140.69
232.306	152.69
232.541	149.69
232.775	162.69
233.009	165.69
233.243	141.69
233.477	153.69
233.711	157.69
233.945	159.69
234.179	156.69
234.413	140.69
234.647	144.69
234.881	161.69
235.115	168.69
235.349	172.69
235.583	166.69
235.817	145.69
236.051	146.69
236.285	150.69
236.519	151.69
236.753	162.69
236.987	167.69
237.221	164.69
237.455	170.69
237.689	156.69
237.922	160.69
238.156	179.69
238.39	180.69
238.624	174.69
238.858	181.69
239.091	183.69
239.325	185.69
239.559	182.69
239.793	172.69
240.027	179.69
240.26	185.69
240.494	178.69
240.728	184.69
240.961	185.69
241.195	186.69
241.429	201.69
241.662	197.69
241.896	197.69
242.13	206.69
242.363	195.69
242.597	186.69
242.83	195.69
243.064	198.69
243.298	204.69
243.531	217.69
243.765	215.69
243.998	207.69
244.232	216.69
244.465	217.69
244.699	213.69
244.932	217.69
245.166	213.69
245.399	217.69
245.633	222.69
245.866	218.69
246.099	231.69
246.333	226.69
246.566	231.69
246.8	219.69
247.033	228.69
247.266	222.69
247.5	242.69
247.733	245.69
247.966	252.69
248.2	250.69
248.433	232.69
248.666	239.69
248.899	262.69
249.133	273.69
249.366	247.69
249.599	249.69
249.832	244.69
250.066	273.69
250.299	256.69
250.532	246.69
250.765	258.69
250.998	266.69
251.231	266.69
251.465	270.69
251.698	271.69
251.931	257.69
252.164	274.69
252.397	270.69
252.63	282.69
252.863	284.69
253.096	304.69
253.329	302.69
253.562	277.69
253.795	287.69
254.028	273.69
254.261	293.69
254.494	303.69
254.727	300.69
254.96	290.69
255.193	290.69
255.426	294.69
255.659	298.69
255.892	320.69
256.124	291.69
256.357	310.69
256.59	300.69
256.823	331.69
257.056	331.69
257.289	302.69
257.521	322.69
257.754	314.69
257.987	317.69
258.22	321.69
258.452	327.69
258.685	321.69
258.918	304.69
259.151	321.69
259.383	315.69
259.616	316.69
259.849	331.69
260.081	326.69
260.314	329.69
260.547	346.69
260.779	325.69
261.012	333.69
261.244	327.69
261.477	324.69
261.71	340.69
261.942	343.69
262.175	343.69
262.407	342.69
262.64	340.69
262.872	349.69
263.105	355.69
263.337	341.69
263.57	336.69
263.802	363.69
264.035	345.69
264.267	352.69
264.499	364.69
264.732	367.69
264.964	382.69
265.197	378.69
265.429	376.69
265.661	360.69
265.894	369.69
266.126	373.69
266.358	367.69
266.591	366.69
266.823	365.69
267.055	388.69
267.287	366.69
267.52	378.69
267.752	364.69
267.984	394.69
268.216	379.69
268.448	388.69
268.681	375.69
268.913	401.69
269.145	389.69
269.377	375.69
269.609	395.69
269.841	381.69
270.073	375.69
270.306	413.69
270.538	396.69
270.77	406.69
271.002	394.69
271.234	402.69
271.466	411.69
271.698	395.69
271.93	411.69
272.162	409.69
272.394	393.69
272.626	415.69
272.858	407.69
273.09	424.69
273.322	433.69
273.553	416.69
273.785	417.69
274.017	421.69
274.249	416.69
274.481	429.69
274.713	423.69
274.945	469.69
275.176	425.69
275.408	432.69
275.64	436.69
275.872	437.69
276.104	429.69
276.335	444.69
276.567	453.69
276.799	437.69
277.031	452.69
277.262	431.69
277.494	439.69
277.726	460.69
277.957	451.69
278.189	472.69
278.421	443.69
278.652	463.69
278.884	468.69
279.115	451.69
279.347	455.69
279.579	465.69
279.81	473.69
280.042	452.69
280.273	474.69
280.505	457.69
280.736	484.69
280.968	497.69
281.199	479.69
281.431	487.69
281.662	485.69
281.894	483.69
282.125	463.69
282.356	491.69
282.588	486.69
282.819	507.69
283.051	480.69
283.282	493.69
283.513	466.69
283.745	493.69
283.976	512.69
284.207	503.69
284.439	486.69
284.67	504.69
284.901	514.69
285.132	518.69
285.364	497.69
285.595	523.69
285.826	515.69
286.057	525.69
286.288	526.69
286.52	524.69
286.751	513.69
286.982	491.69
287.213	515.69
287.444	527.69
287.675	528.69
287.906	534.69
288.138	535.69
288.369	552.69
288.6	523.69
288.831	537.69
289.062	539.69
289.293	553.69
289.524	528.69
289.755	542.69
289.986	526.69
290.217	537.69
290.448	550.69
290.679	551.69
290.91	534.69
291.141	530.69
291.371	535.69
291.602	549.69
291.833	544.69
292.064	563.69
292.295	553.69
292.526	556.69
292.757	549.69
292.987	527.69
293.218	551.69
293.449	527.69
293.68	549.69
293.91	555.69
294.141	525.69
294.372	559.69
294.603	554.69
294.833	559.69
295.064	565.69
295.295	575.69
295.525	536.69
295.756	542.69
295.987	572.69
296.217	575.69
296.448	575.69
296.679	571.69
296.909	562.69
297.14	579.69
297.37	586.69
297.601	582.69
297.831	572.69
298.062	598.69
298.292	627.69
298.523	604.69
298.753	643.69
298.984	604.69
299.214	606.69
299.445	619.69
299.675	585.69
299.905	615.69
300.136	603.69
300.366	594.69
300.597	612.69
300.827	630.69
301.057	629.69
301.288	635.69
301.518	623.69
301.748	627.69
301.979	647.69
302.209	627.69
302.439	640.69
302.669	640.69
302.9	634.69
303.13	658.69
303.36	614.69
303.59	633.69
303.82	620.69
304.051	620.69
304.281	628.69
304.511	605.69
304.741	627.69
304.971	635.69
305.201	625.69
305.431	627.69
305.661	631.69
305.891	606.69
306.121	603.69
306.352	619.69
306.582	623.69
306.812	581.69
307.042	604.69
307.272	599.69
307.502	629.69
307.731	592.69
307.961	599.69
308.191	605.69
308.421	596.69
308.651	580.69
308.881	604.69
309.111	601.69
309.341	607.69
309.571	615.69
309.8	619.69
310.03	622.69
310.26	613.69
310.49	619.69
310.72	606.69
310.949	593.69
311.179	618.69
311.409	621.69
311.639	651.69
311.868	629.69
312.098	632.69
312.328	652.69
312.557	634.69
312.787	646.69
313.017	653.69
313.246	647.69
313.476	655.69
313.706	672.69
313.935	668.69
314.165	663.69
314.394	683.69
314.624	666.69
314.853	634.69
315.083	649.69
315.312	647.69
315.542	679.69
315.771	654.69
316.001	642.69
316.23	645.69
316.46	641.69
316.689	631.69
316.919	643.69
317.148	656.69
317.377	627.69
317.607	639.69
317.836	642.69
318.065	641.69
318.295	652.69
318.524	633.69
318.753	640.69
318.983	657.69
319.212	659.69
319.441	665.69
319.67	641.69
319.9	619.69
320.129	647.69
320.358	641.69
320.587	661.69
320.816	647.69
321.046	651.69
321.275	651.69
321.504	639.69
321.733	635.69
321.962	649.69
322.191	648.69
322.42	663.69
322.649	673.69
322.878	664.69
323.108	668.69
323.337	668.69
323.566	675.69
323.795	681.69
324.024	661.69
324.253	670.69
324.482	674.69
324.71	676.69
324.939	691.69
325.168	706.69
325.397	691.69
325.626	680.69
325.855	700.69
326.084	693.69
326.313	707.69
326.542	682.69
326.77	711.69
326.999	710.69
327.228	702.69
327.457	712.69
327.686	722.69
327.914	737.69
328.143	720.69
328.372	735.69
328.6	697.69
328.829	702.69
329.058	703.69
329.287	716.69
329.515	700.69
329.744	730.69
329.972	728.69
330.201	734.69
330.43	729.69
330.658	704.69
330.887	731.69
331.115	747.69
331.344	748.69
331.572	760.69
331.801	774.69
332.03	787.69
332.258	819.69
332.486	833.69
332.715	879.69
332.943	894.69
333.172	923.69
333.4	1007.69
333.629	1005.69
333.857	995.69
334.085	997.69
334.314	986.69
334.542	922.69
334.771	923.69
334.999	907.69
335.227	935.69
335.455	901.69
335.684	898.69
335.912	895.69
336.14	883.69
336.369	866.69
336.597	879.69
336.825	853.69
337.053	850.69
337.281	852.69
337.51	832.69
337.738	838.69
337.966	816.69
338.194	795.69
338.422	779.69
338.65	772.69
338.878	820.69
339.106	800.69
339.334	777.69
339.562	789.69
339.79	767.69
340.018	743.69
340.246	733.69
340.474	747.69
340.702	742.69
340.93	758.69
341.158	771.69
341.386	736.69
341.614	749.69
341.842	754.69
342.07	768.69
342.298	733.69
342.526	750.69
342.754	760.69
342.981	761.69
343.209	774.69
343.437	802.69
343.665	856.69
343.893	939.69
344.12	957.69
344.348	887.69
344.576	858.69
344.804	847.69
345.031	793.69
345.259	783.69
345.487	773.69
345.714	751.69
345.942	745.69
346.17	743.69
346.397	750.69
346.625	759.69
346.853	729.69
347.08	731.69
347.308	744.69
347.535	741.69
347.763	760.69
347.99	737.69
348.218	744.69
348.445	755.69
348.673	727.69
348.9	727.69
349.128	707.69
349.355	714.69
349.583	715.69
349.81	699.69
350.037	696.69
350.265	724.69
350.492	723.69
350.72	725.69
350.947	713.69
351.174	708.69
351.402	720.69
351.629	671.69
351.856	696.69
352.083	663.69
352.311	703.69
352.538	681.69
352.765	696.69
352.992	709.69
353.22	703.69
353.447	699.69
353.674	694.69
353.901	692.69
354.128	700.69
354.355	709.69
354.583	730.69
354.81	710.69
355.037	708.69
355.264	695.69
355.491	720.69
355.718	713.69
355.945	696.69
356.172	716.69
356.399	709.69
356.626	701.69
356.853	716.69
357.08	705.69
357.307	723.69
357.534	705.69
357.761	715.69
357.988	720.69
358.215	719.69
358.441	725.69
358.668	700.69
358.895	699.69
359.122	715.69
359.349	705.69
359.576	683.69
359.802	723.69
360.029	705.69
360.256	721.69
360.483	688.69
360.709	703.69
360.936	710.69
361.163	708.69
361.39	697.69
361.616	710.69
361.843	709.69
362.07	707.69
362.296	699.69
362.523	716.69
362.749	705.69
362.976	685.69
363.203	709.69
363.429	715.69
363.656	719.69
363.882	720.69
364.109	704.69
364.335	660.69
364.562	704.69
364.788	697.69
365.015	673.69
365.241	679.69
365.468	712.69
365.694	694.69
365.92	680.69
366.147	717.69
366.373	691.69
366.599	694.69
366.826	691.69
367.052	718.69
367.278	718.69
367.505	698.69
367.731	713.69
367.957	703.69
368.184	730.69
368.41	728.69
368.636	696.69
368.862	709.69
369.089	729.69
369.315	728.69
369.541	736.69
369.767	724.69
369.993	748.69
370.219	740.69
370.445	749.69
370.672	716.69
370.898	743.69
371.124	775.69
371.35	749.69
371.576	765.69
371.802	758.69
372.028	755.69
372.254	753.69
372.48	741.69
372.706	772.69
372.932	805.69
373.158	798.69
373.384	802.69
373.61	769.69
373.835	755.69
374.061	748.69
374.287	759.69
374.513	777.69
374.739	822.69
374.965	838.69
375.191	855.69
375.416	839.69
375.642	832.69
375.868	805.69
376.094	805.69
376.319	768.69
376.545	776.69
376.771	763.69
376.997	768.69
377.222	772.69
377.448	755.69
377.674	764.69
377.899	744.69
378.125	744.69
378.35	762.69
378.576	751.69
378.802	756.69
379.027	752.69
379.253	744.69
379.478	747.69
379.704	755.69
379.929	736.69
380.155	767.69
380.38	755.69
380.606	756.69
380.831	728.69
381.057	752.69
381.282	784.69
381.507	764.69
381.733	766.69
381.958	761.69
382.184	791.69
382.409	804.69
382.634	795.69
382.86	812.69
383.085	830.69
383.31	852.69
383.535	856.69
383.761	877.69
383.986	877.69
384.211	877.69
384.436	889.69
384.662	917.69
384.887	923.69
385.112	924.69
385.337	936.69
385.562	914.69
385.787	928.69
386.013	939.69
386.238	940.69
386.463	905.69
386.688	957.69
386.913	920.69
387.138	932.69
387.363	948.69
387.588	923.69
387.813	901.69
388.038	913.69
388.263	903.69
388.488	938.69
388.713	924.69
388.938	917.69
389.163	892.69
389.387	903.69
389.612	890.69
389.837	923.69
390.062	901.69
390.287	885.69
390.512	900.69
390.736	918.69
390.961	929.69
391.186	943.69
391.411	953.69
391.636	1006.69
391.86	1012.69
392.085	1079.69
392.31	1018.69
392.534	1034.69
392.759	987.69
392.984	971.69
393.208	973.69
393.433	1001.69
393.658	973.69
393.882	968.69
394.107	1033.69
394.331	979.69
394.556	977.69
394.78	973.69
395.005	1000.69
395.229	954.69
395.454	996.69
395.678	1027.69
395.903	1030.69
396.127	1017.69
396.352	986.69
396.576	975.69
396.801	973.69
397.025	998.69
397.249	1009.69
397.474	1047.69
397.698	1045.69
397.922	1029.69
398.147	1017.69
398.371	1034.69
398.595	1091.69
398.82	1123.69
399.044	1208.69
399.268	1361.69
399.492	1546.69
399.717	1803.69
399.941	1771.69
400.165	1514.69
400.389	1393.69
400.613	1287.69
400.837	1239.69
401.062	1182.69
401.286	1148.69
401.51	1141.69
401.734	1158.69
401.958	1198.69
402.182	1157.69
402.406	1217.69
402.63	1214.69
402.854	1251.69
403.078	1259.69
403.302	1290.69
403.526	1347.69
403.75	1354.69
403.974	1359.69
404.198	1390.69
404.422	1421.69
404.645	1368.69
404.869	1345.69
405.093	1312.69
405.317	1273.69
405.541	1271.69
405.765	1250.69
405.988	1266.69
406.212	1279.69
406.436	1270.69
406.66	1288.69
406.883	1307.69
407.107	1433.69
407.331	1445.69
407.555	1503.69
407.778	1493.69
408.002	1465.69
408.226	1413.69
408.449	1387.69
408.673	1356.69
408.896	1321.69
409.12	1337.69
409.344	1327.69
409.567	1303.69
409.791	1328.69
410.014	1309.69
410.238	1339.69
410.461	1307.69
410.685	1252.69
410.908	1255.69
411.132	1238.69
411.355	1209.69
411.578	1208.69
411.802	1205.69
412.025	1223.69
412.249	1227.69
412.472	1229.69
412.695	1152.69
412.919	1179.69
413.142	1144.69
413.365	1153.69
413.589	1161.69
413.812	1145.69
414.035	1143.69
414.258	1129.69
414.482	1183.69
414.705	1192.69
414.928	1186.69
415.151	1199.69
415.374	1197.69
415.597	1198.69
415.821	1150.69
416.044	1115.69
416.267	1104.69
416.49	1113.69
416.713	1112.69
416.936	1125.69
417.159	1147.69
417.382	1111.69
417.605	1108.69
417.828	1143.69
418.051	1201.69
418.274	1168.69
418.497	1152.69
418.72	1185.69
418.943	1185.69
419.166	1252.69
419.389	1319.69
419.611	1299.69
419.834	1280.69
420.057	1246.69
420.28	1134.69
420.503	1151.69
420.726	1132.69
420.948	1125.69
421.171	1130.69
421.394	1168.69
421.617	1131.69
421.839	1159.69
422.062	1181.69
422.285	1159.69
422.507	1171.69
422.73	1176.69
422.953	1147.69
423.175	1228.69
423.398	1224.69
423.621	1221.69
423.843	1256.69
424.066	1243.69
424.288	1213.69
424.511	1191.69
424.733	1200.69
424.956	1179.69
425.178	1167.69
425.401	1180.69
425.623	1152.69
425.846	1131.69
426.068	1135.69
426.291	1105.69
426.513	1100.69
426.735	1096.69
426.958	1092.69
427.18	1045.69
427.402	1063.69
427.625	1059.69
427.847	1022.69
428.069	1042.69
428.292	1023.69
428.514	999.69
428.736	1006.69
428.958	1030.69
429.181	1007.69
429.403	998.69
429.625	1001.69
429.847	969.69
430.069	990.69
430.292	1011.69
430.514	972.69
430.736	1039.69
430.958	1019.69
431.18	990.69
431.402	960.69
431.624	1014.69
431.846	1029.69
432.068	1027.69
432.29	1036.69
432.512	1006.69
432.734	1033.69
432.956	1005.69
433.178	1051.69
433.4	1019.69
433.622	1021.69
433.844	1051.69
434.066	1044.69
434.287	1051.69
434.509	1092.69
434.731	1146.69
434.953	1171.69
435.175	1198.69
435.397	1136.69
435.618	1067.69
435.84	1051.69
436.062	1021.69
436.284	1019.69
436.505	1024.69
436.727	1051.69
436.949	1047.69
437.17	1033.69
437.392	1021.69
437.614	996.69
437.835	991.69
438.057	1006.69
438.278	982.69
438.5	1005.69
438.721	1006.69
438.943	988.69
439.165	980.69
439.386	987.69
439.608	999.69
439.829	1022.69
440.05	1047.69
440.272	1044.69
440.493	1003.69
440.715	1047.69
440.936	1059.69
441.158	1057.69
441.379	1077.69
441.6	1161.69
441.822	1157.69
442.043	1190.69
442.264	1150.69
442.486	1127.69
442.707	1137.69
442.928	1136.69
443.149	1125.69
443.371	1150.69
443.592	1153.69
443.813	1144.69
444.034	1166.69
444.255	1182.69
444.476	1258.69
444.698	1366.69
444.919	1409.69
445.14	1444.69
445.361	1286.69
445.582	1187.69
445.803	1108.69
446.024	1059.69
446.245	1082.69
446.466	1041.69
446.687	1047.69
446.908	1040.69
447.129	1021.69
447.35	999.69
447.571	979.69
447.792	959.69
448.013	974.69
448.234	969.69
448.455	964.69
448.675	957.69
448.896	936.69
449.117	967.69
449.338	945.69
449.559	927.69
449.779	913.69
450	913.69
450.221	958.69
450.442	943.69
450.662	939.69
450.883	956.69
451.104	947.69
451.324	973.69
451.545	969.69
451.766	941.69
451.986	960.69
452.207	955.69
452.428	928.69
452.648	912.69
452.869	915.69
453.089	936.69
453.31	928.69
453.53	918.69
453.751	913.69
453.971	909.69
454.192	910.69
454.412	921.69
454.633	912.69
454.853	868.69
455.073	883.69
455.294	905.69
455.514	879.69
455.734	909.69
455.955	896.69
456.175	862.69
456.395	869.69
456.616	874.69
456.836	874.69
457.056	888.69
457.276	841.69
457.497	879.69
457.717	884.69
457.937	889.69
458.157	895.69
458.377	914.69
458.598	914.69
458.818	951.69
459.038	995.69
459.258	1031.69
459.478	1027.69
459.698	1068.69
459.918	1110.69
460.138	1135.69
460.358	1177.69
460.578	1212.69
460.798	1231.69
461.018	1242.69
461.238	1187.69
461.458	1217.69
461.678	1164.69
461.898	1217.69
462.118	1233.69
462.338	1314.69
462.558	1307.69
462.777	1364.69
462.997	1513.69
463.217	1619.69
463.437	1688.69
463.657	1480.69
463.876	1451.69
464.096	1435.69
464.316	1428.69
464.536	1452.69
464.755	1351.69
464.975	1337.69
465.195	1247.69
465.414	1168.69
465.634	1088.69
465.854	1091.69
466.073	1070.69
466.293	1021.69
466.512	1007.69
466.732	947.69
466.951	999.69
467.171	997.69
467.391	1006.69
467.61	986.69
467.829	1023.69
468.049	972.69
468.268	947.69
468.488	923.69
468.707	916.69
468.927	935.69
469.146	924.69
469.365	923.69
469.585	945.69
469.804	981.69
470.023	973.69
470.243	1002.69
470.462	1024.69
470.681	998.69
470.901	1033.69
471.12	1011.69
471.339	976.69
471.558	979.69
471.777	952.69
471.997	940.69
472.216	940.69
472.435	917.69
472.654	904.69
472.873	909.69
473.092	894.69
473.311	908.69
473.53	896.69
473.749	903.69
473.968	930.69
474.187	889.69
474.406	883.69
474.625	878.69
474.844	909.69
475.063	889.69
475.282	933.69
475.501	894.69
475.72	921.69
475.939	931.69
476.158	922.69
476.377	957.69
476.596	925.69
476.814	930.69
477.033	954.69
477.252	979.69
477.471	989.69
477.69	1016.69
477.908	1067.69
478.127	1095.69
478.346	1087.69
478.564	1092.69
478.783	1095.69
479.002	1152.69
479.22	1159.69
479.439	1150.69
479.658	1143.69
479.876	1132.69
480.095	1156.69
480.313	1198.69
480.532	1248.69
480.751	1244.69
480.969	1162.69
481.188	1150.69
481.406	1105.69
481.624	1107.69
481.843	1065.69
482.061	1014.69
482.28	973.69
482.498	1008.69
482.717	1052.69
482.935	1036.69
483.153	1039.69
483.372	1023.69
483.59	996.69
483.808	1029.69
484.027	1002.69
484.245	1047.69
484.463	1002.69
484.681	1053.69
484.9	1074.69
485.118	1078.69
485.336	1062.69
485.554	1106.69
485.772	1101.69
485.99	1091.69
486.209	1126.69
486.427	1115.69
486.645	1116.69
486.863	1086.69
487.081	1075.69
487.299	1088.69
487.517	1115.69
487.735	1128.69
487.953	1081.69
488.171	1104.69
488.389	1104.69
488.607	1053.69
488.825	1076.69
489.043	1054.69
489.261	1071.69
489.479	1058.69
489.696	1095.69
489.914	1099.69
490.132	1065.69
490.35	1080.69
490.568	1069.69
490.786	1075.69
491.003	1063.69
491.221	1109.69
491.439	1121.69
491.657	1087.69
491.874	1120.69
492.092	1136.69
492.31	1106.69
492.527	1097.69
492.745	1121.69
492.963	1109.69
493.18	1127.69
493.398	1146.69
493.615	1157.69
493.833	1123.69
494.05	1162.69
494.268	1124.69
494.485	1165.69
494.703	1160.69
494.92	1153.69
495.138	1176.69
495.355	1118.69
495.573	1132.69
495.79	1157.69
496.008	1151.69
496.225	1169.69
496.442	1195.69
496.66	1185.69
496.877	1178.69
497.094	1252.69
497.312	1245.69
497.529	1291.69
497.746	1322.69
497.963	1388.69
498.181	1423.69
498.398	1459.69
498.615	1554.69
498.832	1664.69
499.049	1795.69
499.267	1936.69
499.484	2123.69
499.701	2366.69
499.918	2641.69
500.135	2980.69
500.352	3465.69
500.569	3629.69
500.786	3639.69
501.003	3344.69
501.22	2991.69
501.437	2603.69
501.654	2275.69
501.871	2105.69
502.088	1881.69
502.305	1769.69
502.522	1703.69
502.739	1648.69
502.956	1549.69
503.172	1454.69
503.389	1376.69
503.606	1358.69
503.823	1318.69
504.04	1304.69
504.256	1327.69
504.473	1393.69
504.69	1380.69
504.907	1400.69
505.123	1273.69
505.34	1211.69
505.557	1161.69
505.773	1139.69
505.99	1084.69
506.207	1086.69
506.423	1034.69
506.64	1049.69
506.856	1011.69
507.073	1028.69
507.289	1045.69
507.506	993.69
507.722	1025.69
507.939	1031.69
508.155	991.69
508.372	992.69
508.588	992.69
508.805	961.69
509.021	970.69
509.238	954.69
509.454	932.69
509.67	937.69
509.887	953.69
510.103	932.69
510.319	947.69
510.536	940.69
510.752	939.69
510.968	928.69
511.184	947.69
511.401	948.69
511.617	916.69
511.833	921.69
512.049	911.69
512.265	929.69
512.481	921.69
512.698	935.69
512.914	916.69
513.13	935.69
513.346	909.69
513.562	926.69
513.778	927.69
513.994	933.69
514.21	940.69
514.426	952.69
514.642	933.69
514.858	963.69
515.074	962.69
515.29	981.69
515.506	1004.69
515.721	982.69
515.937	1019.69
516.153	1008.69
516.369	1031.69
516.585	1102.69
516.801	1117.69
517.016	1105.69
517.232	1233.69
517.448	1237.69
517.664	1318.69
517.879	1328.69
518.095	1341.69
518.311	1300.69
518.527	1243.69
518.742	1169.69
518.958	1116.69
519.173	1069.69
519.389	1049.69
519.605	1021.69
519.82	978.69
520.036	997.69
520.251	979.69
520.467	922.69
520.682	929.69
520.898	940.69
521.113	943.69
521.329	910.69
521.544	892.69
521.76	903.69
521.975	905.69
522.19	893.69
522.406	894.69
522.621	887.69
522.836	877.69
523.052	885.69
523.267	855.69
523.482	870.69
523.698	873.69
523.913	882.69
524.128	856.69
524.343	857.69
524.559	837.69
524.774	853.69
524.989	838.69
525.204	815.69
525.419	821.69
525.634	836.69
525.849	848.69
526.064	845.69
526.28	811.69
526.495	852.69
526.71	843.69
526.925	824.69
527.14	846.69
527.355	845.69
527.57	823.69
527.785	851.69
527.999	839.69
528.214	848.69
528.429	833.69
528.644	868.69
528.859	846.69
529.074	842.69
529.289	851.69
529.503	848.69
529.718	859.69
529.933	837.69
530.148	837.69
530.363	829.69
530.577	832.69
530.792	858.69
531.007	832.69
531.221	859.69
531.436	840.69
531.651	859.69
531.865	861.69
532.08	839.69
532.295	854.69
532.509	846.69
532.724	848.69
532.938	853.69
533.153	830.69
533.367	841.69
533.582	842.69
533.796	821.69
534.011	837.69
534.225	851.69
534.44	807.69
534.654	798.69
534.868	809.69
535.083	811.69
535.297	798.69
535.511	816.69
535.726	820.69
535.94	809.69
536.154	809.69
536.369	793.69
536.583	775.69
536.797	773.69
537.011	802.69
537.225	783.69
537.44	761.69
537.654	777.69
537.868	779.69
538.082	738.69
538.296	731.69
538.51	776.69
538.724	756.69
538.938	762.69
539.153	766.69
539.367	751.69
539.581	762.69
539.795	751.69
540.009	745.69
540.222	762.69
540.436	765.69
540.65	755.69
540.864	746.69
541.078	760.69
541.292	767.69
541.506	769.69
541.72	764.69
541.934	734.69
542.147	733.69
542.361	771.69
542.575	736.69
542.789	739.69
543.002	744.69
543.216	735.69
543.43	740.69
543.644	747.69
543.857	748.69
544.071	779.69
544.285	763.69
544.498	760.69
544.712	777.69
544.925	749.69
545.139	770.69
545.352	771.69
545.566	772.69
545.779	742.69
545.993	795.69
546.206	780.69
546.42	769.69
546.633	774.69
546.847	748.69
547.06	746.69
547.274	756.69
547.487	777.69
547.7	755.69
547.914	789.69
548.127	780.69
548.34	786.69
548.554	763.69
548.767	777.69
548.98	805.69
549.193	755.69
549.407	785.69
549.62	759.69
549.833	787.69
550.046	808.69
550.259	793.69
550.473	771.69
550.686	752.69
550.899	752.69
551.112	748.69
551.325	742.69
551.538	739.69
551.751	745.69
551.964	732.69
552.177	771.69
552.39	793.69
552.603	764.69
552.816	791.69
553.029	804.69
553.242	812.69
553.455	843.69
553.667	875.69
553.88	853.69
554.093	805.69
554.306	793.69
554.519	785.69
554.732	771.69
554.944	752.69
555.157	741.69
555.37	725.69
555.583	718.69
555.795	730.69
556.008	684.69
556.221	694.69
556.433	669.69
556.646	658.69
556.859	670.69
557.071	673.69
557.284	638.69
557.496	661.69
557.709	641.69
557.921	649.69
558.134	657.69
558.346	636.69
558.559	635.69
558.771	631.69
558.984	649.69
559.196	649.69
559.409	643.69
559.621	637.69
559.833	633.69
560.046	619.69
560.258	620.69
560.47	629.69
560.683	617.69
560.895	623.69
561.107	608.69
561.32	618.69
561.532	635.69
561.744	640.69
561.956	635.69
562.168	608.69
562.381	603.69
562.593	628.69
562.805	632.69
563.017	657.69
563.229	622.69
563.441	621.69
563.653	641.69
563.865	632.69
564.077	638.69
564.289	660.69
564.501	679.69
564.713	679.69
564.925	694.69
565.137	727.69
565.349	702.69
565.561	737.69
565.773	747.69
565.985	785.69
566.197	803.69
566.408	884.69
566.62	989.69
566.832	1016.69
567.044	1061.69
567.255	1055.69
567.467	1085.69
567.679	1157.69
567.891	1232.69
568.102	1287.69
568.314	1227.69
568.526	1080.69
568.737	989.69
568.949	879.69
569.161	827.69
569.372	751.69
569.584	718.69
569.795	677.69
570.007	675.69
570.218	650.69
570.43	648.69
570.641	631.69
570.853	643.69
571.064	667.69
571.276	652.69
571.487	643.69
571.698	622.69
571.91	590.69
572.121	569.69
572.333	566.69
572.544	566.69
572.755	556.69
572.966	545.69
573.178	539.69
573.389	538.69
573.6	529.69
573.811	536.69
574.023	517.69
574.234	525.69
574.445	532.69
574.656	517.69
574.867	515.69
575.078	519.69
575.289	504.69
575.501	516.69
575.712	496.69
575.923	492.69
576.134	497.69
576.345	487.69
576.556	515.69
576.767	484.69
576.978	510.69
577.188	504.69
577.399	505.69
577.61	481.69
577.821	479.69
578.032	477.69
578.243	476.69
578.454	473.69
578.665	468.69
578.875	483.69
579.086	473.69
579.297	478.69
579.508	474.69
579.718	454.69
579.929	442.69
580.14	447.69
580.35	432.69
580.561	446.69
580.772	435.69
580.982	421.69
581.193	459.69
581.403	460.69
581.614	449.69
581.825	446.69
582.035	453.69
582.246	427.69
582.456	444.69
582.667	454.69
582.877	436.69
583.087	445.69
583.298	420.69
583.508	431.69
583.719	419.69
583.929	432.69
584.139	435.69
584.35	437.69
584.56	429.69
584.77	428.69
584.981	419.69
585.191	421.69
585.401	420.69
585.611	408.69
585.821	417.69
586.032	421.69
586.242	404.69
586.452	414.69
586.662	420.69
586.872	424.69
587.082	424.69
587.292	425.69
587.502	400.69
587.713	420.69
587.923	411.69
588.133	406.69
588.343	419.69
588.553	413.69
588.762	409.69
588.972	431.69
589.182	408.69
589.392	413.69
589.602	436.69
589.812	412.69
590.022	418.69
590.232	416.69
590.441	438.69
590.651	415.69
590.861	403.69
591.071	432.69
591.281	406.69
591.49	432.69
591.7	441.69
591.91	438.69
592.119	445.69
592.329	456.69
592.539	460.69
592.748	474.69
592.958	526.69
593.167	522.69
593.377	535.69
593.587	541.69
593.796	540.69
594.006	560.69
594.215	543.69
594.424	551.69
594.634	548.69
594.843	501.69
595.053	489.69
595.262	475.69
595.472	470.69
595.681	430.69
595.89	448.69
596.1	417.69
596.309	404.69
596.518	416.69
596.727	405.69
596.937	399.69
597.146	390.69
597.355	398.69
597.564	391.69
597.774	382.69
597.983	395.69
598.192	383.69
598.401	360.69
598.61	350.69
598.819	361.69
599.028	359.69
599.237	361.69
599.446	354.69
599.655	366.69
599.864	355.69
600.073	365.69
600.282	354.69
600.491	347.69
600.7	328.69
600.909	350.69
601.118	364.69
601.327	342.69
601.536	345.69
601.745	353.69
601.953	353.69
602.162	328.69
602.371	348.69
602.58	335.69
602.789	328.69
602.997	340.69
603.206	343.69
603.415	339.69
603.623	339.69
603.832	319.69
604.041	343.69
604.249	333.69
604.458	338.69
604.666	338.69
604.875	317.69
605.084	326.69
605.292	342.69
605.501	334.69
605.709	325.69
605.918	331.69
606.126	320.69
606.334	326.69
606.543	323.69
606.751	324.69
606.96	310.69
607.168	318.69
607.376	331.69
607.585	321.69
607.793	325.69
608.001	315.69
608.21	315.69
608.418	317.69
608.626	331.69
608.834	317.69
609.043	300.69
609.251	328.69
609.459	307.69
609.667	322.69
609.875	320.69
610.083	311.69
610.291	305.69
610.499	317.69
610.707	314.69
610.916	312.69
611.124	311.69
611.332	304.69
611.54	315.69
611.748	304.69
611.955	305.69
612.163	311.69
612.371	302.69
612.579	305.69
612.787	298.69
612.995	311.69
613.203	314.69
613.411	321.69
613.618	296.69
613.826	288.69
614.034	302.69
614.242	302.69
614.449	296.69
614.657	288.69
614.865	300.69
615.072	292.69
615.28	299.69
615.488	313.69
615.695	321.69
615.903	303.69
616.111	301.69
616.318	321.69
616.526	310.69
616.733	321.69
616.941	318.69
617.148	320.69
617.356	318.69
617.563	313.69
617.771	316.69
617.978	315.69
618.185	307.69
618.393	286.69
618.6	287.69
618.807	291.69
619.015	320.69
619.222	295.69
619.429	307.69
619.637	293.69
619.844	293.69
620.051	300.69
620.258	286.69
620.466	286.69
620.673	271.69
620.88	267.69
621.087	291.69
621.294	293.69
621.501	294.69
621.708	280.69
621.915	273.69
622.122	291.69
622.329	276.69
622.536	263.69
622.743	293.69
622.95	286.69
623.157	258.69
623.364	276.69
623.571	265.69
623.778	268.69
623.985	272.69
624.192	282.69
624.399	288.69
624.606	256.69
624.812	279.69
625.019	269.69
625.226	241.69
625.433	277.69
625.639	251.69
625.846	260.69
626.053	263.69
626.259	266.69
626.466	269.69
626.673	249.69
626.879	245.69
627.086	260.69
627.293	262.69
627.499	243.69
627.706	258.69
627.912	266.69
628.119	262.69
628.325	246.69
628.532	243.69
628.738	243.69
628.945	255.69
629.151	260.69
629.357	240.69
629.564	244.69
629.77	260.69
629.976	230.69
630.183	237.69
630.389	259.69
630.595	228.69
630.802	236.69
631.008	237.69
631.214	241.69
631.42	232.69
631.627	227.69
631.833	233.69
632.039	226.69
632.245	237.69
632.451	230.69
632.657	248.69
632.863	227.69
633.069	221.69
633.275	217.69
633.481	231.69
633.688	229.69
633.893	210.69
634.099	217.69
634.305	240.69
634.511	219.69
634.717	232.69
634.923	214.69
635.129	216.69
635.335	234.69
635.541	224.69
635.747	237.69
635.952	208.69
636.158	219.69
636.364	220.69
636.57	212.69
636.775	209.69
636.981	211.69
637.187	213.69
637.392	205.69
637.598	209.69
637.804	225.69
638.009	226.69
638.215	216.69
638.421	199.69
638.626	210.69
638.832	206.69
639.037	209.69
639.243	212.69
639.448	207.69
639.654	210.69
639.859	205.69
640.065	201.69
640.27	216.69
640.475	200.69
640.681	217.69
640.886	196.69
641.091	202.69
641.297	198.69
641.502	217.69
641.707	204.69
641.913	213.69
642.118	187.69
642.323	189.69
642.528	188.69
642.733	211.69
642.939	210.69
643.144	202.69
643.349	189.69
643.554	191.69
643.759	188.69
643.964	188.69
644.169	185.69
644.374	197.69
644.579	191.69
644.784	205.69
644.989	205.69
645.194	187.69
645.399	199.69
645.604	187.69
645.809	199.69
646.014	206.69
646.219	195.69
646.423	189.69
646.628	202.69
646.833	212.69
647.038	218.69
647.243	203.69
647.447	208.69
647.652	199.69
647.857	199.69
648.062	208.69
648.266	217.69
648.471	215.69
648.676	228.69
648.88	207.69
649.085	214.69
649.289	193.69
649.494	212.69
649.698	193.69
649.903	202.69
650.107	189.69
650.312	191.69
650.516	185.69
650.721	173.69
650.925	184.69
651.13	183.69
651.334	189.69
651.539	167.69
651.743	174.69
651.947	165.69
652.152	183.69
652.356	172.69
652.56	173.69
652.764	168.69
652.969	167.69
653.173	151.69
653.377	173.69
653.581	167.69
653.785	160.69
653.99	147.69
654.194	173.69
654.398	164.69
654.602	148.69
654.806	146.69
655.01	138.69
655.214	134.69
655.418	131.69
655.622	148.69
655.826	151.69
656.03	135.69
656.234	139.69
656.438	142.69
656.642	147.69
656.846	151.69
657.049	146.69
657.253	126.69
657.457	126.69
657.661	125.69
657.865	132.69
658.068	112.69
658.272	119.69
658.476	119.69
658.68	120.69
658.883	106.69
659.087	123.69
659.291	90.69
659.494	91.69
659.698	112.69
659.901	109.69
660.105	96.69
660.309	100.69
660.512	100.69
660.716	107.69
660.919	96.69
661.123	100.69
661.326	92.69
661.53	86.69
661.733	74.69
661.936	87.69
662.14	99.69
662.343	84.69
662.546	89.69
662.75	95.69
662.953	72.69
663.156	97.69
663.36	79.69
663.563	79.69
663.766	92.69
663.969	83.69
664.173	93.69
664.376	83.69
664.579	107.69
664.782	95.69
664.985	79.69
665.188	84.69
665.391	81.69
665.594	84.69
665.797	85.69
666	87.69
666.203	95.69
666.406	82.69
666.609	99.69
666.812	86.69
667.015	77.69
667.218	77.69
667.421	88.69
667.624	76.69
667.827	100.69
668.03	93.69
668.232	97.69
668.435	93.69
668.638	87.69
668.841	77.69
669.043	87.69
669.246	86.69
669.449	78.69
669.651	98.69
669.854	87.69
670.057	83.69
670.259	81.69
670.462	80.69
670.665	99.69
670.867	91.69
671.07	85.69
671.272	95.69
671.475	90.69
671.677	83.69
671.88	88.69
672.082	90.69
672.284	92.69
672.487	78.69
672.689	87.69
672.892	81.69
