Data from Ni(NO3)2Standard.Agarose3%.GreenCap.LampEnergy5.5.E.O_HRD10591_14-41-32-187.txt Node
Date: Mon Jul 22 14:41:32 EDT 2019
User: cochatt
Spectrometer: HR+D1059
Trigger mode: 1
Integration Time (sec): 1.000000E-1
Scans to average: 1
Electric dark correction enabled: true
Nonlinearity correction enabled: false
Boxcar width: 0
XAxis mode: Wavelengths
Number of Pixels in Spectrum: 2048
>>>>>Begin Spectral Data<<<<<
223.165	-5.31
223.4	-5.31
223.635	-5.31
223.869	-19.31
224.104	-8.31
224.338	-7.31
224.573	-14.31
224.808	-7.31
225.042	-16.31
225.277	-7.31
225.511	-13.31
225.746	1.69
225.98	-4.31
226.215	7.69
226.449	18.69
226.683	22.69
226.918	14.69
227.152	37.69
227.387	23.69
227.621	37.69
227.856	43.69
228.09	48.69
228.324	57.69
228.559	56.69
228.793	59.69
229.027	60.69
229.262	58.69
229.496	51.69
229.73	74.69
229.964	82.69
230.199	69.69
230.433	71.69
230.667	59.69
230.901	73.69
231.136	86.69
231.37	64.69
231.604	75.69
231.838	81.69
232.072	77.69
232.306	78.69
232.541	80.69
232.775	80.69
233.009	93.69
233.243	74.69
233.477	95.69
233.711	74.69
233.945	65.69
234.179	68.69
234.413	80.69
234.647	76.69
234.881	84.69
235.115	80.69
235.349	72.69
235.583	76.69
235.817	70.69
236.051	67.69
236.285	71.69
236.519	64.69
236.753	78.69
236.987	61.69
237.221	74.69
237.455	80.69
237.689	77.69
237.922	55.69
238.156	72.69
238.39	78.69
238.624	68.69
238.858	83.69
239.091	75.69
239.325	83.69
239.559	72.69
239.793	75.69
240.027	89.69
240.26	85.69
240.494	81.69
240.728	93.69
240.961	91.69
241.195	69.69
241.429	68.69
241.662	69.69
241.896	75.69
242.13	86.69
242.363	61.69
242.597	78.69
242.83	67.69
243.064	74.69
243.298	57.69
243.531	72.69
243.765	79.69
243.998	75.69
244.232	83.69
244.465	73.69
244.699	66.69
244.932	87.69
245.166	67.69
245.399	68.69
245.633	64.69
245.866	80.69
246.099	67.69
246.333	78.69
246.566	68.69
246.8	75.69
247.033	71.69
247.266	90.69
247.5	77.69
247.733	73.69
247.966	83.69
248.2	69.69
248.433	78.69
248.666	89.69
248.899	87.69
249.133	89.69
249.366	74.69
249.599	68.69
249.832	84.69
250.066	86.69
250.299	86.69
250.532	93.69
250.765	84.69
250.998	65.69
251.231	81.69
251.465	85.69
251.698	65.69
251.931	76.69
252.164	72.69
252.397	70.69
252.63	68.69
252.863	75.69
253.096	76.69
253.329	69.69
253.562	69.69
253.795	84.69
254.028	92.69
254.261	81.69
254.494	72.69
254.727	84.69
254.96	69.69
255.193	91.69
255.426	63.69
255.659	79.69
255.892	81.69
256.124	65.69
256.357	74.69
256.59	69.69
256.823	72.69
257.056	82.69
257.289	77.69
257.521	75.69
257.754	89.69
257.987	92.69
258.22	76.69
258.452	75.69
258.685	80.69
258.918	87.69
259.151	74.69
259.383	63.69
259.616	82.69
259.849	92.69
260.081	72.69
260.314	75.69
260.547	71.69
260.779	72.69
261.012	91.69
261.244	85.69
261.477	87.69
261.71	81.69
261.942	79.69
262.175	69.69
262.407	85.69
262.64	82.69
262.872	90.69
263.105	75.69
263.337	80.69
263.57	72.69
263.802	75.69
264.035	80.69
264.267	83.69
264.499	77.69
264.732	88.69
264.964	74.69
265.197	74.69
265.429	87.69
265.661	70.69
265.894	80.69
266.126	89.69
266.358	76.69
266.591	78.69
266.823	81.69
267.055	85.69
267.287	79.69
267.52	83.69
267.752	82.69
267.984	91.69
268.216	78.69
268.448	80.69
268.681	77.69
268.913	81.69
269.145	67.69
269.377	72.69
269.609	81.69
269.841	90.69
270.073	74.69
270.306	89.69
270.538	79.69
270.77	69.69
271.002	70.69
271.234	71.69
271.466	82.69
271.698	69.69
271.93	72.69
272.162	69.69
272.394	83.69
272.626	85.69
272.858	84.69
273.09	87.69
273.322	79.69
273.553	72.69
273.785	80.69
274.017	69.69
274.249	82.69
274.481	102.69
274.713	77.69
274.945	74.69
275.176	72.69
275.408	89.69
275.64	96.69
275.872	73.69
276.104	81.69
276.335	77.69
276.567	76.69
276.799	81.69
277.031	76.69
277.262	78.69
277.494	94.69
277.726	72.69
277.957	72.69
278.189	87.69
278.421	84.69
278.652	78.69
278.884	67.69
279.115	81.69
279.347	85.69
279.579	65.69
279.81	74.69
280.042	72.69
280.273	82.69
280.505	85.69
280.736	87.69
280.968	72.69
281.199	84.69
281.431	77.69
281.662	72.69
281.894	72.69
282.125	78.69
282.356	76.69
282.588	85.69
282.819	85.69
283.051	81.69
283.282	72.69
283.513	75.69
283.745	81.69
283.976	72.69
284.207	81.69
284.439	86.69
284.67	80.69
284.901	85.69
285.132	85.69
285.364	76.69
285.595	83.69
285.826	76.69
286.057	84.69
286.288	83.69
286.52	81.69
286.751	89.69
286.982	81.69
287.213	67.69
287.444	87.69
287.675	81.69
287.906	83.69
288.138	80.69
288.369	81.69
288.6	77.69
288.831	96.69
289.062	64.69
289.293	85.69
289.524	97.69
289.755	76.69
289.986	70.69
290.217	103.69
290.448	90.69
290.679	95.69
290.91	83.69
291.141	81.69
291.371	77.69
291.602	82.69
291.833	81.69
292.064	91.69
292.295	77.69
292.526	83.69
292.757	77.69
292.987	79.69
293.218	87.69
293.449	78.69
293.68	81.69
293.91	79.69
294.141	78.69
294.372	79.69
294.603	97.69
294.833	92.69
295.064	79.69
295.295	88.69
295.525	95.69
295.756	73.69
295.987	93.69
296.217	79.69
296.448	97.69
296.679	88.69
296.909	90.69
297.14	88.69
297.37	84.69
297.601	77.69
297.831	71.69
298.062	86.69
298.292	80.69
298.523	88.69
298.753	80.69
298.984	84.69
299.214	79.69
299.445	92.69
299.675	79.69
299.905	86.69
300.136	91.69
300.366	79.69
300.597	84.69
300.827	89.69
301.057	86.69
301.288	90.69
301.518	86.69
301.748	86.69
301.979	82.69
302.209	67.69
302.439	82.69
302.669	76.69
302.9	84.69
303.13	75.69
303.36	81.69
303.59	84.69
303.82	83.69
304.051	76.69
304.281	92.69
304.511	83.69
304.741	98.69
304.971	86.69
305.201	86.69
305.431	84.69
305.661	95.69
305.891	81.69
306.121	83.69
306.352	92.69
306.582	76.69
306.812	86.69
307.042	92.69
307.272	82.69
307.502	72.69
307.731	86.69
307.961	102.69
308.191	98.69
308.421	78.69
308.651	80.69
308.881	100.69
309.111	82.69
309.341	71.69
309.571	87.69
309.8	81.69
310.03	57.69
310.26	70.69
310.49	77.69
310.72	87.69
310.949	90.69
311.179	81.69
311.409	97.69
311.639	82.69
311.868	84.69
312.098	82.69
312.328	81.69
312.557	96.69
312.787	88.69
313.017	84.69
313.246	100.69
313.476	99.69
313.706	74.69
313.935	81.69
314.165	61.69
314.394	91.69
314.624	83.69
314.853	78.69
315.083	74.69
315.312	75.69
315.542	77.69
315.771	76.69
316.001	75.69
316.23	78.69
316.46	73.69
316.689	75.69
316.919	71.69
317.148	100.69
317.377	88.69
317.607	84.69
317.836	70.69
318.065	76.69
318.295	88.69
318.524	87.69
318.753	91.69
318.983	97.69
319.212	97.69
319.441	78.69
319.67	91.69
319.9	81.69
320.129	91.69
320.358	83.69
320.587	87.69
320.816	77.69
321.046	106.69
321.275	92.69
321.504	76.69
321.733	98.69
321.962	77.69
322.191	70.69
322.42	93.69
322.649	95.69
322.878	89.69
323.108	86.69
323.337	85.69
323.566	87.69
323.795	86.69
324.024	99.69
324.253	81.69
324.482	88.69
324.71	103.69
324.939	97.69
325.168	77.69
325.397	89.69
325.626	91.69
325.855	75.69
326.084	67.69
326.313	90.69
326.542	84.69
326.77	77.69
326.999	90.69
327.228	88.69
327.457	84.69
327.686	85.69
327.914	102.69
328.143	84.69
328.372	80.69
328.6	86.69
328.829	91.69
329.058	89.69
329.287	99.69
329.515	83.69
329.744	86.69
329.972	80.69
330.201	89.69
330.43	77.69
330.658	76.69
330.887	88.69
331.115	80.69
331.344	90.69
331.572	92.69
331.801	80.69
332.03	91.69
332.258	104.69
332.486	85.69
332.715	92.69
332.943	83.69
333.172	82.69
333.4	86.69
333.629	87.69
333.857	89.69
334.085	87.69
334.314	76.69
334.542	81.69
334.771	85.69
334.999	76.69
335.227	75.69
335.455	90.69
335.684	96.69
335.912	73.69
336.14	78.69
336.369	78.69
336.597	78.69
336.825	84.69
337.053	80.69
337.281	72.69
337.51	91.69
337.738	79.69
337.966	92.69
338.194	85.69
338.422	88.69
338.65	83.69
338.878	81.69
339.106	73.69
339.334	87.69
339.562	88.69
339.79	82.69
340.018	103.69
340.246	77.69
340.474	88.69
340.702	94.69
340.93	89.69
341.158	93.69
341.386	96.69
341.614	78.69
341.842	93.69
342.07	78.69
342.298	83.69
342.526	72.69
342.754	76.69
342.981	78.69
343.209	86.69
343.437	96.69
343.665	95.69
343.893	85.69
344.12	85.69
344.348	82.69
344.576	79.69
344.804	75.69
345.031	87.69
345.259	95.69
345.487	91.69
345.714	83.69
345.942	97.69
346.17	85.69
346.397	90.69
346.625	77.69
346.853	91.69
347.08	84.69
347.308	80.69
347.535	75.69
347.763	77.69
347.99	77.69
348.218	91.69
348.445	80.69
348.673	77.69
348.9	87.69
349.128	93.69
349.355	84.69
349.583	80.69
349.81	82.69
350.037	93.69
350.265	96.69
350.492	87.69
350.72	85.69
350.947	96.69
351.174	84.69
351.402	87.69
351.629	90.69
351.856	86.69
352.083	94.69
352.311	91.69
352.538	82.69
352.765	89.69
352.992	79.69
353.22	67.69
353.447	85.69
353.674	91.69
353.901	81.69
354.128	100.69
354.355	97.69
354.583	82.69
354.81	90.69
355.037	78.69
355.264	98.69
355.491	90.69
355.718	83.69
355.945	99.69
356.172	86.69
356.399	77.69
356.626	77.69
356.853	82.69
357.08	91.69
357.307	98.69
357.534	93.69
357.761	91.69
357.988	82.69
358.215	100.69
358.441	85.69
358.668	81.69
358.895	89.69
359.122	75.69
359.349	88.69
359.576	82.69
359.802	86.69
360.029	85.69
360.256	92.69
360.483	85.69
360.709	73.69
360.936	78.69
361.163	85.69
361.39	86.69
361.616	93.69
361.843	62.69
362.07	83.69
362.296	94.69
362.523	79.69
362.749	78.69
362.976	83.69
363.203	93.69
363.429	93.69
363.656	88.69
363.882	93.69
364.109	83.69
364.335	74.69
364.562	76.69
364.788	94.69
365.015	89.69
365.241	79.69
365.468	80.69
365.694	88.69
365.92	87.69
366.147	92.69
366.373	82.69
366.599	82.69
366.826	79.69
367.052	81.69
367.278	91.69
367.505	97.69
367.731	91.69
367.957	94.69
368.184	83.69
368.41	80.69
368.636	84.69
368.862	72.69
369.089	89.69
369.315	92.69
369.541	75.69
369.767	84.69
369.993	77.69
370.219	91.69
370.445	83.69
370.672	93.69
370.898	95.69
371.124	81.69
371.35	85.69
371.576	66.69
371.802	83.69
372.028	87.69
372.254	87.69
372.48	78.69
372.706	85.69
372.932	75.69
373.158	73.69
373.384	99.69
373.61	73.69
373.835	87.69
374.061	90.69
374.287	82.69
374.513	92.69
374.739	96.69
374.965	86.69
375.191	98.69
375.416	84.69
375.642	84.69
375.868	80.69
376.094	95.69
376.319	77.69
376.545	87.69
376.771	69.69
376.997	63.69
377.222	81.69
377.448	76.69
377.674	83.69
377.899	92.69
378.125	97.69
378.35	87.69
378.576	79.69
378.802	86.69
379.027	85.69
379.253	91.69
379.478	81.69
379.704	97.69
379.929	95.69
380.155	90.69
380.38	79.69
380.606	78.69
380.831	86.69
381.057	89.69
381.282	90.69
381.507	85.69
381.733	91.69
381.958	97.69
382.184	89.69
382.409	88.69
382.634	89.69
382.86	93.69
383.085	96.69
383.31	76.69
383.535	92.69
383.761	80.69
383.986	91.69
384.211	86.69
384.436	95.69
384.662	87.69
384.887	80.69
385.112	78.69
385.337	91.69
385.562	83.69
385.787	85.69
386.013	80.69
386.238	86.69
386.463	80.69
386.688	80.69
386.913	76.69
387.138	68.69
387.363	76.69
387.588	91.69
387.813	75.69
388.038	75.69
388.263	77.69
388.488	73.69
388.713	79.69
388.938	80.69
389.163	88.69
389.387	80.69
389.612	80.69
389.837	95.69
390.062	73.69
390.287	94.69
390.512	83.69
390.736	80.69
390.961	87.69
391.186	86.69
391.411	83.69
391.636	88.69
391.86	87.69
392.085	89.69
392.31	91.69
392.534	80.69
392.759	75.69
392.984	91.69
393.208	82.69
393.433	100.69
393.658	79.69
393.882	87.69
394.107	74.69
394.331	97.69
394.556	74.69
394.78	77.69
395.005	78.69
395.229	92.69
395.454	82.69
395.678	90.69
395.903	77.69
396.127	67.69
396.352	91.69
396.576	85.69
396.801	77.69
397.025	95.69
397.249	90.69
397.474	89.69
397.698	77.69
397.922	82.69
398.147	94.69
398.371	94.69
398.595	84.69
398.82	95.69
399.044	104.69
399.268	101.69
399.492	93.69
399.717	105.69
399.941	91.69
400.165	90.69
400.389	87.69
400.613	92.69
400.837	86.69
401.062	66.69
401.286	79.69
401.51	85.69
401.734	77.69
401.958	83.69
402.182	83.69
402.406	96.69
402.63	93.69
402.854	75.69
403.078	79.69
403.302	81.69
403.526	85.69
403.75	100.69
403.974	74.69
404.198	79.69
404.422	93.69
404.645	89.69
404.869	89.69
405.093	85.69
405.317	72.69
405.541	91.69
405.765	86.69
405.988	93.69
406.212	87.69
406.436	79.69
406.66	91.69
406.883	74.69
407.107	77.69
407.331	92.69
407.555	83.69
407.778	89.69
408.002	97.69
408.226	87.69
408.449	79.69
408.673	96.69
408.896	85.69
409.12	87.69
409.344	94.69
409.567	83.69
409.791	76.69
410.014	91.69
410.238	76.69
410.461	87.69
410.685	85.69
410.908	67.69
411.132	81.69
411.355	77.69
411.578	87.69
411.802	97.69
412.025	91.69
412.249	79.69
412.472	80.69
412.695	80.69
412.919	90.69
413.142	76.69
413.365	85.69
413.589	94.69
413.812	79.69
414.035	111.69
414.258	95.69
414.482	75.69
414.705	81.69
414.928	93.69
415.151	98.69
415.374	94.69
415.597	88.69
415.821	84.69
416.044	92.69
416.267	82.69
416.49	84.69
416.713	101.69
416.936	92.69
417.159	76.69
417.382	84.69
417.605	93.69
417.828	94.69
418.051	90.69
418.274	96.69
418.497	104.69
418.72	80.69
418.943	66.69
419.166	86.69
419.389	78.69
419.611	88.69
419.834	92.69
420.057	95.69
420.28	92.69
420.503	90.69
420.726	92.69
420.948	87.69
421.171	85.69
421.394	97.69
421.617	81.69
421.839	75.69
422.062	83.69
422.285	76.69
422.507	89.69
422.73	83.69
422.953	81.69
423.175	81.69
423.398	93.69
423.621	91.69
423.843	82.69
424.066	98.69
424.288	88.69
424.511	81.69
424.733	79.69
424.956	72.69
425.178	73.69
425.401	98.69
425.623	84.69
425.846	79.69
426.068	83.69
426.291	77.69
426.513	78.69
426.735	82.69
426.958	96.69
427.18	78.69
427.402	95.69
427.625	91.69
427.847	94.69
428.069	104.69
428.292	83.69
428.514	83.69
428.736	92.69
428.958	83.69
429.181	85.69
429.403	78.69
429.625	88.69
429.847	74.69
430.069	85.69
430.292	92.69
430.514	89.69
430.736	94.69
430.958	83.69
431.18	89.69
431.402	88.69
431.624	111.69
431.846	79.69
432.068	85.69
432.29	81.69
432.512	83.69
432.734	75.69
432.956	90.69
433.178	84.69
433.4	92.69
433.622	88.69
433.844	83.69
434.066	87.69
434.287	98.69
434.509	83.69
434.731	100.69
434.953	85.69
435.175	89.69
435.397	80.69
435.618	80.69
435.84	81.69
436.062	92.69
436.284	89.69
436.505	90.69
436.727	88.69
436.949	81.69
437.17	100.69
437.392	76.69
437.614	80.69
437.835	86.69
438.057	79.69
438.278	77.69
438.5	85.69
438.721	94.69
438.943	87.69
439.165	79.69
439.386	97.69
439.608	96.69
439.829	97.69
440.05	96.69
440.272	95.69
440.493	90.69
440.715	93.69
440.936	102.69
441.158	97.69
441.379	85.69
441.6	81.69
441.822	89.69
442.043	73.69
442.264	79.69
442.486	81.69
442.707	70.69
442.928	83.69
443.149	86.69
443.371	97.69
443.592	84.69
443.813	82.69
444.034	91.69
444.255	83.69
444.476	82.69
444.698	75.69
444.919	74.69
445.14	187.69
445.361	136.69
445.582	88.69
445.803	82.69
446.024	75.69
446.245	80.69
446.466	82.69
446.687	82.69
446.908	82.69
447.129	85.69
447.35	87.69
447.571	96.69
447.792	82.69
448.013	80.69
448.234	69.69
448.455	92.69
448.675	84.69
448.896	81.69
449.117	86.69
449.338	79.69
449.559	88.69
449.779	88.69
450	91.69
450.221	75.69
450.442	84.69
450.662	91.69
450.883	72.69
451.104	83.69
451.324	77.69
451.545	78.69
451.766	77.69
451.986	74.69
452.207	83.69
452.428	79.69
452.648	88.69
452.869	87.69
453.089	77.69
453.31	74.69
453.53	103.69
453.751	82.69
453.971	79.69
454.192	85.69
454.412	87.69
454.633	82.69
454.853	83.69
455.073	85.69
455.294	90.69
455.514	79.69
455.734	75.69
455.955	85.69
456.175	67.69
456.395	84.69
456.616	70.69
456.836	89.69
457.056	102.69
457.276	87.69
457.497	70.69
457.717	85.69
457.937	78.69
458.157	81.69
458.377	90.69
458.598	95.69
458.818	88.69
459.038	90.69
459.258	89.69
459.478	85.69
459.698	93.69
459.918	79.69
460.138	94.69
460.358	84.69
460.578	88.69
460.798	87.69
461.018	83.69
461.238	91.69
461.458	91.69
461.678	77.69
461.898	80.69
462.118	83.69
462.338	93.69
462.558	97.69
462.777	76.69
462.997	85.69
463.217	88.69
463.437	76.69
463.657	81.69
463.876	96.69
464.096	87.69
464.316	100.69
464.536	78.69
464.755	88.69
464.975	81.69
465.195	80.69
465.414	96.69
465.634	92.69
465.854	98.69
466.073	87.69
466.293	87.69
466.512	85.69
466.732	99.69
466.951	89.69
467.171	68.69
467.391	77.69
467.61	102.69
467.829	88.69
468.049	82.69
468.268	87.69
468.488	81.69
468.707	85.69
468.927	84.69
469.146	84.69
469.365	85.69
469.585	87.69
469.804	85.69
470.023	92.69
470.243	73.69
470.462	94.69
470.681	77.69
470.901	91.69
471.12	100.69
471.339	102.69
471.558	90.69
471.777	84.69
471.997	88.69
472.216	86.69
472.435	76.69
472.654	91.69
472.873	92.69
473.092	81.69
473.311	77.69
473.53	90.69
473.749	67.69
473.968	89.69
474.187	87.69
474.406	83.69
474.625	79.69
474.844	72.69
475.063	75.69
475.282	76.69
475.501	83.69
475.72	87.69
475.939	74.69
476.158	91.69
476.377	80.69
476.596	99.69
476.814	89.69
477.033	90.69
477.252	76.69
477.471	84.69
477.69	94.69
477.908	85.69
478.127	91.69
478.346	107.69
478.564	92.69
478.783	107.69
479.002	87.69
479.22	83.69
479.439	82.69
479.658	93.69
479.876	82.69
480.095	90.69
480.313	101.69
480.532	93.69
480.751	94.69
480.969	89.69
481.188	83.69
481.406	95.69
481.624	82.69
481.843	89.69
482.061	90.69
482.28	80.69
482.498	101.69
482.717	81.69
482.935	78.69
483.153	99.69
483.372	92.69
483.59	99.69
483.808	91.69
484.027	96.69
484.245	104.69
484.463	86.69
484.681	93.69
484.9	94.69
485.118	79.69
485.336	73.69
485.554	77.69
485.772	84.69
485.99	89.69
486.209	115.69
486.427	82.69
486.645	95.69
486.863	88.69
487.081	87.69
487.299	87.69
487.517	84.69
487.735	100.69
487.953	99.69
488.171	95.69
488.389	117.69
488.607	90.69
488.825	104.69
489.043	108.69
489.261	83.69
489.479	92.69
489.696	90.69
489.914	93.69
490.132	93.69
490.35	91.69
490.568	95.69
490.786	108.69
491.003	89.69
491.221	95.69
491.439	98.69
491.657	111.69
491.874	95.69
492.092	89.69
492.31	85.69
492.527	96.69
492.745	87.69
492.963	92.69
493.18	95.69
493.398	90.69
493.615	98.69
493.833	93.69
494.05	95.69
494.268	102.69
494.485	94.69
494.703	98.69
494.92	93.69
495.138	94.69
495.355	85.69
495.573	93.69
495.79	90.69
496.008	96.69
496.225	87.69
496.442	85.69
496.66	103.69
496.877	85.69
497.094	91.69
497.312	92.69
497.529	89.69
497.746	86.69
497.963	78.69
498.181	99.69
498.398	99.69
498.615	98.69
498.832	91.69
499.049	104.69
499.267	105.69
499.484	102.69
499.701	108.69
499.918	109.69
500.135	96.69
500.352	119.69
500.569	105.69
500.786	117.69
501.003	121.69
501.22	117.69
501.437	91.69
501.654	95.69
501.871	102.69
502.088	110.69
502.305	97.69
502.522	103.69
502.739	99.69
502.956	84.69
503.172	97.69
503.389	87.69
503.606	95.69
503.823	85.69
504.04	103.69
504.256	99.69
504.473	85.69
504.69	87.69
504.907	95.69
505.123	86.69
505.34	105.69
505.557	86.69
505.773	99.69
505.99	107.69
506.207	92.69
506.423	94.69
506.64	76.69
506.856	85.69
507.073	97.69
507.289	79.69
507.506	74.69
507.722	87.69
507.939	77.69
508.155	99.69
508.372	98.69
508.588	107.69
508.805	96.69
509.021	81.69
509.238	86.69
509.454	90.69
509.67	88.69
509.887	83.69
510.103	81.69
510.319	86.69
510.536	92.69
510.752	89.69
510.968	75.69
511.184	81.69
511.401	86.69
511.617	101.69
511.833	91.69
512.049	75.69
512.265	90.69
512.481	91.69
512.698	100.69
512.914	101.69
513.13	89.69
513.346	91.69
513.562	92.69
513.778	97.69
513.994	102.69
514.21	78.69
514.426	98.69
514.642	80.69
514.858	85.69
515.074	90.69
515.29	100.69
515.506	87.69
515.721	99.69
515.937	80.69
516.153	91.69
516.369	93.69
516.585	95.69
516.801	97.69
517.016	91.69
517.232	91.69
517.448	92.69
517.664	99.69
517.879	103.69
518.095	88.69
518.311	90.69
518.527	90.69
518.742	81.69
518.958	82.69
519.173	85.69
519.389	89.69
519.605	90.69
519.82	91.69
520.036	83.69
520.251	90.69
520.467	82.69
520.682	88.69
520.898	71.69
521.113	89.69
521.329	99.69
521.544	96.69
521.76	86.69
521.975	86.69
522.19	80.69
522.406	103.69
522.621	78.69
522.836	85.69
523.052	89.69
523.267	93.69
523.482	91.69
523.698	84.69
523.913	86.69
524.128	96.69
524.343	84.69
524.559	90.69
524.774	97.69
524.989	91.69
525.204	92.69
525.419	88.69
525.634	90.69
525.849	100.69
526.064	97.69
526.28	101.69
526.495	81.69
526.71	78.69
526.925	85.69
527.14	102.69
527.355	91.69
527.57	91.69
527.785	94.69
527.999	73.69
528.214	81.69
528.429	98.69
528.644	77.69
528.859	94.69
529.074	92.69
529.289	96.69
529.503	90.69
529.718	82.69
529.933	84.69
530.148	92.69
530.363	99.69
530.577	82.69
530.792	92.69
531.007	91.69
531.221	85.69
531.436	87.69
531.651	87.69
531.865	83.69
532.08	82.69
532.295	92.69
532.509	89.69
532.724	72.69
532.938	87.69
533.153	89.69
533.367	88.69
533.582	83.69
533.796	83.69
534.011	83.69
534.225	86.69
534.44	88.69
534.654	94.69
534.868	92.69
535.083	90.69
535.297	91.69
535.511	98.69
535.726	80.69
535.94	91.69
536.154	79.69
536.369	82.69
536.583	86.69
536.797	103.69
537.011	95.69
537.225	99.69
537.44	86.69
537.654	90.69
537.868	78.69
538.082	93.69
538.296	83.69
538.51	88.69
538.724	92.69
538.938	98.69
539.153	91.69
539.367	92.69
539.581	81.69
539.795	77.69
540.009	80.69
540.222	95.69
540.436	94.69
540.65	90.69
540.864	70.69
541.078	87.69
541.292	96.69
541.506	87.69
541.72	97.69
541.934	80.69
542.147	98.69
542.361	93.69
542.575	77.69
542.789	84.69
543.002	89.69
543.216	76.69
543.43	99.69
543.644	89.69
543.857	84.69
544.071	88.69
544.285	76.69
544.498	101.69
544.712	89.69
544.925	90.69
545.139	95.69
545.352	96.69
545.566	83.69
545.779	101.69
545.993	87.69
546.206	98.69
546.42	85.69
546.633	75.69
546.847	82.69
547.06	100.69
547.274	107.69
547.487	94.69
547.7	97.69
547.914	85.69
548.127	89.69
548.34	90.69
548.554	84.69
548.767	94.69
548.98	98.69
549.193	84.69
549.407	79.69
549.62	87.69
549.833	93.69
550.046	91.69
550.259	68.69
550.473	89.69
550.686	92.69
550.899	95.69
551.112	93.69
551.325	92.69
551.538	84.69
551.751	91.69
551.964	101.69
552.177	83.69
552.39	77.69
552.603	94.69
552.816	83.69
553.029	105.69
553.242	104.69
553.455	92.69
553.667	90.69
553.88	88.69
554.093	68.69
554.306	92.69
554.519	97.69
554.732	84.69
554.944	98.69
555.157	87.69
555.37	96.69
555.583	85.69
555.795	97.69
556.008	86.69
556.221	82.69
556.433	88.69
556.646	97.69
556.859	92.69
557.071	73.69
557.284	83.69
557.496	87.69
557.709	88.69
557.921	85.69
558.134	93.69
558.346	91.69
558.559	81.69
558.771	88.69
558.984	98.69
559.196	92.69
559.409	106.69
559.621	68.69
559.833	82.69
560.046	90.69
560.258	82.69
560.47	93.69
560.683	92.69
560.895	78.69
561.107	81.69
561.32	77.69
561.532	80.69
561.744	88.69
561.956	87.69
562.168	93.69
562.381	85.69
562.593	82.69
562.805	72.69
563.017	97.69
563.229	102.69
563.441	88.69
563.653	86.69
563.865	98.69
564.077	87.69
564.289	83.69
564.501	105.69
564.713	90.69
564.925	84.69
565.137	89.69
565.349	79.69
565.561	93.69
565.773	86.69
565.985	79.69
566.197	99.69
566.408	87.69
566.62	80.69
566.832	84.69
567.044	95.69
567.255	85.69
567.467	88.69
567.679	92.69
567.891	85.69
568.102	96.69
568.314	90.69
568.526	89.69
568.737	69.69
568.949	87.69
569.161	81.69
569.372	89.69
569.584	90.69
569.795	96.69
570.007	87.69
570.218	72.69
570.43	83.69
570.641	67.69
570.853	84.69
571.064	92.69
571.276	80.69
571.487	84.69
571.698	70.69
571.91	103.69
572.121	85.69
572.333	95.69
572.544	87.69
572.755	83.69
572.966	77.69
573.178	92.69
573.389	92.69
573.6	81.69
573.811	83.69
574.023	81.69
574.234	95.69
574.445	88.69
574.656	92.69
574.867	89.69
575.078	85.69
575.289	84.69
575.501	95.69
575.712	91.69
575.923	98.69
576.134	91.69
576.345	97.69
576.556	88.69
576.767	91.69
576.978	99.69
577.188	82.69
577.399	87.69
577.61	79.69
577.821	77.69
578.032	99.69
578.243	89.69
578.454	91.69
578.665	77.69
578.875	70.69
579.086	73.69
579.297	76.69
579.508	92.69
579.718	77.69
579.929	95.69
580.14	87.69
580.35	72.69
580.561	73.69
580.772	82.69
580.982	92.69
581.193	99.69
581.403	87.69
581.614	94.69
581.825	82.69
582.035	87.69
582.246	99.69
582.456	93.69
582.667	79.69
582.877	89.69
583.087	104.69
583.298	80.69
583.508	79.69
583.719	76.69
583.929	77.69
584.139	75.69
584.35	88.69
584.56	87.69
584.77	86.69
584.981	93.69
585.191	92.69
585.401	85.69
585.611	89.69
585.821	85.69
586.032	101.69
586.242	79.69
586.452	67.69
586.662	87.69
586.872	84.69
587.082	78.69
587.292	85.69
587.502	94.69
587.713	83.69
587.923	77.69
588.133	80.69
588.343	73.69
588.553	73.69
588.762	98.69
588.972	83.69
589.182	81.69
589.392	87.69
589.602	89.69
589.812	100.69
590.022	83.69
590.232	92.69
590.441	80.69
590.651	66.69
590.861	75.69
591.071	87.69
591.281	90.69
591.49	76.69
591.7	86.69
591.91	87.69
592.119	81.69
592.329	76.69
592.539	94.69
592.748	86.69
592.958	85.69
593.167	80.69
593.377	83.69
593.587	96.69
593.796	79.69
594.006	82.69
594.215	81.69
594.424	67.69
594.634	82.69
594.843	83.69
595.053	73.69
595.262	83.69
595.472	89.69
595.681	77.69
595.89	83.69
596.1	86.69
596.309	94.69
596.518	79.69
596.727	85.69
596.937	88.69
597.146	90.69
597.355	90.69
597.564	87.69
597.774	79.69
597.983	85.69
598.192	91.69
598.401	84.69
598.61	68.69
598.819	97.69
599.028	97.69
599.237	86.69
599.446	96.69
599.655	97.69
599.864	96.69
600.073	94.69
600.282	78.69
600.491	74.69
600.7	73.69
600.909	83.69
601.118	88.69
601.327	82.69
601.536	87.69
601.745	100.69
601.953	89.69
602.162	77.69
602.371	72.69
602.58	81.69
602.789	76.69
602.997	78.69
603.206	88.69
603.415	82.69
603.623	84.69
603.832	82.69
604.041	92.69
604.249	88.69
604.458	82.69
604.666	75.69
604.875	82.69
605.084	87.69
605.292	94.69
605.501	83.69
605.709	85.69
605.918	102.69
606.126	95.69
606.334	77.69
606.543	78.69
606.751	78.69
606.96	90.69
607.168	81.69
607.376	77.69
607.585	82.69
607.793	91.69
608.001	82.69
608.21	88.69
608.418	71.69
608.626	80.69
608.834	81.69
609.043	86.69
609.251	82.69
609.459	93.69
609.667	81.69
609.875	81.69
610.083	91.69
610.291	74.69
610.499	88.69
610.707	95.69
610.916	79.69
611.124	108.69
611.332	97.69
611.54	78.69
611.748	78.69
611.955	86.69
612.163	83.69
612.371	80.69
612.579	74.69
612.787	93.69
612.995	76.69
613.203	96.69
613.411	75.69
613.618	88.69
613.826	76.69
614.034	97.69
614.242	75.69
614.449	76.69
614.657	80.69
614.865	86.69
615.072	77.69
615.28	92.69
615.488	77.69
615.695	87.69
615.903	102.69
616.111	76.69
616.318	94.69
616.526	78.69
616.733	72.69
616.941	97.69
617.148	98.69
617.356	90.69
617.563	83.69
617.771	80.69
617.978	76.69
618.185	75.69
618.393	84.69
618.6	84.69
618.807	66.69
619.015	79.69
619.222	87.69
619.429	82.69
619.637	88.69
619.844	85.69
620.051	78.69
620.258	80.69
620.466	79.69
620.673	68.69
620.88	89.69
621.087	82.69
621.294	79.69
621.501	88.69
621.708	83.69
621.915	82.69
622.122	77.69
622.329	83.69
622.536	87.69
622.743	90.69
622.95	82.69
623.157	84.69
623.364	84.69
623.571	80.69
623.778	86.69
623.985	88.69
624.192	91.69
624.399	83.69
624.606	99.69
624.812	77.69
625.019	83.69
625.226	74.69
625.433	82.69
625.639	66.69
625.846	81.69
626.053	71.69
626.259	76.69
626.466	97.69
626.673	84.69
626.879	92.69
627.086	76.69
627.293	83.69
627.499	86.69
627.706	87.69
627.912	76.69
628.119	83.69
628.325	89.69
628.532	70.69
628.738	77.69
628.945	85.69
629.151	73.69
629.357	81.69
629.564	88.69
629.77	84.69
629.976	75.69
630.183	83.69
630.389	83.69
630.595	87.69
630.802	88.69
631.008	78.69
631.214	88.69
631.42	88.69
631.627	69.69
631.833	84.69
632.039	84.69
632.245	85.69
632.451	93.69
632.657	83.69
632.863	83.69
633.069	75.69
633.275	75.69
633.481	81.69
633.688	82.69
633.893	84.69
634.099	85.69
634.305	80.69
634.511	89.69
634.717	77.69
634.923	77.69
635.129	78.69
635.335	90.69
635.541	81.69
635.747	91.69
635.952	83.69
636.158	77.69
636.364	90.69
636.57	76.69
636.775	83.69
636.981	91.69
637.187	90.69
637.392	77.69
637.598	84.69
637.804	74.69
638.009	77.69
638.215	81.69
638.421	79.69
638.626	81.69
638.832	80.69
639.037	81.69
639.243	84.69
639.448	80.69
639.654	81.69
639.859	91.69
640.065	87.69
640.27	95.69
640.475	76.69
640.681	82.69
640.886	83.69
641.091	79.69
641.297	78.69
641.502	69.69
641.707	96.69
641.913	89.69
642.118	88.69
642.323	81.69
642.528	95.69
642.733	78.69
642.939	71.69
643.144	88.69
643.349	87.69
643.554	80.69
643.759	74.69
643.964	73.69
644.169	87.69
644.374	91.69
644.579	67.69
644.784	82.69
644.989	81.69
645.194	87.69
645.399	89.69
645.604	88.69
645.809	81.69
646.014	76.69
646.219	75.69
646.423	84.69
646.628	92.69
646.833	93.69
647.038	86.69
647.243	83.69
647.447	85.69
647.652	83.69
647.857	79.69
648.062	96.69
648.266	82.69
648.471	88.69
648.676	82.69
648.88	75.69
649.085	83.69
649.289	77.69
649.494	73.69
649.698	89.69
649.903	95.69
650.107	91.69
650.312	82.69
650.516	92.69
650.721	83.69
650.925	77.69
651.13	89.69
651.334	89.69
651.539	72.69
651.743	77.69
651.947	88.69
652.152	88.69
652.356	90.69
652.56	82.69
652.764	91.69
652.969	74.69
653.173	72.69
653.377	74.69
653.581	70.69
653.785	75.69
653.99	78.69
654.194	85.69
654.398	88.69
654.602	96.69
654.806	83.69
655.01	97.69
655.214	72.69
655.418	91.69
655.622	71.69
655.826	85.69
656.03	78.69
656.234	71.69
656.438	86.69
656.642	86.69
656.846	84.69
657.049	71.69
657.253	87.69
657.457	84.69
657.661	83.69
657.865	75.69
658.068	98.69
658.272	87.69
658.476	80.69
658.68	80.69
658.883	80.69
659.087	79.69
659.291	81.69
659.494	73.69
659.698	75.69
659.901	85.69
660.105	84.69
660.309	81.69
660.512	77.69
660.716	78.69
660.919	79.69
661.123	84.69
661.326	81.69
661.53	86.69
661.733	86.69
661.936	75.69
662.14	87.69
662.343	81.69
662.546	80.69
662.75	73.69
662.953	84.69
663.156	93.69
663.36	92.69
663.563	81.69
663.766	83.69
663.969	84.69
664.173	72.69
664.376	71.69
664.579	65.69
664.782	82.69
664.985	86.69
665.188	81.69
665.391	93.69
665.594	87.69
665.797	73.69
666	97.69
666.203	72.69
666.406	81.69
666.609	81.69
666.812	82.69
667.015	84.69
667.218	98.69
667.421	87.69
667.624	78.69
667.827	71.69
668.03	78.69
668.232	80.69
668.435	91.69
668.638	73.69
668.841	74.69
669.043	72.69
669.246	86.69
669.449	102.69
669.651	81.69
669.854	76.69
670.057	83.69
670.259	86.69
670.462	80.69
670.665	80.69
670.867	75.69
671.07	84.69
671.272	71.69
671.475	93.69
671.677	77.69
671.88	89.69
672.082	83.69
672.284	81.69
672.487	91.69
672.689	79.69
672.892	72.69
