Data from Ni(NO3)2@0.5M.TitratingCurve.Agarose3%dH2O.NegLispCup.LampEnergy10.LIBS07252019_HRD10591_17-58-03-564.txt Node
Date: Thu Jul 25 17:58:03 EDT 2019
User: cochatt
Spectrometer: HR+D1059
Trigger mode: 1
Integration Time (sec): 1.000000E-1
Scans to average: 1
Electric dark correction enabled: true
Nonlinearity correction enabled: false
Boxcar width: 0
XAxis mode: Wavelengths
Number of Pixels in Spectrum: 2048
>>>>>Begin Spectral Data<<<<<
223.165	-24.19
223.4	-24.19
223.635	-24.19
223.869	-15.19
224.104	-17.19
224.338	-2.19
224.573	-9.19
224.808	-9.19
225.042	-6.19
225.277	0.81
225.511	-0.19
225.746	2.81
225.98	1.81
226.215	0.81
226.449	14.81
226.683	20.81
226.918	14.81
227.152	26.81
227.387	34.81
227.621	41.81
227.856	59.81
228.09	45.81
228.324	47.81
228.559	53.81
228.793	75.81
229.027	103.81
229.262	133.81
229.496	136.81
229.73	147.81
229.964	154.81
230.199	186.81
230.433	186.81
230.667	174.81
230.901	166.81
231.136	164.81
231.37	164.81
231.604	175.81
231.838	195.81
232.072	202.81
232.306	184.81
232.541	181.81
232.775	162.81
233.009	168.81
233.243	146.81
233.477	162.81
233.711	159.81
233.945	159.81
234.179	159.81
234.413	159.81
234.647	179.81
234.881	173.81
235.115	183.81
235.349	158.81
235.583	175.81
235.817	150.81
236.051	191.81
236.285	166.81
236.519	183.81
236.753	175.81
236.987	153.81
237.221	166.81
237.455	171.81
237.689	176.81
237.922	185.81
238.156	186.81
238.39	179.81
238.624	168.81
238.858	163.81
239.091	181.81
239.325	190.81
239.559	206.81
239.793	234.81
240.027	216.81
240.26	211.81
240.494	200.81
240.728	189.81
240.961	199.81
241.195	193.81
241.429	217.81
241.662	208.81
241.896	227.81
242.13	231.81
242.363	219.81
242.597	203.81
242.83	215.81
243.064	204.81
243.298	203.81
243.531	224.81
243.765	233.81
243.998	223.81
244.232	261.81
244.465	242.81
244.699	230.81
244.932	234.81
245.166	231.81
245.399	215.81
245.633	243.81
245.866	235.81
246.099	244.81
246.333	250.81
246.566	239.81
246.8	238.81
247.033	234.81
247.266	252.81
247.5	250.81
247.733	258.81
247.966	246.81
248.2	261.81
248.433	263.81
248.666	262.81
248.899	276.81
249.133	277.81
249.366	298.81
249.599	269.81
249.832	270.81
250.066	281.81
250.299	282.81
250.532	295.81
250.765	285.81
250.998	299.81
251.231	322.81
251.465	334.81
251.698	324.81
251.931	308.81
252.164	312.81
252.397	322.81
252.63	298.81
252.863	322.81
253.096	315.81
253.329	320.81
253.562	318.81
253.795	331.81
254.028	347.81
254.261	319.81
254.494	321.81
254.727	344.81
254.96	354.81
255.193	345.81
255.426	337.81
255.659	348.81
255.892	354.81
256.124	375.81
256.357	363.81
256.59	362.81
256.823	350.81
257.056	394.81
257.289	372.81
257.521	365.81
257.754	383.81
257.987	366.81
258.22	376.81
258.452	378.81
258.685	405.81
258.918	397.81
259.151	393.81
259.383	386.81
259.616	408.81
259.849	412.81
260.081	396.81
260.314	396.81
260.547	390.81
260.779	398.81
261.012	394.81
261.244	386.81
261.477	434.81
261.71	424.81
261.942	411.81
262.175	418.81
262.407	420.81
262.64	429.81
262.872	426.81
263.105	435.81
263.337	431.81
263.57	434.81
263.802	425.81
264.035	419.81
264.267	434.81
264.499	435.81
264.732	443.81
264.964	440.81
265.197	436.81
265.429	444.81
265.661	460.81
265.894	429.81
266.126	453.81
266.358	462.81
266.591	452.81
266.823	457.81
267.055	470.81
267.287	468.81
267.52	454.81
267.752	473.81
267.984	476.81
268.216	474.81
268.448	487.81
268.681	508.81
268.913	483.81
269.145	487.81
269.377	480.81
269.609	488.81
269.841	491.81
270.073	476.81
270.306	472.81
270.538	485.81
270.77	476.81
271.002	506.81
271.234	500.81
271.466	507.81
271.698	482.81
271.93	487.81
272.162	483.81
272.394	499.81
272.626	510.81
272.858	516.81
273.09	504.81
273.322	532.81
273.553	521.81
273.785	524.81
274.017	502.81
274.249	515.81
274.481	529.81
274.713	537.81
274.945	523.81
275.176	515.81
275.408	499.81
275.64	537.81
275.872	542.81
276.104	519.81
276.335	524.81
276.567	506.81
276.799	536.81
277.031	554.81
277.262	552.81
277.494	546.81
277.726	555.81
277.957	550.81
278.189	554.81
278.421	538.81
278.652	560.81
278.884	548.81
279.115	559.81
279.347	552.81
279.579	558.81
279.81	599.81
280.042	556.81
280.273	559.81
280.505	564.81
280.736	567.81
280.968	568.81
281.199	578.81
281.431	584.81
281.662	583.81
281.894	577.81
282.125	551.81
282.356	588.81
282.588	597.81
282.819	568.81
283.051	581.81
283.282	591.81
283.513	586.81
283.745	596.81
283.976	591.81
284.207	604.81
284.439	602.81
284.67	590.81
284.901	570.81
285.132	580.81
285.364	601.81
285.595	600.81
285.826	568.81
286.057	600.81
286.288	587.81
286.52	615.81
286.751	601.81
286.982	606.81
287.213	603.81
287.444	615.81
287.675	609.81
287.906	618.81
288.138	599.81
288.369	580.81
288.6	601.81
288.831	631.81
289.062	618.81
289.293	630.81
289.524	612.81
289.755	628.81
289.986	611.81
290.217	608.81
290.448	608.81
290.679	605.81
290.91	604.81
291.141	616.81
291.371	635.81
291.602	611.81
291.833	627.81
292.064	622.81
292.295	637.81
292.526	634.81
292.757	651.81
292.987	619.81
293.218	624.81
293.449	606.81
293.68	638.81
293.91	630.81
294.141	648.81
294.372	616.81
294.603	615.81
294.833	641.81
295.064	628.81
295.295	648.81
295.525	638.81
295.756	635.81
295.987	630.81
296.217	662.81
296.448	620.81
296.679	634.81
296.909	656.81
297.14	634.81
297.37	646.81
297.601	657.81
297.831	648.81
298.062	659.81
298.292	665.81
298.523	671.81
298.753	668.81
298.984	674.81
299.214	669.81
299.445	665.81
299.675	693.81
299.905	685.81
300.136	686.81
300.366	712.81
300.597	717.81
300.827	711.81
301.057	699.81
301.288	696.81
301.518	706.81
301.748	688.81
301.979	712.81
302.209	691.81
302.439	698.81
302.669	685.81
302.9	675.81
303.13	672.81
303.36	710.81
303.59	718.81
303.82	700.81
304.051	716.81
304.281	713.81
304.511	721.81
304.741	725.81
304.971	723.81
305.201	742.81
305.431	768.81
305.661	752.81
305.891	698.81
306.121	725.81
306.352	711.81
306.582	712.81
306.812	711.81
307.042	715.81
307.272	730.81
307.502	699.81
307.731	719.81
307.961	732.81
308.191	730.81
308.421	712.81
308.651	738.81
308.881	698.81
309.111	709.81
309.341	714.81
309.571	739.81
309.8	725.81
310.03	756.81
310.26	772.81
310.49	794.81
310.72	766.81
310.949	741.81
311.179	770.81
311.409	743.81
311.639	780.81
311.868	796.81
312.098	754.81
312.328	781.81
312.557	782.81
312.787	794.81
313.017	783.81
313.246	810.81
313.476	779.81
313.706	788.81
313.935	797.81
314.165	802.81
314.394	779.81
314.624	796.81
314.853	776.81
315.083	829.81
315.312	826.81
315.542	814.81
315.771	806.81
316.001	821.81
316.23	818.81
316.46	846.81
316.689	805.81
316.919	815.81
317.148	827.81
317.377	814.81
317.607	814.81
317.836	815.81
318.065	835.81
318.295	857.81
318.524	866.81
318.753	840.81
318.983	847.81
319.212	852.81
319.441	859.81
319.67	846.81
319.9	861.81
320.129	868.81
320.358	861.81
320.587	856.81
320.816	857.81
321.046	880.81
321.275	863.81
321.504	879.81
321.733	916.81
321.962	887.81
322.191	898.81
322.42	908.81
322.649	900.81
322.878	870.81
323.108	877.81
323.337	906.81
323.566	902.81
323.795	911.81
324.024	896.81
324.253	926.81
324.482	896.81
324.71	917.81
324.939	934.81
325.168	951.81
325.397	933.81
325.626	924.81
325.855	943.81
326.084	931.81
326.313	939.81
326.542	922.81
326.77	934.81
326.999	962.81
327.228	930.81
327.457	964.81
327.686	965.81
327.914	941.81
328.143	951.81
328.372	990.81
328.6	970.81
328.829	981.81
329.058	960.81
329.287	968.81
329.515	963.81
329.744	986.81
329.972	989.81
330.201	1003.81
330.43	982.81
330.658	993.81
330.887	1011.81
331.115	991.81
331.344	1010.81
331.572	986.81
331.801	1024.81
332.03	1013.81
332.258	1027.81
332.486	1005.81
332.715	1012.81
332.943	1022.81
333.172	1016.81
333.4	1035.81
333.629	1031.81
333.857	1042.81
334.085	1057.81
334.314	1077.81
334.542	1070.81
334.771	1034.81
334.999	1075.81
335.227	1059.81
335.455	1064.81
335.684	1043.81
335.912	1088.81
336.14	1057.81
336.369	1083.81
336.597	1099.81
336.825	1051.81
337.053	1090.81
337.281	1069.81
337.51	1086.81
337.738	1093.81
337.966	1069.81
338.194	1119.81
338.422	1072.81
338.65	1074.81
338.878	1061.81
339.106	1078.81
339.334	1078.81
339.562	1060.81
339.79	1049.81
340.018	1051.81
340.246	1064.81
340.474	1059.81
340.702	1067.81
340.93	1079.81
341.158	1067.81
341.386	1089.81
341.614	1088.81
341.842	1062.81
342.07	1048.81
342.298	1063.81
342.526	1061.81
342.754	1042.81
342.981	1055.81
343.209	1018.81
343.437	1057.81
343.665	1070.81
343.893	1092.81
344.12	1080.81
344.348	1096.81
344.576	1077.81
344.804	1103.81
345.031	1083.81
345.259	1051.81
345.487	1083.81
345.714	1047.81
345.942	1092.81
346.17	1098.81
346.397	1092.81
346.625	1062.81
346.853	1030.81
347.08	1040.81
347.308	1056.81
347.535	1048.81
347.763	1014.81
347.99	1038.81
348.218	1054.81
348.445	1032.81
348.673	1014.81
348.9	1033.81
349.128	1076.81
349.355	1044.81
349.583	1061.81
349.81	1006.81
350.037	1011.81
350.265	997.81
350.492	1056.81
350.72	1044.81
350.947	1045.81
351.174	1040.81
351.402	1072.81
351.629	1056.81
351.856	1053.81
352.083	1042.81
352.311	991.81
352.538	1064.81
352.765	1060.81
352.992	997.81
353.22	987.81
353.447	985.81
353.674	957.81
353.901	996.81
354.128	992.81
354.355	993.81
354.583	1006.81
354.81	1006.81
355.037	1002.81
355.264	1027.81
355.491	1007.81
355.718	1003.81
355.945	1026.81
356.172	1015.81
356.399	1023.81
356.626	1006.81
356.853	1042.81
357.08	1031.81
357.307	1010.81
357.534	985.81
357.761	1016.81
357.988	994.81
358.215	990.81
358.441	1018.81
358.668	986.81
358.895	1001.81
359.122	1023.81
359.349	1000.81
359.576	1003.81
359.802	1013.81
360.029	981.81
360.256	1007.81
360.483	1009.81
360.709	976.81
360.936	1023.81
361.163	1011.81
361.39	1010.81
361.616	1014.81
361.843	1045.81
362.07	1071.81
362.296	1042.81
362.523	1026.81
362.749	1003.81
362.976	1016.81
363.203	1013.81
363.429	1003.81
363.656	1025.81
363.882	994.81
364.109	1005.81
364.335	1006.81
364.562	1018.81
364.788	1019.81
365.015	1014.81
365.241	1001.81
365.468	1048.81
365.694	1000.81
365.92	1007.81
366.147	1012.81
366.373	1007.81
366.599	995.81
366.826	1005.81
367.052	1012.81
367.278	1019.81
367.505	1035.81
367.731	1032.81
367.957	1042.81
368.184	1015.81
368.41	976.81
368.636	1052.81
368.862	1018.81
369.089	1012.81
369.315	1038.81
369.541	1018.81
369.767	1043.81
369.993	1064.81
370.219	1034.81
370.445	1056.81
370.672	1039.81
370.898	1040.81
371.124	1045.81
371.35	1063.81
371.576	1044.81
371.802	1014.81
372.028	1056.81
372.254	1039.81
372.48	1061.81
372.706	1048.81
372.932	1058.81
373.158	1071.81
373.384	1058.81
373.61	1025.81
373.835	1040.81
374.061	1022.81
374.287	1069.81
374.513	1064.81
374.739	1055.81
374.965	1055.81
375.191	1060.81
375.416	1061.81
375.642	1048.81
375.868	1078.81
376.094	1033.81
376.319	1025.81
376.545	1034.81
376.771	1047.81
376.997	1052.81
377.222	1022.81
377.448	1018.81
377.674	1022.81
377.899	1037.81
378.125	1006.81
378.35	1031.81
378.576	1007.81
378.802	1028.81
379.027	1047.81
379.253	1026.81
379.478	1034.81
379.704	1023.81
379.929	1010.81
380.155	1024.81
380.38	1003.81
380.606	1023.81
380.831	1034.81
381.057	1042.81
381.282	1005.81
381.507	1032.81
381.733	1015.81
381.958	1003.81
382.184	1038.81
382.409	1016.81
382.634	1054.81
382.86	1035.81
383.085	1030.81
383.31	1058.81
383.535	1050.81
383.761	1031.81
383.986	1060.81
384.211	1076.81
384.436	1050.81
384.662	1051.81
384.887	1043.81
385.112	1049.81
385.337	1061.81
385.562	1070.81
385.787	1072.81
386.013	1086.81
386.238	1090.81
386.463	1043.81
386.688	1088.81
386.913	1087.81
387.138	1099.81
387.363	1097.81
387.588	1089.81
387.813	1096.81
388.038	1055.81
388.263	1106.81
388.488	1117.81
388.713	1071.81
388.938	1090.81
389.163	1105.81
389.387	1080.81
389.612	1088.81
389.837	1105.81
390.062	1142.81
390.287	1100.81
390.512	1064.81
390.736	1087.81
390.961	1122.81
391.186	1071.81
391.411	1100.81
391.636	1084.81
391.86	1065.81
392.085	1106.81
392.31	1095.81
392.534	1127.81
392.759	1128.81
392.984	1121.81
393.208	1087.81
393.433	1133.81
393.658	1130.81
393.882	1118.81
394.107	1101.81
394.331	1094.81
394.556	1089.81
394.78	1097.81
395.005	1099.81
395.229	1072.81
395.454	1113.81
395.678	1123.81
395.903	1119.81
396.127	1108.81
396.352	1094.81
396.576	1108.81
396.801	1127.81
397.025	1133.81
397.249	1130.81
397.474	1106.81
397.698	1129.81
397.922	1145.81
398.147	1150.81
398.371	1166.81
398.595	1158.81
398.82	1166.81
399.044	1159.81
399.268	1221.81
399.492	1219.81
399.717	1265.81
399.941	1250.81
400.165	1275.81
400.389	1234.81
400.613	1254.81
400.837	1235.81
401.062	1206.81
401.286	1195.81
401.51	1206.81
401.734	1161.81
401.958	1203.81
402.182	1182.81
402.406	1191.81
402.63	1186.81
402.854	1178.81
403.078	1185.81
403.302	1165.81
403.526	1199.81
403.75	1175.81
403.974	1226.81
404.198	1181.81
404.422	1185.81
404.645	1228.81
404.869	1197.81
405.093	1220.81
405.317	1231.81
405.541	1234.81
405.765	1189.81
405.988	1271.81
406.212	1246.81
406.436	1228.81
406.66	1225.81
406.883	1241.81
407.107	1286.81
407.331	1282.81
407.555	1300.81
407.778	1307.81
408.002	1291.81
408.226	1294.81
408.449	1275.81
408.673	1285.81
408.896	1252.81
409.12	1231.81
409.344	1259.81
409.567	1262.81
409.791	1262.81
410.014	1238.81
410.238	1219.81
410.461	1219.81
410.685	1247.81
410.908	1238.81
411.132	1214.81
411.355	1211.81
411.578	1209.81
411.802	1221.81
412.025	1207.81
412.249	1205.81
412.472	1207.81
412.695	1222.81
412.919	1212.81
413.142	1208.81
413.365	1214.81
413.589	1196.81
413.812	1184.81
414.035	1199.81
414.258	1206.81
414.482	1207.81
414.705	1170.81
414.928	1180.81
415.151	1230.81
415.374	1207.81
415.597	1188.81
415.821	1172.81
416.044	1185.81
416.267	1163.81
416.49	1184.81
416.713	1156.81
416.936	1152.81
417.159	1155.81
417.382	1142.81
417.605	1098.81
417.828	1173.81
418.051	1154.81
418.274	1149.81
418.497	1126.81
418.72	1152.81
418.943	1160.81
419.166	1213.81
419.389	1249.81
419.611	1252.81
419.834	1227.81
420.057	1183.81
420.28	1166.81
420.503	1097.81
420.726	1145.81
420.948	1133.81
421.171	1118.81
421.394	1126.81
421.617	1120.81
421.839	1168.81
422.062	1151.81
422.285	1128.81
422.507	1168.81
422.73	1140.81
422.953	1143.81
423.175	1126.81
423.398	1148.81
423.621	1150.81
423.843	1147.81
424.066	1184.81
424.288	1142.81
424.511	1143.81
424.733	1180.81
424.956	1148.81
425.178	1158.81
425.401	1142.81
425.623	1152.81
425.846	1151.81
426.068	1190.81
426.291	1140.81
426.513	1149.81
426.735	1160.81
426.958	1154.81
427.18	1127.81
427.402	1144.81
427.625	1168.81
427.847	1139.81
428.069	1134.81
428.292	1174.81
428.514	1105.81
428.736	1146.81
428.958	1125.81
429.181	1135.81
429.403	1135.81
429.625	1170.81
429.847	1109.81
430.069	1135.81
430.292	1144.81
430.514	1103.81
430.736	1148.81
430.958	1146.81
431.18	1122.81
431.402	1117.81
431.624	1104.81
431.846	1141.81
432.068	1113.81
432.29	1164.81
432.512	1131.81
432.734	1164.81
432.956	1148.81
433.178	1179.81
433.4	1195.81
433.622	1154.81
433.844	1176.81
434.066	1136.81
434.287	1150.81
434.509	1179.81
434.731	1163.81
434.953	1183.81
435.175	1185.81
435.397	1197.81
435.618	1167.81
435.84	1156.81
436.062	1130.81
436.284	1129.81
436.505	1154.81
436.727	1161.81
436.949	1159.81
437.17	1165.81
437.392	1139.81
437.614	1116.81
437.835	1142.81
438.057	1126.81
438.278	1124.81
438.5	1123.81
438.721	1127.81
438.943	1127.81
439.165	1135.81
439.386	1129.81
439.608	1105.81
439.829	1139.81
440.05	1131.81
440.272	1144.81
440.493	1156.81
440.715	1171.81
440.936	1129.81
441.158	1157.81
441.379	1150.81
441.6	1178.81
441.822	1174.81
442.043	1144.81
442.264	1166.81
442.486	1149.81
442.707	1190.81
442.928	1215.81
443.149	1144.81
443.371	1202.81
443.592	1230.81
443.813	1194.81
444.034	1154.81
444.255	1187.81
444.476	1195.81
444.698	1202.81
444.919	1294.81
445.14	1330.81
445.361	1210.81
445.582	1203.81
445.803	1174.81
446.024	1149.81
446.245	1148.81
446.466	1146.81
446.687	1140.81
446.908	1106.81
447.129	1128.81
447.35	1097.81
447.571	1132.81
447.792	1107.81
448.013	1122.81
448.234	1096.81
448.455	1078.81
448.675	1088.81
448.896	1068.81
449.117	1074.81
449.338	1094.81
449.559	1083.81
449.779	1029.81
450	1042.81
450.221	1046.81
450.442	1050.81
450.662	1064.81
450.883	1064.81
451.104	1080.81
451.324	1068.81
451.545	1063.81
451.766	1054.81
451.986	1078.81
452.207	1074.81
452.428	1078.81
452.648	1052.81
452.869	1034.81
453.089	1026.81
453.31	1074.81
453.53	1030.81
453.751	1050.81
453.971	1023.81
454.192	1062.81
454.412	1066.81
454.633	1028.81
454.853	1005.81
455.073	1028.81
455.294	1066.81
455.514	1037.81
455.734	1081.81
455.955	1078.81
456.175	1066.81
456.395	1023.81
456.616	1014.81
456.836	1027.81
457.056	1051.81
457.276	991.81
457.497	1044.81
457.717	1058.81
457.937	1047.81
458.157	1035.81
458.377	1036.81
458.598	1054.81
458.818	1055.81
459.038	1072.81
459.258	1085.81
459.478	1134.81
459.698	1195.81
459.918	1179.81
460.138	1158.81
460.358	1158.81
460.578	1180.81
460.798	1220.81
461.018	1208.81
461.238	1206.81
461.458	1175.81
461.678	1148.81
461.898	1163.81
462.118	1157.81
462.338	1197.81
462.558	1180.81
462.777	1222.81
462.997	1259.81
463.217	1280.81
463.437	1317.81
463.657	1253.81
463.876	1232.81
464.096	1220.81
464.316	1224.81
464.536	1203.81
464.755	1208.81
464.975	1193.81
465.195	1172.81
465.414	1164.81
465.634	1120.81
465.854	1121.81
466.073	1107.81
466.293	1124.81
466.512	1096.81
466.732	1098.81
466.951	1127.81
467.171	1124.81
467.391	1120.81
467.61	1117.81
467.829	1086.81
468.049	1121.81
468.268	1091.81
468.488	1112.81
468.707	1093.81
468.927	1134.81
469.146	1124.81
469.365	1117.81
469.585	1110.81
469.804	1111.81
470.023	1128.81
470.243	1128.81
470.462	1091.81
470.681	1114.81
470.901	1138.81
471.12	1117.81
471.339	1106.81
471.558	1123.81
471.777	1110.81
471.997	1110.81
472.216	1119.81
472.435	1128.81
472.654	1130.81
472.873	1086.81
473.092	1143.81
473.311	1124.81
473.53	1133.81
473.749	1138.81
473.968	1118.81
474.187	1115.81
474.406	1107.81
474.625	1150.81
474.844	1136.81
475.063	1177.81
475.282	1145.81
475.501	1159.81
475.72	1149.81
475.939	1183.81
476.158	1190.81
476.377	1172.81
476.596	1161.81
476.814	1210.81
477.033	1174.81
477.252	1181.81
477.471	1212.81
477.69	1212.81
477.908	1220.81
478.127	1249.81
478.346	1238.81
478.564	1214.81
478.783	1270.81
479.002	1293.81
479.22	1356.81
479.439	1320.81
479.658	1273.81
479.876	1286.81
480.095	1268.81
480.313	1297.81
480.532	1318.81
480.751	1289.81
480.969	1291.81
481.188	1263.81
481.406	1260.81
481.624	1261.81
481.843	1272.81
482.061	1314.81
482.28	1294.81
482.498	1295.81
482.717	1315.81
482.935	1328.81
483.153	1345.81
483.372	1386.81
483.59	1369.81
483.808	1370.81
484.027	1395.81
484.245	1357.81
484.463	1371.81
484.681	1355.81
484.9	1322.81
485.118	1354.81
485.336	1349.81
485.554	1359.81
485.772	1345.81
485.99	1331.81
486.209	1344.81
486.427	1338.81
486.645	1350.81
486.863	1365.81
487.081	1340.81
487.299	1394.81
487.517	1389.81
487.735	1407.81
487.953	1398.81
488.171	1390.81
488.389	1372.81
488.607	1374.81
488.825	1374.81
489.043	1342.81
489.261	1349.81
489.479	1340.81
489.696	1387.81
489.914	1351.81
490.132	1330.81
490.35	1360.81
490.568	1357.81
490.786	1408.81
491.003	1404.81
491.221	1419.81
491.439	1412.81
491.657	1409.81
491.874	1434.81
492.092	1442.81
492.31	1418.81
492.527	1412.81
492.745	1423.81
492.963	1403.81
493.18	1411.81
493.398	1415.81
493.615	1389.81
493.833	1402.81
494.05	1425.81
494.268	1420.81
494.485	1433.81
494.703	1464.81
494.92	1456.81
495.138	1433.81
495.355	1470.81
495.573	1486.81
495.79	1425.81
496.008	1450.81
496.225	1436.81
496.442	1479.81
496.66	1456.81
496.877	1464.81
497.094	1500.81
497.312	1490.81
497.529	1493.81
497.746	1511.81
497.963	1559.81
498.181	1535.81
498.398	1590.81
498.615	1606.81
498.832	1613.81
499.049	1638.81
499.267	1698.81
499.484	1715.81
499.701	1738.81
499.918	1802.81
500.135	1836.81
500.352	1874.81
500.569	1861.81
500.786	1852.81
501.003	1855.81
501.22	1859.81
501.437	1768.81
501.654	1688.81
501.871	1656.81
502.088	1677.81
502.305	1628.81
502.522	1637.81
502.739	1617.81
502.956	1528.81
503.172	1527.81
503.389	1494.81
503.606	1456.81
503.823	1465.81
504.04	1422.81
504.256	1418.81
504.473	1404.81
504.69	1436.81
504.907	1440.81
505.123	1398.81
505.34	1373.81
505.557	1375.81
505.773	1324.81
505.99	1359.81
506.207	1330.81
506.423	1321.81
506.64	1314.81
506.856	1282.81
507.073	1264.81
507.289	1250.81
507.506	1289.81
507.722	1298.81
507.939	1272.81
508.155	1285.81
508.372	1266.81
508.588	1223.81
508.805	1274.81
509.021	1226.81
509.238	1234.81
509.454	1205.81
509.67	1236.81
509.887	1195.81
510.103	1226.81
510.319	1222.81
510.536	1181.81
510.752	1192.81
510.968	1195.81
511.184	1198.81
511.401	1175.81
511.617	1180.81
511.833	1204.81
512.049	1162.81
512.265	1200.81
512.481	1155.81
512.698	1163.81
512.914	1177.81
513.13	1149.81
513.346	1194.81
513.562	1167.81
513.778	1164.81
513.994	1178.81
514.21	1178.81
514.426	1176.81
514.642	1167.81
514.858	1190.81
515.074	1171.81
515.29	1195.81
515.506	1154.81
515.721	1162.81
515.937	1189.81
516.153	1182.81
516.369	1156.81
516.585	1207.81
516.801	1190.81
517.016	1162.81
517.232	1214.81
517.448	1204.81
517.664	1184.81
517.879	1211.81
518.095	1194.81
518.311	1193.81
518.527	1187.81
518.742	1192.81
518.958	1194.81
519.173	1186.81
519.389	1178.81
519.605	1162.81
519.82	1161.81
520.036	1144.81
520.251	1142.81
520.467	1134.81
520.682	1111.81
520.898	1117.81
521.113	1098.81
521.329	1090.81
521.544	1110.81
521.76	1139.81
521.975	1110.81
522.19	1088.81
522.406	1096.81
522.621	1083.81
522.836	1094.81
523.052	1070.81
523.267	1078.81
523.482	1076.81
523.698	1074.81
523.913	1065.81
524.128	1046.81
524.343	1095.81
524.559	1078.81
524.774	1062.81
524.989	1070.81
525.204	1091.81
525.419	1088.81
525.634	1085.81
525.849	1074.81
526.064	1017.81
526.28	1069.81
526.495	1067.81
526.71	1024.81
526.925	1034.81
527.14	1031.81
527.355	1009.81
527.57	999.81
527.785	1036.81
527.999	1072.81
528.214	1062.81
528.429	1026.81
528.644	1066.81
528.859	1038.81
529.074	1052.81
529.289	1080.81
529.503	1085.81
529.718	1046.81
529.933	1033.81
530.148	1019.81
530.363	1040.81
530.577	1027.81
530.792	997.81
531.007	1020.81
531.221	1017.81
531.436	1045.81
531.651	1036.81
531.865	974.81
532.08	972.81
532.295	1023.81
532.509	999.81
532.724	996.81
532.938	988.81
533.153	997.81
533.367	985.81
533.582	988.81
533.796	997.81
534.011	980.81
534.225	1013.81
534.44	1010.81
534.654	962.81
534.868	962.81
535.083	1005.81
535.297	956.81
535.511	965.81
535.726	984.81
535.94	958.81
536.154	966.81
536.369	939.81
536.583	952.81
536.797	935.81
537.011	978.81
537.225	937.81
537.44	968.81
537.654	943.81
537.868	944.81
538.082	912.81
538.296	927.81
538.51	908.81
538.724	955.81
538.938	938.81
539.153	949.81
539.367	912.81
539.581	936.81
539.795	928.81
540.009	908.81
540.222	897.81
540.436	941.81
540.65	923.81
540.864	936.81
541.078	913.81
541.292	895.81
541.506	932.81
541.72	941.81
541.934	938.81
542.147	944.81
542.361	936.81
542.575	919.81
542.789	909.81
543.002	895.81
543.216	909.81
543.43	900.81
543.644	888.81
543.857	894.81
544.071	917.81
544.285	927.81
544.498	916.81
544.712	898.81
544.925	897.81
545.139	926.81
545.352	898.81
545.566	901.81
545.779	893.81
545.993	919.81
546.206	923.81
546.42	894.81
546.633	905.81
546.847	896.81
547.06	908.81
547.274	916.81
547.487	903.81
547.7	890.81
547.914	912.81
548.127	933.81
548.34	913.81
548.554	879.81
548.767	882.81
548.98	872.81
549.193	874.81
549.407	895.81
549.62	889.81
549.833	894.81
550.046	872.81
550.259	866.81
550.473	846.81
550.686	872.81
550.899	875.81
551.112	866.81
551.325	877.81
551.538	869.81
551.751	893.81
551.964	847.81
552.177	854.81
552.39	847.81
552.603	858.81
552.816	883.81
553.029	868.81
553.242	866.81
553.455	878.81
553.667	878.81
553.88	869.81
554.093	847.81
554.306	856.81
554.519	836.81
554.732	840.81
554.944	823.81
555.157	808.81
555.37	816.81
555.583	818.81
555.795	796.81
556.008	790.81
556.221	804.81
556.433	805.81
556.646	797.81
556.859	780.81
557.071	783.81
557.284	776.81
557.496	785.81
557.709	803.81
557.921	754.81
558.134	764.81
558.346	776.81
558.559	780.81
558.771	774.81
558.984	784.81
559.196	751.81
559.409	768.81
559.621	764.81
559.833	748.81
560.046	758.81
560.258	770.81
560.47	780.81
560.683	759.81
560.895	736.81
561.107	736.81
561.32	760.81
561.532	772.81
561.744	734.81
561.956	744.81
562.168	744.81
562.381	760.81
562.593	755.81
562.805	732.81
563.017	742.81
563.229	719.81
563.441	734.81
563.653	743.81
563.865	734.81
564.077	738.81
564.289	743.81
564.501	752.81
564.713	755.81
564.925	771.81
565.137	744.81
565.349	751.81
565.561	755.81
565.773	746.81
565.985	759.81
566.197	770.81
566.408	782.81
566.62	780.81
566.832	782.81
567.044	765.81
567.255	797.81
567.467	788.81
567.679	790.81
567.891	804.81
568.102	752.81
568.314	762.81
568.526	760.81
568.737	747.81
568.949	743.81
569.161	718.81
569.372	721.81
569.584	700.81
569.795	701.81
570.007	716.81
570.218	662.81
570.43	654.81
570.641	698.81
570.853	672.81
571.064	679.81
571.276	666.81
571.487	657.81
571.698	663.81
571.91	675.81
572.121	647.81
572.333	652.81
572.544	633.81
572.755	621.81
572.966	616.81
573.178	610.81
573.389	607.81
573.6	622.81
573.811	592.81
574.023	576.81
574.234	580.81
574.445	602.81
574.656	591.81
574.867	577.81
575.078	587.81
575.289	598.81
575.501	574.81
575.712	580.81
575.923	573.81
576.134	587.81
576.345	568.81
576.556	580.81
576.767	570.81
576.978	560.81
577.188	559.81
577.399	550.81
577.61	563.81
577.821	535.81
578.032	538.81
578.243	542.81
578.454	559.81
578.665	556.81
578.875	541.81
579.086	546.81
579.297	538.81
579.508	540.81
579.718	536.81
579.929	515.81
580.14	531.81
580.35	527.81
580.561	512.81
580.772	523.81
580.982	567.81
581.193	517.81
581.403	529.81
581.614	522.81
581.825	512.81
582.035	504.81
582.246	524.81
582.456	504.81
582.667	502.81
582.877	504.81
583.087	508.81
583.298	501.81
583.508	511.81
583.719	497.81
583.929	506.81
584.139	491.81
584.35	484.81
584.56	504.81
584.77	486.81
584.981	484.81
585.191	486.81
585.401	488.81
585.611	490.81
585.821	495.81
586.032	508.81
586.242	486.81
586.452	484.81
586.662	501.81
586.872	498.81
587.082	492.81
587.292	494.81
587.502	490.81
587.713	463.81
587.923	479.81
588.133	463.81
588.343	483.81
588.553	466.81
588.762	458.81
588.972	476.81
589.182	514.81
589.392	477.81
589.602	482.81
589.812	498.81
590.022	477.81
590.232	448.81
590.441	474.81
590.651	475.81
590.861	471.81
591.071	447.81
591.281	471.81
591.49	467.81
591.7	475.81
591.91	452.81
592.119	468.81
592.329	463.81
592.539	472.81
592.748	466.81
592.958	469.81
593.167	470.81
593.377	482.81
593.587	472.81
593.796	459.81
594.006	455.81
594.215	462.81
594.424	487.81
594.634	455.81
594.843	462.81
595.053	450.81
595.262	454.81
595.472	448.81
595.681	436.81
595.89	439.81
596.1	453.81
596.309	414.81
596.518	433.81
596.727	432.81
596.937	411.81
597.146	428.81
597.355	411.81
597.564	419.81
597.774	448.81
597.983	413.81
598.192	412.81
598.401	413.81
598.61	414.81
598.819	406.81
599.028	403.81
599.237	397.81
599.446	423.81
599.655	387.81
599.864	427.81
600.073	396.81
600.282	393.81
600.491	397.81
600.7	399.81
600.909	385.81
601.118	411.81
601.327	397.81
601.536	398.81
601.745	371.81
601.953	399.81
602.162	396.81
602.371	406.81
602.58	391.81
602.789	392.81
602.997	372.81
603.206	384.81
603.415	379.81
603.623	371.81
603.832	384.81
604.041	366.81
604.249	359.81
604.458	391.81
604.666	369.81
604.875	384.81
605.084	382.81
605.292	372.81
605.501	362.81
605.709	356.81
605.918	361.81
606.126	364.81
606.334	366.81
606.543	362.81
606.751	357.81
606.96	366.81
607.168	376.81
607.376	374.81
607.585	378.81
607.793	368.81
608.001	369.81
608.21	366.81
608.418	361.81
608.626	344.81
608.834	355.81
609.043	355.81
609.251	377.81
609.459	347.81
609.667	364.81
609.875	354.81
610.083	349.81
610.291	365.81
610.499	359.81
610.707	358.81
610.916	358.81
611.124	360.81
611.332	347.81
611.54	343.81
611.748	346.81
611.955	362.81
612.163	347.81
612.371	353.81
612.579	340.81
612.787	359.81
612.995	352.81
613.203	364.81
613.411	351.81
613.618	332.81
613.826	332.81
614.034	350.81
614.242	328.81
614.449	318.81
614.657	332.81
614.865	334.81
615.072	344.81
615.28	327.81
615.488	327.81
615.695	330.81
615.903	330.81
616.111	338.81
616.318	356.81
616.526	338.81
616.733	334.81
616.941	332.81
617.148	326.81
617.356	342.81
617.563	349.81
617.771	344.81
617.978	344.81
618.185	327.81
618.393	321.81
618.6	315.81
618.807	325.81
619.015	327.81
619.222	330.81
619.429	309.81
619.637	318.81
619.844	330.81
620.051	308.81
620.258	315.81
620.466	311.81
620.673	311.81
620.88	305.81
621.087	297.81
621.294	287.81
621.501	318.81
621.708	311.81
621.915	307.81
622.122	299.81
622.329	310.81
622.536	330.81
622.743	308.81
622.95	295.81
623.157	284.81
623.364	292.81
623.571	294.81
623.778	285.81
623.985	295.81
624.192	315.81
624.399	292.81
624.606	306.81
624.812	304.81
625.019	287.81
625.226	304.81
625.433	308.81
625.639	289.81
625.846	288.81
626.053	286.81
626.259	292.81
626.466	287.81
626.673	299.81
626.879	282.81
627.086	299.81
627.293	278.81
627.499	294.81
627.706	296.81
627.912	291.81
628.119	277.81
628.325	278.81
628.532	271.81
628.738	269.81
628.945	293.81
629.151	284.81
629.357	284.81
629.564	270.81
629.77	268.81
629.976	263.81
630.183	263.81
630.389	282.81
630.595	262.81
630.802	283.81
631.008	268.81
631.214	275.81
631.42	270.81
631.627	280.81
631.833	279.81
632.039	275.81
632.245	275.81
632.451	263.81
632.657	262.81
632.863	271.81
633.069	255.81
633.275	299.81
633.481	276.81
633.688	266.81
633.893	285.81
634.099	267.81
634.305	242.81
634.511	248.81
634.717	265.81
634.923	264.81
635.129	264.81
635.335	279.81
635.541	239.81
635.747	269.81
635.952	260.81
636.158	258.81
636.364	267.81
636.57	257.81
636.775	250.81
636.981	258.81
637.187	257.81
637.392	254.81
637.598	237.81
637.804	249.81
638.009	248.81
638.215	260.81
638.421	248.81
638.626	252.81
638.832	230.81
639.037	244.81
639.243	242.81
639.448	260.81
639.654	263.81
639.859	248.81
640.065	236.81
640.27	251.81
640.475	238.81
640.681	242.81
640.886	243.81
641.091	246.81
641.297	234.81
641.502	241.81
641.707	246.81
641.913	257.81
642.118	234.81
642.323	269.81
642.528	251.81
642.733	238.81
642.939	224.81
643.144	219.81
643.349	242.81
643.554	246.81
643.759	238.81
643.964	228.81
644.169	240.81
644.374	237.81
644.579	218.81
644.784	235.81
644.989	258.81
645.194	254.81
645.399	244.81
645.604	232.81
645.809	246.81
646.014	234.81
646.219	220.81
646.423	217.81
646.628	228.81
646.833	237.81
647.038	252.81
647.243	245.81
647.447	238.81
647.652	244.81
647.857	258.81
648.062	241.81
648.266	245.81
648.471	223.81
648.676	242.81
648.88	221.81
649.085	238.81
649.289	245.81
649.494	250.81
649.698	236.81
649.903	228.81
650.107	237.81
650.312	213.81
650.516	234.81
650.721	222.81
650.925	213.81
651.13	220.81
651.334	225.81
651.539	204.81
651.743	220.81
651.947	222.81
652.152	226.81
652.356	224.81
652.56	227.81
652.764	217.81
652.969	216.81
653.173	204.81
653.377	205.81
653.581	209.81
653.785	218.81
653.99	210.81
654.194	210.81
654.398	213.81
654.602	201.81
654.806	194.81
655.01	191.81
655.214	196.81
655.418	204.81
655.622	210.81
655.826	192.81
656.03	181.81
656.234	186.81
656.438	194.81
656.642	205.81
656.846	182.81
657.049	162.81
657.253	163.81
657.457	168.81
657.661	170.81
657.865	148.81
658.068	147.81
658.272	154.81
658.476	150.81
658.68	137.81
658.883	135.81
659.087	135.81
659.291	127.81
659.494	145.81
659.698	127.81
659.901	120.81
660.105	116.81
660.309	112.81
660.512	105.81
660.716	112.81
660.919	92.81
661.123	110.81
661.326	106.81
661.53	98.81
661.733	103.81
661.936	102.81
662.14	93.81
662.343	94.81
662.546	91.81
662.75	94.81
662.953	96.81
663.156	93.81
663.36	92.81
663.563	91.81
663.766	94.81
663.969	99.81
664.173	95.81
664.376	94.81
664.579	80.81
664.782	90.81
664.985	76.81
665.188	78.81
665.391	74.81
665.594	88.81
665.797	86.81
666	85.81
666.203	81.81
666.406	81.81
666.609	79.81
666.812	97.81
667.015	101.81
667.218	75.81
667.421	95.81
667.624	71.81
667.827	79.81
668.03	84.81
668.232	85.81
668.435	74.81
668.638	90.81
668.841	92.81
669.043	86.81
669.246	84.81
669.449	73.81
669.651	78.81
669.854	76.81
670.057	86.81
670.259	82.81
670.462	86.81
670.665	82.81
670.867	85.81
671.07	96.81
671.272	72.81
671.475	80.81
671.677	76.81
671.88	93.81
672.082	84.81
672.284	85.81
672.487	87.81
672.689	73.81
672.892	79.81
