Data from Ni(NO3)2@0.0625M.TitratingCurve.Agarose3%dH2O.NegLispCup.LampEnergy10.LIBS07252019_HRD10591_18-12-55-568.txt Node
Date: Thu Jul 25 18:12:55 EDT 2019
User: cochatt
Spectrometer: HR+D1059
Trigger mode: 1
Integration Time (sec): 1.000000E-1
Scans to average: 1
Electric dark correction enabled: true
Nonlinearity correction enabled: false
Boxcar width: 0
XAxis mode: Wavelengths
Number of Pixels in Spectrum: 2048
>>>>>Begin Spectral Data<<<<<
223.165	-9.5
223.4	-9.5
223.635	-9.5
223.869	-25.5
224.104	-19.5
224.338	-13.5
224.573	-21.5
224.808	-16.5
225.042	-3.5
225.277	-12.5
225.511	-8.5
225.746	-1.5
225.98	25.5
226.215	14.5
226.449	15.5
226.683	18.5
226.918	34.5
227.152	23.5
227.387	45.5
227.621	36.5
227.856	38.5
228.09	59.5
228.324	69.5
228.559	58.5
228.793	68.5
229.027	101.5
229.262	108.5
229.496	110.5
229.73	119.5
229.964	133.5
230.199	137.5
230.433	125.5
230.667	130.5
230.901	127.5
231.136	117.5
231.37	127.5
231.604	126.5
231.838	134.5
232.072	151.5
232.306	146.5
232.541	133.5
232.775	131.5
233.009	134.5
233.243	142.5
233.477	150.5
233.711	134.5
233.945	135.5
234.179	154.5
234.413	141.5
234.647	148.5
234.881	138.5
235.115	149.5
235.349	134.5
235.583	141.5
235.817	123.5
236.051	143.5
236.285	137.5
236.519	136.5
236.753	157.5
236.987	143.5
237.221	131.5
237.455	136.5
237.689	152.5
237.922	151.5
238.156	145.5
238.39	146.5
238.624	131.5
238.858	154.5
239.091	147.5
239.325	146.5
239.559	140.5
239.793	158.5
240.027	166.5
240.26	157.5
240.494	158.5
240.728	154.5
240.961	171.5
241.195	171.5
241.429	161.5
241.662	149.5
241.896	174.5
242.13	181.5
242.363	155.5
242.597	179.5
242.83	182.5
243.064	177.5
243.298	173.5
243.531	183.5
243.765	168.5
243.998	189.5
244.232	165.5
244.465	177.5
244.699	179.5
244.932	185.5
245.166	196.5
245.399	195.5
245.633	197.5
245.866	185.5
246.099	189.5
246.333	183.5
246.566	191.5
246.8	189.5
247.033	184.5
247.266	187.5
247.5	206.5
247.733	189.5
247.966	189.5
248.2	210.5
248.433	206.5
248.666	226.5
248.899	205.5
249.133	206.5
249.366	215.5
249.599	223.5
249.832	215.5
250.066	215.5
250.299	195.5
250.532	206.5
250.765	209.5
250.998	219.5
251.231	236.5
251.465	223.5
251.698	234.5
251.931	234.5
252.164	222.5
252.397	219.5
252.63	230.5
252.863	241.5
253.096	233.5
253.329	255.5
253.562	246.5
253.795	235.5
254.028	231.5
254.261	243.5
254.494	225.5
254.727	247.5
254.96	243.5
255.193	245.5
255.426	244.5
255.659	237.5
255.892	253.5
256.124	263.5
256.357	268.5
256.59	245.5
256.823	229.5
257.056	250.5
257.289	263.5
257.521	247.5
257.754	265.5
257.987	265.5
258.22	253.5
258.452	269.5
258.685	266.5
258.918	263.5
259.151	269.5
259.383	292.5
259.616	276.5
259.849	284.5
260.081	271.5
260.314	296.5
260.547	271.5
260.779	269.5
261.012	279.5
261.244	272.5
261.477	281.5
261.71	275.5
261.942	280.5
262.175	289.5
262.407	294.5
262.64	286.5
262.872	295.5
263.105	273.5
263.337	301.5
263.57	291.5
263.802	305.5
264.035	290.5
264.267	295.5
264.499	295.5
264.732	295.5
264.964	298.5
265.197	286.5
265.429	306.5
265.661	310.5
265.894	305.5
266.126	313.5
266.358	300.5
266.591	328.5
266.823	321.5
267.055	305.5
267.287	311.5
267.52	319.5
267.752	305.5
267.984	326.5
268.216	341.5
268.448	313.5
268.681	316.5
268.913	306.5
269.145	310.5
269.377	308.5
269.609	317.5
269.841	323.5
270.073	315.5
270.306	323.5
270.538	312.5
270.77	327.5
271.002	324.5
271.234	339.5
271.466	346.5
271.698	332.5
271.93	330.5
272.162	353.5
272.394	355.5
272.626	330.5
272.858	311.5
273.09	334.5
273.322	362.5
273.553	342.5
273.785	339.5
274.017	348.5
274.249	342.5
274.481	352.5
274.713	331.5
274.945	347.5
275.176	342.5
275.408	360.5
275.64	361.5
275.872	354.5
276.104	380.5
276.335	366.5
276.567	366.5
276.799	343.5
277.031	378.5
277.262	360.5
277.494	372.5
277.726	376.5
277.957	377.5
278.189	379.5
278.421	366.5
278.652	365.5
278.884	369.5
279.115	376.5
279.347	385.5
279.579	373.5
279.81	358.5
280.042	387.5
280.273	393.5
280.505	397.5
280.736	401.5
280.968	387.5
281.199	385.5
281.431	403.5
281.662	419.5
281.894	389.5
282.125	384.5
282.356	397.5
282.588	391.5
282.819	398.5
283.051	395.5
283.282	399.5
283.513	414.5
283.745	395.5
283.976	407.5
284.207	433.5
284.439	406.5
284.67	410.5
284.901	419.5
285.132	403.5
285.364	411.5
285.595	412.5
285.826	414.5
286.057	413.5
286.288	423.5
286.52	415.5
286.751	439.5
286.982	433.5
287.213	430.5
287.444	407.5
287.675	399.5
287.906	411.5
288.138	437.5
288.369	453.5
288.6	437.5
288.831	447.5
289.062	446.5
289.293	435.5
289.524	434.5
289.755	444.5
289.986	436.5
290.217	448.5
290.448	454.5
290.679	428.5
290.91	457.5
291.141	433.5
291.371	444.5
291.602	437.5
291.833	446.5
292.064	444.5
292.295	453.5
292.526	443.5
292.757	443.5
292.987	456.5
293.218	459.5
293.449	474.5
293.68	458.5
293.91	455.5
294.141	458.5
294.372	454.5
294.603	476.5
294.833	455.5
295.064	475.5
295.295	473.5
295.525	462.5
295.756	454.5
295.987	456.5
296.217	482.5
296.448	489.5
296.679	491.5
296.909	464.5
297.14	469.5
297.37	475.5
297.601	481.5
297.831	474.5
298.062	492.5
298.292	489.5
298.523	519.5
298.753	537.5
298.984	490.5
299.214	516.5
299.445	501.5
299.675	490.5
299.905	507.5
300.136	502.5
300.366	489.5
300.597	501.5
300.827	491.5
301.057	518.5
301.288	537.5
301.518	523.5
301.748	518.5
301.979	512.5
302.209	512.5
302.439	520.5
302.669	517.5
302.9	518.5
303.13	521.5
303.36	490.5
303.59	503.5
303.82	503.5
304.051	510.5
304.281	495.5
304.511	491.5
304.741	514.5
304.971	531.5
305.201	509.5
305.431	499.5
305.661	525.5
305.891	499.5
306.121	492.5
306.352	518.5
306.582	482.5
306.812	481.5
307.042	507.5
307.272	492.5
307.502	486.5
307.731	478.5
307.961	485.5
308.191	506.5
308.421	489.5
308.651	494.5
308.881	497.5
309.111	513.5
309.341	481.5
309.571	517.5
309.8	506.5
310.03	494.5
310.26	512.5
310.49	509.5
310.72	514.5
310.949	516.5
311.179	505.5
311.409	510.5
311.639	541.5
311.868	517.5
312.098	533.5
312.328	513.5
312.557	507.5
312.787	535.5
313.017	548.5
313.246	522.5
313.476	545.5
313.706	532.5
313.935	532.5
314.165	536.5
314.394	539.5
314.624	533.5
314.853	533.5
315.083	535.5
315.312	541.5
315.542	554.5
315.771	515.5
316.001	531.5
316.23	537.5
316.46	520.5
316.689	519.5
316.919	534.5
317.148	524.5
317.377	541.5
317.607	544.5
317.836	522.5
318.065	533.5
318.295	524.5
318.524	527.5
318.753	498.5
318.983	529.5
319.212	507.5
319.441	524.5
319.67	532.5
319.9	533.5
320.129	549.5
320.358	521.5
320.587	510.5
320.816	522.5
321.046	519.5
321.275	510.5
321.504	524.5
321.733	534.5
321.962	532.5
322.191	530.5
322.42	533.5
322.649	541.5
322.878	543.5
323.108	530.5
323.337	551.5
323.566	541.5
323.795	551.5
324.024	560.5
324.253	558.5
324.482	553.5
324.71	535.5
324.939	537.5
325.168	563.5
325.397	541.5
325.626	569.5
325.855	570.5
326.084	582.5
326.313	581.5
326.542	587.5
326.77	598.5
326.999	590.5
327.228	594.5
327.457	570.5
327.686	568.5
327.914	586.5
328.143	600.5
328.372	599.5
328.6	584.5
328.829	581.5
329.058	585.5
329.287	608.5
329.515	585.5
329.744	604.5
329.972	610.5
330.201	594.5
330.43	594.5
330.658	605.5
330.887	602.5
331.115	600.5
331.344	617.5
331.572	603.5
331.801	620.5
332.03	641.5
332.258	649.5
332.486	676.5
332.715	719.5
332.943	740.5
333.172	745.5
333.4	768.5
333.629	822.5
333.857	815.5
334.085	818.5
334.314	788.5
334.542	780.5
334.771	753.5
334.999	738.5
335.227	746.5
335.455	736.5
335.684	735.5
335.912	746.5
336.14	734.5
336.369	720.5
336.597	706.5
336.825	719.5
337.053	718.5
337.281	705.5
337.51	693.5
337.738	685.5
337.966	663.5
338.194	661.5
338.422	665.5
338.65	645.5
338.878	662.5
339.106	632.5
339.334	654.5
339.562	630.5
339.79	632.5
340.018	639.5
340.246	601.5
340.474	609.5
340.702	613.5
340.93	652.5
341.158	645.5
341.386	620.5
341.614	629.5
341.842	635.5
342.07	616.5
342.298	620.5
342.526	612.5
342.754	603.5
342.981	615.5
343.209	652.5
343.437	668.5
343.665	703.5
343.893	771.5
344.12	792.5
344.348	775.5
344.576	701.5
344.804	703.5
345.031	652.5
345.259	673.5
345.487	660.5
345.714	629.5
345.942	647.5
346.17	631.5
346.397	621.5
346.625	615.5
346.853	580.5
347.08	603.5
347.308	622.5
347.535	616.5
347.763	615.5
347.99	622.5
348.218	597.5
348.445	627.5
348.673	618.5
348.9	603.5
349.128	590.5
349.355	586.5
349.583	644.5
349.81	611.5
350.037	609.5
350.265	595.5
350.492	591.5
350.72	579.5
350.947	584.5
351.174	594.5
351.402	613.5
351.629	620.5
351.856	609.5
352.083	606.5
352.311	593.5
352.538	578.5
352.765	599.5
352.992	578.5
353.22	575.5
353.447	575.5
353.674	587.5
353.901	574.5
354.128	571.5
354.355	583.5
354.583	569.5
354.81	577.5
355.037	603.5
355.264	590.5
355.491	578.5
355.718	589.5
355.945	596.5
356.172	582.5
356.399	602.5
356.626	627.5
356.853	561.5
357.08	592.5
357.307	580.5
357.534	589.5
357.761	597.5
357.988	589.5
358.215	600.5
358.441	599.5
358.668	610.5
358.895	579.5
359.122	605.5
359.349	598.5
359.576	588.5
359.802	599.5
360.029	577.5
360.256	567.5
360.483	583.5
360.709	604.5
360.936	567.5
361.163	572.5
361.39	598.5
361.616	607.5
361.843	616.5
362.07	606.5
362.296	600.5
362.523	576.5
362.749	586.5
362.976	580.5
363.203	566.5
363.429	556.5
363.656	581.5
363.882	574.5
364.109	584.5
364.335	574.5
364.562	568.5
364.788	580.5
365.015	612.5
365.241	589.5
365.468	598.5
365.694	560.5
365.92	574.5
366.147	570.5
366.373	604.5
366.599	586.5
366.826	589.5
367.052	585.5
367.278	588.5
367.505	568.5
367.731	610.5
367.957	605.5
368.184	619.5
368.41	590.5
368.636	588.5
368.862	603.5
369.089	603.5
369.315	618.5
369.541	623.5
369.767	625.5
369.993	590.5
370.219	605.5
370.445	593.5
370.672	630.5
370.898	619.5
371.124	645.5
371.35	635.5
371.576	635.5
371.802	651.5
372.028	638.5
372.254	653.5
372.48	667.5
372.706	633.5
372.932	667.5
373.158	663.5
373.384	652.5
373.61	639.5
373.835	641.5
374.061	622.5
374.287	637.5
374.513	643.5
374.739	691.5
374.965	686.5
375.191	725.5
375.416	686.5
375.642	697.5
375.868	677.5
376.094	664.5
376.319	665.5
376.545	635.5
376.771	645.5
376.997	643.5
377.222	655.5
377.448	647.5
377.674	645.5
377.899	612.5
378.125	645.5
378.35	627.5
378.576	611.5
378.802	621.5
379.027	625.5
379.253	640.5
379.478	630.5
379.704	649.5
379.929	629.5
380.155	625.5
380.38	646.5
380.606	637.5
380.831	645.5
381.057	633.5
381.282	621.5
381.507	636.5
381.733	622.5
381.958	635.5
382.184	641.5
382.409	652.5
382.634	649.5
382.86	635.5
383.085	695.5
383.31	685.5
383.535	710.5
383.761	718.5
383.986	730.5
384.211	748.5
384.436	735.5
384.662	748.5
384.887	770.5
385.112	795.5
385.337	797.5
385.562	792.5
385.787	783.5
386.013	773.5
386.238	769.5
386.463	750.5
386.688	789.5
386.913	769.5
387.138	774.5
387.363	765.5
387.588	760.5
387.813	773.5
388.038	746.5
388.263	753.5
388.488	755.5
388.713	748.5
388.938	763.5
389.163	723.5
389.387	734.5
389.612	759.5
389.837	723.5
390.062	741.5
390.287	740.5
390.512	744.5
390.736	778.5
390.961	802.5
391.186	809.5
391.411	818.5
391.636	815.5
391.86	839.5
392.085	865.5
392.31	859.5
392.534	866.5
392.759	847.5
392.984	801.5
393.208	789.5
393.433	795.5
393.658	819.5
393.882	819.5
394.107	814.5
394.331	834.5
394.556	835.5
394.78	842.5
395.005	827.5
395.229	806.5
395.454	859.5
395.678	873.5
395.903	871.5
396.127	854.5
396.352	822.5
396.576	776.5
396.801	799.5
397.025	801.5
397.249	842.5
397.474	807.5
397.698	858.5
397.922	871.5
398.147	808.5
398.371	869.5
398.595	906.5
398.82	943.5
399.044	998.5
399.268	1125.5
399.492	1291.5
399.717	1463.5
399.941	1526.5
400.165	1312.5
400.389	1185.5
400.613	1074.5
400.837	1021.5
401.062	990.5
401.286	977.5
401.51	935.5
401.734	933.5
401.958	981.5
402.182	994.5
402.406	1006.5
402.63	984.5
402.854	1034.5
403.078	1043.5
403.302	1095.5
403.526	1111.5
403.75	1143.5
403.974	1113.5
404.198	1151.5
404.422	1159.5
404.645	1132.5
404.869	1110.5
405.093	1100.5
405.317	1096.5
405.541	1052.5
405.765	1051.5
405.988	1053.5
406.212	1080.5
406.436	1063.5
406.66	1103.5
406.883	1098.5
407.107	1180.5
407.331	1235.5
407.555	1278.5
407.778	1227.5
408.002	1191.5
408.226	1203.5
408.449	1160.5
408.673	1141.5
408.896	1109.5
409.12	1086.5
409.344	1106.5
409.567	1115.5
409.791	1127.5
410.014	1082.5
410.238	1094.5
410.461	1079.5
410.685	1081.5
410.908	1045.5
411.132	1045.5
411.355	994.5
411.578	1012.5
411.802	999.5
412.025	1009.5
412.249	1026.5
412.472	1025.5
412.695	967.5
412.919	966.5
413.142	930.5
413.365	949.5
413.589	961.5
413.812	955.5
414.035	963.5
414.258	951.5
414.482	951.5
414.705	999.5
414.928	960.5
415.151	966.5
415.374	985.5
415.597	932.5
415.821	973.5
416.044	966.5
416.267	942.5
416.49	918.5
416.713	928.5
416.936	959.5
417.159	923.5
417.382	963.5
417.605	957.5
417.828	932.5
418.051	973.5
418.274	955.5
418.497	967.5
418.72	962.5
418.943	962.5
419.166	1043.5
419.389	1141.5
419.611	1095.5
419.834	1044.5
420.057	1011.5
420.28	964.5
420.503	957.5
420.726	958.5
420.948	970.5
421.171	932.5
421.394	956.5
421.617	933.5
421.839	939.5
422.062	965.5
422.285	979.5
422.507	965.5
422.73	974.5
422.953	970.5
423.175	1011.5
423.398	1018.5
423.621	1002.5
423.843	1039.5
424.066	1035.5
424.288	1013.5
424.511	1017.5
424.733	1003.5
424.956	1004.5
425.178	997.5
425.401	968.5
425.623	968.5
425.846	935.5
426.068	934.5
426.291	905.5
426.513	907.5
426.735	875.5
426.958	911.5
427.18	897.5
427.402	876.5
427.625	897.5
427.847	877.5
428.069	842.5
428.292	859.5
428.514	874.5
428.736	874.5
428.958	878.5
429.181	838.5
429.403	828.5
429.625	844.5
429.847	827.5
430.069	839.5
430.292	824.5
430.514	842.5
430.736	839.5
430.958	852.5
431.18	836.5
431.402	850.5
431.624	853.5
431.846	889.5
432.068	883.5
432.29	884.5
432.512	843.5
432.734	861.5
432.956	865.5
433.178	870.5
433.4	886.5
433.622	903.5
433.844	875.5
434.066	882.5
434.287	906.5
434.509	939.5
434.731	996.5
434.953	964.5
435.175	996.5
435.397	980.5
435.618	909.5
435.84	935.5
436.062	876.5
436.284	866.5
436.505	867.5
436.727	871.5
436.949	870.5
437.17	889.5
437.392	865.5
437.614	856.5
437.835	840.5
438.057	870.5
438.278	811.5
438.5	818.5
438.721	835.5
438.943	850.5
439.165	841.5
439.386	867.5
439.608	870.5
439.829	869.5
440.05	873.5
440.272	869.5
440.493	904.5
440.715	893.5
440.936	888.5
441.158	949.5
441.379	926.5
441.6	999.5
441.822	1015.5
442.043	1014.5
442.264	983.5
442.486	970.5
442.707	963.5
442.928	953.5
443.149	954.5
443.371	974.5
443.592	980.5
443.813	1018.5
444.034	1010.5
444.255	1029.5
444.476	1074.5
444.698	1117.5
444.919	1206.5
445.14	1249.5
445.361	1097.5
445.582	995.5
445.803	970.5
446.024	917.5
446.245	944.5
446.466	893.5
446.687	910.5
446.908	865.5
447.129	855.5
447.35	838.5
447.571	843.5
447.792	809.5
448.013	809.5
448.234	818.5
448.455	811.5
448.675	807.5
448.896	792.5
449.117	801.5
449.338	775.5
449.559	787.5
449.779	785.5
450	789.5
450.221	771.5
450.442	813.5
450.662	789.5
450.883	810.5
451.104	844.5
451.324	824.5
451.545	828.5
451.766	824.5
451.986	812.5
452.207	813.5
452.428	817.5
452.648	788.5
452.869	796.5
453.089	780.5
453.31	801.5
453.53	761.5
453.751	790.5
453.971	792.5
454.192	758.5
454.412	785.5
454.633	790.5
454.853	753.5
455.073	750.5
455.294	763.5
455.514	779.5
455.734	758.5
455.955	760.5
456.175	759.5
456.395	753.5
456.616	760.5
456.836	748.5
457.056	743.5
457.276	728.5
457.497	749.5
457.717	742.5
457.937	762.5
458.157	783.5
458.377	771.5
458.598	777.5
458.818	803.5
459.038	807.5
459.258	870.5
459.478	922.5
459.698	923.5
459.918	977.5
460.138	1004.5
460.358	1007.5
460.578	1046.5
460.798	1057.5
461.018	1080.5
461.238	1051.5
461.458	1050.5
461.678	1037.5
461.898	1051.5
462.118	1051.5
462.338	1098.5
462.558	1133.5
462.777	1197.5
462.997	1294.5
463.217	1421.5
463.437	1454.5
463.657	1342.5
463.876	1245.5
464.096	1225.5
464.316	1193.5
464.536	1237.5
464.755	1222.5
464.975	1167.5
465.195	1088.5
465.414	1003.5
465.634	953.5
465.854	932.5
466.073	907.5
466.293	883.5
466.512	885.5
466.732	862.5
466.951	857.5
467.171	858.5
467.391	883.5
467.61	863.5
467.829	851.5
468.049	834.5
468.268	801.5
468.488	803.5
468.707	789.5
468.927	830.5
469.146	798.5
469.365	830.5
469.585	815.5
469.804	853.5
470.023	872.5
470.243	876.5
470.462	897.5
470.681	901.5
470.901	863.5
471.12	878.5
471.339	846.5
471.558	853.5
471.777	824.5
471.997	823.5
472.216	823.5
472.435	792.5
472.654	828.5
472.873	806.5
473.092	790.5
473.311	800.5
473.53	790.5
473.749	756.5
473.968	806.5
474.187	787.5
474.406	776.5
474.625	782.5
474.844	796.5
475.063	791.5
475.282	805.5
475.501	813.5
475.72	817.5
475.939	827.5
476.158	825.5
476.377	832.5
476.596	834.5
476.814	847.5
477.033	842.5
477.252	860.5
477.471	885.5
477.69	875.5
477.908	955.5
478.127	939.5
478.346	936.5
478.564	948.5
478.783	996.5
479.002	1007.5
479.22	1029.5
479.439	995.5
479.658	997.5
479.876	995.5
480.095	1018.5
480.313	1059.5
480.532	1077.5
480.751	1111.5
480.969	1026.5
481.188	995.5
481.406	968.5
481.624	945.5
481.843	923.5
482.061	905.5
482.28	898.5
482.498	886.5
482.717	893.5
482.935	882.5
483.153	896.5
483.372	894.5
483.59	909.5
483.808	902.5
484.027	925.5
484.245	917.5
484.463	911.5
484.681	954.5
484.9	953.5
485.118	920.5
485.336	957.5
485.554	952.5
485.772	970.5
485.99	970.5
486.209	984.5
486.427	969.5
486.645	976.5
486.863	973.5
487.081	949.5
487.299	965.5
487.517	968.5
487.735	964.5
487.953	965.5
488.171	967.5
488.389	953.5
488.607	947.5
488.825	905.5
489.043	931.5
489.261	939.5
489.479	958.5
489.696	934.5
489.914	972.5
490.132	975.5
490.35	974.5
490.568	995.5
490.786	955.5
491.003	948.5
491.221	969.5
491.439	931.5
491.657	969.5
491.874	974.5
492.092	980.5
492.31	963.5
492.527	1001.5
492.745	963.5
492.963	988.5
493.18	988.5
493.398	1010.5
493.615	984.5
493.833	994.5
494.05	981.5
494.268	966.5
494.485	1005.5
494.703	1012.5
494.92	1050.5
495.138	1032.5
495.355	1031.5
495.573	997.5
495.79	1040.5
496.008	1021.5
496.225	1029.5
496.442	1043.5
496.66	1055.5
496.877	1099.5
497.094	1074.5
497.312	1111.5
497.529	1091.5
497.746	1158.5
497.963	1185.5
498.181	1209.5
498.398	1283.5
498.615	1366.5
498.832	1477.5
499.049	1536.5
499.267	1663.5
499.484	1845.5
499.701	2002.5
499.918	2263.5
500.135	2623.5
500.352	2973.5
500.569	3140.5
500.786	3100.5
501.003	2889.5
501.22	2590.5
501.437	2237.5
501.654	2022.5
501.871	1800.5
502.088	1604.5
502.305	1526.5
502.522	1435.5
502.739	1385.5
502.956	1328.5
503.172	1270.5
503.389	1223.5
503.606	1163.5
503.823	1178.5
504.04	1151.5
504.256	1163.5
504.473	1246.5
504.69	1222.5
504.907	1198.5
505.123	1110.5
505.34	1055.5
505.557	1006.5
505.773	1018.5
505.99	982.5
506.207	956.5
506.423	953.5
506.64	941.5
506.856	956.5
507.073	939.5
507.289	894.5
507.506	892.5
507.722	903.5
507.939	906.5
508.155	900.5
508.372	872.5
508.588	860.5
508.805	866.5
509.021	865.5
509.238	838.5
509.454	855.5
509.67	837.5
509.887	818.5
510.103	839.5
510.319	857.5
510.536	823.5
510.752	853.5
510.968	827.5
511.184	830.5
511.401	827.5
511.617	801.5
511.833	814.5
512.049	808.5
512.265	794.5
512.481	857.5
512.698	819.5
512.914	831.5
513.13	815.5
513.346	825.5
513.562	835.5
513.778	827.5
513.994	836.5
514.21	841.5
514.426	813.5
514.642	830.5
514.858	828.5
515.074	859.5
515.29	864.5
515.506	849.5
515.721	875.5
515.937	876.5
516.153	909.5
516.369	909.5
516.585	926.5
516.801	947.5
517.016	998.5
517.232	1074.5
517.448	1101.5
517.664	1169.5
517.879	1139.5
518.095	1151.5
518.311	1153.5
518.527	1069.5
518.742	1029.5
518.958	964.5
519.173	951.5
519.389	914.5
519.605	897.5
519.82	856.5
520.036	885.5
520.251	846.5
520.467	851.5
520.682	874.5
520.898	840.5
521.113	822.5
521.329	828.5
521.544	802.5
521.76	795.5
521.975	814.5
522.19	814.5
522.406	765.5
522.621	766.5
522.836	773.5
523.052	776.5
523.267	783.5
523.482	762.5
523.698	782.5
523.913	767.5
524.128	791.5
524.343	746.5
524.559	779.5
524.774	780.5
524.989	749.5
525.204	754.5
525.419	756.5
525.634	772.5
525.849	774.5
526.064	763.5
526.28	750.5
526.495	756.5
526.71	734.5
526.925	748.5
527.14	744.5
527.355	736.5
527.57	773.5
527.785	727.5
527.999	762.5
528.214	742.5
528.429	750.5
528.644	750.5
528.859	731.5
529.074	723.5
529.289	754.5
529.503	740.5
529.718	781.5
529.933	728.5
530.148	769.5
530.363	782.5
530.577	757.5
530.792	751.5
531.007	741.5
531.221	743.5
531.436	766.5
531.651	767.5
531.865	748.5
532.08	752.5
532.295	765.5
532.509	773.5
532.724	774.5
532.938	756.5
533.153	765.5
533.367	742.5
533.582	754.5
533.796	767.5
534.011	781.5
534.225	732.5
534.44	725.5
534.654	742.5
534.868	750.5
535.083	742.5
535.297	756.5
535.511	741.5
535.726	728.5
535.94	751.5
536.154	726.5
536.369	701.5
536.583	721.5
536.797	711.5
537.011	695.5
537.225	710.5
537.44	695.5
537.654	719.5
537.868	698.5
538.082	695.5
538.296	697.5
538.51	682.5
538.724	695.5
538.938	685.5
539.153	672.5
539.367	693.5
539.581	694.5
539.795	659.5
540.009	677.5
540.222	661.5
540.436	678.5
540.65	687.5
540.864	688.5
541.078	686.5
541.292	679.5
541.506	672.5
541.72	669.5
541.934	675.5
542.147	694.5
542.361	684.5
542.575	670.5
542.789	666.5
543.002	650.5
543.216	663.5
543.43	689.5
543.644	674.5
543.857	675.5
544.071	684.5
544.285	681.5
544.498	689.5
544.712	678.5
544.925	701.5
545.139	707.5
545.352	691.5
545.566	706.5
545.779	698.5
545.993	695.5
546.206	700.5
546.42	705.5
546.633	685.5
546.847	669.5
547.06	690.5
547.274	672.5
547.487	689.5
547.7	685.5
547.914	706.5
548.127	699.5
548.34	709.5
548.554	683.5
548.767	682.5
548.98	681.5
549.193	693.5
549.407	708.5
549.62	706.5
549.833	707.5
550.046	707.5
550.259	715.5
550.473	689.5
550.686	674.5
550.899	665.5
551.112	684.5
551.325	682.5
551.538	678.5
551.751	659.5
551.964	670.5
552.177	709.5
552.39	673.5
552.603	702.5
552.816	722.5
553.029	737.5
553.242	756.5
553.455	750.5
553.667	780.5
553.88	771.5
554.093	757.5
554.306	737.5
554.519	694.5
554.732	676.5
554.944	687.5
555.157	668.5
555.37	659.5
555.583	647.5
555.795	653.5
556.008	602.5
556.221	610.5
556.433	622.5
556.646	596.5
556.859	622.5
557.071	594.5
557.284	607.5
557.496	614.5
557.709	605.5
557.921	613.5
558.134	586.5
558.346	604.5
558.559	579.5
558.771	577.5
558.984	593.5
559.196	559.5
559.409	592.5
559.621	580.5
559.833	559.5
560.046	581.5
560.258	580.5
560.47	581.5
560.683	571.5
560.895	573.5
561.107	553.5
561.32	554.5
561.532	574.5
561.744	575.5
561.956	582.5
562.168	567.5
562.381	587.5
562.593	569.5
562.805	572.5
563.017	579.5
563.229	576.5
563.441	558.5
563.653	590.5
563.865	597.5
564.077	607.5
564.289	574.5
564.501	603.5
564.713	629.5
564.925	609.5
565.137	627.5
565.349	634.5
565.561	642.5
565.773	675.5
565.985	679.5
566.197	773.5
566.408	812.5
566.62	867.5
566.832	938.5
567.044	985.5
567.255	971.5
567.467	974.5
567.679	1047.5
567.891	1117.5
568.102	1154.5
568.314	1106.5
568.526	990.5
568.737	897.5
568.949	821.5
569.161	727.5
569.372	685.5
569.584	655.5
569.795	654.5
570.007	616.5
570.218	606.5
570.43	599.5
570.641	582.5
570.853	581.5
571.064	630.5
571.276	603.5
571.487	605.5
571.698	584.5
571.91	566.5
572.121	541.5
572.333	537.5
572.544	525.5
572.755	498.5
572.966	499.5
573.178	521.5
573.389	495.5
573.6	478.5
573.811	510.5
574.023	494.5
574.234	469.5
574.445	481.5
574.656	503.5
574.867	485.5
575.078	476.5
575.289	484.5
575.501	477.5
575.712	461.5
575.923	470.5
576.134	470.5
576.345	477.5
576.556	466.5
576.767	464.5
576.978	449.5
577.188	457.5
577.399	469.5
577.61	451.5
577.821	441.5
578.032	434.5
578.243	436.5
578.454	447.5
578.665	427.5
578.875	425.5
579.086	427.5
579.297	404.5
579.508	437.5
579.718	430.5
579.929	405.5
580.14	449.5
580.35	427.5
580.561	413.5
580.772	420.5
580.982	425.5
581.193	433.5
581.403	421.5
581.614	415.5
581.825	407.5
582.035	407.5
582.246	405.5
582.456	405.5
582.667	390.5
582.877	405.5
583.087	396.5
583.298	410.5
583.508	408.5
583.719	402.5
583.929	410.5
584.139	416.5
584.35	426.5
584.56	398.5
584.77	398.5
584.981	408.5
585.191	397.5
585.401	389.5
585.611	395.5
585.821	417.5
586.032	411.5
586.242	415.5
586.452	387.5
586.662	399.5
586.872	378.5
587.082	378.5
587.292	391.5
587.502	395.5
587.713	410.5
587.923	381.5
588.133	394.5
588.343	373.5
588.553	376.5
588.762	393.5
588.972	394.5
589.182	378.5
589.392	398.5
589.602	384.5
589.812	403.5
590.022	401.5
590.232	386.5
590.441	390.5
590.651	371.5
590.861	402.5
591.071	404.5
591.281	395.5
591.49	409.5
591.7	403.5
591.91	414.5
592.119	453.5
592.329	429.5
592.539	449.5
592.748	453.5
592.958	472.5
593.167	498.5
593.377	509.5
593.587	495.5
593.796	513.5
594.006	491.5
594.215	517.5
594.424	515.5
594.634	485.5
594.843	484.5
595.053	435.5
595.262	440.5
595.472	429.5
595.681	421.5
595.89	409.5
596.1	400.5
596.309	407.5
596.518	393.5
596.727	379.5
596.937	383.5
597.146	353.5
597.355	358.5
597.564	350.5
597.774	367.5
597.983	355.5
598.192	367.5
598.401	338.5
598.61	345.5
598.819	357.5
599.028	343.5
599.237	329.5
599.446	327.5
599.655	349.5
599.864	317.5
600.073	312.5
600.282	347.5
600.491	332.5
600.7	327.5
600.909	339.5
601.118	330.5
601.327	331.5
601.536	331.5
601.745	318.5
601.953	330.5
602.162	332.5
602.371	328.5
602.58	332.5
602.789	323.5
602.997	324.5
603.206	313.5
603.415	322.5
603.623	307.5
603.832	311.5
604.041	327.5
604.249	303.5
604.458	304.5
604.666	305.5
604.875	315.5
605.084	292.5
605.292	308.5
605.501	312.5
605.709	302.5
605.918	307.5
606.126	316.5
606.334	292.5
606.543	305.5
606.751	294.5
606.96	299.5
607.168	315.5
607.376	315.5
607.585	315.5
607.793	305.5
608.001	305.5
608.21	299.5
608.418	309.5
608.626	302.5
608.834	306.5
609.043	300.5
609.251	316.5
609.459	291.5
609.667	281.5
609.875	286.5
610.083	294.5
610.291	300.5
610.499	311.5
610.707	292.5
610.916	300.5
611.124	281.5
611.332	278.5
611.54	277.5
611.748	309.5
611.955	302.5
612.163	284.5
612.371	295.5
612.579	290.5
612.787	276.5
612.995	267.5
613.203	303.5
613.411	277.5
613.618	283.5
613.826	265.5
614.034	292.5
614.242	289.5
614.449	272.5
614.657	276.5
614.865	299.5
615.072	300.5
615.28	271.5
615.488	316.5
615.695	291.5
615.903	285.5
616.111	285.5
616.318	295.5
616.526	301.5
616.733	284.5
616.941	282.5
617.148	284.5
617.356	274.5
617.563	294.5
617.771	286.5
617.978	271.5
618.185	289.5
618.393	280.5
618.6	284.5
618.807	286.5
619.015	300.5
619.222	293.5
619.429	286.5
619.637	265.5
619.844	291.5
620.051	276.5
620.258	281.5
620.466	280.5
620.673	251.5
620.88	270.5
621.087	279.5
621.294	275.5
621.501	269.5
621.708	259.5
621.915	263.5
622.122	264.5
622.329	264.5
622.536	264.5
622.743	270.5
622.95	265.5
623.157	271.5
623.364	257.5
623.571	263.5
623.778	257.5
623.985	250.5
624.192	252.5
624.399	257.5
624.606	270.5
624.812	261.5
625.019	261.5
625.226	263.5
625.433	271.5
625.639	255.5
625.846	255.5
626.053	271.5
626.259	244.5
626.466	255.5
626.673	241.5
626.879	239.5
627.086	234.5
627.293	228.5
627.499	249.5
627.706	241.5
627.912	249.5
628.119	253.5
628.325	227.5
628.532	257.5
628.738	229.5
628.945	246.5
629.151	234.5
629.357	263.5
629.564	221.5
629.77	225.5
629.976	234.5
630.183	238.5
630.389	219.5
630.595	232.5
630.802	209.5
631.008	213.5
631.214	222.5
631.42	220.5
631.627	243.5
631.833	210.5
632.039	222.5
632.245	243.5
632.451	233.5
632.657	223.5
632.863	230.5
633.069	205.5
633.275	215.5
633.481	217.5
633.688	228.5
633.893	212.5
634.099	217.5
634.305	223.5
634.511	212.5
634.717	219.5
634.923	218.5
635.129	206.5
635.335	219.5
635.541	218.5
635.747	214.5
635.952	241.5
636.158	221.5
636.364	204.5
636.57	204.5
636.775	214.5
636.981	213.5
637.187	198.5
637.392	201.5
637.598	207.5
637.804	213.5
638.009	223.5
638.215	211.5
638.421	214.5
638.626	214.5
638.832	200.5
639.037	201.5
639.243	209.5
639.448	230.5
639.654	209.5
639.859	201.5
640.065	209.5
640.27	205.5
640.475	212.5
640.681	186.5
640.886	187.5
641.091	212.5
641.297	203.5
641.502	195.5
641.707	197.5
641.913	188.5
642.118	194.5
642.323	190.5
642.528	194.5
642.733	171.5
642.939	195.5
643.144	182.5
643.349	175.5
643.554	197.5
643.759	190.5
643.964	177.5
644.169	202.5
644.374	190.5
644.579	183.5
644.784	198.5
644.989	196.5
645.194	201.5
645.399	183.5
645.604	189.5
645.809	191.5
646.014	198.5
646.219	192.5
646.423	202.5
646.628	206.5
646.833	202.5
647.038	196.5
647.243	218.5
647.447	198.5
647.652	212.5
647.857	203.5
648.062	195.5
648.266	195.5
648.471	216.5
648.676	209.5
648.88	191.5
649.085	209.5
649.289	196.5
649.494	200.5
649.698	187.5
649.903	192.5
650.107	192.5
650.312	189.5
650.516	180.5
650.721	192.5
650.925	182.5
651.13	158.5
651.334	174.5
651.539	179.5
651.743	186.5
651.947	173.5
652.152	168.5
652.356	169.5
652.56	162.5
652.764	169.5
652.969	166.5
653.173	164.5
653.377	154.5
653.581	158.5
653.785	158.5
653.99	157.5
654.194	160.5
654.398	149.5
654.602	155.5
654.806	130.5
655.01	147.5
655.214	149.5
655.418	141.5
655.622	147.5
655.826	135.5
656.03	141.5
656.234	147.5
656.438	158.5
656.642	137.5
656.846	149.5
657.049	144.5
657.253	127.5
657.457	119.5
657.661	126.5
657.865	129.5
658.068	112.5
658.272	126.5
658.476	115.5
658.68	122.5
658.883	96.5
659.087	115.5
659.291	105.5
659.494	118.5
659.698	114.5
659.901	106.5
660.105	97.5
660.309	113.5
660.512	91.5
660.716	104.5
660.919	96.5
661.123	88.5
661.326	100.5
661.53	103.5
661.733	83.5
661.936	102.5
662.14	103.5
662.343	79.5
662.546	83.5
662.75	107.5
662.953	101.5
663.156	83.5
663.36	102.5
663.563	85.5
663.766	78.5
663.969	84.5
664.173	69.5
664.376	95.5
664.579	86.5
664.782	89.5
664.985	85.5
665.188	73.5
665.391	84.5
665.594	82.5
665.797	80.5
666	88.5
666.203	99.5
666.406	78.5
666.609	75.5
666.812	87.5
667.015	80.5
667.218	94.5
667.421	77.5
667.624	79.5
667.827	66.5
668.03	83.5
668.232	73.5
668.435	93.5
668.638	85.5
668.841	90.5
669.043	79.5
669.246	86.5
669.449	88.5
669.651	88.5
669.854	68.5
670.057	86.5
670.259	77.5
670.462	78.5
670.665	79.5
670.867	86.5
671.07	92.5
671.272	95.5
671.475	82.5
671.677	86.5
671.88	85.5
672.082	87.5
672.284	90.5
672.487	84.5
672.689	84.5
672.892	87.5
