Data from Ni(NO3)2@0.5M.TitratingCurve.Agarose3%dH2O.NegLispCup.LampEnergy10.LIBS07252019_HRD10591_17-57-44-564.txt Node
Date: Thu Jul 25 17:57:44 EDT 2019
User: cochatt
Spectrometer: HR+D1059
Trigger mode: 1
Integration Time (sec): 1.000000E-1
Scans to average: 1
Electric dark correction enabled: true
Nonlinearity correction enabled: false
Boxcar width: 0
XAxis mode: Wavelengths
Number of Pixels in Spectrum: 2048
>>>>>Begin Spectral Data<<<<<
223.165	-23.06
223.4	-23.06
223.635	-23.06
223.869	-10.06
224.104	-13.06
224.338	-20.06
224.573	-9.06
224.808	-6.06
225.042	-11.06
225.277	-1.06
225.511	-1.06
225.746	-2.06
225.98	7.94
226.215	19.94
226.449	17.94
226.683	12.94
226.918	17.94
227.152	19.94
227.387	42.94
227.621	49.94
227.856	55.94
228.09	42.94
228.324	57.94
228.559	67.94
228.793	73.94
229.027	124.94
229.262	156.94
229.496	163.94
229.73	161.94
229.964	214.94
230.199	238.94
230.433	246.94
230.667	221.94
230.901	202.94
231.136	189.94
231.37	195.94
231.604	210.94
231.838	242.94
232.072	237.94
232.306	236.94
232.541	221.94
232.775	200.94
233.009	179.94
233.243	182.94
233.477	196.94
233.711	200.94
233.945	191.94
234.179	206.94
234.413	209.94
234.647	203.94
234.881	193.94
235.115	218.94
235.349	182.94
235.583	189.94
235.817	192.94
236.051	179.94
236.285	187.94
236.519	207.94
236.753	195.94
236.987	200.94
237.221	211.94
237.455	181.94
237.689	198.94
237.922	209.94
238.156	225.94
238.39	218.94
238.624	216.94
238.858	207.94
239.091	229.94
239.325	227.94
239.559	251.94
239.793	270.94
240.027	261.94
240.26	257.94
240.494	231.94
240.728	221.94
240.961	221.94
241.195	226.94
241.429	258.94
241.662	266.94
241.896	273.94
242.13	302.94
242.363	245.94
242.597	247.94
242.83	258.94
243.064	255.94
243.298	257.94
243.531	268.94
243.765	275.94
243.998	270.94
244.232	281.94
244.465	279.94
244.699	255.94
244.932	272.94
245.166	267.94
245.399	274.94
245.633	271.94
245.866	291.94
246.099	296.94
246.333	318.94
246.566	283.94
246.8	285.94
247.033	300.94
247.266	285.94
247.5	305.94
247.733	320.94
247.966	339.94
248.2	314.94
248.433	326.94
248.666	319.94
248.899	297.94
249.133	324.94
249.366	334.94
249.599	336.94
249.832	345.94
250.066	355.94
250.299	335.94
250.532	340.94
250.765	359.94
250.998	371.94
251.231	398.94
251.465	379.94
251.698	407.94
251.931	383.94
252.164	371.94
252.397	373.94
252.63	373.94
252.863	383.94
253.096	394.94
253.329	405.94
253.562	392.94
253.795	398.94
254.028	397.94
254.261	415.94
254.494	406.94
254.727	425.94
254.96	454.94
255.193	423.94
255.426	414.94
255.659	433.94
255.892	423.94
256.124	441.94
256.357	428.94
256.59	453.94
256.823	443.94
257.056	436.94
257.289	435.94
257.521	440.94
257.754	446.94
257.987	449.94
258.22	446.94
258.452	494.94
258.685	466.94
258.918	477.94
259.151	470.94
259.383	455.94
259.616	479.94
259.849	501.94
260.081	479.94
260.314	479.94
260.547	487.94
260.779	487.94
261.012	508.94
261.244	493.94
261.477	505.94
261.71	515.94
261.942	524.94
262.175	517.94
262.407	514.94
262.64	522.94
262.872	526.94
263.105	515.94
263.337	530.94
263.57	539.94
263.802	528.94
264.035	556.94
264.267	561.94
264.499	540.94
264.732	551.94
264.964	541.94
265.197	551.94
265.429	543.94
265.661	569.94
265.894	539.94
266.126	551.94
266.358	566.94
266.591	541.94
266.823	563.94
267.055	572.94
267.287	585.94
267.52	553.94
267.752	577.94
267.984	597.94
268.216	576.94
268.448	616.94
268.681	602.94
268.913	574.94
269.145	583.94
269.377	586.94
269.609	594.94
269.841	599.94
270.073	581.94
270.306	580.94
270.538	602.94
270.77	603.94
271.002	603.94
271.234	619.94
271.466	612.94
271.698	617.94
271.93	594.94
272.162	621.94
272.394	625.94
272.626	611.94
272.858	633.94
273.09	639.94
273.322	658.94
273.553	640.94
273.785	630.94
274.017	630.94
274.249	662.94
274.481	649.94
274.713	635.94
274.945	655.94
275.176	658.94
275.408	655.94
275.64	655.94
275.872	620.94
276.104	693.94
276.335	655.94
276.567	655.94
276.799	684.94
277.031	665.94
277.262	665.94
277.494	663.94
277.726	682.94
277.957	685.94
278.189	669.94
278.421	682.94
278.652	670.94
278.884	679.94
279.115	693.94
279.347	693.94
279.579	664.94
279.81	707.94
280.042	713.94
280.273	702.94
280.505	700.94
280.736	710.94
280.968	715.94
281.199	689.94
281.431	725.94
281.662	715.94
281.894	705.94
282.125	715.94
282.356	713.94
282.588	717.94
282.819	701.94
283.051	718.94
283.282	686.94
283.513	717.94
283.745	716.94
283.976	741.94
284.207	724.94
284.439	731.94
284.67	761.94
284.901	749.94
285.132	751.94
285.364	724.94
285.595	745.94
285.826	769.94
286.057	749.94
286.288	719.94
286.52	766.94
286.751	759.94
286.982	751.94
287.213	754.94
287.444	748.94
287.675	741.94
287.906	778.94
288.138	767.94
288.369	773.94
288.6	781.94
288.831	768.94
289.062	789.94
289.293	744.94
289.524	793.94
289.755	770.94
289.986	777.94
290.217	780.94
290.448	793.94
290.679	773.94
290.91	771.94
291.141	788.94
291.371	791.94
291.602	761.94
291.833	774.94
292.064	789.94
292.295	745.94
292.526	788.94
292.757	770.94
292.987	794.94
293.218	771.94
293.449	791.94
293.68	789.94
293.91	770.94
294.141	782.94
294.372	780.94
294.603	779.94
294.833	787.94
295.064	823.94
295.295	798.94
295.525	787.94
295.756	790.94
295.987	798.94
296.217	786.94
296.448	808.94
296.679	810.94
296.909	805.94
297.14	803.94
297.37	804.94
297.601	801.94
297.831	797.94
298.062	793.94
298.292	807.94
298.523	853.94
298.753	834.94
298.984	833.94
299.214	846.94
299.445	835.94
299.675	841.94
299.905	830.94
300.136	856.94
300.366	875.94
300.597	893.94
300.827	857.94
301.057	865.94
301.288	872.94
301.518	859.94
301.748	862.94
301.979	874.94
302.209	854.94
302.439	838.94
302.669	860.94
302.9	867.94
303.13	861.94
303.36	892.94
303.59	891.94
303.82	892.94
304.051	904.94
304.281	897.94
304.511	902.94
304.741	921.94
304.971	895.94
305.201	907.94
305.431	962.94
305.661	934.94
305.891	899.94
306.121	889.94
306.352	903.94
306.582	911.94
306.812	905.94
307.042	892.94
307.272	894.94
307.502	924.94
307.731	904.94
307.961	935.94
308.191	935.94
308.421	917.94
308.651	917.94
308.881	925.94
309.111	894.94
309.341	920.94
309.571	930.94
309.8	933.94
310.03	960.94
310.26	983.94
310.49	986.94
310.72	968.94
310.949	933.94
311.179	958.94
311.409	960.94
311.639	944.94
311.868	962.94
312.098	967.94
312.328	963.94
312.557	1009.94
312.787	975.94
313.017	980.94
313.246	1015.94
313.476	1014.94
313.706	1024.94
313.935	990.94
314.165	1011.94
314.394	997.94
314.624	995.94
314.853	1009.94
315.083	1007.94
315.312	1039.94
315.542	1027.94
315.771	1027.94
316.001	1054.94
316.23	1059.94
316.46	1038.94
316.689	1047.94
316.919	1043.94
317.148	1053.94
317.377	1041.94
317.607	1022.94
317.836	1060.94
318.065	1061.94
318.295	1090.94
318.524	1079.94
318.753	1090.94
318.983	1077.94
319.212	1057.94
319.441	1109.94
319.67	1103.94
319.9	1098.94
320.129	1112.94
320.358	1081.94
320.587	1077.94
320.816	1076.94
321.046	1142.94
321.275	1148.94
321.504	1127.94
321.733	1177.94
321.962	1145.94
322.191	1163.94
322.42	1175.94
322.649	1150.94
322.878	1145.94
323.108	1132.94
323.337	1159.94
323.566	1210.94
323.795	1179.94
324.024	1178.94
324.253	1169.94
324.482	1155.94
324.71	1157.94
324.939	1199.94
325.168	1168.94
325.397	1182.94
325.626	1206.94
325.855	1203.94
326.084	1162.94
326.313	1251.94
326.542	1204.94
326.77	1239.94
326.999	1238.94
327.228	1241.94
327.457	1213.94
327.686	1224.94
327.914	1242.94
328.143	1233.94
328.372	1242.94
328.6	1183.94
328.829	1230.94
329.058	1240.94
329.287	1224.94
329.515	1242.94
329.744	1230.94
329.972	1277.94
330.201	1273.94
330.43	1288.94
330.658	1271.94
330.887	1280.94
331.115	1266.94
331.344	1265.94
331.572	1294.94
331.801	1291.94
332.03	1297.94
332.258	1309.94
332.486	1338.94
332.715	1323.94
332.943	1291.94
333.172	1327.94
333.4	1325.94
333.629	1320.94
333.857	1335.94
334.085	1342.94
334.314	1329.94
334.542	1340.94
334.771	1341.94
334.999	1351.94
335.227	1386.94
335.455	1368.94
335.684	1385.94
335.912	1410.94
336.14	1351.94
336.369	1359.94
336.597	1404.94
336.825	1421.94
337.053	1404.94
337.281	1403.94
337.51	1396.94
337.738	1439.94
337.966	1435.94
338.194	1449.94
338.422	1386.94
338.65	1377.94
338.878	1404.94
339.106	1403.94
339.334	1417.94
339.562	1376.94
339.79	1351.94
340.018	1353.94
340.246	1366.94
340.474	1325.94
340.702	1340.94
340.93	1339.94
341.158	1382.94
341.386	1403.94
341.614	1431.94
341.842	1399.94
342.07	1363.94
342.298	1337.94
342.526	1381.94
342.754	1350.94
342.981	1327.94
343.209	1377.94
343.437	1363.94
343.665	1405.94
343.893	1363.94
344.12	1369.94
344.348	1396.94
344.576	1393.94
344.804	1454.94
345.031	1398.94
345.259	1371.94
345.487	1335.94
345.714	1369.94
345.942	1413.94
346.17	1405.94
346.397	1379.94
346.625	1357.94
346.853	1333.94
347.08	1337.94
347.308	1345.94
347.535	1349.94
347.763	1350.94
347.99	1318.94
348.218	1353.94
348.445	1342.94
348.673	1314.94
348.9	1309.94
349.128	1322.94
349.355	1349.94
349.583	1382.94
349.81	1316.94
350.037	1282.94
350.265	1295.94
350.492	1309.94
350.72	1324.94
350.947	1324.94
351.174	1366.94
351.402	1387.94
351.629	1363.94
351.856	1341.94
352.083	1317.94
352.311	1338.94
352.538	1356.94
352.765	1379.94
352.992	1299.94
353.22	1292.94
353.447	1250.94
353.674	1239.94
353.901	1288.94
354.128	1301.94
354.355	1285.94
354.583	1291.94
354.81	1297.94
355.037	1287.94
355.264	1278.94
355.491	1293.94
355.718	1297.94
355.945	1271.94
356.172	1295.94
356.399	1281.94
356.626	1314.94
356.853	1331.94
357.08	1289.94
357.307	1322.94
357.534	1303.94
357.761	1293.94
357.988	1316.94
358.215	1251.94
358.441	1284.94
358.668	1282.94
358.895	1294.94
359.122	1285.94
359.349	1265.94
359.576	1261.94
359.802	1333.94
360.029	1293.94
360.256	1314.94
360.483	1300.94
360.709	1275.94
360.936	1305.94
361.163	1293.94
361.39	1310.94
361.616	1332.94
361.843	1361.94
362.07	1393.94
362.296	1380.94
362.523	1309.94
362.749	1290.94
362.976	1285.94
363.203	1295.94
363.429	1285.94
363.656	1295.94
363.882	1299.94
364.109	1335.94
364.335	1294.94
364.562	1297.94
364.788	1289.94
365.015	1297.94
365.241	1309.94
365.468	1311.94
365.694	1250.94
365.92	1285.94
366.147	1283.94
366.373	1281.94
366.599	1280.94
366.826	1313.94
367.052	1318.94
367.278	1337.94
367.505	1300.94
367.731	1304.94
367.957	1307.94
368.184	1325.94
368.41	1312.94
368.636	1315.94
368.862	1291.94
369.089	1318.94
369.315	1326.94
369.541	1302.94
369.767	1316.94
369.993	1323.94
370.219	1323.94
370.445	1337.94
370.672	1359.94
370.898	1342.94
371.124	1343.94
371.35	1342.94
371.576	1354.94
371.802	1374.94
372.028	1341.94
372.254	1350.94
372.48	1359.94
372.706	1331.94
372.932	1317.94
373.158	1359.94
373.384	1333.94
373.61	1331.94
373.835	1371.94
374.061	1343.94
374.287	1352.94
374.513	1355.94
374.739	1353.94
374.965	1327.94
375.191	1351.94
375.416	1331.94
375.642	1339.94
375.868	1365.94
376.094	1317.94
376.319	1328.94
376.545	1312.94
376.771	1305.94
376.997	1300.94
377.222	1308.94
377.448	1338.94
377.674	1281.94
377.899	1341.94
378.125	1322.94
378.35	1301.94
378.576	1285.94
378.802	1322.94
379.027	1341.94
379.253	1310.94
379.478	1303.94
379.704	1323.94
379.929	1305.94
380.155	1287.94
380.38	1311.94
380.606	1321.94
380.831	1313.94
381.057	1334.94
381.282	1319.94
381.507	1320.94
381.733	1270.94
381.958	1287.94
382.184	1349.94
382.409	1321.94
382.634	1335.94
382.86	1317.94
383.085	1311.94
383.31	1315.94
383.535	1354.94
383.761	1322.94
383.986	1307.94
384.211	1374.94
384.436	1346.94
384.662	1334.94
384.887	1354.94
385.112	1319.94
385.337	1353.94
385.562	1377.94
385.787	1373.94
386.013	1399.94
386.238	1351.94
386.463	1371.94
386.688	1384.94
386.913	1373.94
387.138	1394.94
387.363	1394.94
387.588	1389.94
387.813	1397.94
388.038	1389.94
388.263	1377.94
388.488	1408.94
388.713	1417.94
388.938	1400.94
389.163	1400.94
389.387	1420.94
389.612	1393.94
389.837	1386.94
390.062	1380.94
390.287	1397.94
390.512	1367.94
390.736	1411.94
390.961	1426.94
391.186	1384.94
391.411	1411.94
391.636	1417.94
391.86	1412.94
392.085	1397.94
392.31	1435.94
392.534	1399.94
392.759	1387.94
392.984	1408.94
393.208	1419.94
393.433	1451.94
393.658	1429.94
393.882	1426.94
394.107	1403.94
394.331	1398.94
394.556	1417.94
394.78	1406.94
395.005	1411.94
395.229	1402.94
395.454	1423.94
395.678	1415.94
395.903	1449.94
396.127	1469.94
396.352	1451.94
396.576	1422.94
396.801	1449.94
397.025	1426.94
397.249	1458.94
397.474	1457.94
397.698	1464.94
397.922	1480.94
398.147	1474.94
398.371	1499.94
398.595	1503.94
398.82	1490.94
399.044	1519.94
399.268	1562.94
399.492	1563.94
399.717	1564.94
399.941	1635.94
400.165	1574.94
400.389	1607.94
400.613	1592.94
400.837	1542.94
401.062	1565.94
401.286	1529.94
401.51	1510.94
401.734	1522.94
401.958	1514.94
402.182	1527.94
402.406	1508.94
402.63	1514.94
402.854	1489.94
403.078	1539.94
403.302	1555.94
403.526	1530.94
403.75	1509.94
403.974	1533.94
404.198	1529.94
404.422	1551.94
404.645	1524.94
404.869	1498.94
405.093	1544.94
405.317	1510.94
405.541	1571.94
405.765	1605.94
405.988	1599.94
406.212	1612.94
406.436	1544.94
406.66	1602.94
406.883	1576.94
407.107	1619.94
407.331	1634.94
407.555	1644.94
407.778	1662.94
408.002	1630.94
408.226	1621.94
408.449	1633.94
408.673	1653.94
408.896	1625.94
409.12	1589.94
409.344	1643.94
409.567	1574.94
409.791	1604.94
410.014	1598.94
410.238	1597.94
410.461	1590.94
410.685	1579.94
410.908	1577.94
411.132	1605.94
411.355	1523.94
411.578	1524.94
411.802	1538.94
412.025	1545.94
412.249	1565.94
412.472	1561.94
412.695	1547.94
412.919	1529.94
413.142	1530.94
413.365	1557.94
413.589	1520.94
413.812	1489.94
414.035	1513.94
414.258	1541.94
414.482	1498.94
414.705	1541.94
414.928	1537.94
415.151	1530.94
415.374	1528.94
415.597	1505.94
415.821	1489.94
416.044	1533.94
416.267	1495.94
416.49	1480.94
416.713	1505.94
416.936	1481.94
417.159	1478.94
417.382	1475.94
417.605	1470.94
417.828	1459.94
418.051	1485.94
418.274	1482.94
418.497	1465.94
418.72	1445.94
418.943	1453.94
419.166	1522.94
419.389	1610.94
419.611	1577.94
419.834	1533.94
420.057	1508.94
420.28	1487.94
420.503	1471.94
420.726	1480.94
420.948	1478.94
421.171	1445.94
421.394	1463.94
421.617	1423.94
421.839	1487.94
422.062	1474.94
422.285	1453.94
422.507	1483.94
422.73	1458.94
422.953	1478.94
423.175	1482.94
423.398	1498.94
423.621	1457.94
423.843	1468.94
424.066	1461.94
424.288	1484.94
424.511	1463.94
424.733	1484.94
424.956	1486.94
425.178	1475.94
425.401	1501.94
425.623	1489.94
425.846	1452.94
426.068	1479.94
426.291	1481.94
426.513	1474.94
426.735	1446.94
426.958	1485.94
427.18	1429.94
427.402	1467.94
427.625	1478.94
427.847	1471.94
428.069	1450.94
428.292	1506.94
428.514	1453.94
428.736	1443.94
428.958	1465.94
429.181	1476.94
429.403	1464.94
429.625	1479.94
429.847	1451.94
430.069	1433.94
430.292	1472.94
430.514	1409.94
430.736	1473.94
430.958	1465.94
431.18	1484.94
431.402	1444.94
431.624	1435.94
431.846	1483.94
432.068	1445.94
432.29	1513.94
432.512	1468.94
432.734	1466.94
432.956	1465.94
433.178	1489.94
433.4	1570.94
433.622	1494.94
433.844	1496.94
434.066	1515.94
434.287	1488.94
434.509	1473.94
434.731	1503.94
434.953	1491.94
435.175	1523.94
435.397	1538.94
435.618	1511.94
435.84	1509.94
436.062	1473.94
436.284	1487.94
436.505	1469.94
436.727	1514.94
436.949	1486.94
437.17	1482.94
437.392	1483.94
437.614	1508.94
437.835	1423.94
438.057	1435.94
438.278	1413.94
438.5	1436.94
438.721	1431.94
438.943	1465.94
439.165	1428.94
439.386	1426.94
439.608	1468.94
439.829	1475.94
440.05	1448.94
440.272	1480.94
440.493	1498.94
440.715	1473.94
440.936	1449.94
441.158	1451.94
441.379	1477.94
441.6	1544.94
441.822	1497.94
442.043	1502.94
442.264	1458.94
442.486	1464.94
442.707	1506.94
442.928	1494.94
443.149	1515.94
443.371	1537.94
443.592	1591.94
443.813	1561.94
444.034	1487.94
444.255	1494.94
444.476	1499.94
444.698	1526.94
444.919	1557.94
445.14	1653.94
445.361	1576.94
445.582	1518.94
445.803	1480.94
446.024	1457.94
446.245	1457.94
446.466	1467.94
446.687	1434.94
446.908	1443.94
447.129	1389.94
447.35	1443.94
447.571	1429.94
447.792	1383.94
448.013	1363.94
448.234	1398.94
448.455	1395.94
448.675	1382.94
448.896	1384.94
449.117	1355.94
449.338	1329.94
449.559	1373.94
449.779	1361.94
450	1320.94
450.221	1337.94
450.442	1388.94
450.662	1355.94
450.883	1339.94
451.104	1410.94
451.324	1332.94
451.545	1320.94
451.766	1354.94
451.986	1333.94
452.207	1333.94
452.428	1352.94
452.648	1334.94
452.869	1332.94
453.089	1348.94
453.31	1370.94
453.53	1322.94
453.751	1320.94
453.971	1342.94
454.192	1383.94
454.412	1337.94
454.633	1344.94
454.853	1317.94
455.073	1321.94
455.294	1345.94
455.514	1364.94
455.734	1363.94
455.955	1360.94
456.175	1348.94
456.395	1323.94
456.616	1287.94
456.836	1363.94
457.056	1304.94
457.276	1305.94
457.497	1380.94
457.717	1337.94
457.937	1354.94
458.157	1349.94
458.377	1327.94
458.598	1319.94
458.818	1350.94
459.038	1385.94
459.258	1356.94
459.478	1449.94
459.698	1521.94
459.918	1555.94
460.138	1517.94
460.358	1476.94
460.578	1485.94
460.798	1521.94
461.018	1544.94
461.238	1439.94
461.458	1473.94
461.678	1467.94
461.898	1485.94
462.118	1434.94
462.338	1510.94
462.558	1515.94
462.777	1603.94
462.997	1595.94
463.217	1597.94
463.437	1650.94
463.657	1624.94
463.876	1589.94
464.096	1578.94
464.316	1530.94
464.536	1511.94
464.755	1498.94
464.975	1454.94
465.195	1486.94
465.414	1492.94
465.634	1422.94
465.854	1404.94
466.073	1453.94
466.293	1403.94
466.512	1416.94
466.732	1425.94
466.951	1455.94
467.171	1415.94
467.391	1381.94
467.61	1405.94
467.829	1420.94
468.049	1374.94
468.268	1385.94
468.488	1369.94
468.707	1377.94
468.927	1398.94
469.146	1433.94
469.365	1417.94
469.585	1418.94
469.804	1383.94
470.023	1388.94
470.243	1421.94
470.462	1413.94
470.681	1414.94
470.901	1405.94
471.12	1385.94
471.339	1404.94
471.558	1399.94
471.777	1452.94
471.997	1441.94
472.216	1429.94
472.435	1423.94
472.654	1429.94
472.873	1415.94
473.092	1402.94
473.311	1419.94
473.53	1463.94
473.749	1439.94
473.968	1426.94
474.187	1430.94
474.406	1424.94
474.625	1455.94
474.844	1477.94
475.063	1475.94
475.282	1478.94
475.501	1508.94
475.72	1459.94
475.939	1498.94
476.158	1514.94
476.377	1489.94
476.596	1501.94
476.814	1503.94
477.033	1537.94
477.252	1514.94
477.471	1547.94
477.69	1547.94
477.908	1568.94
478.127	1617.94
478.346	1626.94
478.564	1614.94
478.783	1636.94
479.002	1693.94
479.22	1729.94
479.439	1677.94
479.658	1682.94
479.876	1671.94
480.095	1703.94
480.313	1689.94
480.532	1679.94
480.751	1691.94
480.969	1675.94
481.188	1672.94
481.406	1662.94
481.624	1676.94
481.843	1700.94
482.061	1653.94
482.28	1676.94
482.498	1719.94
482.717	1690.94
482.935	1707.94
483.153	1754.94
483.372	1812.94
483.59	1806.94
483.808	1748.94
484.027	1743.94
484.245	1744.94
484.463	1738.94
484.681	1757.94
484.9	1746.94
485.118	1749.94
485.336	1771.94
485.554	1745.94
485.772	1781.94
485.99	1736.94
486.209	1749.94
486.427	1727.94
486.645	1737.94
486.863	1779.94
487.081	1779.94
487.299	1798.94
487.517	1785.94
487.735	1825.94
487.953	1857.94
488.171	1810.94
488.389	1800.94
488.607	1793.94
488.825	1789.94
489.043	1773.94
489.261	1795.94
489.479	1774.94
489.696	1795.94
489.914	1766.94
490.132	1815.94
490.35	1782.94
490.568	1785.94
490.786	1778.94
491.003	1817.94
491.221	1844.94
491.439	1823.94
491.657	1820.94
491.874	1831.94
492.092	1849.94
492.31	1859.94
492.527	1861.94
492.745	1822.94
492.963	1838.94
493.18	1790.94
493.398	1841.94
493.615	1817.94
493.833	1830.94
494.05	1843.94
494.268	1819.94
494.485	1811.94
494.703	1833.94
494.92	1823.94
495.138	1831.94
495.355	1870.94
495.573	1845.94
495.79	1871.94
496.008	1839.94
496.225	1876.94
496.442	1859.94
496.66	1882.94
496.877	1888.94
497.094	1894.94
497.312	1887.94
497.529	1928.94
497.746	1944.94
497.963	1961.94
498.181	1957.94
498.398	2016.94
498.615	2053.94
498.832	2087.94
499.049	2125.94
499.267	2089.94
499.484	2163.94
499.701	2177.94
499.918	2183.94
500.135	2250.94
500.352	2190.94
500.569	2285.94
500.786	2280.94
501.003	2297.94
501.22	2217.94
501.437	2233.94
501.654	2168.94
501.871	2138.94
502.088	2102.94
502.305	2083.94
502.522	2100.94
502.739	2063.94
502.956	1998.94
503.172	1990.94
503.389	1951.94
503.606	1927.94
503.823	1861.94
504.04	1879.94
504.256	1881.94
504.473	1846.94
504.69	1769.94
504.907	1805.94
505.123	1763.94
505.34	1779.94
505.557	1734.94
505.773	1690.94
505.99	1703.94
506.207	1720.94
506.423	1672.94
506.64	1669.94
506.856	1629.94
507.073	1631.94
507.289	1659.94
507.506	1648.94
507.722	1618.94
507.939	1616.94
508.155	1609.94
508.372	1589.94
508.588	1596.94
508.805	1577.94
509.021	1567.94
509.238	1552.94
509.454	1565.94
509.67	1542.94
509.887	1547.94
510.103	1552.94
510.319	1520.94
510.536	1552.94
510.752	1513.94
510.968	1550.94
511.184	1502.94
511.401	1545.94
511.617	1517.94
511.833	1518.94
512.049	1462.94
512.265	1503.94
512.481	1488.94
512.698	1518.94
512.914	1516.94
513.13	1491.94
513.346	1486.94
513.562	1491.94
513.778	1480.94
513.994	1489.94
514.21	1480.94
514.426	1531.94
514.642	1523.94
514.858	1500.94
515.074	1487.94
515.29	1498.94
515.506	1501.94
515.721	1505.94
515.937	1519.94
516.153	1498.94
516.369	1516.94
516.585	1518.94
516.801	1502.94
517.016	1517.94
517.232	1539.94
517.448	1547.94
517.664	1552.94
517.879	1521.94
518.095	1524.94
518.311	1490.94
518.527	1500.94
518.742	1482.94
518.958	1493.94
519.173	1461.94
519.389	1506.94
519.605	1489.94
519.82	1504.94
520.036	1502.94
520.251	1473.94
520.467	1452.94
520.682	1448.94
520.898	1418.94
521.113	1412.94
521.329	1424.94
521.544	1438.94
521.76	1409.94
521.975	1401.94
522.19	1450.94
522.406	1377.94
522.621	1410.94
522.836	1397.94
523.052	1396.94
523.267	1374.94
523.482	1360.94
523.698	1366.94
523.913	1362.94
524.128	1368.94
524.343	1356.94
524.559	1349.94
524.774	1339.94
524.989	1372.94
525.204	1337.94
525.419	1381.94
525.634	1366.94
525.849	1336.94
526.064	1333.94
526.28	1374.94
526.495	1332.94
526.71	1320.94
526.925	1305.94
527.14	1274.94
527.355	1286.94
527.57	1296.94
527.785	1323.94
527.999	1310.94
528.214	1331.94
528.429	1339.94
528.644	1291.94
528.859	1330.94
529.074	1333.94
529.289	1356.94
529.503	1314.94
529.718	1313.94
529.933	1294.94
530.148	1284.94
530.363	1323.94
530.577	1311.94
530.792	1291.94
531.007	1263.94
531.221	1266.94
531.436	1269.94
531.651	1262.94
531.865	1245.94
532.08	1255.94
532.295	1273.94
532.509	1246.94
532.724	1260.94
532.938	1267.94
533.153	1237.94
533.367	1277.94
533.582	1274.94
533.796	1274.94
534.011	1263.94
534.225	1217.94
534.44	1233.94
534.654	1242.94
534.868	1226.94
535.083	1245.94
535.297	1242.94
535.511	1241.94
535.726	1238.94
535.94	1221.94
536.154	1230.94
536.369	1213.94
536.583	1194.94
536.797	1188.94
537.011	1203.94
537.225	1177.94
537.44	1204.94
537.654	1188.94
537.868	1222.94
538.082	1183.94
538.296	1182.94
538.51	1197.94
538.724	1201.94
538.938	1157.94
539.153	1176.94
539.367	1181.94
539.581	1150.94
539.795	1173.94
540.009	1137.94
540.222	1131.94
540.436	1166.94
540.65	1173.94
540.864	1167.94
541.078	1166.94
541.292	1169.94
541.506	1148.94
541.72	1159.94
541.934	1185.94
542.147	1194.94
542.361	1170.94
542.575	1148.94
542.789	1155.94
543.002	1157.94
543.216	1134.94
543.43	1135.94
543.644	1119.94
543.857	1139.94
544.071	1157.94
544.285	1132.94
544.498	1167.94
544.712	1169.94
544.925	1131.94
545.139	1135.94
545.352	1133.94
545.566	1124.94
545.779	1108.94
545.993	1104.94
546.206	1132.94
546.42	1160.94
546.633	1122.94
546.847	1142.94
547.06	1147.94
547.274	1127.94
547.487	1137.94
547.7	1137.94
547.914	1149.94
548.127	1138.94
548.34	1127.94
548.554	1109.94
548.767	1112.94
548.98	1110.94
549.193	1099.94
549.407	1115.94
549.62	1080.94
549.833	1065.94
550.046	1119.94
550.259	1121.94
550.473	1079.94
550.686	1090.94
550.899	1105.94
551.112	1085.94
551.325	1081.94
551.538	1083.94
551.751	1066.94
551.964	1059.94
552.177	1070.94
552.39	1067.94
552.603	1081.94
552.816	1059.94
553.029	1090.94
553.242	1094.94
553.455	1055.94
553.667	1069.94
553.88	1081.94
554.093	1060.94
554.306	1051.94
554.519	1026.94
554.732	1041.94
554.944	1035.94
555.157	1031.94
555.37	1018.94
555.583	994.94
555.795	1037.94
556.008	1000.94
556.221	990.94
556.433	1022.94
556.646	1000.94
556.859	1014.94
557.071	961.94
557.284	988.94
557.496	957.94
557.709	976.94
557.921	992.94
558.134	966.94
558.346	999.94
558.559	942.94
558.771	942.94
558.984	954.94
559.196	949.94
559.409	931.94
559.621	910.94
559.833	946.94
560.046	951.94
560.258	912.94
560.47	911.94
560.683	929.94
560.895	951.94
561.107	978.94
561.32	931.94
561.532	917.94
561.744	921.94
561.956	926.94
562.168	926.94
562.381	954.94
562.593	951.94
562.805	938.94
563.017	924.94
563.229	948.94
563.441	933.94
563.653	920.94
563.865	911.94
564.077	921.94
564.289	942.94
564.501	915.94
564.713	929.94
564.925	928.94
565.137	915.94
565.349	918.94
565.561	956.94
565.773	949.94
565.985	976.94
566.197	967.94
566.408	973.94
566.62	939.94
566.832	976.94
567.044	972.94
567.255	964.94
567.467	981.94
567.679	975.94
567.891	957.94
568.102	954.94
568.314	941.94
568.526	951.94
568.737	905.94
568.949	904.94
569.161	870.94
569.372	906.94
569.584	891.94
569.795	879.94
570.007	841.94
570.218	859.94
570.43	888.94
570.641	833.94
570.853	813.94
571.064	844.94
571.276	855.94
571.487	799.94
571.698	822.94
571.91	795.94
572.121	789.94
572.333	783.94
572.544	756.94
572.755	770.94
572.966	781.94
573.178	765.94
573.389	759.94
573.6	738.94
573.811	734.94
574.023	710.94
574.234	732.94
574.445	750.94
574.656	706.94
574.867	724.94
575.078	733.94
575.289	711.94
575.501	729.94
575.712	712.94
575.923	685.94
576.134	709.94
576.345	707.94
576.556	698.94
576.767	684.94
576.978	697.94
577.188	705.94
577.399	682.94
577.61	659.94
577.821	662.94
578.032	639.94
578.243	679.94
578.454	673.94
578.665	676.94
578.875	667.94
579.086	665.94
579.297	678.94
579.508	656.94
579.718	680.94
579.929	634.94
580.14	637.94
580.35	644.94
580.561	639.94
580.772	644.94
580.982	637.94
581.193	647.94
581.403	632.94
581.614	629.94
581.825	632.94
582.035	658.94
582.246	641.94
582.456	601.94
582.667	636.94
582.877	620.94
583.087	606.94
583.298	625.94
583.508	630.94
583.719	627.94
583.929	604.94
584.139	588.94
584.35	621.94
584.56	610.94
584.77	597.94
584.981	595.94
585.191	618.94
585.401	595.94
585.611	586.94
585.821	585.94
586.032	601.94
586.242	589.94
586.452	602.94
586.662	595.94
586.872	610.94
587.082	590.94
587.292	578.94
587.502	580.94
587.713	603.94
587.923	598.94
588.133	592.94
588.343	581.94
588.553	567.94
588.762	587.94
588.972	608.94
589.182	650.94
589.392	638.94
589.602	579.94
589.812	634.94
590.022	593.94
590.232	561.94
590.441	577.94
590.651	579.94
590.861	568.94
591.071	558.94
591.281	546.94
591.49	576.94
591.7	575.94
591.91	579.94
592.119	572.94
592.329	567.94
592.539	561.94
592.748	547.94
592.958	567.94
593.167	558.94
593.377	558.94
593.587	588.94
593.796	571.94
594.006	547.94
594.215	574.94
594.424	553.94
594.634	522.94
594.843	543.94
595.053	545.94
595.262	541.94
595.472	545.94
595.681	528.94
595.89	527.94
596.1	521.94
596.309	514.94
596.518	521.94
596.727	535.94
596.937	513.94
597.146	523.94
597.355	541.94
597.564	500.94
597.774	492.94
597.983	505.94
598.192	491.94
598.401	500.94
598.61	477.94
598.819	486.94
599.028	494.94
599.237	478.94
599.446	498.94
599.655	501.94
599.864	494.94
600.073	457.94
600.282	457.94
600.491	461.94
600.7	484.94
600.909	501.94
601.118	477.94
601.327	486.94
601.536	466.94
601.745	470.94
601.953	473.94
602.162	469.94
602.371	483.94
602.58	477.94
602.789	463.94
602.997	458.94
603.206	462.94
603.415	474.94
603.623	438.94
603.832	475.94
604.041	442.94
604.249	441.94
604.458	443.94
604.666	456.94
604.875	444.94
605.084	453.94
605.292	450.94
605.501	445.94
605.709	457.94
605.918	448.94
606.126	433.94
606.334	443.94
606.543	454.94
606.751	457.94
606.96	441.94
607.168	446.94
607.376	422.94
607.585	442.94
607.793	433.94
608.001	439.94
608.21	455.94
608.418	434.94
608.626	428.94
608.834	437.94
609.043	430.94
609.251	410.94
609.459	413.94
609.667	424.94
609.875	405.94
610.083	430.94
610.291	425.94
610.499	414.94
610.707	428.94
610.916	400.94
611.124	421.94
611.332	424.94
611.54	422.94
611.748	421.94
611.955	418.94
612.163	415.94
612.371	429.94
612.579	451.94
612.787	415.94
612.995	419.94
613.203	421.94
613.411	421.94
613.618	397.94
613.826	417.94
614.034	423.94
614.242	403.94
614.449	401.94
614.657	420.94
614.865	394.94
615.072	396.94
615.28	380.94
615.488	391.94
615.695	378.94
615.903	387.94
616.111	395.94
616.318	396.94
616.526	415.94
616.733	403.94
616.941	397.94
617.148	395.94
617.356	404.94
617.563	402.94
617.771	405.94
617.978	385.94
618.185	375.94
618.393	378.94
618.6	372.94
618.807	389.94
619.015	394.94
619.222	395.94
619.429	382.94
619.637	369.94
619.844	369.94
620.051	374.94
620.258	370.94
620.466	372.94
620.673	380.94
620.88	380.94
621.087	359.94
621.294	376.94
621.501	381.94
621.708	371.94
621.915	379.94
622.122	371.94
622.329	373.94
622.536	357.94
622.743	359.94
622.95	353.94
623.157	374.94
623.364	367.94
623.571	369.94
623.778	373.94
623.985	363.94
624.192	371.94
624.399	372.94
624.606	365.94
624.812	343.94
625.019	354.94
625.226	346.94
625.433	352.94
625.639	344.94
625.846	347.94
626.053	334.94
626.259	336.94
626.466	323.94
626.673	335.94
626.879	327.94
627.086	331.94
627.293	344.94
627.499	334.94
627.706	334.94
627.912	340.94
628.119	343.94
628.325	325.94
628.532	317.94
628.738	300.94
628.945	329.94
629.151	356.94
629.357	341.94
629.564	322.94
629.77	339.94
629.976	333.94
630.183	334.94
630.389	325.94
630.595	318.94
630.802	308.94
631.008	319.94
631.214	307.94
631.42	309.94
631.627	316.94
631.833	322.94
632.039	313.94
632.245	301.94
632.451	302.94
632.657	313.94
632.863	312.94
633.069	314.94
633.275	309.94
633.481	296.94
633.688	317.94
633.893	315.94
634.099	309.94
634.305	294.94
634.511	325.94
634.717	309.94
634.923	313.94
635.129	291.94
635.335	300.94
635.541	308.94
635.747	288.94
635.952	304.94
636.158	279.94
636.364	298.94
636.57	306.94
636.775	311.94
636.981	290.94
637.187	270.94
637.392	289.94
637.598	298.94
637.804	297.94
638.009	286.94
638.215	289.94
638.421	294.94
638.626	278.94
638.832	291.94
639.037	285.94
639.243	297.94
639.448	275.94
639.654	289.94
639.859	280.94
640.065	300.94
640.27	292.94
640.475	282.94
640.681	270.94
640.886	302.94
641.091	270.94
641.297	277.94
641.502	285.94
641.707	278.94
641.913	288.94
642.118	289.94
642.323	287.94
642.528	289.94
642.733	257.94
642.939	297.94
643.144	288.94
643.349	274.94
643.554	285.94
643.759	298.94
643.964	276.94
644.169	266.94
644.374	280.94
644.579	284.94
644.784	291.94
644.989	273.94
645.194	284.94
645.399	278.94
645.604	285.94
645.809	284.94
646.014	278.94
646.219	282.94
646.423	266.94
646.628	287.94
646.833	276.94
647.038	290.94
647.243	277.94
647.447	281.94
647.652	268.94
647.857	277.94
648.062	279.94
648.266	294.94
648.471	270.94
648.676	299.94
648.88	282.94
649.085	286.94
649.289	289.94
649.494	289.94
649.698	277.94
649.903	282.94
650.107	269.94
650.312	261.94
650.516	283.94
650.721	276.94
650.925	267.94
651.13	270.94
651.334	266.94
651.539	287.94
651.743	260.94
651.947	297.94
652.152	252.94
652.356	250.94
652.56	257.94
652.764	251.94
652.969	245.94
653.173	265.94
653.377	235.94
653.581	263.94
653.785	247.94
653.99	250.94
654.194	253.94
654.398	256.94
654.602	251.94
654.806	231.94
655.01	245.94
655.214	260.94
655.418	252.94
655.622	276.94
655.826	264.94
656.03	253.94
656.234	281.94
656.438	268.94
656.642	264.94
656.846	260.94
657.049	233.94
657.253	235.94
657.457	236.94
657.661	223.94
657.865	219.94
658.068	196.94
658.272	197.94
658.476	182.94
658.68	171.94
658.883	170.94
659.087	169.94
659.291	144.94
659.494	131.94
659.698	135.94
659.901	134.94
660.105	138.94
660.309	133.94
660.512	129.94
660.716	127.94
660.919	126.94
661.123	103.94
661.326	129.94
661.53	117.94
661.733	125.94
661.936	100.94
662.14	85.94
662.343	93.94
662.546	83.94
662.75	89.94
662.953	100.94
663.156	90.94
663.36	81.94
663.563	83.94
663.766	95.94
663.969	86.94
664.173	87.94
664.376	78.94
664.579	80.94
664.782	82.94
664.985	94.94
665.188	72.94
665.391	81.94
665.594	86.94
665.797	90.94
666	73.94
666.203	75.94
666.406	82.94
666.609	76.94
666.812	82.94
667.015	92.94
667.218	91.94
667.421	68.94
667.624	71.94
667.827	79.94
668.03	86.94
668.232	93.94
668.435	83.94
668.638	81.94
668.841	79.94
669.043	75.94
669.246	81.94
669.449	77.94
669.651	78.94
669.854	75.94
670.057	78.94
670.259	79.94
670.462	78.94
670.665	89.94
670.867	89.94
671.07	77.94
671.272	88.94
671.475	78.94
671.677	81.94
671.88	83.94
672.082	96.94
672.284	67.94
672.487	99.94
672.689	79.94
672.892	71.94
