Data from Ni(NO3)2@0.125M.TitratingCurve.Agarose3%dH2O.NegLispCup.LampEnergy10.LIBS07252019_HRD10591_18-10-10-568.txt Node
Date: Thu Jul 25 18:10:10 EDT 2019
User: cochatt
Spectrometer: HR+D1059
Trigger mode: 1
Integration Time (sec): 1.000000E-1
Scans to average: 1
Electric dark correction enabled: true
Nonlinearity correction enabled: false
Boxcar width: 0
XAxis mode: Wavelengths
Number of Pixels in Spectrum: 2048
>>>>>Begin Spectral Data<<<<<
223.165	-28.94
223.4	-28.94
223.635	-28.94
223.869	-27.94
224.104	-19.94
224.338	-2.94
224.573	6.06
224.808	-14.94
225.042	-24.94
225.277	-20.94
225.511	-11.94
225.746	12.06
225.98	20.06
226.215	7.06
226.449	20.06
226.683	25.06
226.918	17.06
227.152	45.06
227.387	45.06
227.621	43.06
227.856	40.06
228.09	65.06
228.324	54.06
228.559	69.06
228.793	68.06
229.027	121.06
229.262	112.06
229.496	142.06
229.73	131.06
229.964	130.06
230.199	141.06
230.433	150.06
230.667	141.06
230.901	167.06
231.136	129.06
231.37	143.06
231.604	149.06
231.838	151.06
232.072	148.06
232.306	169.06
232.541	157.06
232.775	159.06
233.009	176.06
233.243	160.06
233.477	172.06
233.711	149.06
233.945	150.06
234.179	157.06
234.413	169.06
234.647	162.06
234.881	147.06
235.115	159.06
235.349	172.06
235.583	169.06
235.817	186.06
236.051	168.06
236.285	162.06
236.519	184.06
236.753	176.06
236.987	173.06
237.221	182.06
237.455	170.06
237.689	161.06
237.922	181.06
238.156	176.06
238.39	177.06
238.624	189.06
238.858	186.06
239.091	195.06
239.325	181.06
239.559	200.06
239.793	179.06
240.027	186.06
240.26	189.06
240.494	176.06
240.728	197.06
240.961	204.06
241.195	214.06
241.429	197.06
241.662	204.06
241.896	213.06
242.13	220.06
242.363	221.06
242.597	232.06
242.83	228.06
243.064	214.06
243.298	206.06
243.531	206.06
243.765	233.06
243.998	245.06
244.232	230.06
244.465	242.06
244.699	244.06
244.932	253.06
245.166	250.06
245.399	246.06
245.633	228.06
245.866	258.06
246.099	244.06
246.333	260.06
246.566	262.06
246.8	258.06
247.033	260.06
247.266	259.06
247.5	250.06
247.733	263.06
247.966	272.06
248.2	263.06
248.433	271.06
248.666	275.06
248.899	274.06
249.133	261.06
249.366	285.06
249.599	274.06
249.832	295.06
250.066	291.06
250.299	282.06
250.532	289.06
250.765	286.06
250.998	299.06
251.231	300.06
251.465	295.06
251.698	306.06
251.931	304.06
252.164	311.06
252.397	315.06
252.63	320.06
252.863	315.06
253.096	308.06
253.329	307.06
253.562	325.06
253.795	312.06
254.028	329.06
254.261	325.06
254.494	325.06
254.727	312.06
254.96	330.06
255.193	335.06
255.426	333.06
255.659	343.06
255.892	346.06
256.124	336.06
256.357	333.06
256.59	332.06
256.823	338.06
257.056	334.06
257.289	353.06
257.521	344.06
257.754	359.06
257.987	354.06
258.22	368.06
258.452	350.06
258.685	354.06
258.918	364.06
259.151	350.06
259.383	374.06
259.616	372.06
259.849	374.06
260.081	375.06
260.314	357.06
260.547	358.06
260.779	372.06
261.012	388.06
261.244	399.06
261.477	381.06
261.71	395.06
261.942	392.06
262.175	382.06
262.407	411.06
262.64	392.06
262.872	394.06
263.105	402.06
263.337	383.06
263.57	402.06
263.802	411.06
264.035	384.06
264.267	404.06
264.499	394.06
264.732	411.06
264.964	413.06
265.197	389.06
265.429	413.06
265.661	399.06
265.894	415.06
266.126	420.06
266.358	422.06
266.591	424.06
266.823	440.06
267.055	427.06
267.287	406.06
267.52	430.06
267.752	429.06
267.984	435.06
268.216	420.06
268.448	439.06
268.681	425.06
268.913	427.06
269.145	437.06
269.377	459.06
269.609	445.06
269.841	433.06
270.073	426.06
270.306	448.06
270.538	452.06
270.77	478.06
271.002	446.06
271.234	435.06
271.466	471.06
271.698	474.06
271.93	430.06
272.162	444.06
272.394	463.06
272.626	461.06
272.858	471.06
273.09	481.06
273.322	474.06
273.553	470.06
273.785	489.06
274.017	480.06
274.249	493.06
274.481	468.06
274.713	475.06
274.945	481.06
275.176	500.06
275.408	488.06
275.64	508.06
275.872	504.06
276.104	497.06
276.335	490.06
276.567	492.06
276.799	500.06
277.031	528.06
277.262	496.06
277.494	535.06
277.726	507.06
277.957	511.06
278.189	541.06
278.421	534.06
278.652	538.06
278.884	522.06
279.115	532.06
279.347	536.06
279.579	528.06
279.81	537.06
280.042	521.06
280.273	533.06
280.505	554.06
280.736	534.06
280.968	541.06
281.199	551.06
281.431	534.06
281.662	540.06
281.894	571.06
282.125	565.06
282.356	569.06
282.588	555.06
282.819	573.06
283.051	545.06
283.282	560.06
283.513	564.06
283.745	594.06
283.976	569.06
284.207	572.06
284.439	578.06
284.67	595.06
284.901	585.06
285.132	580.06
285.364	601.06
285.595	578.06
285.826	598.06
286.057	582.06
286.288	564.06
286.52	597.06
286.751	600.06
286.982	609.06
287.213	594.06
287.444	600.06
287.675	602.06
287.906	612.06
288.138	615.06
288.369	618.06
288.6	620.06
288.831	625.06
289.062	626.06
289.293	620.06
289.524	636.06
289.755	612.06
289.986	617.06
290.217	624.06
290.448	646.06
290.679	640.06
290.91	636.06
291.141	608.06
291.371	643.06
291.602	640.06
291.833	626.06
292.064	632.06
292.295	635.06
292.526	627.06
292.757	603.06
292.987	629.06
293.218	634.06
293.449	660.06
293.68	634.06
293.91	638.06
294.141	648.06
294.372	645.06
294.603	628.06
294.833	636.06
295.064	649.06
295.295	671.06
295.525	614.06
295.756	644.06
295.987	630.06
296.217	678.06
296.448	643.06
296.679	641.06
296.909	648.06
297.14	666.06
297.37	666.06
297.601	668.06
297.831	697.06
298.062	694.06
298.292	668.06
298.523	706.06
298.753	692.06
298.984	679.06
299.214	692.06
299.445	677.06
299.675	682.06
299.905	690.06
300.136	690.06
300.366	720.06
300.597	700.06
300.827	739.06
301.057	700.06
301.288	741.06
301.518	715.06
301.748	711.06
301.979	731.06
302.209	733.06
302.439	717.06
302.669	717.06
302.9	722.06
303.13	704.06
303.36	732.06
303.59	717.06
303.82	702.06
304.051	707.06
304.281	724.06
304.511	715.06
304.741	715.06
304.971	698.06
305.201	701.06
305.431	705.06
305.661	714.06
305.891	709.06
306.121	716.06
306.352	699.06
306.582	714.06
306.812	680.06
307.042	696.06
307.272	669.06
307.502	694.06
307.731	693.06
307.961	690.06
308.191	705.06
308.421	706.06
308.651	704.06
308.881	685.06
309.111	707.06
309.341	681.06
309.571	686.06
309.8	709.06
310.03	700.06
310.26	702.06
310.49	710.06
310.72	715.06
310.949	736.06
311.179	715.06
311.409	741.06
311.639	732.06
311.868	698.06
312.098	722.06
312.328	745.06
312.557	719.06
312.787	746.06
313.017	756.06
313.246	759.06
313.476	767.06
313.706	766.06
313.935	764.06
314.165	765.06
314.394	754.06
314.624	764.06
314.853	776.06
315.083	747.06
315.312	733.06
315.542	761.06
315.771	779.06
316.001	746.06
316.23	758.06
316.46	730.06
316.689	770.06
316.919	748.06
317.148	765.06
317.377	741.06
317.607	745.06
317.836	740.06
318.065	759.06
318.295	758.06
318.524	745.06
318.753	732.06
318.983	743.06
319.212	740.06
319.441	762.06
319.67	796.06
319.9	757.06
320.129	757.06
320.358	748.06
320.587	743.06
320.816	747.06
321.046	777.06
321.275	753.06
321.504	741.06
321.733	729.06
321.962	784.06
322.191	792.06
322.42	758.06
322.649	749.06
322.878	772.06
323.108	780.06
323.337	799.06
323.566	772.06
323.795	757.06
324.024	799.06
324.253	802.06
324.482	814.06
324.71	792.06
324.939	777.06
325.168	804.06
325.397	794.06
325.626	779.06
325.855	802.06
326.084	804.06
326.313	832.06
326.542	837.06
326.77	864.06
326.999	833.06
327.228	816.06
327.457	843.06
327.686	820.06
327.914	828.06
328.143	853.06
328.372	815.06
328.6	824.06
328.829	840.06
329.058	832.06
329.287	843.06
329.515	833.06
329.744	860.06
329.972	844.06
330.201	845.06
330.43	874.06
330.658	871.06
330.887	885.06
331.115	882.06
331.344	884.06
331.572	898.06
331.801	914.06
332.03	925.06
332.258	973.06
332.486	961.06
332.715	1030.06
332.943	1082.06
333.172	1129.06
333.4	1157.06
333.629	1206.06
333.857	1181.06
334.085	1122.06
334.314	1112.06
334.542	1098.06
334.771	1102.06
334.999	1103.06
335.227	1088.06
335.455	1043.06
335.684	1028.06
335.912	1025.06
336.14	1017.06
336.369	1022.06
336.597	1033.06
336.825	1026.06
337.053	991.06
337.281	1010.06
337.51	981.06
337.738	983.06
337.966	950.06
338.194	933.06
338.422	923.06
338.65	930.06
338.878	931.06
339.106	918.06
339.334	924.06
339.562	910.06
339.79	902.06
340.018	884.06
340.246	870.06
340.474	877.06
340.702	880.06
340.93	891.06
341.158	884.06
341.386	884.06
341.614	885.06
341.842	865.06
342.07	868.06
342.298	866.06
342.526	876.06
342.754	867.06
342.981	875.06
343.209	906.06
343.437	946.06
343.665	1017.06
343.893	1082.06
344.12	1101.06
344.348	1049.06
344.576	1032.06
344.804	974.06
345.031	934.06
345.259	913.06
345.487	884.06
345.714	892.06
345.942	858.06
346.17	867.06
346.397	844.06
346.625	860.06
346.853	877.06
347.08	824.06
347.308	839.06
347.535	850.06
347.763	856.06
347.99	846.06
348.218	884.06
348.445	870.06
348.673	835.06
348.9	860.06
349.128	845.06
349.355	840.06
349.583	842.06
349.81	837.06
350.037	842.06
350.265	837.06
350.492	831.06
350.72	827.06
350.947	832.06
351.174	834.06
351.402	840.06
351.629	835.06
351.856	836.06
352.083	811.06
352.311	816.06
352.538	798.06
352.765	795.06
352.992	812.06
353.22	797.06
353.447	787.06
353.674	804.06
353.901	843.06
354.128	830.06
354.355	821.06
354.583	814.06
354.81	809.06
355.037	805.06
355.264	828.06
355.491	812.06
355.718	830.06
355.945	820.06
356.172	830.06
356.399	824.06
356.626	806.06
356.853	817.06
357.08	840.06
357.307	840.06
357.534	825.06
357.761	831.06
357.988	827.06
358.215	822.06
358.441	830.06
358.668	805.06
358.895	825.06
359.122	803.06
359.349	840.06
359.576	842.06
359.802	827.06
360.029	809.06
360.256	820.06
360.483	792.06
360.709	796.06
360.936	802.06
361.163	820.06
361.39	817.06
361.616	830.06
361.843	839.06
362.07	809.06
362.296	808.06
362.523	807.06
362.749	816.06
362.976	809.06
363.203	818.06
363.429	828.06
363.656	822.06
363.882	829.06
364.109	817.06
364.335	844.06
364.562	783.06
364.788	822.06
365.015	814.06
365.241	813.06
365.468	808.06
365.694	832.06
365.92	823.06
366.147	825.06
366.373	825.06
366.599	826.06
366.826	804.06
367.052	807.06
367.278	814.06
367.505	797.06
367.731	825.06
367.957	836.06
368.184	826.06
368.41	835.06
368.636	824.06
368.862	829.06
369.089	849.06
369.315	846.06
369.541	835.06
369.767	837.06
369.993	834.06
370.219	870.06
370.445	851.06
370.672	870.06
370.898	852.06
371.124	867.06
371.35	892.06
371.576	893.06
371.802	885.06
372.028	886.06
372.254	892.06
372.48	902.06
372.706	924.06
372.932	928.06
373.158	890.06
373.384	886.06
373.61	907.06
373.835	892.06
374.061	894.06
374.287	908.06
374.513	903.06
374.739	947.06
374.965	1003.06
375.191	1002.06
375.416	991.06
375.642	962.06
375.868	953.06
376.094	917.06
376.319	930.06
376.545	892.06
376.771	890.06
376.997	904.06
377.222	896.06
377.448	900.06
377.674	921.06
377.899	902.06
378.125	888.06
378.35	880.06
378.576	836.06
378.802	881.06
379.027	914.06
379.253	880.06
379.478	886.06
379.704	861.06
379.929	856.06
380.155	883.06
380.38	894.06
380.606	894.06
380.831	877.06
381.057	838.06
381.282	890.06
381.507	874.06
381.733	898.06
381.958	894.06
382.184	926.06
382.409	945.06
382.634	920.06
382.86	912.06
383.085	970.06
383.31	952.06
383.535	986.06
383.761	989.06
383.986	1028.06
384.211	1050.06
384.436	1036.06
384.662	1043.06
384.887	1101.06
385.112	1094.06
385.337	1121.06
385.562	1098.06
385.787	1090.06
386.013	1080.06
386.238	1088.06
386.463	1043.06
386.688	1114.06
386.913	1086.06
387.138	1091.06
387.363	1078.06
387.588	1051.06
387.813	1079.06
388.038	1049.06
388.263	1068.06
388.488	1078.06
388.713	1056.06
388.938	1063.06
389.163	1029.06
389.387	1072.06
389.612	1052.06
389.837	1076.06
390.062	1029.06
390.287	1062.06
390.512	1028.06
390.736	1081.06
390.961	1080.06
391.186	1110.06
391.411	1165.06
391.636	1154.06
391.86	1193.06
392.085	1206.06
392.31	1239.06
392.534	1171.06
392.759	1165.06
392.984	1146.06
393.208	1100.06
393.433	1138.06
393.658	1163.06
393.882	1141.06
394.107	1154.06
394.331	1144.06
394.556	1143.06
394.78	1173.06
395.005	1151.06
395.229	1153.06
395.454	1183.06
395.678	1200.06
395.903	1224.06
396.127	1169.06
396.352	1145.06
396.576	1111.06
396.801	1128.06
397.025	1122.06
397.249	1143.06
397.474	1218.06
397.698	1185.06
397.922	1188.06
398.147	1184.06
398.371	1219.06
398.595	1261.06
398.82	1324.06
399.044	1420.06
399.268	1591.06
399.492	1853.06
399.717	2109.06
399.941	2141.06
400.165	1827.06
400.389	1646.06
400.613	1469.06
400.837	1414.06
401.062	1390.06
401.286	1354.06
401.51	1350.06
401.734	1343.06
401.958	1396.06
402.182	1389.06
402.406	1373.06
402.63	1404.06
402.854	1452.06
403.078	1466.06
403.302	1499.06
403.526	1562.06
403.75	1584.06
403.974	1597.06
404.198	1596.06
404.422	1604.06
404.645	1616.06
404.869	1568.06
405.093	1576.06
405.317	1479.06
405.541	1492.06
405.765	1463.06
405.988	1479.06
406.212	1483.06
406.436	1490.06
406.66	1514.06
406.883	1554.06
407.107	1629.06
407.331	1722.06
407.555	1776.06
407.778	1761.06
408.002	1721.06
408.226	1673.06
408.449	1615.06
408.673	1535.06
408.896	1567.06
409.12	1535.06
409.344	1544.06
409.567	1547.06
409.791	1559.06
410.014	1531.06
410.238	1515.06
410.461	1493.06
410.685	1492.06
410.908	1508.06
411.132	1446.06
411.355	1410.06
411.578	1389.06
411.802	1421.06
412.025	1421.06
412.249	1418.06
412.472	1442.06
412.695	1424.06
412.919	1345.06
413.142	1346.06
413.365	1348.06
413.589	1377.06
413.812	1330.06
414.035	1331.06
414.258	1341.06
414.482	1358.06
414.705	1373.06
414.928	1395.06
415.151	1357.06
415.374	1386.06
415.597	1335.06
415.821	1326.06
416.044	1293.06
416.267	1315.06
416.49	1301.06
416.713	1302.06
416.936	1341.06
417.159	1322.06
417.382	1319.06
417.605	1346.06
417.828	1323.06
418.051	1364.06
418.274	1321.06
418.497	1332.06
418.72	1362.06
418.943	1348.06
419.166	1441.06
419.389	1568.06
419.611	1518.06
419.834	1485.06
420.057	1392.06
420.28	1341.06
420.503	1311.06
420.726	1333.06
420.948	1337.06
421.171	1325.06
421.394	1331.06
421.617	1331.06
421.839	1357.06
422.062	1355.06
422.285	1354.06
422.507	1387.06
422.73	1385.06
422.953	1369.06
423.175	1407.06
423.398	1452.06
423.621	1461.06
423.843	1426.06
424.066	1429.06
424.288	1432.06
424.511	1423.06
424.733	1422.06
424.956	1370.06
425.178	1351.06
425.401	1344.06
425.623	1354.06
425.846	1318.06
426.068	1285.06
426.291	1257.06
426.513	1283.06
426.735	1251.06
426.958	1259.06
427.18	1224.06
427.402	1204.06
427.625	1227.06
427.847	1174.06
428.069	1176.06
428.292	1193.06
428.514	1173.06
428.736	1150.06
428.958	1208.06
429.181	1141.06
429.403	1114.06
429.625	1166.06
429.847	1136.06
430.069	1132.06
430.292	1150.06
430.514	1149.06
430.736	1133.06
430.958	1146.06
431.18	1182.06
431.402	1169.06
431.624	1154.06
431.846	1196.06
432.068	1216.06
432.29	1194.06
432.512	1166.06
432.734	1187.06
432.956	1184.06
433.178	1189.06
433.4	1188.06
433.622	1197.06
433.844	1221.06
434.066	1226.06
434.287	1202.06
434.509	1266.06
434.731	1292.06
434.953	1333.06
435.175	1373.06
435.397	1329.06
435.618	1285.06
435.84	1213.06
436.062	1164.06
436.284	1171.06
436.505	1166.06
436.727	1196.06
436.949	1202.06
437.17	1204.06
437.392	1147.06
437.614	1146.06
437.835	1162.06
438.057	1162.06
438.278	1142.06
438.5	1114.06
438.721	1173.06
438.943	1139.06
439.165	1132.06
439.386	1122.06
439.608	1139.06
439.829	1178.06
440.05	1170.06
440.272	1173.06
440.493	1198.06
440.715	1224.06
440.936	1218.06
441.158	1233.06
441.379	1269.06
441.6	1367.06
441.822	1372.06
442.043	1357.06
442.264	1303.06
442.486	1295.06
442.707	1310.06
442.928	1356.06
443.149	1308.06
443.371	1315.06
443.592	1304.06
443.813	1356.06
444.034	1365.06
444.255	1411.06
444.476	1497.06
444.698	1567.06
444.919	1671.06
445.14	1667.06
445.361	1517.06
445.582	1388.06
445.803	1302.06
446.024	1256.06
446.245	1221.06
446.466	1216.06
446.687	1197.06
446.908	1186.06
447.129	1131.06
447.35	1145.06
447.571	1141.06
447.792	1105.06
448.013	1098.06
448.234	1074.06
448.455	1078.06
448.675	1094.06
448.896	1085.06
449.117	1058.06
449.338	1059.06
449.559	1084.06
449.779	1049.06
450	1059.06
450.221	1058.06
450.442	1064.06
450.662	1057.06
450.883	1105.06
451.104	1131.06
451.324	1121.06
451.545	1097.06
451.766	1069.06
451.986	1101.06
452.207	1082.06
452.428	1075.06
452.648	1070.06
452.869	1060.06
453.089	1057.06
453.31	1092.06
453.53	1037.06
453.751	1017.06
453.971	1034.06
454.192	1021.06
454.412	1022.06
454.633	1037.06
454.853	1003.06
455.073	1014.06
455.294	1018.06
455.514	1021.06
455.734	986.06
455.955	988.06
456.175	1010.06
456.395	990.06
456.616	1000.06
456.836	1020.06
457.056	1012.06
457.276	1017.06
457.497	983.06
457.717	993.06
457.937	1024.06
458.157	1012.06
458.377	1039.06
458.598	1064.06
458.818	1072.06
459.038	1101.06
459.258	1149.06
459.478	1169.06
459.698	1239.06
459.918	1249.06
460.138	1314.06
460.358	1386.06
460.578	1406.06
460.798	1406.06
461.018	1437.06
461.238	1411.06
461.458	1398.06
461.678	1401.06
461.898	1407.06
462.118	1433.06
462.338	1486.06
462.558	1534.06
462.777	1588.06
462.997	1751.06
463.217	1938.06
463.437	1963.06
463.657	1754.06
463.876	1626.06
464.096	1614.06
464.316	1673.06
464.536	1664.06
464.755	1620.06
464.975	1509.06
465.195	1473.06
465.414	1378.06
465.634	1274.06
465.854	1200.06
466.073	1214.06
466.293	1167.06
466.512	1179.06
466.732	1140.06
466.951	1162.06
467.171	1162.06
467.391	1150.06
467.61	1122.06
467.829	1148.06
468.049	1097.06
468.268	1080.06
468.488	1087.06
468.707	1078.06
468.927	1064.06
469.146	1054.06
469.365	1053.06
469.585	1091.06
469.804	1130.06
470.023	1172.06
470.243	1172.06
470.462	1179.06
470.681	1178.06
470.901	1176.06
471.12	1159.06
471.339	1120.06
471.558	1122.06
471.777	1085.06
471.997	1056.06
472.216	1062.06
472.435	1082.06
472.654	1076.06
472.873	1060.06
473.092	1042.06
473.311	1039.06
473.53	1026.06
473.749	1051.06
473.968	1066.06
474.187	1035.06
474.406	1022.06
474.625	1052.06
474.844	1044.06
475.063	1058.06
475.282	1053.06
475.501	1038.06
475.72	1056.06
475.939	1076.06
476.158	1081.06
476.377	1075.06
476.596	1062.06
476.814	1106.06
477.033	1080.06
477.252	1116.06
477.471	1133.06
477.69	1184.06
477.908	1241.06
478.127	1264.06
478.346	1272.06
478.564	1282.06
478.783	1293.06
479.002	1351.06
479.22	1334.06
479.439	1347.06
479.658	1285.06
479.876	1314.06
480.095	1330.06
480.313	1404.06
480.532	1460.06
480.751	1466.06
480.969	1361.06
481.188	1302.06
481.406	1290.06
481.624	1253.06
481.843	1221.06
482.061	1210.06
482.28	1188.06
482.498	1207.06
482.717	1175.06
482.935	1181.06
483.153	1187.06
483.372	1197.06
483.59	1182.06
483.808	1201.06
484.027	1211.06
484.245	1204.06
484.463	1203.06
484.681	1208.06
484.9	1242.06
485.118	1225.06
485.336	1238.06
485.554	1240.06
485.772	1258.06
485.99	1272.06
486.209	1244.06
486.427	1252.06
486.645	1250.06
486.863	1292.06
487.081	1260.06
487.299	1264.06
487.517	1240.06
487.735	1260.06
487.953	1291.06
488.171	1257.06
488.389	1256.06
488.607	1237.06
488.825	1213.06
489.043	1237.06
489.261	1227.06
489.479	1227.06
489.696	1241.06
489.914	1267.06
490.132	1282.06
490.35	1260.06
490.568	1255.06
490.786	1243.06
491.003	1248.06
491.221	1283.06
491.439	1266.06
491.657	1280.06
491.874	1273.06
492.092	1278.06
492.31	1240.06
492.527	1303.06
492.745	1307.06
492.963	1286.06
493.18	1281.06
493.398	1295.06
493.615	1346.06
493.833	1307.06
494.05	1346.06
494.268	1332.06
494.485	1339.06
494.703	1345.06
494.92	1300.06
495.138	1304.06
495.355	1313.06
495.573	1315.06
495.79	1349.06
496.008	1364.06
496.225	1350.06
496.442	1371.06
496.66	1408.06
496.877	1416.06
497.094	1404.06
497.312	1474.06
497.529	1473.06
497.746	1526.06
497.963	1559.06
498.181	1621.06
498.398	1663.06
498.615	1767.06
498.832	1933.06
499.049	2091.06
499.267	2254.06
499.484	2491.06
499.701	2742.06
499.918	3126.06
500.135	3598.06
500.352	4229.06
500.569	4364.06
500.786	4300.06
501.003	3930.06
501.22	3460.06
501.437	3014.06
501.654	2680.06
501.871	2410.06
502.088	2168.06
502.305	2010.06
502.522	1950.06
502.739	1873.06
502.956	1736.06
503.172	1613.06
503.389	1596.06
503.606	1568.06
503.823	1532.06
504.04	1513.06
504.256	1529.06
504.473	1577.06
504.69	1638.06
504.907	1597.06
505.123	1502.06
505.34	1404.06
505.557	1316.06
505.773	1309.06
505.99	1287.06
506.207	1222.06
506.423	1254.06
506.64	1239.06
506.856	1230.06
507.073	1228.06
507.289	1189.06
507.506	1192.06
507.722	1176.06
507.939	1126.06
508.155	1154.06
508.372	1143.06
508.588	1102.06
508.805	1125.06
509.021	1132.06
509.238	1125.06
509.454	1074.06
509.67	1091.06
509.887	1076.06
510.103	1071.06
510.319	1049.06
510.536	1062.06
510.752	1043.06
510.968	1051.06
511.184	1062.06
511.401	1088.06
511.617	1054.06
511.833	1058.06
512.049	1072.06
512.265	1036.06
512.481	1040.06
512.698	1050.06
512.914	1048.06
513.13	1080.06
513.346	1044.06
513.562	1076.06
513.778	1069.06
513.994	1083.06
514.21	1103.06
514.426	1078.06
514.642	1084.06
514.858	1112.06
515.074	1110.06
515.29	1110.06
515.506	1127.06
515.721	1099.06
515.937	1142.06
516.153	1138.06
516.369	1226.06
516.585	1227.06
516.801	1294.06
517.016	1336.06
517.232	1412.06
517.448	1474.06
517.664	1540.06
517.879	1546.06
518.095	1556.06
518.311	1507.06
518.527	1470.06
518.742	1356.06
518.958	1292.06
519.173	1264.06
519.389	1253.06
519.605	1188.06
519.82	1130.06
520.036	1144.06
520.251	1124.06
520.467	1100.06
520.682	1078.06
520.898	1107.06
521.113	1068.06
521.329	1061.06
521.544	1035.06
521.76	1038.06
521.975	1029.06
522.19	1016.06
522.406	1010.06
522.621	998.06
522.836	1003.06
523.052	977.06
523.267	1016.06
523.482	979.06
523.698	978.06
523.913	980.06
524.128	988.06
524.343	1004.06
524.559	983.06
524.774	964.06
524.989	996.06
525.204	997.06
525.419	978.06
525.634	984.06
525.849	974.06
526.064	968.06
526.28	972.06
526.495	961.06
526.71	937.06
526.925	931.06
527.14	968.06
527.355	933.06
527.57	943.06
527.785	977.06
527.999	966.06
528.214	958.06
528.429	976.06
528.644	990.06
528.859	960.06
529.074	964.06
529.289	960.06
529.503	954.06
529.718	966.06
529.933	959.06
530.148	948.06
530.363	942.06
530.577	954.06
530.792	941.06
531.007	967.06
531.221	984.06
531.436	966.06
531.651	973.06
531.865	962.06
532.08	948.06
532.295	967.06
532.509	958.06
532.724	951.06
532.938	947.06
533.153	969.06
533.367	964.06
533.582	947.06
533.796	947.06
534.011	961.06
534.225	938.06
534.44	966.06
534.654	952.06
534.868	937.06
535.083	922.06
535.297	923.06
535.511	967.06
535.726	936.06
535.94	934.06
536.154	879.06
536.369	914.06
536.583	894.06
536.797	916.06
537.011	893.06
537.225	884.06
537.44	892.06
537.654	874.06
537.868	892.06
538.082	886.06
538.296	889.06
538.51	858.06
538.724	828.06
538.938	859.06
539.153	858.06
539.367	886.06
539.581	851.06
539.795	849.06
540.009	883.06
540.222	888.06
540.436	855.06
540.65	868.06
540.864	850.06
541.078	885.06
541.292	880.06
541.506	866.06
541.72	858.06
541.934	883.06
542.147	854.06
542.361	853.06
542.575	851.06
542.789	853.06
543.002	851.06
543.216	847.06
543.43	851.06
543.644	824.06
543.857	847.06
544.071	824.06
544.285	867.06
544.498	869.06
544.712	851.06
544.925	875.06
545.139	885.06
545.352	877.06
545.566	877.06
545.779	893.06
545.993	888.06
546.206	896.06
546.42	874.06
546.633	904.06
546.847	858.06
547.06	858.06
547.274	867.06
547.487	885.06
547.7	896.06
547.914	865.06
548.127	872.06
548.34	900.06
548.554	880.06
548.767	891.06
548.98	887.06
549.193	885.06
549.407	925.06
549.62	920.06
549.833	934.06
550.046	913.06
550.259	896.06
550.473	896.06
550.686	899.06
550.899	873.06
551.112	864.06
551.325	853.06
551.538	838.06
551.751	857.06
551.964	875.06
552.177	877.06
552.39	918.06
552.603	907.06
552.816	936.06
553.029	955.06
553.242	973.06
553.455	989.06
553.667	970.06
553.88	971.06
554.093	922.06
554.306	915.06
554.519	886.06
554.732	876.06
554.944	856.06
555.157	816.06
555.37	830.06
555.583	826.06
555.795	819.06
556.008	794.06
556.221	797.06
556.433	787.06
556.646	791.06
556.859	767.06
557.071	758.06
557.284	770.06
557.496	756.06
557.709	782.06
557.921	759.06
558.134	735.06
558.346	740.06
558.559	747.06
558.771	731.06
558.984	742.06
559.196	716.06
559.409	704.06
559.621	732.06
559.833	732.06
560.046	734.06
560.258	729.06
560.47	731.06
560.683	726.06
560.895	700.06
561.107	759.06
561.32	700.06
561.532	702.06
561.744	734.06
561.956	691.06
562.168	730.06
562.381	716.06
562.593	718.06
562.805	716.06
563.017	717.06
563.229	700.06
563.441	706.06
563.653	723.06
563.865	716.06
564.077	741.06
564.289	770.06
564.501	768.06
564.713	783.06
564.925	798.06
565.137	805.06
565.349	790.06
565.561	837.06
565.773	863.06
565.985	910.06
566.197	946.06
566.408	1032.06
566.62	1112.06
566.832	1252.06
567.044	1254.06
567.255	1228.06
567.467	1273.06
567.679	1340.06
567.891	1468.06
568.102	1557.06
568.314	1428.06
568.526	1230.06
568.737	1132.06
568.949	1034.06
569.161	930.06
569.372	857.06
569.584	813.06
569.795	770.06
570.007	762.06
570.218	741.06
570.43	758.06
570.641	732.06
570.853	731.06
571.064	752.06
571.276	766.06
571.487	708.06
571.698	711.06
571.91	690.06
572.121	649.06
572.333	643.06
572.544	627.06
572.755	621.06
572.966	617.06
573.178	580.06
573.389	612.06
573.6	599.06
573.811	590.06
574.023	577.06
574.234	594.06
574.445	579.06
574.656	589.06
574.867	594.06
575.078	588.06
575.289	590.06
575.501	579.06
575.712	569.06
575.923	601.06
576.134	545.06
576.345	569.06
576.556	589.06
576.767	561.06
576.978	564.06
577.188	538.06
577.399	530.06
577.61	533.06
577.821	549.06
578.032	534.06
578.243	524.06
578.454	523.06
578.665	524.06
578.875	509.06
579.086	542.06
579.297	517.06
579.508	521.06
579.718	522.06
579.929	532.06
580.14	492.06
580.35	514.06
580.561	502.06
580.772	498.06
580.982	531.06
581.193	506.06
581.403	484.06
581.614	518.06
581.825	508.06
582.035	486.06
582.246	473.06
582.456	496.06
582.667	503.06
582.877	493.06
583.087	485.06
583.298	473.06
583.508	484.06
583.719	495.06
583.929	492.06
584.139	481.06
584.35	484.06
584.56	480.06
584.77	462.06
584.981	486.06
585.191	484.06
585.401	489.06
585.611	465.06
585.821	463.06
586.032	471.06
586.242	455.06
586.452	489.06
586.662	482.06
586.872	471.06
587.082	470.06
587.292	467.06
587.502	465.06
587.713	461.06
587.923	456.06
588.133	450.06
588.343	456.06
588.553	462.06
588.762	461.06
588.972	458.06
589.182	465.06
589.392	469.06
589.602	462.06
589.812	480.06
590.022	453.06
590.232	473.06
590.441	454.06
590.651	466.06
590.861	482.06
591.071	477.06
591.281	466.06
591.49	473.06
591.7	484.06
591.91	504.06
592.119	510.06
592.329	530.06
592.539	548.06
592.748	542.06
592.958	572.06
593.167	569.06
593.377	604.06
593.587	616.06
593.796	633.06
594.006	633.06
594.215	635.06
594.424	644.06
594.634	593.06
594.843	572.06
595.053	550.06
595.262	516.06
595.472	517.06
595.681	514.06
595.89	496.06
596.1	469.06
596.309	463.06
596.518	457.06
596.727	458.06
596.937	449.06
597.146	459.06
597.355	416.06
597.564	438.06
597.774	434.06
597.983	419.06
598.192	408.06
598.401	402.06
598.61	404.06
598.819	397.06
599.028	400.06
599.237	384.06
599.446	412.06
599.655	409.06
599.864	422.06
600.073	410.06
600.282	412.06
600.491	385.06
600.7	380.06
600.909	363.06
601.118	399.06
601.327	393.06
601.536	402.06
601.745	386.06
601.953	388.06
602.162	393.06
602.371	387.06
602.58	369.06
602.789	380.06
602.997	380.06
603.206	361.06
603.415	393.06
603.623	378.06
603.832	379.06
604.041	381.06
604.249	362.06
604.458	355.06
604.666	366.06
604.875	365.06
605.084	365.06
605.292	364.06
605.501	360.06
605.709	376.06
605.918	363.06
606.126	379.06
606.334	358.06
606.543	361.06
606.751	341.06
606.96	345.06
607.168	356.06
607.376	344.06
607.585	345.06
607.793	366.06
608.001	347.06
608.21	360.06
608.418	361.06
608.626	360.06
608.834	374.06
609.043	360.06
609.251	358.06
609.459	357.06
609.667	376.06
609.875	348.06
610.083	346.06
610.291	355.06
610.499	331.06
610.707	342.06
610.916	350.06
611.124	341.06
611.332	354.06
611.54	352.06
611.748	346.06
611.955	347.06
612.163	334.06
612.371	344.06
612.579	344.06
612.787	339.06
612.995	342.06
613.203	343.06
613.411	323.06
613.618	335.06
613.826	353.06
614.034	338.06
614.242	334.06
614.449	331.06
614.657	345.06
614.865	332.06
615.072	336.06
615.28	346.06
615.488	329.06
615.695	346.06
615.903	355.06
616.111	342.06
616.318	343.06
616.526	337.06
616.733	344.06
616.941	339.06
617.148	368.06
617.356	349.06
617.563	334.06
617.771	335.06
617.978	340.06
618.185	377.06
618.393	322.06
618.6	360.06
618.807	352.06
619.015	327.06
619.222	347.06
619.429	326.06
619.637	317.06
619.844	328.06
620.051	319.06
620.258	321.06
620.466	319.06
620.673	299.06
620.88	296.06
621.087	311.06
621.294	302.06
621.501	299.06
621.708	301.06
621.915	317.06
622.122	315.06
622.329	308.06
622.536	312.06
622.743	311.06
622.95	317.06
623.157	305.06
623.364	300.06
623.571	289.06
623.778	312.06
623.985	319.06
624.192	292.06
624.399	302.06
624.606	281.06
624.812	293.06
625.019	297.06
625.226	289.06
625.433	290.06
625.639	298.06
625.846	284.06
626.053	283.06
626.259	290.06
626.466	280.06
626.673	285.06
626.879	285.06
627.086	266.06
627.293	276.06
627.499	269.06
627.706	276.06
627.912	286.06
628.119	281.06
628.325	268.06
628.532	258.06
628.738	252.06
628.945	261.06
629.151	264.06
629.357	271.06
629.564	282.06
629.77	271.06
629.976	262.06
630.183	253.06
630.389	259.06
630.595	274.06
630.802	244.06
631.008	264.06
631.214	266.06
631.42	269.06
631.627	265.06
631.833	277.06
632.039	246.06
632.245	225.06
632.451	245.06
632.657	261.06
632.863	251.06
633.069	243.06
633.275	250.06
633.481	248.06
633.688	257.06
633.893	228.06
634.099	242.06
634.305	248.06
634.511	238.06
634.717	240.06
634.923	248.06
635.129	254.06
635.335	232.06
635.541	229.06
635.747	223.06
635.952	235.06
636.158	246.06
636.364	225.06
636.57	244.06
636.775	248.06
636.981	256.06
637.187	232.06
637.392	243.06
637.598	239.06
637.804	241.06
638.009	248.06
638.215	243.06
638.421	248.06
638.626	249.06
638.832	232.06
639.037	227.06
639.243	229.06
639.448	224.06
639.654	229.06
639.859	240.06
640.065	226.06
640.27	211.06
640.475	217.06
640.681	212.06
640.886	228.06
641.091	224.06
641.297	219.06
641.502	212.06
641.707	226.06
641.913	232.06
642.118	226.06
642.323	209.06
642.528	211.06
642.733	237.06
642.939	231.06
643.144	210.06
643.349	203.06
643.554	234.06
643.759	191.06
643.964	212.06
644.169	232.06
644.374	203.06
644.579	206.06
644.784	212.06
644.989	211.06
645.194	214.06
645.399	223.06
645.604	214.06
645.809	211.06
646.014	219.06
646.219	233.06
646.423	206.06
646.628	224.06
646.833	208.06
647.038	226.06
647.243	232.06
647.447	218.06
647.652	214.06
647.857	217.06
648.062	219.06
648.266	242.06
648.471	253.06
648.676	220.06
648.88	232.06
649.085	232.06
649.289	217.06
649.494	229.06
649.698	233.06
649.903	216.06
650.107	209.06
650.312	230.06
650.516	206.06
650.721	202.06
650.925	210.06
651.13	194.06
651.334	202.06
651.539	192.06
651.743	205.06
651.947	182.06
652.152	188.06
652.356	180.06
652.56	170.06
652.764	192.06
652.969	181.06
653.173	178.06
653.377	188.06
653.581	164.06
653.785	144.06
653.99	171.06
654.194	159.06
654.398	172.06
654.602	179.06
654.806	148.06
655.01	167.06
655.214	151.06
655.418	151.06
655.622	139.06
655.826	155.06
656.03	157.06
656.234	150.06
656.438	169.06
656.642	151.06
656.846	162.06
657.049	134.06
657.253	146.06
657.457	136.06
657.661	148.06
657.865	137.06
658.068	138.06
658.272	119.06
658.476	121.06
658.68	112.06
658.883	120.06
659.087	132.06
659.291	105.06
659.494	103.06
659.698	113.06
659.901	100.06
660.105	95.06
660.309	103.06
660.512	108.06
660.716	93.06
660.919	112.06
661.123	101.06
661.326	101.06
661.53	104.06
661.733	97.06
661.936	82.06
662.14	90.06
662.343	93.06
662.546	87.06
662.75	81.06
662.953	99.06
663.156	83.06
663.36	99.06
663.563	75.06
663.766	81.06
663.969	81.06
664.173	69.06
664.376	65.06
664.579	78.06
664.782	88.06
664.985	82.06
665.188	84.06
665.391	81.06
665.594	78.06
665.797	82.06
666	69.06
666.203	71.06
666.406	93.06
666.609	91.06
666.812	75.06
667.015	75.06
667.218	86.06
667.421	75.06
667.624	72.06
667.827	84.06
668.03	78.06
668.232	85.06
668.435	84.06
668.638	79.06
668.841	77.06
669.043	92.06
669.246	66.06
669.449	88.06
669.651	91.06
669.854	76.06
670.057	82.06
670.259	77.06
670.462	82.06
670.665	73.06
670.867	89.06
671.07	88.06
671.272	78.06
671.475	81.06
671.677	84.06
671.88	86.06
672.082	82.06
672.284	93.06
672.487	88.06
672.689	77.06
672.892	90.06
