Data from Ni(NO3)2@0.125M.TitratingCurve.Agarose3%dH2O.NegLispCup.LampEnergy10.LIBS07252019_HRD10591_18-10-40-568.txt Node
Date: Thu Jul 25 18:10:40 EDT 2019
User: cochatt
Spectrometer: HR+D1059
Trigger mode: 1
Integration Time (sec): 1.000000E-1
Scans to average: 1
Electric dark correction enabled: true
Nonlinearity correction enabled: false
Boxcar width: 0
XAxis mode: Wavelengths
Number of Pixels in Spectrum: 2048
>>>>>Begin Spectral Data<<<<<
223.165	-11.19
223.4	-11.19
223.635	-11.19
223.869	-24.19
224.104	-14.19
224.338	-12.19
224.573	-18.19
224.808	-8.19
225.042	-0.19
225.277	-1.19
225.511	-14.19
225.746	-4.19
225.98	1.81
226.215	7.81
226.449	15.81
226.683	15.81
226.918	31.81
227.152	34.81
227.387	36.81
227.621	35.81
227.856	51.81
228.09	39.81
228.324	57.81
228.559	64.81
228.793	72.81
229.027	88.81
229.262	102.81
229.496	89.81
229.73	109.81
229.964	103.81
230.199	108.81
230.433	122.81
230.667	118.81
230.901	124.81
231.136	118.81
231.37	121.81
231.604	137.81
231.838	118.81
232.072	126.81
232.306	137.81
232.541	128.81
232.775	131.81
233.009	138.81
233.243	136.81
233.477	131.81
233.711	139.81
233.945	134.81
234.179	126.81
234.413	119.81
234.647	125.81
234.881	128.81
235.115	140.81
235.349	130.81
235.583	126.81
235.817	121.81
236.051	146.81
236.285	122.81
236.519	153.81
236.753	135.81
236.987	129.81
237.221	133.81
237.455	139.81
237.689	143.81
237.922	137.81
238.156	155.81
238.39	148.81
238.624	133.81
238.858	141.81
239.091	160.81
239.325	149.81
239.559	161.81
239.793	160.81
240.027	162.81
240.26	145.81
240.494	166.81
240.728	137.81
240.961	141.81
241.195	178.81
241.429	154.81
241.662	162.81
241.896	177.81
242.13	160.81
242.363	164.81
242.597	156.81
242.83	160.81
243.064	168.81
243.298	179.81
243.531	175.81
243.765	183.81
243.998	166.81
244.232	169.81
244.465	175.81
244.699	177.81
244.932	175.81
245.166	170.81
245.399	184.81
245.633	175.81
245.866	185.81
246.099	186.81
246.333	177.81
246.566	190.81
246.8	181.81
247.033	164.81
247.266	170.81
247.5	190.81
247.733	203.81
247.966	195.81
248.2	180.81
248.433	199.81
248.666	189.81
248.899	210.81
249.133	210.81
249.366	204.81
249.599	193.81
249.832	193.81
250.066	205.81
250.299	205.81
250.532	217.81
250.765	222.81
250.998	206.81
251.231	220.81
251.465	203.81
251.698	209.81
251.931	198.81
252.164	206.81
252.397	226.81
252.63	217.81
252.863	228.81
253.096	205.81
253.329	225.81
253.562	216.81
253.795	215.81
254.028	235.81
254.261	231.81
254.494	230.81
254.727	238.81
254.96	226.81
255.193	242.81
255.426	228.81
255.659	235.81
255.892	244.81
256.124	238.81
256.357	243.81
256.59	243.81
256.823	246.81
257.056	243.81
257.289	260.81
257.521	247.81
257.754	262.81
257.987	233.81
258.22	249.81
258.452	252.81
258.685	258.81
258.918	268.81
259.151	250.81
259.383	268.81
259.616	242.81
259.849	249.81
260.081	261.81
260.314	259.81
260.547	257.81
260.779	276.81
261.012	261.81
261.244	266.81
261.477	279.81
261.71	270.81
261.942	270.81
262.175	274.81
262.407	257.81
262.64	277.81
262.872	247.81
263.105	260.81
263.337	277.81
263.57	285.81
263.802	279.81
264.035	276.81
264.267	274.81
264.499	281.81
264.732	268.81
264.964	270.81
265.197	277.81
265.429	275.81
265.661	289.81
265.894	299.81
266.126	280.81
266.358	298.81
266.591	293.81
266.823	281.81
267.055	279.81
267.287	298.81
267.52	283.81
267.752	304.81
267.984	293.81
268.216	319.81
268.448	317.81
268.681	291.81
268.913	285.81
269.145	291.81
269.377	314.81
269.609	300.81
269.841	317.81
270.073	311.81
270.306	301.81
270.538	321.81
270.77	300.81
271.002	296.81
271.234	316.81
271.466	311.81
271.698	311.81
271.93	314.81
272.162	321.81
272.394	297.81
272.626	312.81
272.858	322.81
273.09	310.81
273.322	332.81
273.553	321.81
273.785	329.81
274.017	338.81
274.249	332.81
274.481	323.81
274.713	317.81
274.945	327.81
275.176	339.81
275.408	324.81
275.64	340.81
275.872	326.81
276.104	336.81
276.335	330.81
276.567	329.81
276.799	333.81
277.031	335.81
277.262	342.81
277.494	342.81
277.726	346.81
277.957	335.81
278.189	327.81
278.421	353.81
278.652	346.81
278.884	340.81
279.115	363.81
279.347	369.81
279.579	360.81
279.81	360.81
280.042	383.81
280.273	360.81
280.505	355.81
280.736	370.81
280.968	387.81
281.199	374.81
281.431	362.81
281.662	364.81
281.894	365.81
282.125	367.81
282.356	379.81
282.588	384.81
282.819	376.81
283.051	384.81
283.282	376.81
283.513	380.81
283.745	384.81
283.976	378.81
284.207	372.81
284.439	379.81
284.67	396.81
284.901	388.81
285.132	401.81
285.364	396.81
285.595	374.81
285.826	387.81
286.057	397.81
286.288	370.81
286.52	393.81
286.751	396.81
286.982	405.81
287.213	395.81
287.444	405.81
287.675	391.81
287.906	381.81
288.138	417.81
288.369	438.81
288.6	407.81
288.831	406.81
289.062	417.81
289.293	425.81
289.524	419.81
289.755	423.81
289.986	430.81
290.217	423.81
290.448	412.81
290.679	411.81
290.91	409.81
291.141	413.81
291.371	406.81
291.602	400.81
291.833	426.81
292.064	411.81
292.295	426.81
292.526	416.81
292.757	416.81
292.987	409.81
293.218	409.81
293.449	428.81
293.68	432.81
293.91	441.81
294.141	414.81
294.372	409.81
294.603	417.81
294.833	438.81
295.064	430.81
295.295	423.81
295.525	427.81
295.756	426.81
295.987	429.81
296.217	441.81
296.448	440.81
296.679	416.81
296.909	436.81
297.14	435.81
297.37	457.81
297.601	450.81
297.831	446.81
298.062	442.81
298.292	448.81
298.523	453.81
298.753	441.81
298.984	446.81
299.214	452.81
299.445	440.81
299.675	464.81
299.905	460.81
300.136	458.81
300.366	450.81
300.597	485.81
300.827	477.81
301.057	481.81
301.288	492.81
301.518	464.81
301.748	473.81
301.979	459.81
302.209	483.81
302.439	471.81
302.669	466.81
302.9	456.81
303.13	485.81
303.36	457.81
303.59	471.81
303.82	458.81
304.051	446.81
304.281	469.81
304.511	449.81
304.741	467.81
304.971	462.81
305.201	465.81
305.431	490.81
305.661	455.81
305.891	476.81
306.121	461.81
306.352	462.81
306.582	445.81
306.812	462.81
307.042	459.81
307.272	457.81
307.502	463.81
307.731	471.81
307.961	466.81
308.191	478.81
308.421	464.81
308.651	484.81
308.881	470.81
309.111	455.81
309.341	471.81
309.571	461.81
309.8	473.81
310.03	475.81
310.26	454.81
310.49	458.81
310.72	476.81
310.949	462.81
311.179	485.81
311.409	475.81
311.639	473.81
311.868	475.81
312.098	471.81
312.328	482.81
312.557	488.81
312.787	491.81
313.017	489.81
313.246	481.81
313.476	500.81
313.706	519.81
313.935	506.81
314.165	522.81
314.394	505.81
314.624	513.81
314.853	505.81
315.083	501.81
315.312	489.81
315.542	493.81
315.771	479.81
316.001	497.81
316.23	486.81
316.46	499.81
316.689	511.81
316.919	494.81
317.148	481.81
317.377	495.81
317.607	484.81
317.836	500.81
318.065	489.81
318.295	492.81
318.524	498.81
318.753	477.81
318.983	483.81
319.212	456.81
319.441	490.81
319.67	505.81
319.9	493.81
320.129	486.81
320.358	473.81
320.587	504.81
320.816	505.81
321.046	497.81
321.275	524.81
321.504	509.81
321.733	519.81
321.962	489.81
322.191	505.81
322.42	499.81
322.649	497.81
322.878	502.81
323.108	500.81
323.337	504.81
323.566	510.81
323.795	522.81
324.024	513.81
324.253	511.81
324.482	523.81
324.71	504.81
324.939	527.81
325.168	504.81
325.397	502.81
325.626	527.81
325.855	518.81
326.084	533.81
326.313	538.81
326.542	545.81
326.77	541.81
326.999	561.81
327.228	549.81
327.457	532.81
327.686	547.81
327.914	535.81
328.143	556.81
328.372	526.81
328.6	549.81
328.829	551.81
329.058	555.81
329.287	548.81
329.515	554.81
329.744	532.81
329.972	541.81
330.201	540.81
330.43	576.81
330.658	583.81
330.887	580.81
331.115	566.81
331.344	585.81
331.572	560.81
331.801	594.81
332.03	590.81
332.258	630.81
332.486	651.81
332.715	674.81
332.943	680.81
333.172	725.81
333.4	760.81
333.629	762.81
333.857	758.81
334.085	718.81
334.314	741.81
334.542	700.81
334.771	699.81
334.999	676.81
335.227	707.81
335.455	675.81
335.684	656.81
335.912	660.81
336.14	666.81
336.369	679.81
336.597	665.81
336.825	682.81
337.053	666.81
337.281	636.81
337.51	628.81
337.738	625.81
337.966	629.81
338.194	606.81
338.422	615.81
338.65	610.81
338.878	611.81
339.106	595.81
339.334	594.81
339.562	604.81
339.79	596.81
340.018	606.81
340.246	568.81
340.474	566.81
340.702	584.81
340.93	582.81
341.158	570.81
341.386	598.81
341.614	564.81
341.842	568.81
342.07	559.81
342.298	567.81
342.526	590.81
342.754	593.81
342.981	577.81
343.209	564.81
343.437	596.81
343.665	643.81
343.893	698.81
344.12	731.81
344.348	669.81
344.576	646.81
344.804	610.81
345.031	621.81
345.259	584.81
345.487	597.81
345.714	574.81
345.942	565.81
346.17	583.81
346.397	596.81
346.625	555.81
346.853	564.81
347.08	561.81
347.308	557.81
347.535	563.81
347.763	585.81
347.99	579.81
348.218	572.81
348.445	567.81
348.673	572.81
348.9	551.81
349.128	565.81
349.355	554.81
349.583	543.81
349.81	561.81
350.037	557.81
350.265	528.81
350.492	555.81
350.72	548.81
350.947	533.81
351.174	553.81
351.402	545.81
351.629	545.81
351.856	516.81
352.083	541.81
352.311	533.81
352.538	526.81
352.765	523.81
352.992	532.81
353.22	548.81
353.447	535.81
353.674	542.81
353.901	544.81
354.128	557.81
354.355	532.81
354.583	534.81
354.81	549.81
355.037	551.81
355.264	524.81
355.491	532.81
355.718	551.81
355.945	545.81
356.172	553.81
356.399	526.81
356.626	566.81
356.853	571.81
357.08	533.81
357.307	521.81
357.534	544.81
357.761	544.81
357.988	552.81
358.215	550.81
358.441	525.81
358.668	538.81
358.895	539.81
359.122	537.81
359.349	554.81
359.576	550.81
359.802	536.81
360.029	550.81
360.256	541.81
360.483	531.81
360.709	539.81
360.936	543.81
361.163	526.81
361.39	547.81
361.616	540.81
361.843	552.81
362.07	532.81
362.296	538.81
362.523	536.81
362.749	539.81
362.976	549.81
363.203	531.81
363.429	519.81
363.656	515.81
363.882	535.81
364.109	540.81
364.335	541.81
364.562	513.81
364.788	526.81
365.015	546.81
365.241	533.81
365.468	529.81
365.694	534.81
365.92	525.81
366.147	521.81
366.373	532.81
366.599	535.81
366.826	553.81
367.052	557.81
367.278	563.81
367.505	539.81
367.731	543.81
367.957	543.81
368.184	547.81
368.41	548.81
368.636	563.81
368.862	551.81
369.089	561.81
369.315	550.81
369.541	549.81
369.767	555.81
369.993	542.81
370.219	583.81
370.445	594.81
370.672	572.81
370.898	561.81
371.124	553.81
371.35	580.81
371.576	583.81
371.802	572.81
372.028	595.81
372.254	585.81
372.48	595.81
372.706	599.81
372.932	599.81
373.158	601.81
373.384	582.81
373.61	566.81
373.835	578.81
374.061	572.81
374.287	598.81
374.513	620.81
374.739	621.81
374.965	652.81
375.191	654.81
375.416	649.81
375.642	625.81
375.868	626.81
376.094	612.81
376.319	603.81
376.545	591.81
376.771	601.81
376.997	588.81
377.222	573.81
377.448	590.81
377.674	590.81
377.899	582.81
378.125	596.81
378.35	561.81
378.576	582.81
378.802	564.81
379.027	571.81
379.253	573.81
379.478	556.81
379.704	570.81
379.929	573.81
380.155	581.81
380.38	563.81
380.606	572.81
380.831	570.81
381.057	586.81
381.282	594.81
381.507	578.81
381.733	583.81
381.958	587.81
382.184	593.81
382.409	574.81
382.634	596.81
382.86	594.81
383.085	631.81
383.31	634.81
383.535	647.81
383.761	668.81
383.986	650.81
384.211	681.81
384.436	675.81
384.662	692.81
384.887	685.81
385.112	703.81
385.337	715.81
385.562	711.81
385.787	690.81
386.013	708.81
386.238	705.81
386.463	690.81
386.688	697.81
386.913	664.81
387.138	678.81
387.363	684.81
387.588	662.81
387.813	681.81
388.038	687.81
388.263	708.81
388.488	703.81
388.713	698.81
388.938	712.81
389.163	663.81
389.387	681.81
389.612	686.81
389.837	664.81
390.062	673.81
390.287	665.81
390.512	695.81
390.736	686.81
390.961	693.81
391.186	708.81
391.411	736.81
391.636	716.81
391.86	771.81
392.085	801.81
392.31	751.81
392.534	771.81
392.759	748.81
392.984	723.81
393.208	718.81
393.433	739.81
393.658	730.81
393.882	758.81
394.107	767.81
394.331	775.81
394.556	732.81
394.78	733.81
395.005	744.81
395.229	763.81
395.454	783.81
395.678	778.81
395.903	783.81
396.127	746.81
396.352	739.81
396.576	753.81
396.801	738.81
397.025	759.81
397.249	746.81
397.474	795.81
397.698	773.81
397.922	787.81
398.147	771.81
398.371	791.81
398.595	811.81
398.82	846.81
399.044	926.81
399.268	1014.81
399.492	1196.81
399.717	1347.81
399.941	1315.81
400.165	1161.81
400.389	1027.81
400.613	957.81
400.837	898.81
401.062	870.81
401.286	851.81
401.51	838.81
401.734	846.81
401.958	859.81
402.182	897.81
402.406	901.81
402.63	902.81
402.854	940.81
403.078	919.81
403.302	941.81
403.526	995.81
403.75	1025.81
403.974	1020.81
404.198	1027.81
404.422	1030.81
404.645	996.81
404.869	992.81
405.093	972.81
405.317	974.81
405.541	1000.81
405.765	950.81
405.988	941.81
406.212	930.81
406.436	926.81
406.66	961.81
406.883	975.81
407.107	1077.81
407.331	1112.81
407.555	1167.81
407.778	1148.81
408.002	1084.81
408.226	1081.81
408.449	1036.81
408.673	998.81
408.896	974.81
409.12	972.81
409.344	970.81
409.567	939.81
409.791	959.81
410.014	984.81
410.238	992.81
410.461	978.81
410.685	963.81
410.908	965.81
411.132	925.81
411.355	915.81
411.578	930.81
411.802	898.81
412.025	894.81
412.249	905.81
412.472	886.81
412.695	888.81
412.919	858.81
413.142	873.81
413.365	858.81
413.589	859.81
413.812	866.81
414.035	860.81
414.258	834.81
414.482	860.81
414.705	861.81
414.928	881.81
415.151	897.81
415.374	894.81
415.597	855.81
415.821	847.81
416.044	834.81
416.267	854.81
416.49	842.81
416.713	839.81
416.936	842.81
417.159	848.81
417.382	837.81
417.605	837.81
417.828	841.81
418.051	858.81
418.274	870.81
418.497	871.81
418.72	909.81
418.943	893.81
419.166	939.81
419.389	975.81
419.611	975.81
419.834	937.81
420.057	939.81
420.28	874.81
420.503	870.81
420.726	850.81
420.948	846.81
421.171	859.81
421.394	860.81
421.617	859.81
421.839	867.81
422.062	883.81
422.285	831.81
422.507	911.81
422.73	896.81
422.953	901.81
423.175	895.81
423.398	945.81
423.621	905.81
423.843	921.81
424.066	927.81
424.288	927.81
424.511	930.81
424.733	928.81
424.956	894.81
425.178	919.81
425.401	846.81
425.623	870.81
425.846	843.81
426.068	847.81
426.291	852.81
426.513	831.81
426.735	823.81
426.958	805.81
427.18	807.81
427.402	818.81
427.625	783.81
427.847	757.81
428.069	782.81
428.292	766.81
428.514	746.81
428.736	734.81
428.958	767.81
429.181	758.81
429.403	777.81
429.625	770.81
429.847	760.81
430.069	773.81
430.292	778.81
430.514	755.81
430.736	759.81
430.958	776.81
431.18	756.81
431.402	780.81
431.624	762.81
431.846	773.81
432.068	791.81
432.29	791.81
432.512	774.81
432.734	799.81
432.956	761.81
433.178	773.81
433.4	778.81
433.622	774.81
433.844	773.81
434.066	782.81
434.287	800.81
434.509	819.81
434.731	829.81
434.953	867.81
435.175	925.81
435.397	858.81
435.618	826.81
435.84	806.81
436.062	789.81
436.284	787.81
436.505	764.81
436.727	764.81
436.949	783.81
437.17	780.81
437.392	731.81
437.614	738.81
437.835	719.81
438.057	746.81
438.278	752.81
438.5	732.81
438.721	718.81
438.943	730.81
439.165	749.81
439.386	745.81
439.608	772.81
439.829	763.81
440.05	779.81
440.272	789.81
440.493	783.81
440.715	808.81
440.936	790.81
441.158	826.81
441.379	850.81
441.6	886.81
441.822	894.81
442.043	897.81
442.264	881.81
442.486	863.81
442.707	862.81
442.928	859.81
443.149	840.81
443.371	851.81
443.592	861.81
443.813	860.81
444.034	893.81
444.255	914.81
444.476	933.81
444.698	1013.81
444.919	1056.81
445.14	1114.81
445.361	1003.81
445.582	895.81
445.803	857.81
446.024	792.81
446.245	803.81
446.466	799.81
446.687	787.81
446.908	809.81
447.129	788.81
447.35	759.81
447.571	751.81
447.792	727.81
448.013	746.81
448.234	739.81
448.455	729.81
448.675	702.81
448.896	699.81
449.117	725.81
449.338	703.81
449.559	712.81
449.779	691.81
450	712.81
450.221	706.81
450.442	718.81
450.662	703.81
450.883	709.81
451.104	754.81
451.324	766.81
451.545	734.81
451.766	724.81
451.986	719.81
452.207	718.81
452.428	711.81
452.648	698.81
452.869	730.81
453.089	698.81
453.31	695.81
453.53	701.81
453.751	693.81
453.971	702.81
454.192	692.81
454.412	676.81
454.633	691.81
454.853	685.81
455.073	651.81
455.294	677.81
455.514	674.81
455.734	670.81
455.955	661.81
456.175	677.81
456.395	672.81
456.616	662.81
456.836	681.81
457.056	678.81
457.276	650.81
457.497	650.81
457.717	652.81
457.937	674.81
458.157	667.81
458.377	656.81
458.598	694.81
458.818	723.81
459.038	725.81
459.258	744.81
459.478	781.81
459.698	799.81
459.918	825.81
460.138	876.81
460.358	897.81
460.578	943.81
460.798	902.81
461.018	931.81
461.238	896.81
461.458	892.81
461.678	901.81
461.898	922.81
462.118	909.81
462.338	967.81
462.558	1000.81
462.777	1027.81
462.997	1114.81
463.217	1255.81
463.437	1273.81
463.657	1135.81
463.876	1065.81
464.096	1052.81
464.316	1033.81
464.536	1087.81
464.755	1026.81
464.975	1013.81
465.195	964.81
465.414	901.81
465.634	839.81
465.854	822.81
466.073	788.81
466.293	775.81
466.512	760.81
466.732	745.81
466.951	750.81
467.171	757.81
467.391	724.81
467.61	766.81
467.829	746.81
468.049	738.81
468.268	700.81
468.488	711.81
468.707	684.81
468.927	724.81
469.146	696.81
469.365	725.81
469.585	727.81
469.804	786.81
470.023	760.81
470.243	780.81
470.462	784.81
470.681	779.81
470.901	768.81
471.12	778.81
471.339	738.81
471.558	707.81
471.777	743.81
471.997	705.81
472.216	687.81
472.435	690.81
472.654	685.81
472.873	693.81
473.092	694.81
473.311	701.81
473.53	714.81
473.749	695.81
473.968	693.81
474.187	689.81
474.406	661.81
474.625	666.81
474.844	678.81
475.063	695.81
475.282	679.81
475.501	695.81
475.72	708.81
475.939	710.81
476.158	711.81
476.377	700.81
476.596	740.81
476.814	741.81
477.033	738.81
477.252	731.81
477.471	773.81
477.69	753.81
477.908	783.81
478.127	826.81
478.346	835.81
478.564	853.81
478.783	841.81
479.002	850.81
479.22	885.81
479.439	868.81
479.658	877.81
479.876	828.81
480.095	875.81
480.313	908.81
480.532	957.81
480.751	940.81
480.969	875.81
481.188	867.81
481.406	816.81
481.624	802.81
481.843	782.81
482.061	773.81
482.28	789.81
482.498	792.81
482.717	769.81
482.935	781.81
483.153	791.81
483.372	788.81
483.59	815.81
483.808	795.81
484.027	804.81
484.245	805.81
484.463	799.81
484.681	789.81
484.9	774.81
485.118	798.81
485.336	791.81
485.554	820.81
485.772	862.81
485.99	811.81
486.209	853.81
486.427	837.81
486.645	822.81
486.863	846.81
487.081	845.81
487.299	818.81
487.517	803.81
487.735	817.81
487.953	841.81
488.171	851.81
488.389	833.81
488.607	817.81
488.825	820.81
489.043	798.81
489.261	836.81
489.479	846.81
489.696	846.81
489.914	838.81
490.132	829.81
490.35	830.81
490.568	833.81
490.786	819.81
491.003	820.81
491.221	836.81
491.439	830.81
491.657	818.81
491.874	831.81
492.092	830.81
492.31	862.81
492.527	858.81
492.745	834.81
492.963	854.81
493.18	858.81
493.398	857.81
493.615	863.81
493.833	850.81
494.05	890.81
494.268	888.81
494.485	865.81
494.703	893.81
494.92	882.81
495.138	867.81
495.355	858.81
495.573	872.81
495.79	867.81
496.008	882.81
496.225	895.81
496.442	894.81
496.66	920.81
496.877	922.81
497.094	926.81
497.312	916.81
497.529	945.81
497.746	986.81
497.963	1036.81
498.181	1012.81
498.398	1104.81
498.615	1163.81
498.832	1222.81
499.049	1329.81
499.267	1421.81
499.484	1574.81
499.701	1729.81
499.918	1905.81
500.135	2254.81
500.352	2559.81
500.569	2707.81
500.786	2707.81
501.003	2448.81
501.22	2186.81
501.437	1901.81
501.654	1653.81
501.871	1471.81
502.088	1381.81
502.305	1281.81
502.522	1261.81
502.739	1201.81
502.956	1111.81
503.172	1071.81
503.389	1019.81
503.606	1009.81
503.823	969.81
504.04	973.81
504.256	973.81
504.473	1021.81
504.69	1071.81
504.907	1054.81
505.123	955.81
505.34	930.81
505.557	877.81
505.773	872.81
505.99	827.81
506.207	817.81
506.423	831.81
506.64	775.81
506.856	780.81
507.073	781.81
507.289	756.81
507.506	783.81
507.722	762.81
507.939	759.81
508.155	754.81
508.372	740.81
508.588	733.81
508.805	712.81
509.021	702.81
509.238	739.81
509.454	723.81
509.67	706.81
509.887	723.81
510.103	675.81
510.319	701.81
510.536	719.81
510.752	705.81
510.968	732.81
511.184	709.81
511.401	706.81
511.617	717.81
511.833	692.81
512.049	717.81
512.265	691.81
512.481	696.81
512.698	718.81
512.914	698.81
513.13	690.81
513.346	696.81
513.562	712.81
513.778	706.81
513.994	698.81
514.21	717.81
514.426	725.81
514.642	714.81
514.858	703.81
515.074	706.81
515.29	738.81
515.506	739.81
515.721	741.81
515.937	763.81
516.153	744.81
516.369	820.81
516.585	806.81
516.801	846.81
517.016	886.81
517.232	920.81
517.448	961.81
517.664	992.81
517.879	1028.81
518.095	1046.81
518.311	992.81
518.527	947.81
518.742	901.81
518.958	837.81
519.173	833.81
519.389	793.81
519.605	797.81
519.82	756.81
520.036	742.81
520.251	717.81
520.467	696.81
520.682	687.81
520.898	724.81
521.113	693.81
521.329	687.81
521.544	667.81
521.76	682.81
521.975	674.81
522.19	649.81
522.406	663.81
522.621	670.81
522.836	667.81
523.052	694.81
523.267	665.81
523.482	661.81
523.698	662.81
523.913	652.81
524.128	633.81
524.343	659.81
524.559	644.81
524.774	650.81
524.989	658.81
525.204	656.81
525.419	643.81
525.634	635.81
525.849	640.81
526.064	642.81
526.28	627.81
526.495	641.81
526.71	637.81
526.925	641.81
527.14	639.81
527.355	620.81
527.57	661.81
527.785	629.81
527.999	631.81
528.214	636.81
528.429	635.81
528.644	681.81
528.859	643.81
529.074	650.81
529.289	661.81
529.503	643.81
529.718	637.81
529.933	623.81
530.148	627.81
530.363	648.81
530.577	657.81
530.792	640.81
531.007	634.81
531.221	611.81
531.436	639.81
531.651	649.81
531.865	639.81
532.08	644.81
532.295	652.81
532.509	645.81
532.724	635.81
532.938	632.81
533.153	619.81
533.367	643.81
533.582	645.81
533.796	647.81
534.011	641.81
534.225	635.81
534.44	628.81
534.654	643.81
534.868	665.81
535.083	625.81
535.297	651.81
535.511	620.81
535.726	618.81
535.94	621.81
536.154	601.81
536.369	625.81
536.583	599.81
536.797	620.81
537.011	596.81
537.225	586.81
537.44	581.81
537.654	584.81
537.868	603.81
538.082	569.81
538.296	608.81
538.51	586.81
538.724	590.81
538.938	590.81
539.153	587.81
539.367	572.81
539.581	581.81
539.795	595.81
540.009	552.81
540.222	571.81
540.436	574.81
540.65	557.81
540.864	567.81
541.078	581.81
541.292	573.81
541.506	565.81
541.72	570.81
541.934	569.81
542.147	600.81
542.361	580.81
542.575	579.81
542.789	580.81
543.002	558.81
543.216	550.81
543.43	549.81
543.644	561.81
543.857	567.81
544.071	595.81
544.285	582.81
544.498	578.81
544.712	577.81
544.925	555.81
545.139	586.81
545.352	598.81
545.566	583.81
545.779	610.81
545.993	602.81
546.206	597.81
546.42	613.81
546.633	588.81
546.847	573.81
547.06	584.81
547.274	596.81
547.487	571.81
547.7	585.81
547.914	609.81
548.127	601.81
548.34	621.81
548.554	607.81
548.767	605.81
548.98	611.81
549.193	603.81
549.407	585.81
549.62	597.81
549.833	605.81
550.046	611.81
550.259	601.81
550.473	573.81
550.686	562.81
550.899	577.81
551.112	573.81
551.325	575.81
551.538	571.81
551.751	585.81
551.964	546.81
552.177	578.81
552.39	600.81
552.603	610.81
552.816	637.81
553.029	641.81
553.242	671.81
553.455	639.81
553.667	665.81
553.88	641.81
554.093	647.81
554.306	628.81
554.519	607.81
554.732	580.81
554.944	583.81
555.157	567.81
555.37	562.81
555.583	559.81
555.795	549.81
556.008	529.81
556.221	532.81
556.433	520.81
556.646	533.81
556.859	509.81
557.071	517.81
557.284	501.81
557.496	523.81
557.709	534.81
557.921	521.81
558.134	486.81
558.346	506.81
558.559	513.81
558.771	497.81
558.984	498.81
559.196	464.81
559.409	497.81
559.621	499.81
559.833	488.81
560.046	475.81
560.258	486.81
560.47	474.81
560.683	488.81
560.895	475.81
561.107	472.81
561.32	462.81
561.532	482.81
561.744	504.81
561.956	481.81
562.168	474.81
562.381	493.81
562.593	471.81
562.805	497.81
563.017	477.81
563.229	495.81
563.441	497.81
563.653	481.81
563.865	520.81
564.077	503.81
564.289	527.81
564.501	524.81
564.713	519.81
564.925	530.81
565.137	527.81
565.349	581.81
565.561	564.81
565.773	562.81
565.985	607.81
566.197	634.81
566.408	641.81
566.62	745.81
566.832	796.81
567.044	808.81
567.255	780.81
567.467	820.81
567.679	849.81
567.891	956.81
568.102	997.81
568.314	946.81
568.526	808.81
568.737	726.81
568.949	693.81
569.161	611.81
569.372	570.81
569.584	552.81
569.795	527.81
570.007	505.81
570.218	486.81
570.43	473.81
570.641	490.81
570.853	473.81
571.064	507.81
571.276	519.81
571.487	511.81
571.698	464.81
571.91	462.81
572.121	448.81
572.333	431.81
572.544	440.81
572.755	408.81
572.966	438.81
573.178	414.81
573.389	412.81
573.6	385.81
573.811	417.81
574.023	404.81
574.234	404.81
574.445	409.81
574.656	398.81
574.867	399.81
575.078	423.81
575.289	408.81
575.501	402.81
575.712	390.81
575.923	390.81
576.134	385.81
576.345	385.81
576.556	387.81
576.767	391.81
576.978	397.81
577.188	377.81
577.399	379.81
577.61	386.81
577.821	375.81
578.032	366.81
578.243	365.81
578.454	366.81
578.665	357.81
578.875	362.81
579.086	367.81
579.297	354.81
579.508	345.81
579.718	339.81
579.929	365.81
580.14	358.81
580.35	341.81
580.561	355.81
580.772	355.81
580.982	351.81
581.193	342.81
581.403	324.81
581.614	349.81
581.825	344.81
582.035	331.81
582.246	356.81
582.456	348.81
582.667	350.81
582.877	338.81
583.087	353.81
583.298	336.81
583.508	354.81
583.719	351.81
583.929	353.81
584.139	355.81
584.35	325.81
584.56	344.81
584.77	350.81
584.981	344.81
585.191	338.81
585.401	334.81
585.611	334.81
585.821	342.81
586.032	327.81
586.242	327.81
586.452	351.81
586.662	306.81
586.872	325.81
587.082	333.81
587.292	341.81
587.502	333.81
587.713	327.81
587.923	329.81
588.133	318.81
588.343	325.81
588.553	311.81
588.762	314.81
588.972	319.81
589.182	333.81
589.392	334.81
589.602	335.81
589.812	328.81
590.022	327.81
590.232	332.81
590.441	328.81
590.651	324.81
590.861	338.81
591.071	323.81
591.281	315.81
591.49	341.81
591.7	344.81
591.91	353.81
592.119	347.81
592.329	381.81
592.539	361.81
592.748	382.81
592.958	389.81
593.167	414.81
593.377	395.81
593.587	417.81
593.796	430.81
594.006	413.81
594.215	454.81
594.424	433.81
594.634	429.81
594.843	396.81
595.053	394.81
595.262	353.81
595.472	378.81
595.681	343.81
595.89	340.81
596.1	354.81
596.309	326.81
596.518	310.81
596.727	300.81
596.937	307.81
597.146	316.81
597.355	301.81
597.564	298.81
597.774	303.81
597.983	296.81
598.192	305.81
598.401	289.81
598.61	278.81
598.819	294.81
599.028	283.81
599.237	277.81
599.446	274.81
599.655	292.81
599.864	281.81
600.073	280.81
600.282	279.81
600.491	282.81
600.7	278.81
600.909	290.81
601.118	275.81
601.327	291.81
601.536	259.81
601.745	289.81
601.953	275.81
602.162	282.81
602.371	276.81
602.58	274.81
602.789	277.81
602.997	263.81
603.206	278.81
603.415	265.81
603.623	275.81
603.832	251.81
604.041	255.81
604.249	274.81
604.458	270.81
604.666	269.81
604.875	257.81
605.084	259.81
605.292	257.81
605.501	269.81
605.709	248.81
605.918	253.81
606.126	273.81
606.334	267.81
606.543	252.81
606.751	247.81
606.96	262.81
607.168	251.81
607.376	267.81
607.585	261.81
607.793	260.81
608.001	250.81
608.21	244.81
608.418	254.81
608.626	271.81
608.834	230.81
609.043	241.81
609.251	247.81
609.459	241.81
609.667	264.81
609.875	249.81
610.083	249.81
610.291	237.81
610.499	256.81
610.707	225.81
610.916	259.81
611.124	250.81
611.332	246.81
611.54	255.81
611.748	244.81
611.955	241.81
612.163	252.81
612.371	246.81
612.579	242.81
612.787	242.81
612.995	241.81
613.203	221.81
613.411	245.81
613.618	255.81
613.826	242.81
614.034	237.81
614.242	245.81
614.449	257.81
614.657	245.81
614.865	234.81
615.072	234.81
615.28	265.81
615.488	255.81
615.695	256.81
615.903	261.81
616.111	246.81
616.318	277.81
616.526	250.81
616.733	244.81
616.941	249.81
617.148	247.81
617.356	253.81
617.563	250.81
617.771	244.81
617.978	237.81
618.185	254.81
618.393	232.81
618.6	241.81
618.807	241.81
619.015	234.81
619.222	238.81
619.429	234.81
619.637	242.81
619.844	225.81
620.051	241.81
620.258	222.81
620.466	214.81
620.673	222.81
620.88	234.81
621.087	230.81
621.294	231.81
621.501	224.81
621.708	231.81
621.915	222.81
622.122	242.81
622.329	237.81
622.536	233.81
622.743	231.81
622.95	215.81
623.157	216.81
623.364	222.81
623.571	218.81
623.778	235.81
623.985	195.81
624.192	223.81
624.399	223.81
624.606	211.81
624.812	224.81
625.019	222.81
625.226	210.81
625.433	223.81
625.639	214.81
625.846	206.81
626.053	215.81
626.259	219.81
626.466	203.81
626.673	212.81
626.879	211.81
627.086	223.81
627.293	187.81
627.499	210.81
627.706	216.81
627.912	211.81
628.119	203.81
628.325	213.81
628.532	201.81
628.738	206.81
628.945	215.81
629.151	210.81
629.357	207.81
629.564	199.81
629.77	197.81
629.976	195.81
630.183	207.81
630.389	197.81
630.595	190.81
630.802	202.81
631.008	190.81
631.214	191.81
631.42	189.81
631.627	186.81
631.833	194.81
632.039	192.81
632.245	186.81
632.451	202.81
632.657	194.81
632.863	190.81
633.069	193.81
633.275	190.81
633.481	199.81
633.688	184.81
633.893	194.81
634.099	186.81
634.305	194.81
634.511	197.81
634.717	187.81
634.923	204.81
635.129	194.81
635.335	185.81
635.541	178.81
635.747	179.81
635.952	181.81
636.158	182.81
636.364	174.81
636.57	171.81
636.775	174.81
636.981	185.81
637.187	185.81
637.392	173.81
637.598	157.81
637.804	174.81
638.009	178.81
638.215	174.81
638.421	180.81
638.626	161.81
638.832	181.81
639.037	168.81
639.243	183.81
639.448	161.81
639.654	172.81
639.859	173.81
640.065	175.81
640.27	180.81
640.475	185.81
640.681	173.81
640.886	169.81
641.091	157.81
641.297	187.81
641.502	178.81
641.707	167.81
641.913	173.81
642.118	180.81
642.323	163.81
642.528	161.81
642.733	159.81
642.939	169.81
643.144	172.81
643.349	164.81
643.554	166.81
643.759	163.81
643.964	149.81
644.169	155.81
644.374	175.81
644.579	168.81
644.784	171.81
644.989	173.81
645.194	149.81
645.399	155.81
645.604	167.81
645.809	155.81
646.014	157.81
646.219	174.81
646.423	172.81
646.628	173.81
646.833	182.81
647.038	168.81
647.243	170.81
647.447	182.81
647.652	174.81
647.857	181.81
648.062	176.81
648.266	174.81
648.471	188.81
648.676	171.81
648.88	185.81
649.085	185.81
649.289	180.81
649.494	184.81
649.698	171.81
649.903	171.81
650.107	157.81
650.312	170.81
650.516	170.81
650.721	154.81
650.925	127.81
651.13	156.81
651.334	163.81
651.539	141.81
651.743	153.81
651.947	162.81
652.152	139.81
652.356	145.81
652.56	142.81
652.764	129.81
652.969	147.81
653.173	150.81
653.377	139.81
653.581	156.81
653.785	129.81
653.99	115.81
654.194	135.81
654.398	147.81
654.602	135.81
654.806	152.81
655.01	142.81
655.214	133.81
655.418	128.81
655.622	120.81
655.826	147.81
656.03	155.81
656.234	126.81
656.438	131.81
656.642	159.81
656.846	140.81
657.049	123.81
657.253	121.81
657.457	117.81
657.661	109.81
657.865	109.81
658.068	97.81
658.272	105.81
658.476	111.81
658.68	105.81
658.883	104.81
659.087	106.81
659.291	98.81
659.494	95.81
659.698	95.81
659.901	89.81
660.105	92.81
660.309	93.81
660.512	93.81
660.716	90.81
660.919	105.81
661.123	104.81
661.326	98.81
661.53	94.81
661.733	89.81
661.936	99.81
662.14	91.81
662.343	72.81
662.546	85.81
662.75	88.81
662.953	94.81
663.156	82.81
663.36	91.81
663.563	77.81
663.766	87.81
663.969	102.81
664.173	79.81
664.376	83.81
664.579	88.81
664.782	82.81
664.985	79.81
665.188	71.81
665.391	74.81
665.594	79.81
665.797	83.81
666	87.81
666.203	78.81
666.406	93.81
666.609	68.81
666.812	82.81
667.015	83.81
667.218	98.81
667.421	85.81
667.624	76.81
667.827	87.81
668.03	80.81
668.232	79.81
668.435	85.81
668.638	77.81
668.841	94.81
669.043	84.81
669.246	97.81
669.449	78.81
669.651	90.81
669.854	77.81
670.057	91.81
670.259	77.81
670.462	74.81
670.665	81.81
670.867	93.81
671.07	82.81
671.272	75.81
671.475	104.81
671.677	93.81
671.88	83.81
672.082	76.81
672.284	82.81
672.487	77.81
672.689	85.81
672.892	87.81
