Data from Ni(NO3)2@0.5M.TitratingCurve.Agarose3%dH2O.NegLispCup.LampEnergy10.LIBS07252019_HRD10591_17-57-25-564.txt Node
Date: Thu Jul 25 17:57:25 EDT 2019
User: cochatt
Spectrometer: HR+D1059
Trigger mode: 1
Integration Time (sec): 1.000000E-1
Scans to average: 1
Electric dark correction enabled: true
Nonlinearity correction enabled: false
Boxcar width: 0
XAxis mode: Wavelengths
Number of Pixels in Spectrum: 2048
>>>>>Begin Spectral Data<<<<<
223.165	-11.94
223.4	-11.94
223.635	-11.94
223.869	-30.94
224.104	-14.94
224.338	-11.94
224.573	-6.94
224.808	-6.94
225.042	-15.94
225.277	-11.94
225.511	7.06
225.746	8.06
225.98	12.06
226.215	15.06
226.449	20.06
226.683	20.06
226.918	15.06
227.152	14.06
227.387	29.06
227.621	32.06
227.856	52.06
228.09	51.06
228.324	60.06
228.559	69.06
228.793	81.06
229.027	140.06
229.262	140.06
229.496	130.06
229.73	165.06
229.964	171.06
230.199	165.06
230.433	187.06
230.667	192.06
230.901	201.06
231.136	172.06
231.37	166.06
231.604	176.06
231.838	204.06
232.072	208.06
232.306	192.06
232.541	206.06
232.775	182.06
233.009	198.06
233.243	170.06
233.477	155.06
233.711	161.06
233.945	187.06
234.179	180.06
234.413	183.06
234.647	196.06
234.881	190.06
235.115	184.06
235.349	186.06
235.583	194.06
235.817	184.06
236.051	191.06
236.285	179.06
236.519	203.06
236.753	195.06
236.987	190.06
237.221	217.06
237.455	210.06
237.689	209.06
237.922	213.06
238.156	215.06
238.39	204.06
238.624	211.06
238.858	221.06
239.091	212.06
239.325	217.06
239.559	232.06
239.793	244.06
240.027	248.06
240.26	226.06
240.494	228.06
240.728	222.06
240.961	234.06
241.195	224.06
241.429	231.06
241.662	247.06
241.896	265.06
242.13	260.06
242.363	245.06
242.597	242.06
242.83	251.06
243.064	241.06
243.298	267.06
243.531	266.06
243.765	260.06
243.998	265.06
244.232	276.06
244.465	273.06
244.699	264.06
244.932	266.06
245.166	275.06
245.399	278.06
245.633	281.06
245.866	292.06
246.099	290.06
246.333	297.06
246.566	283.06
246.8	297.06
247.033	302.06
247.266	300.06
247.5	291.06
247.733	316.06
247.966	309.06
248.2	304.06
248.433	309.06
248.666	330.06
248.899	315.06
249.133	339.06
249.366	324.06
249.599	323.06
249.832	327.06
250.066	330.06
250.299	342.06
250.532	340.06
250.765	330.06
250.998	372.06
251.231	374.06
251.465	384.06
251.698	386.06
251.931	375.06
252.164	369.06
252.397	370.06
252.63	369.06
252.863	380.06
253.096	360.06
253.329	390.06
253.562	363.06
253.795	395.06
254.028	408.06
254.261	412.06
254.494	409.06
254.727	421.06
254.96	397.06
255.193	410.06
255.426	410.06
255.659	412.06
255.892	439.06
256.124	429.06
256.357	416.06
256.59	448.06
256.823	442.06
257.056	429.06
257.289	463.06
257.521	421.06
257.754	456.06
257.987	438.06
258.22	455.06
258.452	443.06
258.685	446.06
258.918	438.06
259.151	448.06
259.383	443.06
259.616	457.06
259.849	458.06
260.081	482.06
260.314	469.06
260.547	463.06
260.779	476.06
261.012	473.06
261.244	482.06
261.477	513.06
261.71	500.06
261.942	497.06
262.175	516.06
262.407	488.06
262.64	501.06
262.872	503.06
263.105	501.06
263.337	498.06
263.57	513.06
263.802	504.06
264.035	484.06
264.267	531.06
264.499	527.06
264.732	525.06
264.964	538.06
265.197	530.06
265.429	530.06
265.661	554.06
265.894	556.06
266.126	536.06
266.358	530.06
266.591	536.06
266.823	539.06
267.055	535.06
267.287	587.06
267.52	545.06
267.752	549.06
267.984	571.06
268.216	566.06
268.448	538.06
268.681	576.06
268.913	570.06
269.145	550.06
269.377	569.06
269.609	543.06
269.841	594.06
270.073	566.06
270.306	561.06
270.538	580.06
270.77	575.06
271.002	590.06
271.234	567.06
271.466	576.06
271.698	606.06
271.93	597.06
272.162	585.06
272.394	593.06
272.626	609.06
272.858	615.06
273.09	604.06
273.322	626.06
273.553	592.06
273.785	605.06
274.017	590.06
274.249	587.06
274.481	600.06
274.713	623.06
274.945	601.06
275.176	615.06
275.408	646.06
275.64	632.06
275.872	625.06
276.104	631.06
276.335	642.06
276.567	636.06
276.799	606.06
277.031	646.06
277.262	665.06
277.494	654.06
277.726	640.06
277.957	668.06
278.189	652.06
278.421	646.06
278.652	649.06
278.884	675.06
279.115	666.06
279.347	664.06
279.579	657.06
279.81	666.06
280.042	672.06
280.273	664.06
280.505	688.06
280.736	666.06
280.968	690.06
281.199	670.06
281.431	691.06
281.662	680.06
281.894	694.06
282.125	684.06
282.356	708.06
282.588	675.06
282.819	690.06
283.051	703.06
283.282	688.06
283.513	708.06
283.745	678.06
283.976	683.06
284.207	704.06
284.439	719.06
284.67	696.06
284.901	729.06
285.132	709.06
285.364	705.06
285.595	707.06
285.826	708.06
286.057	718.06
286.288	718.06
286.52	724.06
286.751	701.06
286.982	735.06
287.213	733.06
287.444	748.06
287.675	724.06
287.906	732.06
288.138	720.06
288.369	706.06
288.6	732.06
288.831	723.06
289.062	760.06
289.293	733.06
289.524	761.06
289.755	731.06
289.986	738.06
290.217	736.06
290.448	737.06
290.679	772.06
290.91	755.06
291.141	731.06
291.371	765.06
291.602	759.06
291.833	762.06
292.064	741.06
292.295	742.06
292.526	779.06
292.757	768.06
292.987	764.06
293.218	754.06
293.449	758.06
293.68	758.06
293.91	755.06
294.141	754.06
294.372	734.06
294.603	778.06
294.833	781.06
295.064	740.06
295.295	749.06
295.525	749.06
295.756	762.06
295.987	758.06
296.217	764.06
296.448	752.06
296.679	785.06
296.909	758.06
297.14	747.06
297.37	740.06
297.601	807.06
297.831	774.06
298.062	770.06
298.292	787.06
298.523	808.06
298.753	789.06
298.984	789.06
299.214	793.06
299.445	796.06
299.675	845.06
299.905	806.06
300.136	800.06
300.366	810.06
300.597	823.06
300.827	803.06
301.057	806.06
301.288	831.06
301.518	820.06
301.748	829.06
301.979	830.06
302.209	824.06
302.439	834.06
302.669	869.06
302.9	849.06
303.13	838.06
303.36	866.06
303.59	852.06
303.82	863.06
304.051	869.06
304.281	852.06
304.511	834.06
304.741	829.06
304.971	883.06
305.201	876.06
305.431	867.06
305.661	873.06
305.891	854.06
306.121	862.06
306.352	844.06
306.582	883.06
306.812	863.06
307.042	868.06
307.272	881.06
307.502	859.06
307.731	869.06
307.961	885.06
308.191	866.06
308.421	882.06
308.651	858.06
308.881	861.06
309.111	886.06
309.341	893.06
309.571	886.06
309.8	885.06
310.03	905.06
310.26	941.06
310.49	878.06
310.72	908.06
310.949	924.06
311.179	908.06
311.409	921.06
311.639	910.06
311.868	899.06
312.098	929.06
312.328	924.06
312.557	944.06
312.787	937.06
313.017	919.06
313.246	965.06
313.476	973.06
313.706	973.06
313.935	965.06
314.165	975.06
314.394	938.06
314.624	954.06
314.853	937.06
315.083	973.06
315.312	973.06
315.542	930.06
315.771	988.06
316.001	985.06
316.23	995.06
316.46	987.06
316.689	1007.06
316.919	990.06
317.148	1002.06
317.377	978.06
317.607	1027.06
317.836	993.06
318.065	998.06
318.295	991.06
318.524	998.06
318.753	1022.06
318.983	1025.06
319.212	1044.06
319.441	968.06
319.67	1014.06
319.9	1028.06
320.129	993.06
320.358	1018.06
320.587	1065.06
320.816	1021.06
321.046	1067.06
321.275	1079.06
321.504	1066.06
321.733	1069.06
321.962	1052.06
322.191	1052.06
322.42	1089.06
322.649	1077.06
322.878	1066.06
323.108	1053.06
323.337	1098.06
323.566	1079.06
323.795	1082.06
324.024	1084.06
324.253	1097.06
324.482	1095.06
324.71	1101.06
324.939	1116.06
325.168	1106.06
325.397	1103.06
325.626	1106.06
325.855	1100.06
326.084	1104.06
326.313	1143.06
326.542	1148.06
326.77	1148.06
326.999	1110.06
327.228	1143.06
327.457	1142.06
327.686	1134.06
327.914	1156.06
328.143	1142.06
328.372	1156.06
328.6	1152.06
328.829	1172.06
329.058	1153.06
329.287	1135.06
329.515	1145.06
329.744	1147.06
329.972	1153.06
330.201	1175.06
330.43	1178.06
330.658	1157.06
330.887	1164.06
331.115	1190.06
331.344	1186.06
331.572	1190.06
331.801	1172.06
332.03	1173.06
332.258	1191.06
332.486	1168.06
332.715	1164.06
332.943	1210.06
333.172	1219.06
333.4	1204.06
333.629	1238.06
333.857	1220.06
334.085	1229.06
334.314	1237.06
334.542	1260.06
334.771	1245.06
334.999	1227.06
335.227	1238.06
335.455	1270.06
335.684	1218.06
335.912	1258.06
336.14	1217.06
336.369	1239.06
336.597	1283.06
336.825	1271.06
337.053	1281.06
337.281	1282.06
337.51	1278.06
337.738	1266.06
337.966	1286.06
338.194	1288.06
338.422	1271.06
338.65	1236.06
338.878	1252.06
339.106	1266.06
339.334	1273.06
339.562	1255.06
339.79	1272.06
340.018	1270.06
340.246	1243.06
340.474	1240.06
340.702	1228.06
340.93	1256.06
341.158	1287.06
341.386	1287.06
341.614	1269.06
341.842	1288.06
342.07	1204.06
342.298	1250.06
342.526	1219.06
342.754	1236.06
342.981	1237.06
343.209	1235.06
343.437	1229.06
343.665	1261.06
343.893	1240.06
344.12	1261.06
344.348	1248.06
344.576	1269.06
344.804	1244.06
345.031	1243.06
345.259	1260.06
345.487	1264.06
345.714	1266.06
345.942	1268.06
346.17	1259.06
346.397	1231.06
346.625	1239.06
346.853	1213.06
347.08	1210.06
347.308	1204.06
347.535	1230.06
347.763	1209.06
347.99	1237.06
348.218	1234.06
348.445	1206.06
348.673	1193.06
348.9	1194.06
349.128	1234.06
349.355	1214.06
349.583	1235.06
349.81	1203.06
350.037	1184.06
350.265	1218.06
350.492	1193.06
350.72	1219.06
350.947	1217.06
351.174	1220.06
351.402	1240.06
351.629	1242.06
351.856	1217.06
352.083	1229.06
352.311	1222.06
352.538	1202.06
352.765	1239.06
352.992	1182.06
353.22	1169.06
353.447	1189.06
353.674	1177.06
353.901	1193.06
354.128	1206.06
354.355	1171.06
354.583	1214.06
354.81	1165.06
355.037	1146.06
355.264	1173.06
355.491	1172.06
355.718	1166.06
355.945	1176.06
356.172	1181.06
356.399	1174.06
356.626	1211.06
356.853	1215.06
357.08	1177.06
357.307	1197.06
357.534	1200.06
357.761	1192.06
357.988	1222.06
358.215	1189.06
358.441	1190.06
358.668	1190.06
358.895	1173.06
359.122	1210.06
359.349	1192.06
359.576	1185.06
359.802	1189.06
360.029	1205.06
360.256	1164.06
360.483	1208.06
360.709	1190.06
360.936	1166.06
361.163	1189.06
361.39	1223.06
361.616	1187.06
361.843	1246.06
362.07	1240.06
362.296	1211.06
362.523	1190.06
362.749	1208.06
362.976	1186.06
363.203	1162.06
363.429	1177.06
363.656	1174.06
363.882	1169.06
364.109	1206.06
364.335	1158.06
364.562	1233.06
364.788	1223.06
365.015	1180.06
365.241	1179.06
365.468	1191.06
365.694	1181.06
365.92	1197.06
366.147	1184.06
366.373	1182.06
366.599	1221.06
366.826	1190.06
367.052	1184.06
367.278	1185.06
367.505	1195.06
367.731	1202.06
367.957	1177.06
368.184	1194.06
368.41	1210.06
368.636	1191.06
368.862	1190.06
369.089	1177.06
369.315	1188.06
369.541	1216.06
369.767	1186.06
369.993	1157.06
370.219	1187.06
370.445	1206.06
370.672	1168.06
370.898	1243.06
371.124	1220.06
371.35	1214.06
371.576	1185.06
371.802	1197.06
372.028	1231.06
372.254	1200.06
372.48	1234.06
372.706	1208.06
372.932	1194.06
373.158	1216.06
373.384	1230.06
373.61	1189.06
373.835	1228.06
374.061	1246.06
374.287	1229.06
374.513	1217.06
374.739	1194.06
374.965	1213.06
375.191	1221.06
375.416	1217.06
375.642	1173.06
375.868	1194.06
376.094	1213.06
376.319	1182.06
376.545	1190.06
376.771	1226.06
376.997	1197.06
377.222	1188.06
377.448	1156.06
377.674	1192.06
377.899	1184.06
378.125	1158.06
378.35	1171.06
378.576	1159.06
378.802	1188.06
379.027	1188.06
379.253	1186.06
379.478	1164.06
379.704	1160.06
379.929	1187.06
380.155	1177.06
380.38	1162.06
380.606	1208.06
380.831	1161.06
381.057	1176.06
381.282	1160.06
381.507	1158.06
381.733	1159.06
381.958	1162.06
382.184	1202.06
382.409	1213.06
382.634	1245.06
382.86	1169.06
383.085	1202.06
383.31	1181.06
383.535	1234.06
383.761	1200.06
383.986	1187.06
384.211	1204.06
384.436	1216.06
384.662	1207.06
384.887	1226.06
385.112	1222.06
385.337	1235.06
385.562	1214.06
385.787	1235.06
386.013	1234.06
386.238	1252.06
386.463	1236.06
386.688	1254.06
386.913	1196.06
387.138	1192.06
387.363	1245.06
387.588	1225.06
387.813	1233.06
388.038	1244.06
388.263	1236.06
388.488	1238.06
388.713	1239.06
388.938	1255.06
389.163	1224.06
389.387	1282.06
389.612	1231.06
389.837	1236.06
390.062	1246.06
390.287	1236.06
390.512	1227.06
390.736	1268.06
390.961	1257.06
391.186	1252.06
391.411	1214.06
391.636	1260.06
391.86	1264.06
392.085	1266.06
392.31	1232.06
392.534	1245.06
392.759	1268.06
392.984	1256.06
393.208	1266.06
393.433	1254.06
393.658	1260.06
393.882	1209.06
394.107	1250.06
394.331	1228.06
394.556	1245.06
394.78	1276.06
395.005	1260.06
395.229	1237.06
395.454	1259.06
395.678	1265.06
395.903	1235.06
396.127	1273.06
396.352	1292.06
396.576	1270.06
396.801	1241.06
397.025	1276.06
397.249	1300.06
397.474	1290.06
397.698	1270.06
397.922	1302.06
398.147	1298.06
398.371	1301.06
398.595	1320.06
398.82	1320.06
399.044	1301.06
399.268	1337.06
399.492	1336.06
399.717	1345.06
399.941	1372.06
400.165	1379.06
400.389	1389.06
400.613	1334.06
400.837	1323.06
401.062	1339.06
401.286	1305.06
401.51	1338.06
401.734	1315.06
401.958	1319.06
402.182	1339.06
402.406	1362.06
402.63	1309.06
402.854	1332.06
403.078	1307.06
403.302	1339.06
403.526	1345.06
403.75	1330.06
403.974	1315.06
404.198	1332.06
404.422	1330.06
404.645	1332.06
404.869	1337.06
405.093	1309.06
405.317	1335.06
405.541	1312.06
405.765	1352.06
405.988	1356.06
406.212	1358.06
406.436	1330.06
406.66	1386.06
406.883	1404.06
407.107	1406.06
407.331	1363.06
407.555	1401.06
407.778	1404.06
408.002	1417.06
408.226	1429.06
408.449	1452.06
408.673	1402.06
408.896	1404.06
409.12	1370.06
409.344	1386.06
409.567	1393.06
409.791	1408.06
410.014	1376.06
410.238	1394.06
410.461	1400.06
410.685	1383.06
410.908	1421.06
411.132	1402.06
411.355	1384.06
411.578	1377.06
411.802	1353.06
412.025	1335.06
412.249	1356.06
412.472	1369.06
412.695	1340.06
412.919	1330.06
413.142	1375.06
413.365	1338.06
413.589	1322.06
413.812	1310.06
414.035	1357.06
414.258	1348.06
414.482	1357.06
414.705	1385.06
414.928	1318.06
415.151	1316.06
415.374	1316.06
415.597	1329.06
415.821	1293.06
416.044	1309.06
416.267	1307.06
416.49	1313.06
416.713	1314.06
416.936	1316.06
417.159	1260.06
417.382	1274.06
417.605	1268.06
417.828	1289.06
418.051	1269.06
418.274	1253.06
418.497	1288.06
418.72	1299.06
418.943	1260.06
419.166	1330.06
419.389	1394.06
419.611	1362.06
419.834	1336.06
420.057	1311.06
420.28	1299.06
420.503	1261.06
420.726	1257.06
420.948	1266.06
421.171	1266.06
421.394	1261.06
421.617	1266.06
421.839	1289.06
422.062	1322.06
422.285	1281.06
422.507	1281.06
422.73	1270.06
422.953	1283.06
423.175	1280.06
423.398	1289.06
423.621	1275.06
423.843	1265.06
424.066	1294.06
424.288	1285.06
424.511	1268.06
424.733	1256.06
424.956	1260.06
425.178	1291.06
425.401	1302.06
425.623	1298.06
425.846	1265.06
426.068	1274.06
426.291	1300.06
426.513	1235.06
426.735	1258.06
426.958	1249.06
427.18	1255.06
427.402	1266.06
427.625	1284.06
427.847	1259.06
428.069	1275.06
428.292	1309.06
428.514	1275.06
428.736	1263.06
428.958	1301.06
429.181	1280.06
429.403	1289.06
429.625	1273.06
429.847	1285.06
430.069	1306.06
430.292	1297.06
430.514	1313.06
430.736	1287.06
430.958	1292.06
431.18	1265.06
431.402	1274.06
431.624	1277.06
431.846	1233.06
432.068	1275.06
432.29	1319.06
432.512	1255.06
432.734	1298.06
432.956	1287.06
433.178	1284.06
433.4	1323.06
433.622	1312.06
433.844	1315.06
434.066	1270.06
434.287	1281.06
434.509	1270.06
434.731	1288.06
434.953	1307.06
435.175	1297.06
435.397	1343.06
435.618	1328.06
435.84	1247.06
436.062	1273.06
436.284	1300.06
436.505	1316.06
436.727	1289.06
436.949	1272.06
437.17	1312.06
437.392	1300.06
437.614	1305.06
437.835	1243.06
438.057	1250.06
438.278	1254.06
438.5	1271.06
438.721	1244.06
438.943	1282.06
439.165	1251.06
439.386	1260.06
439.608	1274.06
439.829	1270.06
440.05	1221.06
440.272	1268.06
440.493	1243.06
440.715	1286.06
440.936	1262.06
441.158	1296.06
441.379	1272.06
441.6	1312.06
441.822	1282.06
442.043	1285.06
442.264	1297.06
442.486	1281.06
442.707	1280.06
442.928	1312.06
443.149	1279.06
443.371	1276.06
443.592	1313.06
443.813	1346.06
444.034	1284.06
444.255	1298.06
444.476	1286.06
444.698	1330.06
444.919	1325.06
445.14	1421.06
445.361	1362.06
445.582	1302.06
445.803	1282.06
446.024	1234.06
446.245	1260.06
446.466	1248.06
446.687	1230.06
446.908	1267.06
447.129	1230.06
447.35	1218.06
447.571	1216.06
447.792	1232.06
448.013	1218.06
448.234	1222.06
448.455	1216.06
448.675	1203.06
448.896	1156.06
449.117	1196.06
449.338	1185.06
449.559	1203.06
449.779	1180.06
450	1178.06
450.221	1175.06
450.442	1180.06
450.662	1167.06
450.883	1176.06
451.104	1234.06
451.324	1160.06
451.545	1171.06
451.766	1159.06
451.986	1154.06
452.207	1163.06
452.428	1180.06
452.648	1158.06
452.869	1148.06
453.089	1134.06
453.31	1174.06
453.53	1161.06
453.751	1139.06
453.971	1134.06
454.192	1165.06
454.412	1153.06
454.633	1149.06
454.853	1141.06
455.073	1146.06
455.294	1129.06
455.514	1148.06
455.734	1162.06
455.955	1178.06
456.175	1154.06
456.395	1120.06
456.616	1141.06
456.836	1117.06
457.056	1150.06
457.276	1133.06
457.497	1174.06
457.717	1164.06
457.937	1148.06
458.157	1155.06
458.377	1148.06
458.598	1151.06
458.818	1134.06
459.038	1155.06
459.258	1180.06
459.478	1216.06
459.698	1263.06
459.918	1241.06
460.138	1221.06
460.358	1232.06
460.578	1248.06
460.798	1257.06
461.018	1245.06
461.238	1250.06
461.458	1256.06
461.678	1250.06
461.898	1262.06
462.118	1243.06
462.338	1285.06
462.558	1293.06
462.777	1282.06
462.997	1312.06
463.217	1333.06
463.437	1380.06
463.657	1309.06
463.876	1303.06
464.096	1297.06
464.316	1266.06
464.536	1291.06
464.755	1275.06
464.975	1251.06
465.195	1272.06
465.414	1243.06
465.634	1221.06
465.854	1234.06
466.073	1249.06
466.293	1233.06
466.512	1251.06
466.732	1190.06
466.951	1250.06
467.171	1219.06
467.391	1235.06
467.61	1195.06
467.829	1220.06
468.049	1241.06
468.268	1212.06
468.488	1207.06
468.707	1245.06
468.927	1202.06
469.146	1213.06
469.365	1245.06
469.585	1246.06
469.804	1226.06
470.023	1252.06
470.243	1219.06
470.462	1236.06
470.681	1243.06
470.901	1253.06
471.12	1249.06
471.339	1242.06
471.558	1256.06
471.777	1252.06
471.997	1257.06
472.216	1233.06
472.435	1216.06
472.654	1206.06
472.873	1215.06
473.092	1258.06
473.311	1258.06
473.53	1283.06
473.749	1256.06
473.968	1285.06
474.187	1250.06
474.406	1258.06
474.625	1276.06
474.844	1268.06
475.063	1301.06
475.282	1308.06
475.501	1320.06
475.72	1300.06
475.939	1302.06
476.158	1327.06
476.377	1333.06
476.596	1325.06
476.814	1333.06
477.033	1335.06
477.252	1360.06
477.471	1367.06
477.69	1385.06
477.908	1381.06
478.127	1397.06
478.346	1377.06
478.564	1445.06
478.783	1436.06
479.002	1456.06
479.22	1485.06
479.439	1461.06
479.658	1446.06
479.876	1452.06
480.095	1464.06
480.313	1507.06
480.532	1482.06
480.751	1468.06
480.969	1446.06
481.188	1464.06
481.406	1447.06
481.624	1493.06
481.843	1469.06
482.061	1467.06
482.28	1494.06
482.498	1514.06
482.717	1468.06
482.935	1512.06
483.153	1514.06
483.372	1556.06
483.59	1540.06
483.808	1534.06
484.027	1531.06
484.245	1545.06
484.463	1535.06
484.681	1558.06
484.9	1542.06
485.118	1573.06
485.336	1513.06
485.554	1574.06
485.772	1565.06
485.99	1563.06
486.209	1577.06
486.427	1578.06
486.645	1565.06
486.863	1556.06
487.081	1574.06
487.299	1551.06
487.517	1586.06
487.735	1580.06
487.953	1623.06
488.171	1633.06
488.389	1600.06
488.607	1550.06
488.825	1564.06
489.043	1551.06
489.261	1579.06
489.479	1561.06
489.696	1597.06
489.914	1560.06
490.132	1558.06
490.35	1560.06
490.568	1602.06
490.786	1597.06
491.003	1612.06
491.221	1584.06
491.439	1587.06
491.657	1600.06
491.874	1632.06
492.092	1651.06
492.31	1639.06
492.527	1644.06
492.745	1633.06
492.963	1625.06
493.18	1569.06
493.398	1652.06
493.615	1578.06
493.833	1594.06
494.05	1654.06
494.268	1596.06
494.485	1608.06
494.703	1622.06
494.92	1634.06
495.138	1627.06
495.355	1627.06
495.573	1601.06
495.79	1624.06
496.008	1640.06
496.225	1608.06
496.442	1641.06
496.66	1671.06
496.877	1649.06
497.094	1636.06
497.312	1666.06
497.529	1659.06
497.746	1649.06
497.963	1692.06
498.181	1676.06
498.398	1706.06
498.615	1729.06
498.832	1703.06
499.049	1729.06
499.267	1755.06
499.484	1830.06
499.701	1798.06
499.918	1867.06
500.135	1878.06
500.352	1908.06
500.569	1862.06
500.786	1864.06
501.003	1860.06
501.22	1882.06
501.437	1844.06
501.654	1796.06
501.871	1800.06
502.088	1771.06
502.305	1743.06
502.522	1736.06
502.739	1731.06
502.956	1632.06
503.172	1636.06
503.389	1649.06
503.606	1624.06
503.823	1609.06
504.04	1619.06
504.256	1580.06
504.473	1586.06
504.69	1561.06
504.907	1533.06
505.123	1525.06
505.34	1550.06
505.557	1501.06
505.773	1522.06
505.99	1455.06
506.207	1480.06
506.423	1469.06
506.64	1441.06
506.856	1428.06
507.073	1466.06
507.289	1440.06
507.506	1422.06
507.722	1403.06
507.939	1392.06
508.155	1417.06
508.372	1426.06
508.588	1388.06
508.805	1401.06
509.021	1362.06
509.238	1367.06
509.454	1342.06
509.67	1337.06
509.887	1347.06
510.103	1341.06
510.319	1313.06
510.536	1325.06
510.752	1331.06
510.968	1342.06
511.184	1315.06
511.401	1322.06
511.617	1326.06
511.833	1321.06
512.049	1338.06
512.265	1313.06
512.481	1317.06
512.698	1299.06
512.914	1273.06
513.13	1305.06
513.346	1312.06
513.562	1318.06
513.778	1303.06
513.994	1314.06
514.21	1285.06
514.426	1303.06
514.642	1301.06
514.858	1322.06
515.074	1317.06
515.29	1289.06
515.506	1308.06
515.721	1342.06
515.937	1295.06
516.153	1284.06
516.369	1324.06
516.585	1331.06
516.801	1342.06
517.016	1321.06
517.232	1316.06
517.448	1313.06
517.664	1324.06
517.879	1323.06
518.095	1334.06
518.311	1286.06
518.527	1286.06
518.742	1293.06
518.958	1285.06
519.173	1285.06
519.389	1306.06
519.605	1289.06
519.82	1273.06
520.036	1252.06
520.251	1286.06
520.467	1274.06
520.682	1235.06
520.898	1250.06
521.113	1286.06
521.329	1231.06
521.544	1208.06
521.76	1222.06
521.975	1234.06
522.19	1206.06
522.406	1221.06
522.621	1235.06
522.836	1209.06
523.052	1210.06
523.267	1227.06
523.482	1222.06
523.698	1169.06
523.913	1173.06
524.128	1217.06
524.343	1189.06
524.559	1204.06
524.774	1204.06
524.989	1218.06
525.204	1193.06
525.419	1175.06
525.634	1206.06
525.849	1170.06
526.064	1200.06
526.28	1195.06
526.495	1167.06
526.71	1160.06
526.925	1148.06
527.14	1141.06
527.355	1120.06
527.57	1186.06
527.785	1154.06
527.999	1153.06
528.214	1153.06
528.429	1154.06
528.644	1147.06
528.859	1171.06
529.074	1178.06
529.289	1160.06
529.503	1153.06
529.718	1171.06
529.933	1154.06
530.148	1152.06
530.363	1128.06
530.577	1125.06
530.792	1106.06
531.007	1121.06
531.221	1117.06
531.436	1115.06
531.651	1100.06
531.865	1135.06
532.08	1127.06
532.295	1108.06
532.509	1092.06
532.724	1092.06
532.938	1112.06
533.153	1124.06
533.367	1111.06
533.582	1124.06
533.796	1113.06
534.011	1120.06
534.225	1092.06
534.44	1105.06
534.654	1072.06
534.868	1076.06
535.083	1095.06
535.297	1072.06
535.511	1094.06
535.726	1060.06
535.94	1048.06
536.154	1072.06
536.369	1049.06
536.583	1050.06
536.797	1038.06
537.011	1047.06
537.225	1034.06
537.44	1047.06
537.654	1040.06
537.868	1045.06
538.082	1022.06
538.296	1052.06
538.51	1034.06
538.724	1058.06
538.938	1011.06
539.153	1032.06
539.367	1028.06
539.581	1045.06
539.795	1026.06
540.009	1016.06
540.222	1000.06
540.436	1036.06
540.65	1033.06
540.864	1030.06
541.078	1013.06
541.292	1037.06
541.506	1042.06
541.72	1028.06
541.934	1024.06
542.147	1069.06
542.361	995.06
542.575	1030.06
542.789	1034.06
543.002	1025.06
543.216	996.06
543.43	1001.06
543.644	997.06
543.857	994.06
544.071	984.06
544.285	1012.06
544.498	997.06
544.712	992.06
544.925	1013.06
545.139	1020.06
545.352	1006.06
545.566	1004.06
545.779	1031.06
545.993	1011.06
546.206	1005.06
546.42	1017.06
546.633	1029.06
546.847	1035.06
547.06	1000.06
547.274	998.06
547.487	996.06
547.7	986.06
547.914	1007.06
548.127	967.06
548.34	989.06
548.554	972.06
548.767	989.06
548.98	990.06
549.193	994.06
549.407	980.06
549.62	986.06
549.833	973.06
550.046	972.06
550.259	964.06
550.473	945.06
550.686	949.06
550.899	973.06
551.112	957.06
551.325	934.06
551.538	963.06
551.751	941.06
551.964	945.06
552.177	905.06
552.39	936.06
552.603	945.06
552.816	940.06
553.029	940.06
553.242	948.06
553.455	921.06
553.667	936.06
553.88	960.06
554.093	924.06
554.306	918.06
554.519	922.06
554.732	898.06
554.944	903.06
555.157	905.06
555.37	894.06
555.583	892.06
555.795	890.06
556.008	911.06
556.221	888.06
556.433	893.06
556.646	897.06
556.859	882.06
557.071	842.06
557.284	842.06
557.496	841.06
557.709	844.06
557.921	820.06
558.134	873.06
558.346	848.06
558.559	861.06
558.771	852.06
558.984	839.06
559.196	842.06
559.409	826.06
559.621	842.06
559.833	809.06
560.046	818.06
560.258	833.06
560.47	812.06
560.683	837.06
560.895	840.06
561.107	830.06
561.32	816.06
561.532	834.06
561.744	816.06
561.956	805.06
562.168	797.06
562.381	787.06
562.593	802.06
562.805	839.06
563.017	842.06
563.229	793.06
563.441	812.06
563.653	811.06
563.865	803.06
564.077	830.06
564.289	797.06
564.501	809.06
564.713	810.06
564.925	794.06
565.137	796.06
565.349	818.06
565.561	784.06
565.773	809.06
565.985	827.06
566.197	834.06
566.408	825.06
566.62	829.06
566.832	821.06
567.044	826.06
567.255	850.06
567.467	848.06
567.679	809.06
567.891	827.06
568.102	839.06
568.314	798.06
568.526	796.06
568.737	790.06
568.949	772.06
569.161	736.06
569.372	754.06
569.584	751.06
569.795	741.06
570.007	740.06
570.218	737.06
570.43	736.06
570.641	732.06
570.853	695.06
571.064	724.06
571.276	700.06
571.487	694.06
571.698	689.06
571.91	700.06
572.121	678.06
572.333	685.06
572.544	686.06
572.755	677.06
572.966	695.06
573.178	682.06
573.389	668.06
573.6	650.06
573.811	666.06
574.023	661.06
574.234	654.06
574.445	643.06
574.656	613.06
574.867	657.06
575.078	619.06
575.289	638.06
575.501	644.06
575.712	602.06
575.923	631.06
576.134	620.06
576.345	629.06
576.556	642.06
576.767	608.06
576.978	594.06
577.188	606.06
577.399	602.06
577.61	590.06
577.821	618.06
578.032	587.06
578.243	592.06
578.454	599.06
578.665	589.06
578.875	586.06
579.086	581.06
579.297	594.06
579.508	581.06
579.718	571.06
579.929	575.06
580.14	565.06
580.35	555.06
580.561	574.06
580.772	568.06
580.982	567.06
581.193	565.06
581.403	547.06
581.614	596.06
581.825	586.06
582.035	562.06
582.246	526.06
582.456	544.06
582.667	544.06
582.877	543.06
583.087	529.06
583.298	537.06
583.508	581.06
583.719	572.06
583.929	534.06
584.139	518.06
584.35	522.06
584.56	531.06
584.77	528.06
584.981	525.06
585.191	519.06
585.401	542.06
585.611	513.06
585.821	508.06
586.032	540.06
586.242	533.06
586.452	528.06
586.662	518.06
586.872	514.06
587.082	545.06
587.292	532.06
587.502	504.06
587.713	501.06
587.923	496.06
588.133	523.06
588.343	520.06
588.553	524.06
588.762	503.06
588.972	518.06
589.182	580.06
589.392	521.06
589.602	540.06
589.812	514.06
590.022	513.06
590.232	519.06
590.441	514.06
590.651	486.06
590.861	512.06
591.071	510.06
591.281	506.06
591.49	517.06
591.7	515.06
591.91	508.06
592.119	485.06
592.329	519.06
592.539	515.06
592.748	508.06
592.958	490.06
593.167	494.06
593.377	497.06
593.587	502.06
593.796	493.06
594.006	482.06
594.215	476.06
594.424	484.06
594.634	480.06
594.843	491.06
595.053	476.06
595.262	468.06
595.472	468.06
595.681	461.06
595.89	481.06
596.1	454.06
596.309	463.06
596.518	460.06
596.727	448.06
596.937	458.06
597.146	451.06
597.355	466.06
597.564	455.06
597.774	454.06
597.983	437.06
598.192	457.06
598.401	448.06
598.61	443.06
598.819	453.06
599.028	434.06
599.237	430.06
599.446	412.06
599.655	427.06
599.864	448.06
600.073	429.06
600.282	424.06
600.491	438.06
600.7	441.06
600.909	414.06
601.118	420.06
601.327	430.06
601.536	424.06
601.745	418.06
601.953	410.06
602.162	408.06
602.371	422.06
602.58	417.06
602.789	398.06
602.997	406.06
603.206	384.06
603.415	428.06
603.623	419.06
603.832	393.06
604.041	406.06
604.249	392.06
604.458	404.06
604.666	378.06
604.875	401.06
605.084	395.06
605.292	399.06
605.501	401.06
605.709	401.06
605.918	409.06
606.126	393.06
606.334	388.06
606.543	395.06
606.751	389.06
606.96	386.06
607.168	384.06
607.376	376.06
607.585	403.06
607.793	407.06
608.001	384.06
608.21	400.06
608.418	387.06
608.626	394.06
608.834	379.06
609.043	386.06
609.251	412.06
609.459	397.06
609.667	367.06
609.875	408.06
610.083	373.06
610.291	377.06
610.499	377.06
610.707	394.06
610.916	367.06
611.124	390.06
611.332	365.06
611.54	368.06
611.748	392.06
611.955	370.06
612.163	385.06
612.371	382.06
612.579	373.06
612.787	383.06
612.995	358.06
613.203	380.06
613.411	349.06
613.618	374.06
613.826	369.06
614.034	387.06
614.242	359.06
614.449	355.06
614.657	378.06
614.865	358.06
615.072	366.06
615.28	362.06
615.488	362.06
615.695	371.06
615.903	369.06
616.111	381.06
616.318	379.06
616.526	373.06
616.733	363.06
616.941	346.06
617.148	362.06
617.356	361.06
617.563	344.06
617.771	360.06
617.978	335.06
618.185	332.06
618.393	338.06
618.6	355.06
618.807	350.06
619.015	340.06
619.222	342.06
619.429	335.06
619.637	347.06
619.844	327.06
620.051	357.06
620.258	333.06
620.466	326.06
620.673	329.06
620.88	334.06
621.087	332.06
621.294	327.06
621.501	330.06
621.708	340.06
621.915	341.06
622.122	338.06
622.329	334.06
622.536	326.06
622.743	326.06
622.95	357.06
623.157	333.06
623.364	332.06
623.571	323.06
623.778	327.06
623.985	326.06
624.192	310.06
624.399	339.06
624.606	300.06
624.812	322.06
625.019	312.06
625.226	306.06
625.433	313.06
625.639	316.06
625.846	321.06
626.053	312.06
626.259	316.06
626.466	305.06
626.673	306.06
626.879	299.06
627.086	302.06
627.293	293.06
627.499	304.06
627.706	314.06
627.912	313.06
628.119	305.06
628.325	301.06
628.532	303.06
628.738	311.06
628.945	311.06
629.151	307.06
629.357	318.06
629.564	308.06
629.77	305.06
629.976	287.06
630.183	301.06
630.389	292.06
630.595	285.06
630.802	300.06
631.008	297.06
631.214	303.06
631.42	284.06
631.627	289.06
631.833	300.06
632.039	277.06
632.245	280.06
632.451	296.06
632.657	287.06
632.863	270.06
633.069	289.06
633.275	281.06
633.481	295.06
633.688	289.06
633.893	275.06
634.099	289.06
634.305	276.06
634.511	263.06
634.717	276.06
634.923	266.06
635.129	276.06
635.335	270.06
635.541	265.06
635.747	282.06
635.952	278.06
636.158	281.06
636.364	263.06
636.57	246.06
636.775	269.06
636.981	272.06
637.187	269.06
637.392	265.06
637.598	268.06
637.804	274.06
638.009	277.06
638.215	265.06
638.421	259.06
638.626	268.06
638.832	248.06
639.037	240.06
639.243	261.06
639.448	262.06
639.654	277.06
639.859	270.06
640.065	247.06
640.27	275.06
640.475	272.06
640.681	275.06
640.886	273.06
641.091	272.06
641.297	272.06
641.502	258.06
641.707	260.06
641.913	268.06
642.118	248.06
642.323	264.06
642.528	261.06
642.733	242.06
642.939	266.06
643.144	268.06
643.349	255.06
643.554	246.06
643.759	256.06
643.964	264.06
644.169	250.06
644.374	247.06
644.579	244.06
644.784	260.06
644.989	264.06
645.194	268.06
645.399	256.06
645.604	254.06
645.809	240.06
646.014	241.06
646.219	242.06
646.423	265.06
646.628	251.06
646.833	249.06
647.038	273.06
647.243	268.06
647.447	251.06
647.652	278.06
647.857	251.06
648.062	249.06
648.266	261.06
648.471	252.06
648.676	274.06
648.88	276.06
649.085	271.06
649.289	263.06
649.494	253.06
649.698	252.06
649.903	266.06
650.107	270.06
650.312	267.06
650.516	265.06
650.721	269.06
650.925	261.06
651.13	261.06
651.334	256.06
651.539	265.06
651.743	251.06
651.947	267.06
652.152	248.06
652.356	272.06
652.56	255.06
652.764	241.06
652.969	251.06
653.173	228.06
653.377	226.06
653.581	227.06
653.785	241.06
653.99	233.06
654.194	236.06
654.398	240.06
654.602	246.06
654.806	249.06
655.01	249.06
655.214	236.06
655.418	246.06
655.622	248.06
655.826	248.06
656.03	253.06
656.234	257.06
656.438	247.06
656.642	243.06
656.846	253.06
657.049	237.06
657.253	215.06
657.457	226.06
657.661	201.06
657.865	188.06
658.068	194.06
658.272	196.06
658.476	164.06
658.68	170.06
658.883	155.06
659.087	146.06
659.291	150.06
659.494	161.06
659.698	153.06
659.901	148.06
660.105	118.06
660.309	124.06
660.512	128.06
660.716	118.06
660.919	105.06
661.123	130.06
661.326	122.06
661.53	112.06
661.733	108.06
661.936	104.06
662.14	92.06
662.343	105.06
662.546	93.06
662.75	95.06
662.953	89.06
663.156	102.06
663.36	78.06
663.563	84.06
663.766	98.06
663.969	85.06
664.173	92.06
664.376	82.06
664.579	86.06
664.782	101.06
664.985	88.06
665.188	77.06
665.391	75.06
665.594	87.06
665.797	94.06
666	99.06
666.203	64.06
666.406	71.06
666.609	75.06
666.812	69.06
667.015	81.06
667.218	86.06
667.421	87.06
667.624	74.06
667.827	86.06
668.03	63.06
668.232	89.06
668.435	89.06
668.638	71.06
668.841	75.06
669.043	72.06
669.246	78.06
669.449	72.06
669.651	64.06
669.854	85.06
670.057	81.06
670.259	66.06
670.462	90.06
670.665	83.06
670.867	72.06
671.07	72.06
671.272	92.06
671.475	98.06
671.677	74.06
671.88	89.06
672.082	84.06
672.284	80.06
672.487	82.06
672.689	75.06
672.892	77.06
