Data from Ni(NO3)2@0.0625M.TitratingCurve.Agarose3%dH2O.NegLispCup.LampEnergy10.LIBS07252019_HRD10591_18-13-49-569.txt Node
Date: Thu Jul 25 18:13:49 EDT 2019
User: cochatt
Spectrometer: HR+D1059
Trigger mode: 1
Integration Time (sec): 1.000000E-1
Scans to average: 1
Electric dark correction enabled: true
Nonlinearity correction enabled: false
Boxcar width: 0
XAxis mode: Wavelengths
Number of Pixels in Spectrum: 2048
>>>>>Begin Spectral Data<<<<<
223.165	-19.12
223.4	-19.12
223.635	-19.12
223.869	-23.12
224.104	-13.12
224.338	-7.12
224.573	-7.12
224.808	-22.12
225.042	-4.12
225.277	-9.12
225.511	0.88
225.746	3.88
225.98	-4.12
226.215	4.88
226.449	18.88
226.683	20.88
226.918	20.88
227.152	38.88
227.387	37.88
227.621	50.88
227.856	44.88
228.09	44.88
228.324	38.88
228.559	60.88
228.793	66.88
229.027	94.88
229.262	105.88
229.496	83.88
229.73	103.88
229.964	107.88
230.199	107.88
230.433	122.88
230.667	119.88
230.901	136.88
231.136	134.88
231.37	127.88
231.604	125.88
231.838	122.88
232.072	131.88
232.306	132.88
232.541	132.88
232.775	131.88
233.009	125.88
233.243	127.88
233.477	130.88
233.711	132.88
233.945	127.88
234.179	126.88
234.413	134.88
234.647	136.88
234.881	143.88
235.115	143.88
235.349	142.88
235.583	125.88
235.817	138.88
236.051	136.88
236.285	140.88
236.519	141.88
236.753	139.88
236.987	129.88
237.221	150.88
237.455	156.88
237.689	138.88
237.922	143.88
238.156	156.88
238.39	136.88
238.624	150.88
238.858	168.88
239.091	141.88
239.325	156.88
239.559	157.88
239.793	162.88
240.027	164.88
240.26	158.88
240.494	148.88
240.728	149.88
240.961	154.88
241.195	154.88
241.429	156.88
241.662	167.88
241.896	164.88
242.13	150.88
242.363	183.88
242.597	171.88
242.83	171.88
243.064	153.88
243.298	183.88
243.531	157.88
243.765	182.88
243.998	164.88
244.232	167.88
244.465	174.88
244.699	173.88
244.932	159.88
245.166	191.88
245.399	182.88
245.633	187.88
245.866	192.88
246.099	185.88
246.333	184.88
246.566	191.88
246.8	187.88
247.033	174.88
247.266	188.88
247.5	204.88
247.733	203.88
247.966	191.88
248.2	212.88
248.433	195.88
248.666	181.88
248.899	207.88
249.133	210.88
249.366	204.88
249.599	205.88
249.832	207.88
250.066	201.88
250.299	196.88
250.532	202.88
250.765	199.88
250.998	198.88
251.231	207.88
251.465	226.88
251.698	216.88
251.931	206.88
252.164	222.88
252.397	204.88
252.63	224.88
252.863	237.88
253.096	228.88
253.329	224.88
253.562	229.88
253.795	229.88
254.028	229.88
254.261	219.88
254.494	229.88
254.727	236.88
254.96	238.88
255.193	230.88
255.426	236.88
255.659	222.88
255.892	229.88
256.124	231.88
256.357	237.88
256.59	246.88
256.823	232.88
257.056	254.88
257.289	245.88
257.521	249.88
257.754	257.88
257.987	244.88
258.22	249.88
258.452	256.88
258.685	269.88
258.918	242.88
259.151	256.88
259.383	262.88
259.616	252.88
259.849	254.88
260.081	236.88
260.314	264.88
260.547	262.88
260.779	264.88
261.012	261.88
261.244	262.88
261.477	256.88
261.71	263.88
261.942	266.88
262.175	248.88
262.407	262.88
262.64	264.88
262.872	272.88
263.105	261.88
263.337	258.88
263.57	272.88
263.802	282.88
264.035	267.88
264.267	279.88
264.499	282.88
264.732	273.88
264.964	299.88
265.197	297.88
265.429	296.88
265.661	281.88
265.894	290.88
266.126	297.88
266.358	288.88
266.591	273.88
266.823	304.88
267.055	285.88
267.287	279.88
267.52	283.88
267.752	287.88
267.984	311.88
268.216	293.88
268.448	304.88
268.681	289.88
268.913	306.88
269.145	292.88
269.377	325.88
269.609	306.88
269.841	287.88
270.073	285.88
270.306	298.88
270.538	311.88
270.77	316.88
271.002	295.88
271.234	302.88
271.466	326.88
271.698	303.88
271.93	305.88
272.162	306.88
272.394	308.88
272.626	316.88
272.858	319.88
273.09	328.88
273.322	312.88
273.553	333.88
273.785	328.88
274.017	323.88
274.249	331.88
274.481	325.88
274.713	319.88
274.945	332.88
275.176	340.88
275.408	335.88
275.64	334.88
275.872	319.88
276.104	325.88
276.335	340.88
276.567	327.88
276.799	342.88
277.031	348.88
277.262	303.88
277.494	319.88
277.726	336.88
277.957	328.88
278.189	327.88
278.421	336.88
278.652	325.88
278.884	344.88
279.115	356.88
279.347	343.88
279.579	349.88
279.81	339.88
280.042	337.88
280.273	342.88
280.505	334.88
280.736	346.88
280.968	356.88
281.199	366.88
281.431	363.88
281.662	335.88
281.894	358.88
282.125	366.88
282.356	365.88
282.588	367.88
282.819	359.88
283.051	380.88
283.282	367.88
283.513	386.88
283.745	357.88
283.976	355.88
284.207	381.88
284.439	384.88
284.67	374.88
284.901	394.88
285.132	376.88
285.364	384.88
285.595	395.88
285.826	400.88
286.057	418.88
286.288	392.88
286.52	396.88
286.751	404.88
286.982	390.88
287.213	394.88
287.444	412.88
287.675	400.88
287.906	404.88
288.138	397.88
288.369	362.88
288.6	402.88
288.831	394.88
289.062	405.88
289.293	412.88
289.524	416.88
289.755	424.88
289.986	400.88
290.217	412.88
290.448	415.88
290.679	400.88
290.91	405.88
291.141	401.88
291.371	409.88
291.602	427.88
291.833	405.88
292.064	417.88
292.295	414.88
292.526	412.88
292.757	422.88
292.987	412.88
293.218	406.88
293.449	411.88
293.68	425.88
293.91	410.88
294.141	420.88
294.372	394.88
294.603	422.88
294.833	418.88
295.064	409.88
295.295	430.88
295.525	423.88
295.756	437.88
295.987	407.88
296.217	428.88
296.448	428.88
296.679	419.88
296.909	428.88
297.14	451.88
297.37	437.88
297.601	463.88
297.831	438.88
298.062	454.88
298.292	451.88
298.523	467.88
298.753	456.88
298.984	463.88
299.214	437.88
299.445	467.88
299.675	451.88
299.905	440.88
300.136	451.88
300.366	454.88
300.597	459.88
300.827	487.88
301.057	474.88
301.288	476.88
301.518	485.88
301.748	476.88
301.979	498.88
302.209	482.88
302.439	469.88
302.669	450.88
302.9	489.88
303.13	452.88
303.36	468.88
303.59	448.88
303.82	454.88
304.051	471.88
304.281	467.88
304.511	472.88
304.741	472.88
304.971	431.88
305.201	442.88
305.431	438.88
305.661	444.88
305.891	444.88
306.121	450.88
306.352	460.88
306.582	449.88
306.812	450.88
307.042	447.88
307.272	444.88
307.502	456.88
307.731	453.88
307.961	444.88
308.191	455.88
308.421	454.88
308.651	430.88
308.881	448.88
309.111	448.88
309.341	456.88
309.571	459.88
309.8	428.88
310.03	466.88
310.26	451.88
310.49	448.88
310.72	459.88
310.949	440.88
311.179	477.88
311.409	456.88
311.639	450.88
311.868	469.88
312.098	466.88
312.328	479.88
312.557	468.88
312.787	499.88
313.017	468.88
313.246	487.88
313.476	483.88
313.706	491.88
313.935	495.88
314.165	474.88
314.394	474.88
314.624	477.88
314.853	481.88
315.083	462.88
315.312	487.88
315.542	488.88
315.771	488.88
316.001	480.88
316.23	469.88
316.46	477.88
316.689	468.88
316.919	470.88
317.148	470.88
317.377	459.88
317.607	474.88
317.836	481.88
318.065	465.88
318.295	469.88
318.524	465.88
318.753	462.88
318.983	436.88
319.212	458.88
319.441	463.88
319.67	476.88
319.9	474.88
320.129	490.88
320.358	463.88
320.587	487.88
320.816	465.88
321.046	477.88
321.275	474.88
321.504	477.88
321.733	469.88
321.962	480.88
322.191	463.88
322.42	490.88
322.649	476.88
322.878	474.88
323.108	500.88
323.337	478.88
323.566	457.88
323.795	477.88
324.024	488.88
324.253	491.88
324.482	506.88
324.71	470.88
324.939	492.88
325.168	502.88
325.397	514.88
325.626	492.88
325.855	488.88
326.084	514.88
326.313	547.88
326.542	526.88
326.77	525.88
326.999	541.88
327.228	508.88
327.457	500.88
327.686	515.88
327.914	532.88
328.143	516.88
328.372	527.88
328.6	517.88
328.829	528.88
329.058	513.88
329.287	512.88
329.515	532.88
329.744	530.88
329.972	540.88
330.201	534.88
330.43	539.88
330.658	536.88
330.887	532.88
331.115	540.88
331.344	556.88
331.572	557.88
331.801	548.88
332.03	560.88
332.258	596.88
332.486	605.88
332.715	626.88
332.943	627.88
333.172	678.88
333.4	724.88
333.629	716.88
333.857	728.88
334.085	706.88
334.314	710.88
334.542	656.88
334.771	663.88
334.999	644.88
335.227	629.88
335.455	639.88
335.684	640.88
335.912	625.88
336.14	613.88
336.369	634.88
336.597	650.88
336.825	638.88
337.053	628.88
337.281	608.88
337.51	614.88
337.738	570.88
337.966	595.88
338.194	565.88
338.422	569.88
338.65	568.88
338.878	569.88
339.106	548.88
339.334	573.88
339.562	554.88
339.79	548.88
340.018	541.88
340.246	528.88
340.474	538.88
340.702	552.88
340.93	548.88
341.158	564.88
341.386	538.88
341.614	578.88
341.842	527.88
342.07	526.88
342.298	534.88
342.526	549.88
342.754	524.88
342.981	540.88
343.209	551.88
343.437	582.88
343.665	605.88
343.893	683.88
344.12	681.88
344.348	640.88
344.576	620.88
344.804	584.88
345.031	572.88
345.259	541.88
345.487	568.88
345.714	561.88
345.942	534.88
346.17	538.88
346.397	550.88
346.625	543.88
346.853	543.88
347.08	539.88
347.308	538.88
347.535	540.88
347.763	537.88
347.99	560.88
348.218	546.88
348.445	546.88
348.673	535.88
348.9	525.88
349.128	532.88
349.355	500.88
349.583	518.88
349.81	524.88
350.037	518.88
350.265	510.88
350.492	507.88
350.72	519.88
350.947	507.88
351.174	530.88
351.402	540.88
351.629	514.88
351.856	496.88
352.083	508.88
352.311	506.88
352.538	519.88
352.765	518.88
352.992	516.88
353.22	488.88
353.447	510.88
353.674	522.88
353.901	496.88
354.128	508.88
354.355	518.88
354.583	529.88
354.81	528.88
355.037	514.88
355.264	521.88
355.491	492.88
355.718	527.88
355.945	533.88
356.172	515.88
356.399	546.88
356.626	511.88
356.853	526.88
357.08	512.88
357.307	520.88
357.534	486.88
357.761	510.88
357.988	504.88
358.215	499.88
358.441	506.88
358.668	490.88
358.895	506.88
359.122	507.88
359.349	519.88
359.576	512.88
359.802	510.88
360.029	528.88
360.256	511.88
360.483	523.88
360.709	525.88
360.936	515.88
361.163	506.88
361.39	516.88
361.616	497.88
361.843	490.88
362.07	498.88
362.296	490.88
362.523	501.88
362.749	491.88
362.976	502.88
363.203	507.88
363.429	480.88
363.656	486.88
363.882	494.88
364.109	518.88
364.335	512.88
364.562	521.88
364.788	487.88
365.015	509.88
365.241	519.88
365.468	502.88
365.694	502.88
365.92	485.88
366.147	501.88
366.373	492.88
366.599	520.88
366.826	495.88
367.052	506.88
367.278	494.88
367.505	486.88
367.731	513.88
367.957	514.88
368.184	516.88
368.41	519.88
368.636	522.88
368.862	522.88
369.089	510.88
369.315	518.88
369.541	530.88
369.767	526.88
369.993	538.88
370.219	524.88
370.445	541.88
370.672	543.88
370.898	551.88
371.124	545.88
371.35	594.88
371.576	566.88
371.802	548.88
372.028	554.88
372.254	558.88
372.48	568.88
372.706	564.88
372.932	588.88
373.158	571.88
373.384	586.88
373.61	575.88
373.835	579.88
374.061	554.88
374.287	576.88
374.513	571.88
374.739	590.88
374.965	620.88
375.191	628.88
375.416	610.88
375.642	596.88
375.868	595.88
376.094	585.88
376.319	591.88
376.545	566.88
376.771	556.88
376.997	572.88
377.222	558.88
377.448	563.88
377.674	558.88
377.899	547.88
378.125	546.88
378.35	553.88
378.576	533.88
378.802	572.88
379.027	522.88
379.253	545.88
379.478	542.88
379.704	533.88
379.929	532.88
380.155	548.88
380.38	558.88
380.606	544.88
380.831	563.88
381.057	559.88
381.282	554.88
381.507	540.88
381.733	550.88
381.958	539.88
382.184	580.88
382.409	583.88
382.634	575.88
382.86	609.88
383.085	595.88
383.31	603.88
383.535	603.88
383.761	633.88
383.986	630.88
384.211	657.88
384.436	662.88
384.662	656.88
384.887	662.88
385.112	655.88
385.337	667.88
385.562	671.88
385.787	684.88
386.013	685.88
386.238	667.88
386.463	669.88
386.688	668.88
386.913	666.88
387.138	652.88
387.363	659.88
387.588	627.88
387.813	672.88
388.038	654.88
388.263	667.88
388.488	652.88
388.713	679.88
388.938	632.88
389.163	640.88
389.387	667.88
389.612	654.88
389.837	643.88
390.062	653.88
390.287	652.88
390.512	647.88
390.736	668.88
390.961	673.88
391.186	674.88
391.411	701.88
391.636	709.88
391.86	732.88
392.085	772.88
392.31	760.88
392.534	710.88
392.759	726.88
392.984	705.88
393.208	682.88
393.433	713.88
393.658	694.88
393.882	715.88
394.107	708.88
394.331	698.88
394.556	729.88
394.78	703.88
395.005	724.88
395.229	695.88
395.454	745.88
395.678	734.88
395.903	747.88
396.127	727.88
396.352	707.88
396.576	706.88
396.801	693.88
397.025	694.88
397.249	701.88
397.474	745.88
397.698	730.88
397.922	728.88
398.147	731.88
398.371	752.88
398.595	784.88
398.82	791.88
399.044	868.88
399.268	970.88
399.492	1147.88
399.717	1305.88
399.941	1287.88
400.165	1115.88
400.389	1008.88
400.613	956.88
400.837	878.88
401.062	854.88
401.286	834.88
401.51	820.88
401.734	822.88
401.958	818.88
402.182	852.88
402.406	868.88
402.63	836.88
402.854	889.88
403.078	922.88
403.302	938.88
403.526	959.88
403.75	991.88
403.974	1014.88
404.198	1038.88
404.422	1002.88
404.645	970.88
404.869	970.88
405.093	958.88
405.317	960.88
405.541	955.88
405.765	909.88
405.988	882.88
406.212	896.88
406.436	918.88
406.66	931.88
406.883	931.88
407.107	1024.88
407.331	1085.88
407.555	1078.88
407.778	1102.88
408.002	1071.88
408.226	1044.88
408.449	989.88
408.673	987.88
408.896	976.88
409.12	942.88
409.344	939.88
409.567	983.88
409.791	981.88
410.014	973.88
410.238	967.88
410.461	968.88
410.685	937.88
410.908	925.88
411.132	921.88
411.355	874.88
411.578	899.88
411.802	838.88
412.025	877.88
412.249	887.88
412.472	892.88
412.695	863.88
412.919	827.88
413.142	830.88
413.365	821.88
413.589	831.88
413.812	840.88
414.035	856.88
414.258	834.88
414.482	850.88
414.705	859.88
414.928	868.88
415.151	861.88
415.374	849.88
415.597	833.88
415.821	815.88
416.044	834.88
416.267	820.88
416.49	800.88
416.713	838.88
416.936	838.88
417.159	823.88
417.382	808.88
417.605	823.88
417.828	815.88
418.051	846.88
418.274	823.88
418.497	828.88
418.72	871.88
418.943	882.88
419.166	927.88
419.389	966.88
419.611	937.88
419.834	900.88
420.057	895.88
420.28	862.88
420.503	829.88
420.726	826.88
420.948	820.88
421.171	829.88
421.394	840.88
421.617	806.88
421.839	839.88
422.062	840.88
422.285	831.88
422.507	845.88
422.73	851.88
422.953	852.88
423.175	852.88
423.398	893.88
423.621	906.88
423.843	887.88
424.066	943.88
424.288	925.88
424.511	860.88
424.733	842.88
424.956	853.88
425.178	848.88
425.401	862.88
425.623	828.88
425.846	806.88
426.068	800.88
426.291	799.88
426.513	785.88
426.735	791.88
426.958	774.88
427.18	768.88
427.402	748.88
427.625	776.88
427.847	744.88
428.069	763.88
428.292	760.88
428.514	740.88
428.736	748.88
428.958	744.88
429.181	706.88
429.403	719.88
429.625	718.88
429.847	716.88
430.069	759.88
430.292	737.88
430.514	720.88
430.736	733.88
430.958	751.88
431.18	718.88
431.402	740.88
431.624	708.88
431.846	717.88
432.068	746.88
432.29	748.88
432.512	746.88
432.734	740.88
432.956	743.88
433.178	746.88
433.4	718.88
433.622	739.88
433.844	760.88
434.066	790.88
434.287	788.88
434.509	796.88
434.731	822.88
434.953	860.88
435.175	872.88
435.397	861.88
435.618	782.88
435.84	763.88
436.062	774.88
436.284	773.88
436.505	752.88
436.727	728.88
436.949	747.88
437.17	739.88
437.392	732.88
437.614	739.88
437.835	711.88
438.057	720.88
438.278	701.88
438.5	719.88
438.721	722.88
438.943	726.88
439.165	704.88
439.386	726.88
439.608	735.88
439.829	735.88
440.05	739.88
440.272	757.88
440.493	743.88
440.715	772.88
440.936	769.88
441.158	785.88
441.379	799.88
441.6	848.88
441.822	844.88
442.043	863.88
442.264	841.88
442.486	825.88
442.707	816.88
442.928	814.88
443.149	844.88
443.371	869.88
443.592	837.88
443.813	848.88
444.034	875.88
444.255	924.88
444.476	922.88
444.698	983.88
444.919	1044.88
445.14	1084.88
445.361	956.88
445.582	872.88
445.803	803.88
446.024	814.88
446.245	775.88
446.466	759.88
446.687	767.88
446.908	782.88
447.129	733.88
447.35	710.88
447.571	726.88
447.792	700.88
448.013	720.88
448.234	669.88
448.455	670.88
448.675	690.88
448.896	683.88
449.117	700.88
449.338	682.88
449.559	669.88
449.779	682.88
450	711.88
450.221	696.88
450.442	699.88
450.662	718.88
450.883	738.88
451.104	709.88
451.324	707.88
451.545	707.88
451.766	707.88
451.986	744.88
452.207	689.88
452.428	697.88
452.648	721.88
452.869	685.88
453.089	686.88
453.31	691.88
453.53	688.88
453.751	691.88
453.971	668.88
454.192	664.88
454.412	634.88
454.633	653.88
454.853	677.88
455.073	659.88
455.294	671.88
455.514	628.88
455.734	666.88
455.955	659.88
456.175	639.88
456.395	634.88
456.616	652.88
456.836	647.88
457.056	634.88
457.276	652.88
457.497	654.88
457.717	669.88
457.937	648.88
458.157	657.88
458.377	672.88
458.598	679.88
458.818	687.88
459.038	723.88
459.258	750.88
459.478	776.88
459.698	771.88
459.918	794.88
460.138	845.88
460.358	925.88
460.578	907.88
460.798	894.88
461.018	920.88
461.238	903.88
461.458	879.88
461.678	874.88
461.898	895.88
462.118	893.88
462.338	958.88
462.558	975.88
462.777	966.88
462.997	1095.88
463.217	1218.88
463.437	1250.88
463.657	1130.88
463.876	1079.88
464.096	1062.88
464.316	1053.88
464.536	1078.88
464.755	1028.88
464.975	952.88
465.195	927.88
465.414	890.88
465.634	816.88
465.854	812.88
466.073	786.88
466.293	758.88
466.512	733.88
466.732	716.88
466.951	721.88
467.171	731.88
467.391	736.88
467.61	758.88
467.829	724.88
468.049	734.88
468.268	704.88
468.488	685.88
468.707	682.88
468.927	699.88
469.146	678.88
469.365	673.88
469.585	693.88
469.804	718.88
470.023	749.88
470.243	746.88
470.462	755.88
470.681	751.88
470.901	782.88
471.12	754.88
471.339	733.88
471.558	701.88
471.777	705.88
471.997	692.88
472.216	679.88
472.435	684.88
472.654	674.88
472.873	666.88
473.092	674.88
473.311	675.88
473.53	678.88
473.749	679.88
473.968	683.88
474.187	680.88
474.406	675.88
474.625	660.88
474.844	668.88
475.063	648.88
475.282	679.88
475.501	664.88
475.72	692.88
475.939	712.88
476.158	680.88
476.377	696.88
476.596	707.88
476.814	693.88
477.033	710.88
477.252	714.88
477.471	727.88
477.69	755.88
477.908	797.88
478.127	804.88
478.346	821.88
478.564	816.88
478.783	820.88
479.002	874.88
479.22	843.88
479.439	864.88
479.658	853.88
479.876	832.88
480.095	837.88
480.313	887.88
480.532	932.88
480.751	912.88
480.969	897.88
481.188	817.88
481.406	834.88
481.624	792.88
481.843	772.88
482.061	780.88
482.28	761.88
482.498	760.88
482.717	781.88
482.935	775.88
483.153	781.88
483.372	745.88
483.59	783.88
483.808	768.88
484.027	777.88
484.245	790.88
484.463	776.88
484.681	790.88
484.9	807.88
485.118	807.88
485.336	813.88
485.554	806.88
485.772	832.88
485.99	815.88
486.209	832.88
486.427	831.88
486.645	834.88
486.863	838.88
487.081	823.88
487.299	810.88
487.517	810.88
487.735	805.88
487.953	800.88
488.171	810.88
488.389	800.88
488.607	789.88
488.825	774.88
489.043	819.88
489.261	803.88
489.479	822.88
489.696	841.88
489.914	779.88
490.132	803.88
490.35	824.88
490.568	814.88
490.786	811.88
491.003	794.88
491.221	796.88
491.439	830.88
491.657	800.88
491.874	794.88
492.092	815.88
492.31	822.88
492.527	820.88
492.745	834.88
492.963	844.88
493.18	834.88
493.398	822.88
493.615	834.88
493.833	879.88
494.05	847.88
494.268	847.88
494.485	847.88
494.703	852.88
494.92	871.88
495.138	862.88
495.355	849.88
495.573	877.88
495.79	892.88
496.008	873.88
496.225	884.88
496.442	852.88
496.66	870.88
496.877	877.88
497.094	888.88
497.312	936.88
497.529	906.88
497.746	959.88
497.963	978.88
498.181	1008.88
498.398	1050.88
498.615	1121.88
498.832	1207.88
499.049	1271.88
499.267	1417.88
499.484	1542.88
499.701	1742.88
499.918	1921.88
500.135	2261.88
500.352	2610.88
500.569	2784.88
500.786	2684.88
501.003	2531.88
501.22	2203.88
501.437	1921.88
501.654	1662.88
501.871	1491.88
502.088	1364.88
502.305	1307.88
502.522	1204.88
502.739	1197.88
502.956	1118.88
503.172	1063.88
503.389	1010.88
503.606	999.88
503.823	980.88
504.04	960.88
504.256	992.88
504.473	1037.88
504.69	1062.88
504.907	1036.88
505.123	938.88
505.34	888.88
505.557	842.88
505.773	813.88
505.99	824.88
506.207	790.88
506.423	761.88
506.64	784.88
506.856	779.88
507.073	759.88
507.289	765.88
507.506	735.88
507.722	742.88
507.939	747.88
508.155	746.88
508.372	728.88
508.588	731.88
508.805	697.88
509.021	686.88
509.238	706.88
509.454	703.88
509.67	703.88
509.887	729.88
510.103	692.88
510.319	702.88
510.536	719.88
510.752	684.88
510.968	689.88
511.184	686.88
511.401	728.88
511.617	702.88
511.833	701.88
512.049	708.88
512.265	712.88
512.481	712.88
512.698	686.88
512.914	687.88
513.13	681.88
513.346	706.88
513.562	669.88
513.778	708.88
513.994	706.88
514.21	731.88
514.426	721.88
514.642	688.88
514.858	708.88
515.074	723.88
515.29	748.88
515.506	719.88
515.721	729.88
515.937	770.88
516.153	758.88
516.369	792.88
516.585	797.88
516.801	854.88
517.016	854.88
517.232	935.88
517.448	988.88
517.664	1022.88
517.879	1007.88
518.095	988.88
518.311	965.88
518.527	915.88
518.742	873.88
518.958	843.88
519.173	814.88
519.389	795.88
519.605	757.88
519.82	761.88
520.036	742.88
520.251	717.88
520.467	702.88
520.682	698.88
520.898	707.88
521.113	697.88
521.329	678.88
521.544	687.88
521.76	705.88
521.975	663.88
522.19	680.88
522.406	669.88
522.621	672.88
522.836	644.88
523.052	666.88
523.267	633.88
523.482	658.88
523.698	640.88
523.913	656.88
524.128	651.88
524.343	668.88
524.559	671.88
524.774	631.88
524.989	655.88
525.204	655.88
525.419	651.88
525.634	631.88
525.849	641.88
526.064	654.88
526.28	628.88
526.495	620.88
526.71	652.88
526.925	636.88
527.14	624.88
527.355	636.88
527.57	611.88
527.785	630.88
527.999	636.88
528.214	639.88
528.429	606.88
528.644	651.88
528.859	635.88
529.074	638.88
529.289	632.88
529.503	633.88
529.718	652.88
529.933	657.88
530.148	634.88
530.363	628.88
530.577	638.88
530.792	623.88
531.007	616.88
531.221	646.88
531.436	639.88
531.651	650.88
531.865	645.88
532.08	653.88
532.295	636.88
532.509	653.88
532.724	650.88
532.938	666.88
533.153	659.88
533.367	636.88
533.582	641.88
533.796	628.88
534.011	650.88
534.225	648.88
534.44	634.88
534.654	623.88
534.868	626.88
535.083	616.88
535.297	632.88
535.511	622.88
535.726	605.88
535.94	626.88
536.154	631.88
536.369	571.88
536.583	614.88
536.797	592.88
537.011	608.88
537.225	580.88
537.44	590.88
537.654	602.88
537.868	599.88
538.082	592.88
538.296	598.88
538.51	602.88
538.724	590.88
538.938	578.88
539.153	590.88
539.367	591.88
539.581	577.88
539.795	572.88
540.009	574.88
540.222	589.88
540.436	575.88
540.65	572.88
540.864	590.88
541.078	569.88
541.292	557.88
541.506	574.88
541.72	574.88
541.934	581.88
542.147	577.88
542.361	575.88
542.575	562.88
542.789	576.88
543.002	568.88
543.216	552.88
543.43	550.88
543.644	569.88
543.857	551.88
544.071	552.88
544.285	563.88
544.498	559.88
544.712	594.88
544.925	566.88
545.139	539.88
545.352	589.88
545.566	566.88
545.779	601.88
545.993	594.88
546.206	585.88
546.42	592.88
546.633	576.88
546.847	591.88
547.06	583.88
547.274	600.88
547.487	586.88
547.7	570.88
547.914	589.88
548.127	600.88
548.34	583.88
548.554	580.88
548.767	586.88
548.98	604.88
549.193	600.88
549.407	603.88
549.62	570.88
549.833	600.88
550.046	604.88
550.259	583.88
550.473	584.88
550.686	568.88
550.899	562.88
551.112	575.88
551.325	575.88
551.538	562.88
551.751	551.88
551.964	574.88
552.177	589.88
552.39	583.88
552.603	617.88
552.816	636.88
553.029	623.88
553.242	638.88
553.455	653.88
553.667	646.88
553.88	635.88
554.093	626.88
554.306	603.88
554.519	584.88
554.732	589.88
554.944	567.88
555.157	551.88
555.37	555.88
555.583	558.88
555.795	547.88
556.008	514.88
556.221	534.88
556.433	534.88
556.646	533.88
556.859	519.88
557.071	511.88
557.284	526.88
557.496	490.88
557.709	511.88
557.921	503.88
558.134	498.88
558.346	499.88
558.559	496.88
558.771	482.88
558.984	511.88
559.196	499.88
559.409	522.88
559.621	490.88
559.833	491.88
560.046	483.88
560.258	483.88
560.47	484.88
560.683	487.88
560.895	480.88
561.107	485.88
561.32	481.88
561.532	477.88
561.744	469.88
561.956	489.88
562.168	491.88
562.381	495.88
562.593	505.88
562.805	490.88
563.017	498.88
563.229	474.88
563.441	490.88
563.653	491.88
563.865	498.88
564.077	504.88
564.289	510.88
564.501	509.88
564.713	530.88
564.925	537.88
565.137	532.88
565.349	550.88
565.561	542.88
565.773	565.88
565.985	591.88
566.197	625.88
566.408	676.88
566.62	735.88
566.832	791.88
567.044	811.88
567.255	783.88
567.467	791.88
567.679	863.88
567.891	952.88
568.102	970.88
568.314	936.88
568.526	858.88
568.737	739.88
568.949	665.88
569.161	616.88
569.372	576.88
569.584	550.88
569.795	542.88
570.007	527.88
570.218	496.88
570.43	507.88
570.641	490.88
570.853	502.88
571.064	528.88
571.276	507.88
571.487	503.88
571.698	489.88
571.91	470.88
572.121	445.88
572.333	451.88
572.544	463.88
572.755	445.88
572.966	437.88
573.178	427.88
573.389	410.88
573.6	408.88
573.811	424.88
574.023	388.88
574.234	418.88
574.445	408.88
574.656	408.88
574.867	400.88
575.078	404.88
575.289	424.88
575.501	381.88
575.712	384.88
575.923	401.88
576.134	390.88
576.345	404.88
576.556	400.88
576.767	388.88
576.978	381.88
577.188	390.88
577.399	390.88
577.61	395.88
577.821	390.88
578.032	382.88
578.243	372.88
578.454	357.88
578.665	374.88
578.875	353.88
579.086	375.88
579.297	374.88
579.508	368.88
579.718	353.88
579.929	360.88
580.14	356.88
580.35	388.88
580.561	364.88
580.772	375.88
580.982	353.88
581.193	365.88
581.403	348.88
581.614	354.88
581.825	356.88
582.035	354.88
582.246	342.88
582.456	355.88
582.667	365.88
582.877	339.88
583.087	328.88
583.298	359.88
583.508	341.88
583.719	334.88
583.929	339.88
584.139	336.88
584.35	349.88
584.56	338.88
584.77	334.88
584.981	344.88
585.191	375.88
585.401	329.88
585.611	340.88
585.821	344.88
586.032	326.88
586.242	334.88
586.452	326.88
586.662	359.88
586.872	357.88
587.082	331.88
587.292	325.88
587.502	344.88
587.713	346.88
587.923	329.88
588.133	319.88
588.343	341.88
588.553	336.88
588.762	330.88
588.972	330.88
589.182	332.88
589.392	347.88
589.602	342.88
589.812	339.88
590.022	338.88
590.232	327.88
590.441	337.88
590.651	348.88
590.861	325.88
591.071	356.88
591.281	350.88
591.49	348.88
591.7	347.88
591.91	370.88
592.119	345.88
592.329	361.88
592.539	363.88
592.748	385.88
592.958	418.88
593.167	388.88
593.377	420.88
593.587	440.88
593.796	426.88
594.006	430.88
594.215	440.88
594.424	444.88
594.634	436.88
594.843	400.88
595.053	386.88
595.262	379.88
595.472	378.88
595.681	364.88
595.89	339.88
596.1	342.88
596.309	323.88
596.518	331.88
596.727	314.88
596.937	292.88
597.146	323.88
597.355	318.88
597.564	310.88
597.774	312.88
597.983	302.88
598.192	278.88
598.401	292.88
598.61	306.88
598.819	303.88
599.028	298.88
599.237	298.88
599.446	293.88
599.655	300.88
599.864	300.88
600.073	287.88
600.282	291.88
600.491	286.88
600.7	290.88
600.909	313.88
601.118	283.88
601.327	285.88
601.536	278.88
601.745	282.88
601.953	303.88
602.162	282.88
602.371	274.88
602.58	282.88
602.789	275.88
602.997	291.88
603.206	269.88
603.415	270.88
603.623	258.88
603.832	283.88
604.041	280.88
604.249	259.88
604.458	279.88
604.666	267.88
604.875	268.88
605.084	287.88
605.292	271.88
605.501	253.88
605.709	277.88
605.918	274.88
606.126	259.88
606.334	261.88
606.543	266.88
606.751	260.88
606.96	267.88
607.168	262.88
607.376	261.88
607.585	275.88
607.793	266.88
608.001	255.88
608.21	252.88
608.418	253.88
608.626	262.88
608.834	266.88
609.043	269.88
609.251	260.88
609.459	242.88
609.667	269.88
609.875	255.88
610.083	260.88
610.291	267.88
610.499	259.88
610.707	260.88
610.916	272.88
611.124	268.88
611.332	248.88
611.54	262.88
611.748	228.88
611.955	249.88
612.163	252.88
612.371	264.88
612.579	250.88
612.787	253.88
612.995	243.88
613.203	267.88
613.411	260.88
613.618	242.88
613.826	236.88
614.034	253.88
614.242	261.88
614.449	248.88
614.657	246.88
614.865	233.88
615.072	262.88
615.28	262.88
615.488	255.88
615.695	264.88
615.903	247.88
616.111	251.88
616.318	253.88
616.526	259.88
616.733	268.88
616.941	242.88
617.148	258.88
617.356	234.88
617.563	258.88
617.771	258.88
617.978	238.88
618.185	268.88
618.393	253.88
618.6	235.88
618.807	237.88
619.015	247.88
619.222	237.88
619.429	245.88
619.637	264.88
619.844	247.88
620.051	251.88
620.258	233.88
620.466	233.88
620.673	223.88
620.88	228.88
621.087	225.88
621.294	243.88
621.501	236.88
621.708	245.88
621.915	238.88
622.122	218.88
622.329	226.88
622.536	236.88
622.743	223.88
622.95	231.88
623.157	236.88
623.364	226.88
623.571	219.88
623.778	233.88
623.985	213.88
624.192	223.88
624.399	219.88
624.606	227.88
624.812	232.88
625.019	210.88
625.226	206.88
625.433	215.88
625.639	208.88
625.846	216.88
626.053	216.88
626.259	205.88
626.466	209.88
626.673	218.88
626.879	226.88
627.086	223.88
627.293	213.88
627.499	206.88
627.706	188.88
627.912	196.88
628.119	213.88
628.325	202.88
628.532	207.88
628.738	204.88
628.945	199.88
629.151	213.88
629.357	216.88
629.564	190.88
629.77	201.88
629.976	194.88
630.183	210.88
630.389	211.88
630.595	197.88
630.802	221.88
631.008	190.88
631.214	189.88
631.42	198.88
631.627	192.88
631.833	194.88
632.039	200.88
632.245	186.88
632.451	200.88
632.657	185.88
632.863	185.88
633.069	212.88
633.275	200.88
633.481	199.88
633.688	195.88
633.893	181.88
634.099	184.88
634.305	186.88
634.511	200.88
634.717	209.88
634.923	175.88
635.129	180.88
635.335	205.88
635.541	183.88
635.747	184.88
635.952	188.88
636.158	191.88
636.364	200.88
636.57	187.88
636.775	197.88
636.981	180.88
637.187	186.88
637.392	190.88
637.598	171.88
637.804	164.88
638.009	178.88
638.215	174.88
638.421	175.88
638.626	180.88
638.832	184.88
639.037	189.88
639.243	183.88
639.448	176.88
639.654	174.88
639.859	179.88
640.065	180.88
640.27	186.88
640.475	170.88
640.681	186.88
640.886	168.88
641.091	174.88
641.297	176.88
641.502	175.88
641.707	166.88
641.913	165.88
642.118	170.88
642.323	167.88
642.528	162.88
642.733	175.88
642.939	174.88
643.144	179.88
643.349	166.88
643.554	153.88
643.759	165.88
643.964	154.88
644.169	171.88
644.374	166.88
644.579	165.88
644.784	163.88
644.989	169.88
645.194	174.88
645.399	188.88
645.604	172.88
645.809	175.88
646.014	180.88
646.219	172.88
646.423	175.88
646.628	179.88
646.833	182.88
647.038	167.88
647.243	180.88
647.447	175.88
647.652	182.88
647.857	166.88
648.062	165.88
648.266	172.88
648.471	181.88
648.676	192.88
648.88	160.88
649.085	172.88
649.289	174.88
649.494	158.88
649.698	165.88
649.903	147.88
650.107	160.88
650.312	166.88
650.516	153.88
650.721	158.88
650.925	176.88
651.13	153.88
651.334	150.88
651.539	150.88
651.743	145.88
651.947	145.88
652.152	142.88
652.356	151.88
652.56	149.88
652.764	150.88
652.969	134.88
653.173	148.88
653.377	159.88
653.581	131.88
653.785	146.88
653.99	144.88
654.194	122.88
654.398	139.88
654.602	140.88
654.806	144.88
655.01	134.88
655.214	130.88
655.418	140.88
655.622	128.88
655.826	136.88
656.03	131.88
656.234	132.88
656.438	126.88
656.642	118.88
656.846	119.88
657.049	128.88
657.253	143.88
657.457	103.88
657.661	110.88
657.865	118.88
658.068	115.88
658.272	111.88
658.476	102.88
658.68	90.88
658.883	93.88
659.087	91.88
659.291	99.88
659.494	100.88
659.698	102.88
659.901	102.88
660.105	82.88
660.309	103.88
660.512	90.88
660.716	108.88
660.919	79.88
661.123	99.88
661.326	100.88
661.53	99.88
661.733	88.88
661.936	90.88
662.14	83.88
662.343	84.88
662.546	96.88
662.75	72.88
662.953	90.88
663.156	111.88
663.36	89.88
663.563	83.88
663.766	88.88
663.969	71.88
664.173	78.88
664.376	99.88
664.579	85.88
664.782	98.88
664.985	83.88
665.188	80.88
665.391	80.88
665.594	83.88
665.797	84.88
666	86.88
666.203	77.88
666.406	83.88
666.609	72.88
666.812	82.88
667.015	74.88
667.218	84.88
667.421	70.88
667.624	82.88
667.827	87.88
668.03	88.88
668.232	78.88
668.435	72.88
668.638	85.88
668.841	88.88
669.043	88.88
669.246	87.88
669.449	84.88
669.651	78.88
669.854	86.88
670.057	79.88
670.259	82.88
670.462	79.88
670.665	74.88
670.867	83.88
671.07	90.88
671.272	87.88
671.475	84.88
671.677	96.88
671.88	94.88
672.082	84.88
672.284	75.88
672.487	81.88
672.689	99.88
672.892	95.88
