Data from Ni(NO3)2@0.5M.TitratingCurve.Agarose3%dH2O.NegLispCup.LampEnergy10.LIBS07252019_HRD10591_17-58-18-564.txt Node
Date: Thu Jul 25 17:58:18 EDT 2019
User: cochatt
Spectrometer: HR+D1059
Trigger mode: 1
Integration Time (sec): 1.000000E-1
Scans to average: 1
Electric dark correction enabled: true
Nonlinearity correction enabled: false
Boxcar width: 0
XAxis mode: Wavelengths
Number of Pixels in Spectrum: 2048
>>>>>Begin Spectral Data<<<<<
223.165	-19.31
223.4	-19.31
223.635	-19.31
223.869	-9.31
224.104	-20.31
224.338	-13.31
224.573	-29.31
224.808	-13.31
225.042	-10.31
225.277	-13.31
225.511	4.69
225.746	20.69
225.98	10.69
226.215	19.69
226.449	10.69
226.683	16.69
226.918	10.69
227.152	34.69
227.387	33.69
227.621	43.69
227.856	38.69
228.09	39.69
228.324	42.69
228.559	54.69
228.793	82.69
229.027	139.69
229.262	150.69
229.496	140.69
229.73	161.69
229.964	180.69
230.199	208.69
230.433	208.69
230.667	189.69
230.901	197.69
231.136	166.69
231.37	170.69
231.604	174.69
231.838	219.69
232.072	214.69
232.306	202.69
232.541	208.69
232.775	178.69
233.009	175.69
233.243	183.69
233.477	159.69
233.711	169.69
233.945	178.69
234.179	201.69
234.413	187.69
234.647	195.69
234.881	203.69
235.115	198.69
235.349	184.69
235.583	178.69
235.817	168.69
236.051	170.69
236.285	190.69
236.519	192.69
236.753	181.69
236.987	171.69
237.221	170.69
237.455	205.69
237.689	210.69
237.922	214.69
238.156	197.69
238.39	205.69
238.624	187.69
238.858	199.69
239.091	202.69
239.325	202.69
239.559	218.69
239.793	244.69
240.027	232.69
240.26	194.69
240.494	209.69
240.728	207.69
240.961	209.69
241.195	213.69
241.429	221.69
241.662	219.69
241.896	247.69
242.13	259.69
242.363	224.69
242.597	224.69
242.83	227.69
243.064	215.69
243.298	238.69
243.531	223.69
243.765	228.69
243.998	242.69
244.232	251.69
244.465	262.69
244.699	236.69
244.932	234.69
245.166	230.69
245.399	237.69
245.633	233.69
245.866	256.69
246.099	236.69
246.333	251.69
246.566	264.69
246.8	264.69
247.033	258.69
247.266	268.69
247.5	251.69
247.733	258.69
247.966	285.69
248.2	256.69
248.433	277.69
248.666	280.69
248.899	268.69
249.133	282.69
249.366	294.69
249.599	290.69
249.832	278.69
250.066	307.69
250.299	313.69
250.532	287.69
250.765	320.69
250.998	330.69
251.231	336.69
251.465	367.69
251.698	327.69
251.931	335.69
252.164	326.69
252.397	298.69
252.63	328.69
252.863	328.69
253.096	313.69
253.329	315.69
253.562	332.69
253.795	338.69
254.028	341.69
254.261	342.69
254.494	342.69
254.727	335.69
254.96	374.69
255.193	386.69
255.426	364.69
255.659	343.69
255.892	372.69
256.124	356.69
256.357	356.69
256.59	354.69
256.823	362.69
257.056	362.69
257.289	375.69
257.521	366.69
257.754	374.69
257.987	368.69
258.22	376.69
258.452	382.69
258.685	379.69
258.918	386.69
259.151	376.69
259.383	386.69
259.616	401.69
259.849	382.69
260.081	402.69
260.314	393.69
260.547	414.69
260.779	428.69
261.012	411.69
261.244	414.69
261.477	415.69
261.71	415.69
261.942	425.69
262.175	422.69
262.407	436.69
262.64	423.69
262.872	416.69
263.105	440.69
263.337	440.69
263.57	431.69
263.802	446.69
264.035	424.69
264.267	423.69
264.499	441.69
264.732	460.69
264.964	462.69
265.197	445.69
265.429	456.69
265.661	450.69
265.894	448.69
266.126	456.69
266.358	447.69
266.591	431.69
266.823	454.69
267.055	476.69
267.287	451.69
267.52	463.69
267.752	465.69
267.984	457.69
268.216	473.69
268.448	491.69
268.681	498.69
268.913	492.69
269.145	480.69
269.377	491.69
269.609	467.69
269.841	496.69
270.073	494.69
270.306	460.69
270.538	491.69
270.77	476.69
271.002	500.69
271.234	473.69
271.466	482.69
271.698	484.69
271.93	515.69
272.162	504.69
272.394	504.69
272.626	504.69
272.858	510.69
273.09	510.69
273.322	522.69
273.553	524.69
273.785	522.69
274.017	526.69
274.249	535.69
274.481	522.69
274.713	526.69
274.945	513.69
275.176	520.69
275.408	528.69
275.64	554.69
275.872	550.69
276.104	554.69
276.335	555.69
276.567	559.69
276.799	555.69
277.031	556.69
277.262	563.69
277.494	550.69
277.726	562.69
277.957	568.69
278.189	578.69
278.421	561.69
278.652	589.69
278.884	560.69
279.115	582.69
279.347	575.69
279.579	575.69
279.81	571.69
280.042	568.69
280.273	587.69
280.505	581.69
280.736	590.69
280.968	589.69
281.199	575.69
281.431	589.69
281.662	586.69
281.894	584.69
282.125	587.69
282.356	602.69
282.588	597.69
282.819	589.69
283.051	587.69
283.282	600.69
283.513	600.69
283.745	592.69
283.976	622.69
284.207	633.69
284.439	588.69
284.67	629.69
284.901	605.69
285.132	652.69
285.364	590.69
285.595	624.69
285.826	605.69
286.057	616.69
286.288	608.69
286.52	644.69
286.751	636.69
286.982	646.69
287.213	626.69
287.444	648.69
287.675	643.69
287.906	636.69
288.138	638.69
288.369	616.69
288.6	646.69
288.831	627.69
289.062	614.69
289.293	664.69
289.524	620.69
289.755	658.69
289.986	650.69
290.217	638.69
290.448	643.69
290.679	654.69
290.91	662.69
291.141	638.69
291.371	652.69
291.602	650.69
291.833	654.69
292.064	644.69
292.295	644.69
292.526	667.69
292.757	627.69
292.987	642.69
293.218	651.69
293.449	668.69
293.68	675.69
293.91	672.69
294.141	658.69
294.372	650.69
294.603	666.69
294.833	685.69
295.064	675.69
295.295	663.69
295.525	628.69
295.756	668.69
295.987	674.69
296.217	693.69
296.448	681.69
296.679	657.69
296.909	667.69
297.14	686.69
297.37	692.69
297.601	702.69
297.831	681.69
298.062	672.69
298.292	674.69
298.523	722.69
298.753	693.69
298.984	716.69
299.214	691.69
299.445	733.69
299.675	702.69
299.905	718.69
300.136	709.69
300.366	742.69
300.597	796.69
300.827	728.69
301.057	730.69
301.288	758.69
301.518	744.69
301.748	735.69
301.979	747.69
302.209	754.69
302.439	752.69
302.669	738.69
302.9	731.69
303.13	750.69
303.36	726.69
303.59	755.69
303.82	771.69
304.051	759.69
304.281	748.69
304.511	750.69
304.741	779.69
304.971	798.69
305.201	776.69
305.431	814.69
305.661	796.69
305.891	778.69
306.121	804.69
306.352	759.69
306.582	751.69
306.812	785.69
307.042	744.69
307.272	738.69
307.502	775.69
307.731	772.69
307.961	748.69
308.191	780.69
308.421	751.69
308.651	790.69
308.881	772.69
309.111	773.69
309.341	761.69
309.571	790.69
309.8	799.69
310.03	834.69
310.26	858.69
310.49	853.69
310.72	805.69
310.949	806.69
311.179	803.69
311.409	784.69
311.639	810.69
311.868	813.69
312.098	809.69
312.328	796.69
312.557	819.69
312.787	800.69
313.017	824.69
313.246	837.69
313.476	862.69
313.706	861.69
313.935	838.69
314.165	824.69
314.394	812.69
314.624	851.69
314.853	843.69
315.083	864.69
315.312	843.69
315.542	856.69
315.771	857.69
316.001	863.69
316.23	856.69
316.46	877.69
316.689	870.69
316.919	866.69
317.148	884.69
317.377	860.69
317.607	848.69
317.836	869.69
318.065	888.69
318.295	884.69
318.524	875.69
318.753	868.69
318.983	859.69
319.212	881.69
319.441	890.69
319.67	887.69
319.9	894.69
320.129	922.69
320.358	912.69
320.587	894.69
320.816	897.69
321.046	908.69
321.275	905.69
321.504	901.69
321.733	922.69
321.962	922.69
322.191	935.69
322.42	911.69
322.649	936.69
322.878	910.69
323.108	911.69
323.337	919.69
323.566	939.69
323.795	932.69
324.024	929.69
324.253	950.69
324.482	951.69
324.71	948.69
324.939	1005.69
325.168	931.69
325.397	951.69
325.626	985.69
325.855	965.69
326.084	967.69
326.313	972.69
326.542	977.69
326.77	982.69
326.999	995.69
327.228	986.69
327.457	974.69
327.686	994.69
327.914	1003.69
328.143	1005.69
328.372	1020.69
328.6	1003.69
328.829	1008.69
329.058	990.69
329.287	1008.69
329.515	977.69
329.744	1012.69
329.972	1013.69
330.201	985.69
330.43	1021.69
330.658	1017.69
330.887	1019.69
331.115	1012.69
331.344	1044.69
331.572	1020.69
331.801	1078.69
332.03	1030.69
332.258	1082.69
332.486	1052.69
332.715	1072.69
332.943	1054.69
333.172	1082.69
333.4	1096.69
333.629	1094.69
333.857	1130.69
334.085	1122.69
334.314	1143.69
334.542	1106.69
334.771	1132.69
334.999	1124.69
335.227	1146.69
335.455	1142.69
335.684	1134.69
335.912	1122.69
336.14	1147.69
336.369	1147.69
336.597	1155.69
336.825	1144.69
337.053	1166.69
337.281	1152.69
337.51	1154.69
337.738	1145.69
337.966	1174.69
338.194	1173.69
338.422	1146.69
338.65	1128.69
338.878	1164.69
339.106	1121.69
339.334	1150.69
339.562	1145.69
339.79	1096.69
340.018	1123.69
340.246	1086.69
340.474	1088.69
340.702	1112.69
340.93	1120.69
341.158	1126.69
341.386	1153.69
341.614	1198.69
341.842	1163.69
342.07	1114.69
342.298	1107.69
342.526	1131.69
342.754	1110.69
342.981	1114.69
343.209	1130.69
343.437	1141.69
343.665	1183.69
343.893	1168.69
344.12	1145.69
344.348	1163.69
344.576	1143.69
344.804	1195.69
345.031	1152.69
345.259	1127.69
345.487	1148.69
345.714	1158.69
345.942	1158.69
346.17	1209.69
346.397	1183.69
346.625	1122.69
346.853	1106.69
347.08	1068.69
347.308	1106.69
347.535	1100.69
347.763	1096.69
347.99	1066.69
348.218	1071.69
348.445	1085.69
348.673	1038.69
348.9	1090.69
349.128	1083.69
349.355	1132.69
349.583	1112.69
349.81	1080.69
350.037	1051.69
350.265	1055.69
350.492	1070.69
350.72	1046.69
350.947	1045.69
351.174	1115.69
351.402	1119.69
351.629	1152.69
351.856	1129.69
352.083	1086.69
352.311	1076.69
352.538	1138.69
352.765	1153.69
352.992	1064.69
353.22	1044.69
353.447	1002.69
353.674	1022.69
353.901	1047.69
354.128	1035.69
354.355	1022.69
354.583	1050.69
354.81	1043.69
355.037	1043.69
355.264	1044.69
355.491	1059.69
355.718	1019.69
355.945	1028.69
356.172	1055.69
356.399	1057.69
356.626	1078.69
356.853	1091.69
357.08	1081.69
357.307	1061.69
357.534	1066.69
357.761	1034.69
357.988	1063.69
358.215	1040.69
358.441	1011.69
358.668	1044.69
358.895	1037.69
359.122	1065.69
359.349	1037.69
359.576	1046.69
359.802	1093.69
360.029	1078.69
360.256	1060.69
360.483	1054.69
360.709	1076.69
360.936	1064.69
361.163	1042.69
361.39	1054.69
361.616	1065.69
361.843	1113.69
362.07	1143.69
362.296	1127.69
362.523	1070.69
362.749	1052.69
362.976	1051.69
363.203	1051.69
363.429	1049.69
363.656	1063.69
363.882	1057.69
364.109	1093.69
364.335	1063.69
364.562	1058.69
364.788	1072.69
365.015	1074.69
365.241	1076.69
365.468	1056.69
365.694	1046.69
365.92	1054.69
366.147	1056.69
366.373	1065.69
366.599	1078.69
366.826	1058.69
367.052	1089.69
367.278	1067.69
367.505	1086.69
367.731	1070.69
367.957	1067.69
368.184	1048.69
368.41	1068.69
368.636	1082.69
368.862	1090.69
369.089	1067.69
369.315	1093.69
369.541	1113.69
369.767	1103.69
369.993	1096.69
370.219	1069.69
370.445	1090.69
370.672	1080.69
370.898	1082.69
371.124	1110.69
371.35	1085.69
371.576	1097.69
371.802	1114.69
372.028	1112.69
372.254	1120.69
372.48	1118.69
372.706	1106.69
372.932	1099.69
373.158	1136.69
373.384	1129.69
373.61	1152.69
373.835	1126.69
374.061	1123.69
374.287	1165.69
374.513	1107.69
374.739	1144.69
374.965	1148.69
375.191	1131.69
375.416	1154.69
375.642	1100.69
375.868	1126.69
376.094	1117.69
376.319	1098.69
376.545	1106.69
376.771	1109.69
376.997	1115.69
377.222	1099.69
377.448	1102.69
377.674	1115.69
377.899	1071.69
378.125	1076.69
378.35	1106.69
378.576	1090.69
378.802	1090.69
379.027	1077.69
379.253	1097.69
379.478	1085.69
379.704	1094.69
379.929	1099.69
380.155	1074.69
380.38	1092.69
380.606	1118.69
380.831	1109.69
381.057	1107.69
381.282	1107.69
381.507	1101.69
381.733	1099.69
381.958	1123.69
382.184	1140.69
382.409	1092.69
382.634	1126.69
382.86	1131.69
383.085	1124.69
383.31	1140.69
383.535	1135.69
383.761	1119.69
383.986	1124.69
384.211	1142.69
384.436	1146.69
384.662	1131.69
384.887	1154.69
385.112	1189.69
385.337	1199.69
385.562	1154.69
385.787	1182.69
386.013	1229.69
386.238	1226.69
386.463	1185.69
386.688	1182.69
386.913	1198.69
387.138	1212.69
387.363	1226.69
387.588	1200.69
387.813	1194.69
388.038	1195.69
388.263	1195.69
388.488	1210.69
388.713	1226.69
388.938	1189.69
389.163	1181.69
389.387	1230.69
389.612	1210.69
389.837	1237.69
390.062	1251.69
390.287	1199.69
390.512	1210.69
390.736	1199.69
390.961	1232.69
391.186	1222.69
391.411	1234.69
391.636	1208.69
391.86	1239.69
392.085	1254.69
392.31	1259.69
392.534	1237.69
392.759	1276.69
392.984	1238.69
393.208	1279.69
393.433	1303.69
393.658	1271.69
393.882	1269.69
394.107	1192.69
394.331	1210.69
394.556	1236.69
394.78	1262.69
395.005	1269.69
395.229	1261.69
395.454	1285.69
395.678	1266.69
395.903	1267.69
396.127	1315.69
396.352	1270.69
396.576	1275.69
396.801	1292.69
397.025	1300.69
397.249	1294.69
397.474	1328.69
397.698	1354.69
397.922	1342.69
398.147	1303.69
398.371	1356.69
398.595	1317.69
398.82	1379.69
399.044	1395.69
399.268	1434.69
399.492	1482.69
399.717	1477.69
399.941	1496.69
400.165	1493.69
400.389	1499.69
400.613	1470.69
400.837	1405.69
401.062	1421.69
401.286	1443.69
401.51	1425.69
401.734	1356.69
401.958	1391.69
402.182	1377.69
402.406	1374.69
402.63	1372.69
402.854	1388.69
403.078	1410.69
403.302	1383.69
403.526	1426.69
403.75	1391.69
403.974	1378.69
404.198	1352.69
404.422	1389.69
404.645	1401.69
404.869	1430.69
405.093	1388.69
405.317	1402.69
405.541	1434.69
405.765	1431.69
405.988	1403.69
406.212	1436.69
406.436	1414.69
406.66	1463.69
406.883	1450.69
407.107	1503.69
407.331	1494.69
407.555	1522.69
407.778	1528.69
408.002	1535.69
408.226	1546.69
408.449	1541.69
408.673	1466.69
408.896	1466.69
409.12	1480.69
409.344	1486.69
409.567	1463.69
409.791	1464.69
410.014	1478.69
410.238	1452.69
410.461	1459.69
410.685	1447.69
410.908	1460.69
411.132	1469.69
411.355	1384.69
411.578	1440.69
411.802	1414.69
412.025	1417.69
412.249	1435.69
412.472	1403.69
412.695	1399.69
412.919	1399.69
413.142	1445.69
413.365	1423.69
413.589	1425.69
413.812	1396.69
414.035	1382.69
414.258	1362.69
414.482	1391.69
414.705	1371.69
414.928	1386.69
415.151	1386.69
415.374	1380.69
415.597	1399.69
415.821	1366.69
416.044	1340.69
416.267	1352.69
416.49	1348.69
416.713	1365.69
416.936	1330.69
417.159	1359.69
417.382	1345.69
417.605	1326.69
417.828	1286.69
418.051	1331.69
418.274	1311.69
418.497	1316.69
418.72	1343.69
418.943	1326.69
419.166	1412.69
419.389	1496.69
419.611	1429.69
419.834	1388.69
420.057	1365.69
420.28	1331.69
420.503	1339.69
420.726	1316.69
420.948	1302.69
421.171	1319.69
421.394	1363.69
421.617	1311.69
421.839	1345.69
422.062	1320.69
422.285	1293.69
422.507	1343.69
422.73	1308.69
422.953	1369.69
423.175	1325.69
423.398	1312.69
423.621	1325.69
423.843	1347.69
424.066	1343.69
424.288	1337.69
424.511	1334.69
424.733	1342.69
424.956	1332.69
425.178	1314.69
425.401	1334.69
425.623	1325.69
425.846	1340.69
426.068	1300.69
426.291	1312.69
426.513	1279.69
426.735	1310.69
426.958	1306.69
427.18	1306.69
427.402	1302.69
427.625	1318.69
427.847	1299.69
428.069	1290.69
428.292	1324.69
428.514	1317.69
428.736	1300.69
428.958	1311.69
429.181	1288.69
429.403	1258.69
429.625	1312.69
429.847	1298.69
430.069	1285.69
430.292	1262.69
430.514	1275.69
430.736	1343.69
430.958	1290.69
431.18	1282.69
431.402	1286.69
431.624	1294.69
431.846	1309.69
432.068	1288.69
432.29	1309.69
432.512	1286.69
432.734	1336.69
432.956	1273.69
433.178	1334.69
433.4	1344.69
433.622	1334.69
433.844	1317.69
434.066	1343.69
434.287	1327.69
434.509	1311.69
434.731	1352.69
434.953	1366.69
435.175	1372.69
435.397	1423.69
435.618	1373.69
435.84	1336.69
436.062	1347.69
436.284	1324.69
436.505	1318.69
436.727	1300.69
436.949	1311.69
437.17	1330.69
437.392	1336.69
437.614	1306.69
437.835	1286.69
438.057	1271.69
438.278	1247.69
438.5	1271.69
438.721	1267.69
438.943	1280.69
439.165	1257.69
439.386	1294.69
439.608	1304.69
439.829	1295.69
440.05	1306.69
440.272	1308.69
440.493	1317.69
440.715	1355.69
440.936	1327.69
441.158	1342.69
441.379	1334.69
441.6	1361.69
441.822	1353.69
442.043	1343.69
442.264	1335.69
442.486	1333.69
442.707	1334.69
442.928	1322.69
443.149	1324.69
443.371	1365.69
443.592	1421.69
443.813	1391.69
444.034	1334.69
444.255	1362.69
444.476	1380.69
444.698	1406.69
444.919	1425.69
445.14	1522.69
445.361	1459.69
445.582	1373.69
445.803	1376.69
446.024	1339.69
446.245	1310.69
446.466	1318.69
446.687	1279.69
446.908	1305.69
447.129	1269.69
447.35	1302.69
447.571	1286.69
447.792	1227.69
448.013	1244.69
448.234	1224.69
448.455	1238.69
448.675	1218.69
448.896	1238.69
449.117	1226.69
449.338	1218.69
449.559	1197.69
449.779	1237.69
450	1192.69
450.221	1224.69
450.442	1211.69
450.662	1229.69
450.883	1228.69
451.104	1233.69
451.324	1203.69
451.545	1215.69
451.766	1182.69
451.986	1226.69
452.207	1193.69
452.428	1173.69
452.648	1171.69
452.869	1187.69
453.089	1175.69
453.31	1204.69
453.53	1166.69
453.751	1190.69
453.971	1191.69
454.192	1199.69
454.412	1193.69
454.633	1191.69
454.853	1168.69
455.073	1184.69
455.294	1179.69
455.514	1204.69
455.734	1180.69
455.955	1227.69
456.175	1217.69
456.395	1182.69
456.616	1180.69
456.836	1162.69
457.056	1170.69
457.276	1174.69
457.497	1179.69
457.717	1198.69
457.937	1213.69
458.157	1218.69
458.377	1218.69
458.598	1205.69
458.818	1223.69
459.038	1254.69
459.258	1287.69
459.478	1365.69
459.698	1431.69
459.918	1389.69
460.138	1360.69
460.358	1427.69
460.578	1373.69
460.798	1444.69
461.018	1436.69
461.238	1413.69
461.458	1356.69
461.678	1364.69
461.898	1404.69
462.118	1365.69
462.338	1412.69
462.558	1444.69
462.777	1470.69
462.997	1483.69
463.217	1495.69
463.437	1588.69
463.657	1547.69
463.876	1499.69
464.096	1472.69
464.316	1427.69
464.536	1456.69
464.755	1399.69
464.975	1372.69
465.195	1368.69
465.414	1355.69
465.634	1322.69
465.854	1302.69
466.073	1280.69
466.293	1285.69
466.512	1293.69
466.732	1270.69
466.951	1251.69
467.171	1288.69
467.391	1298.69
467.61	1260.69
467.829	1258.69
468.049	1253.69
468.268	1216.69
468.488	1250.69
468.707	1250.69
468.927	1287.69
469.146	1268.69
469.365	1302.69
469.585	1256.69
469.804	1286.69
470.023	1295.69
470.243	1278.69
470.462	1251.69
470.681	1294.69
470.901	1260.69
471.12	1260.69
471.339	1279.69
471.558	1294.69
471.777	1271.69
471.997	1285.69
472.216	1264.69
472.435	1280.69
472.654	1231.69
472.873	1224.69
473.092	1267.69
473.311	1302.69
473.53	1261.69
473.749	1263.69
473.968	1281.69
474.187	1282.69
474.406	1252.69
474.625	1276.69
474.844	1291.69
475.063	1307.69
475.282	1335.69
475.501	1316.69
475.72	1310.69
475.939	1298.69
476.158	1357.69
476.377	1351.69
476.596	1315.69
476.814	1370.69
477.033	1353.69
477.252	1346.69
477.471	1386.69
477.69	1374.69
477.908	1451.69
478.127	1438.69
478.346	1424.69
478.564	1447.69
478.783	1472.69
479.002	1514.69
479.22	1554.69
479.439	1568.69
479.658	1504.69
479.876	1493.69
480.095	1515.69
480.313	1478.69
480.532	1514.69
480.751	1507.69
480.969	1493.69
481.188	1475.69
481.406	1484.69
481.624	1501.69
481.843	1478.69
482.061	1496.69
482.28	1491.69
482.498	1508.69
482.717	1475.69
482.935	1507.69
483.153	1514.69
483.372	1594.69
483.59	1591.69
483.808	1544.69
484.027	1538.69
484.245	1516.69
484.463	1524.69
484.681	1559.69
484.9	1537.69
485.118	1514.69
485.336	1572.69
485.554	1522.69
485.772	1559.69
485.99	1534.69
486.209	1538.69
486.427	1536.69
486.645	1519.69
486.863	1531.69
487.081	1532.69
487.299	1549.69
487.517	1567.69
487.735	1581.69
487.953	1592.69
488.171	1590.69
488.389	1556.69
488.607	1585.69
488.825	1585.69
489.043	1559.69
489.261	1559.69
489.479	1555.69
489.696	1588.69
489.914	1554.69
490.132	1581.69
490.35	1604.69
490.568	1566.69
490.786	1584.69
491.003	1583.69
491.221	1593.69
491.439	1570.69
491.657	1641.69
491.874	1624.69
492.092	1593.69
492.31	1613.69
492.527	1595.69
492.745	1612.69
492.963	1599.69
493.18	1615.69
493.398	1598.69
493.615	1634.69
493.833	1628.69
494.05	1641.69
494.268	1621.69
494.485	1642.69
494.703	1626.69
494.92	1694.69
495.138	1639.69
495.355	1643.69
495.573	1677.69
495.79	1667.69
496.008	1710.69
496.225	1703.69
496.442	1696.69
496.66	1700.69
496.877	1730.69
497.094	1733.69
497.312	1730.69
497.529	1711.69
497.746	1786.69
497.963	1796.69
498.181	1844.69
498.398	1889.69
498.615	1910.69
498.832	1926.69
499.049	1958.69
499.267	2014.69
499.484	2037.69
499.701	2127.69
499.918	2138.69
500.135	2235.69
500.352	2337.69
500.569	2293.69
500.786	2308.69
501.003	2279.69
501.22	2277.69
501.437	2159.69
501.654	2118.69
501.871	2080.69
502.088	2037.69
502.305	1989.69
502.522	1955.69
502.739	1860.69
502.956	1839.69
503.172	1853.69
503.389	1786.69
503.606	1758.69
503.823	1736.69
504.04	1727.69
504.256	1688.69
504.473	1670.69
504.69	1692.69
504.907	1647.69
505.123	1631.69
505.34	1626.69
505.557	1615.69
505.773	1551.69
505.99	1551.69
506.207	1514.69
506.423	1456.69
506.64	1507.69
506.856	1503.69
507.073	1496.69
507.289	1482.69
507.506	1475.69
507.722	1456.69
507.939	1482.69
508.155	1438.69
508.372	1440.69
508.588	1419.69
508.805	1411.69
509.021	1414.69
509.238	1424.69
509.454	1399.69
509.67	1385.69
509.887	1389.69
510.103	1338.69
510.319	1383.69
510.536	1332.69
510.752	1342.69
510.968	1354.69
511.184	1317.69
511.401	1343.69
511.617	1334.69
511.833	1360.69
512.049	1360.69
512.265	1313.69
512.481	1331.69
512.698	1354.69
512.914	1353.69
513.13	1332.69
513.346	1356.69
513.562	1317.69
513.778	1335.69
513.994	1336.69
514.21	1325.69
514.426	1309.69
514.642	1331.69
514.858	1326.69
515.074	1334.69
515.29	1357.69
515.506	1331.69
515.721	1349.69
515.937	1351.69
516.153	1337.69
516.369	1332.69
516.585	1347.69
516.801	1372.69
517.016	1377.69
517.232	1355.69
517.448	1395.69
517.664	1408.69
517.879	1404.69
518.095	1395.69
518.311	1386.69
518.527	1373.69
518.742	1407.69
518.958	1346.69
519.173	1360.69
519.389	1340.69
519.605	1296.69
519.82	1303.69
520.036	1303.69
520.251	1307.69
520.467	1297.69
520.682	1275.69
520.898	1293.69
521.113	1291.69
521.329	1276.69
521.544	1254.69
521.76	1266.69
521.975	1265.69
522.19	1267.69
522.406	1268.69
522.621	1222.69
522.836	1195.69
523.052	1227.69
523.267	1233.69
523.482	1236.69
523.698	1234.69
523.913	1190.69
524.128	1205.69
524.343	1211.69
524.559	1223.69
524.774	1203.69
524.989	1207.69
525.204	1219.69
525.419	1199.69
525.634	1186.69
525.849	1200.69
526.064	1204.69
526.28	1202.69
526.495	1172.69
526.71	1177.69
526.925	1183.69
527.14	1157.69
527.355	1163.69
527.57	1172.69
527.785	1192.69
527.999	1151.69
528.214	1182.69
528.429	1165.69
528.644	1156.69
528.859	1196.69
529.074	1158.69
529.289	1150.69
529.503	1156.69
529.718	1165.69
529.933	1164.69
530.148	1129.69
530.363	1156.69
530.577	1138.69
530.792	1160.69
531.007	1130.69
531.221	1154.69
531.436	1130.69
531.651	1150.69
531.865	1158.69
532.08	1130.69
532.295	1154.69
532.509	1155.69
532.724	1124.69
532.938	1143.69
533.153	1131.69
533.367	1137.69
533.582	1146.69
533.796	1148.69
534.011	1141.69
534.225	1104.69
534.44	1106.69
534.654	1090.69
534.868	1096.69
535.083	1098.69
535.297	1116.69
535.511	1095.69
535.726	1096.69
535.94	1061.69
536.154	1093.69
536.369	1080.69
536.583	1046.69
536.797	1081.69
537.011	1055.69
537.225	1047.69
537.44	1064.69
537.654	1063.69
537.868	1072.69
538.082	1079.69
538.296	1095.69
538.51	1083.69
538.724	1078.69
538.938	1048.69
539.153	1036.69
539.367	1073.69
539.581	1044.69
539.795	1046.69
540.009	1055.69
540.222	1022.69
540.436	1055.69
540.65	1042.69
540.864	1044.69
541.078	1025.69
541.292	1030.69
541.506	1029.69
541.72	1068.69
541.934	1040.69
542.147	1081.69
542.361	1064.69
542.575	1048.69
542.789	1049.69
543.002	1005.69
543.216	1010.69
543.43	1014.69
543.644	1016.69
543.857	1019.69
544.071	1019.69
544.285	1052.69
544.498	1015.69
544.712	1028.69
544.925	1032.69
545.139	1007.69
545.352	1050.69
545.566	1010.69
545.779	1005.69
545.993	1039.69
546.206	1001.69
546.42	1011.69
546.633	1008.69
546.847	1020.69
547.06	991.69
547.274	1044.69
547.487	1034.69
547.7	1013.69
547.914	1037.69
548.127	1010.69
548.34	1003.69
548.554	1014.69
548.767	989.69
548.98	1010.69
549.193	1012.69
549.407	1001.69
549.62	990.69
549.833	995.69
550.046	996.69
550.259	972.69
550.473	984.69
550.686	992.69
550.899	997.69
551.112	997.69
551.325	973.69
551.538	981.69
551.751	959.69
551.964	956.69
552.177	1002.69
552.39	988.69
552.603	982.69
552.816	988.69
553.029	1002.69
553.242	981.69
553.455	990.69
553.667	992.69
553.88	979.69
554.093	968.69
554.306	970.69
554.519	958.69
554.732	940.69
554.944	962.69
555.157	948.69
555.37	936.69
555.583	925.69
555.795	940.69
556.008	898.69
556.221	924.69
556.433	894.69
556.646	903.69
556.859	890.69
557.071	876.69
557.284	896.69
557.496	874.69
557.709	876.69
557.921	890.69
558.134	884.69
558.346	878.69
558.559	866.69
558.771	882.69
558.984	884.69
559.196	865.69
559.409	905.69
559.621	880.69
559.833	883.69
560.046	873.69
560.258	835.69
560.47	810.69
560.683	884.69
560.895	835.69
561.107	858.69
561.32	855.69
561.532	852.69
561.744	863.69
561.956	862.69
562.168	864.69
562.381	849.69
562.593	839.69
562.805	854.69
563.017	827.69
563.229	848.69
563.441	859.69
563.653	855.69
563.865	858.69
564.077	884.69
564.289	860.69
564.501	874.69
564.713	876.69
564.925	846.69
565.137	892.69
565.349	883.69
565.561	895.69
565.773	916.69
565.985	905.69
566.197	882.69
566.408	908.69
566.62	933.69
566.832	952.69
567.044	941.69
567.255	962.69
567.467	953.69
567.679	931.69
567.891	949.69
568.102	965.69
568.314	930.69
568.526	916.69
568.737	869.69
568.949	870.69
569.161	864.69
569.372	839.69
569.584	859.69
569.795	843.69
570.007	795.69
570.218	796.69
570.43	782.69
570.641	793.69
570.853	804.69
571.064	746.69
571.276	768.69
571.487	751.69
571.698	754.69
571.91	749.69
572.121	750.69
572.333	718.69
572.544	729.69
572.755	708.69
572.966	716.69
573.178	717.69
573.389	682.69
573.6	669.69
573.811	674.69
574.023	693.69
574.234	680.69
574.445	665.69
574.656	690.69
574.867	675.69
575.078	704.69
575.289	658.69
575.501	652.69
575.712	679.69
575.923	658.69
576.134	646.69
576.345	668.69
576.556	668.69
576.767	655.69
576.978	634.69
577.188	628.69
577.399	627.69
577.61	617.69
577.821	634.69
578.032	609.69
578.243	623.69
578.454	620.69
578.665	608.69
578.875	598.69
579.086	615.69
579.297	592.69
579.508	606.69
579.718	614.69
579.929	601.69
580.14	584.69
580.35	605.69
580.561	599.69
580.772	590.69
580.982	598.69
581.193	602.69
581.403	572.69
581.614	586.69
581.825	583.69
582.035	607.69
582.246	589.69
582.456	556.69
582.667	590.69
582.877	567.69
583.087	573.69
583.298	573.69
583.508	555.69
583.719	566.69
583.929	586.69
584.139	558.69
584.35	562.69
584.56	570.69
584.77	568.69
584.981	547.69
585.191	554.69
585.401	546.69
585.611	550.69
585.821	551.69
586.032	554.69
586.242	541.69
586.452	534.69
586.662	562.69
586.872	552.69
587.082	526.69
587.292	558.69
587.502	533.69
587.713	549.69
587.923	555.69
588.133	536.69
588.343	544.69
588.553	539.69
588.762	548.69
588.972	555.69
589.182	595.69
589.392	590.69
589.602	545.69
589.812	584.69
590.022	532.69
590.232	522.69
590.441	525.69
590.651	517.69
590.861	530.69
591.071	538.69
591.281	554.69
591.49	528.69
591.7	539.69
591.91	540.69
592.119	536.69
592.329	542.69
592.539	542.69
592.748	567.69
592.958	552.69
593.167	562.69
593.377	526.69
593.587	549.69
593.796	537.69
594.006	556.69
594.215	559.69
594.424	535.69
594.634	551.69
594.843	516.69
595.053	524.69
595.262	495.69
595.472	515.69
595.681	504.69
595.89	503.69
596.1	500.69
596.309	487.69
596.518	472.69
596.727	490.69
596.937	502.69
597.146	503.69
597.355	478.69
597.564	476.69
597.774	499.69
597.983	475.69
598.192	480.69
598.401	460.69
598.61	479.69
598.819	463.69
599.028	450.69
599.237	460.69
599.446	428.69
599.655	456.69
599.864	456.69
600.073	461.69
600.282	453.69
600.491	458.69
600.7	443.69
600.909	455.69
601.118	449.69
601.327	443.69
601.536	440.69
601.745	422.69
601.953	438.69
602.162	418.69
602.371	431.69
602.58	421.69
602.789	450.69
602.997	418.69
603.206	434.69
603.415	438.69
603.623	434.69
603.832	431.69
604.041	427.69
604.249	436.69
604.458	430.69
604.666	401.69
604.875	404.69
605.084	421.69
605.292	428.69
605.501	411.69
605.709	410.69
605.918	395.69
606.126	420.69
606.334	411.69
606.543	401.69
606.751	400.69
606.96	402.69
607.168	416.69
607.376	414.69
607.585	424.69
607.793	413.69
608.001	419.69
608.21	395.69
608.418	388.69
608.626	401.69
608.834	403.69
609.043	404.69
609.251	390.69
609.459	400.69
609.667	385.69
609.875	391.69
610.083	384.69
610.291	426.69
610.499	402.69
610.707	384.69
610.916	421.69
611.124	382.69
611.332	409.69
611.54	401.69
611.748	412.69
611.955	382.69
612.163	373.69
612.371	394.69
612.579	379.69
612.787	378.69
612.995	394.69
613.203	405.69
613.411	362.69
613.618	370.69
613.826	386.69
614.034	378.69
614.242	377.69
614.449	377.69
614.657	388.69
614.865	397.69
615.072	382.69
615.28	381.69
615.488	364.69
615.695	370.69
615.903	386.69
616.111	377.69
616.318	378.69
616.526	386.69
616.733	370.69
616.941	379.69
617.148	371.69
617.356	371.69
617.563	376.69
617.771	372.69
617.978	373.69
618.185	376.69
618.393	352.69
618.6	367.69
618.807	372.69
619.015	356.69
619.222	374.69
619.429	369.69
619.637	376.69
619.844	347.69
620.051	346.69
620.258	336.69
620.466	364.69
620.673	339.69
620.88	319.69
621.087	334.69
621.294	340.69
621.501	334.69
621.708	355.69
621.915	344.69
622.122	343.69
622.329	339.69
622.536	333.69
622.743	336.69
622.95	344.69
623.157	324.69
623.364	357.69
623.571	330.69
623.778	330.69
623.985	333.69
624.192	341.69
624.399	343.69
624.606	311.69
624.812	345.69
625.019	326.69
625.226	346.69
625.433	343.69
625.639	326.69
625.846	347.69
626.053	327.69
626.259	316.69
626.466	325.69
626.673	325.69
626.879	307.69
627.086	320.69
627.293	315.69
627.499	310.69
627.706	323.69
627.912	308.69
628.119	323.69
628.325	315.69
628.532	306.69
628.738	316.69
628.945	328.69
629.151	311.69
629.357	316.69
629.564	324.69
629.77	307.69
629.976	305.69
630.183	295.69
630.389	298.69
630.595	316.69
630.802	318.69
631.008	310.69
631.214	299.69
631.42	301.69
631.627	314.69
631.833	294.69
632.039	294.69
632.245	281.69
632.451	283.69
632.657	292.69
632.863	272.69
633.069	297.69
633.275	273.69
633.481	290.69
633.688	293.69
633.893	291.69
634.099	294.69
634.305	294.69
634.511	291.69
634.717	302.69
634.923	294.69
635.129	291.69
635.335	284.69
635.541	273.69
635.747	306.69
635.952	281.69
636.158	290.69
636.364	263.69
636.57	276.69
636.775	278.69
636.981	279.69
637.187	298.69
637.392	276.69
637.598	285.69
637.804	272.69
638.009	276.69
638.215	280.69
638.421	263.69
638.626	274.69
638.832	269.69
639.037	284.69
639.243	262.69
639.448	274.69
639.654	284.69
639.859	267.69
640.065	275.69
640.27	269.69
640.475	271.69
640.681	276.69
640.886	279.69
641.091	254.69
641.297	272.69
641.502	261.69
641.707	271.69
641.913	271.69
642.118	268.69
642.323	278.69
642.528	266.69
642.733	278.69
642.939	252.69
643.144	262.69
643.349	270.69
643.554	269.69
643.759	290.69
643.964	258.69
644.169	258.69
644.374	275.69
644.579	263.69
644.784	267.69
644.989	258.69
645.194	268.69
645.399	270.69
645.604	248.69
645.809	256.69
646.014	262.69
646.219	264.69
646.423	265.69
646.628	260.69
646.833	265.69
647.038	272.69
647.243	268.69
647.447	267.69
647.652	266.69
647.857	269.69
648.062	272.69
648.266	267.69
648.471	264.69
648.676	268.69
648.88	263.69
649.085	284.69
649.289	276.69
649.494	283.69
649.698	282.69
649.903	272.69
650.107	275.69
650.312	257.69
650.516	264.69
650.721	252.69
650.925	256.69
651.13	266.69
651.334	248.69
651.539	258.69
651.743	238.69
651.947	238.69
652.152	252.69
652.356	252.69
652.56	265.69
652.764	250.69
652.969	262.69
653.173	250.69
653.377	243.69
653.581	233.69
653.785	237.69
653.99	246.69
654.194	234.69
654.398	239.69
654.602	226.69
654.806	228.69
655.01	214.69
655.214	220.69
655.418	217.69
655.622	229.69
655.826	216.69
656.03	218.69
656.234	238.69
656.438	222.69
656.642	216.69
656.846	227.69
657.049	212.69
657.253	200.69
657.457	184.69
657.661	179.69
657.865	173.69
658.068	184.69
658.272	164.69
658.476	162.69
658.68	164.69
658.883	154.69
659.087	148.69
659.291	139.69
659.494	152.69
659.698	141.69
659.901	130.69
660.105	125.69
660.309	127.69
660.512	121.69
660.716	121.69
660.919	113.69
661.123	110.69
661.326	106.69
661.53	104.69
661.733	114.69
661.936	118.69
662.14	99.69
662.343	122.69
662.546	101.69
662.75	114.69
662.953	100.69
663.156	90.69
663.36	107.69
663.563	83.69
663.766	88.69
663.969	101.69
664.173	94.69
664.376	98.69
664.579	96.69
664.782	92.69
664.985	81.69
665.188	60.69
665.391	78.69
665.594	88.69
665.797	90.69
666	88.69
666.203	89.69
666.406	78.69
666.609	68.69
666.812	85.69
667.015	86.69
667.218	90.69
667.421	74.69
667.624	70.69
667.827	84.69
668.03	70.69
668.232	86.69
668.435	69.69
668.638	86.69
668.841	94.69
669.043	81.69
669.246	78.69
669.449	83.69
669.651	88.69
669.854	86.69
670.057	86.69
670.259	80.69
670.462	102.69
670.665	83.69
670.867	89.69
671.07	86.69
671.272	71.69
671.475	79.69
671.677	90.69
671.88	82.69
672.082	86.69
672.284	80.69
672.487	85.69
672.689	85.69
672.892	79.69
