Data from Ni(NO3)2@0.5M.TitratingCurve.Agarose3%dH2O.NegLispCup.LampEnergy10.LIBS07252019_HRD10591_17-58-58-564.txt Node
Date: Thu Jul 25 17:58:58 EDT 2019
User: cochatt
Spectrometer: HR+D1059
Trigger mode: 1
Integration Time (sec): 1.000000E-1
Scans to average: 1
Electric dark correction enabled: true
Nonlinearity correction enabled: false
Boxcar width: 0
XAxis mode: Wavelengths
Number of Pixels in Spectrum: 2048
>>>>>Begin Spectral Data<<<<<
223.165	-23.62
223.4	-23.62
223.635	-23.62
223.869	-24.62
224.104	-12.62
224.338	-21.62
224.573	-12.62
224.808	-6.62
225.042	-8.62
225.277	-2.62
225.511	-3.62
225.746	-5.62
225.98	20.38
226.215	3.38
226.449	8.38
226.683	26.38
226.918	31.38
227.152	32.38
227.387	32.38
227.621	28.38
227.856	51.38
228.09	51.38
228.324	44.38
228.559	47.38
228.793	77.38
229.027	114.38
229.262	130.38
229.496	136.38
229.73	142.38
229.964	156.38
230.199	186.38
230.433	205.38
230.667	171.38
230.901	166.38
231.136	154.38
231.37	165.38
231.604	182.38
231.838	191.38
232.072	196.38
232.306	188.38
232.541	187.38
232.775	172.38
233.009	167.38
233.243	170.38
233.477	156.38
233.711	163.38
233.945	190.38
234.179	168.38
234.413	162.38
234.647	172.38
234.881	167.38
235.115	164.38
235.349	163.38
235.583	171.38
235.817	172.38
236.051	172.38
236.285	163.38
236.519	178.38
236.753	166.38
236.987	159.38
237.221	162.38
237.455	181.38
237.689	165.38
237.922	186.38
238.156	184.38
238.39	167.38
238.624	168.38
238.858	200.38
239.091	176.38
239.325	197.38
239.559	205.38
239.793	209.38
240.027	231.38
240.26	201.38
240.494	190.38
240.728	181.38
240.961	204.38
241.195	194.38
241.429	207.38
241.662	208.38
241.896	206.38
242.13	221.38
242.363	195.38
242.597	192.38
242.83	199.38
243.064	215.38
243.298	214.38
243.531	197.38
243.765	215.38
243.998	230.38
244.232	227.38
244.465	218.38
244.699	207.38
244.932	209.38
245.166	225.38
245.399	225.38
245.633	214.38
245.866	227.38
246.099	217.38
246.333	207.38
246.566	235.38
246.8	241.38
247.033	227.38
247.266	226.38
247.5	255.38
247.733	237.38
247.966	243.38
248.2	259.38
248.433	251.38
248.666	224.38
248.899	242.38
249.133	239.38
249.366	253.38
249.599	249.38
249.832	268.38
250.066	264.38
250.299	262.38
250.532	267.38
250.765	261.38
250.998	298.38
251.231	289.38
251.465	303.38
251.698	297.38
251.931	281.38
252.164	287.38
252.397	288.38
252.63	275.38
252.863	289.38
253.096	280.38
253.329	284.38
253.562	274.38
253.795	289.38
254.028	279.38
254.261	294.38
254.494	287.38
254.727	286.38
254.96	312.38
255.193	303.38
255.426	294.38
255.659	296.38
255.892	305.38
256.124	297.38
256.357	311.38
256.59	316.38
256.823	324.38
257.056	327.38
257.289	334.38
257.521	319.38
257.754	334.38
257.987	313.38
258.22	332.38
258.452	325.38
258.685	330.38
258.918	339.38
259.151	320.38
259.383	331.38
259.616	329.38
259.849	321.38
260.081	339.38
260.314	327.38
260.547	336.38
260.779	341.38
261.012	344.38
261.244	344.38
261.477	370.38
261.71	372.38
261.942	357.38
262.175	356.38
262.407	361.38
262.64	373.38
262.872	357.38
263.105	357.38
263.337	362.38
263.57	381.38
263.802	333.38
264.035	360.38
264.267	374.38
264.499	347.38
264.732	363.38
264.964	383.38
265.197	378.38
265.429	376.38
265.661	378.38
265.894	374.38
266.126	380.38
266.358	378.38
266.591	395.38
266.823	404.38
267.055	390.38
267.287	389.38
267.52	385.38
267.752	384.38
267.984	383.38
268.216	384.38
268.448	418.38
268.681	397.38
268.913	424.38
269.145	411.38
269.377	413.38
269.609	421.38
269.841	424.38
270.073	393.38
270.306	393.38
270.538	412.38
270.77	399.38
271.002	404.38
271.234	427.38
271.466	420.38
271.698	437.38
271.93	417.38
272.162	416.38
272.394	435.38
272.626	428.38
272.858	441.38
273.09	443.38
273.322	436.38
273.553	433.38
273.785	445.38
274.017	454.38
274.249	425.38
274.481	441.38
274.713	437.38
274.945	424.38
275.176	446.38
275.408	440.38
275.64	450.38
275.872	466.38
276.104	471.38
276.335	453.38
276.567	459.38
276.799	460.38
277.031	451.38
277.262	476.38
277.494	436.38
277.726	462.38
277.957	488.38
278.189	483.38
278.421	461.38
278.652	485.38
278.884	487.38
279.115	463.38
279.347	488.38
279.579	477.38
279.81	496.38
280.042	475.38
280.273	474.38
280.505	479.38
280.736	488.38
280.968	496.38
281.199	493.38
281.431	513.38
281.662	483.38
281.894	503.38
282.125	506.38
282.356	497.38
282.588	488.38
282.819	487.38
283.051	489.38
283.282	511.38
283.513	513.38
283.745	508.38
283.976	508.38
284.207	503.38
284.439	522.38
284.67	511.38
284.901	541.38
285.132	522.38
285.364	524.38
285.595	528.38
285.826	506.38
286.057	507.38
286.288	515.38
286.52	537.38
286.751	524.38
286.982	540.38
287.213	551.38
287.444	540.38
287.675	513.38
287.906	522.38
288.138	547.38
288.369	544.38
288.6	546.38
288.831	562.38
289.062	530.38
289.293	537.38
289.524	545.38
289.755	546.38
289.986	532.38
290.217	529.38
290.448	535.38
290.679	537.38
290.91	549.38
291.141	563.38
291.371	559.38
291.602	547.38
291.833	550.38
292.064	543.38
292.295	537.38
292.526	575.38
292.757	544.38
292.987	550.38
293.218	569.38
293.449	577.38
293.68	564.38
293.91	576.38
294.141	523.38
294.372	546.38
294.603	565.38
294.833	548.38
295.064	561.38
295.295	554.38
295.525	569.38
295.756	555.38
295.987	563.38
296.217	543.38
296.448	572.38
296.679	551.38
296.909	551.38
297.14	566.38
297.37	572.38
297.601	600.38
297.831	581.38
298.062	591.38
298.292	592.38
298.523	607.38
298.753	605.38
298.984	633.38
299.214	609.38
299.445	609.38
299.675	612.38
299.905	589.38
300.136	632.38
300.366	635.38
300.597	661.38
300.827	629.38
301.057	627.38
301.288	639.38
301.518	651.38
301.748	638.38
301.979	652.38
302.209	615.38
302.439	619.38
302.669	655.38
302.9	618.38
303.13	613.38
303.36	644.38
303.59	641.38
303.82	649.38
304.051	652.38
304.281	660.38
304.511	653.38
304.741	649.38
304.971	670.38
305.201	679.38
305.431	697.38
305.661	658.38
305.891	683.38
306.121	670.38
306.352	649.38
306.582	649.38
306.812	606.38
307.042	637.38
307.272	632.38
307.502	638.38
307.731	649.38
307.961	653.38
308.191	676.38
308.421	658.38
308.651	649.38
308.881	656.38
309.111	663.38
309.341	649.38
309.571	655.38
309.8	667.38
310.03	676.38
310.26	715.38
310.49	699.38
310.72	663.38
310.949	683.38
311.179	702.38
311.409	676.38
311.639	660.38
311.868	672.38
312.098	667.38
312.328	678.38
312.557	710.38
312.787	663.38
313.017	706.38
313.246	714.38
313.476	713.38
313.706	715.38
313.935	707.38
314.165	706.38
314.394	699.38
314.624	691.38
314.853	680.38
315.083	698.38
315.312	699.38
315.542	732.38
315.771	706.38
316.001	726.38
316.23	722.38
316.46	729.38
316.689	728.38
316.919	740.38
317.148	739.38
317.377	724.38
317.607	703.38
317.836	723.38
318.065	737.38
318.295	712.38
318.524	741.38
318.753	704.38
318.983	740.38
319.212	742.38
319.441	748.38
319.67	737.38
319.9	738.38
320.129	713.38
320.358	695.38
320.587	705.38
320.816	724.38
321.046	743.38
321.275	741.38
321.504	740.38
321.733	742.38
321.962	747.38
322.191	746.38
322.42	759.38
322.649	731.38
322.878	772.38
323.108	753.38
323.337	752.38
323.566	775.38
323.795	777.38
324.024	759.38
324.253	765.38
324.482	767.38
324.71	781.38
324.939	775.38
325.168	795.38
325.397	805.38
325.626	792.38
325.855	775.38
326.084	795.38
326.313	817.38
326.542	757.38
326.77	829.38
326.999	780.38
327.228	806.38
327.457	777.38
327.686	812.38
327.914	820.38
328.143	808.38
328.372	827.38
328.6	809.38
328.829	791.38
329.058	831.38
329.287	799.38
329.515	817.38
329.744	807.38
329.972	833.38
330.201	814.38
330.43	815.38
330.658	861.38
330.887	830.38
331.115	811.38
331.344	856.38
331.572	845.38
331.801	860.38
332.03	846.38
332.258	874.38
332.486	881.38
332.715	868.38
332.943	835.38
333.172	881.38
333.4	894.38
333.629	899.38
333.857	941.38
334.085	922.38
334.314	912.38
334.542	927.38
334.771	974.38
334.999	963.38
335.227	956.38
335.455	961.38
335.684	930.38
335.912	931.38
336.14	938.38
336.369	916.38
336.597	975.38
336.825	978.38
337.053	964.38
337.281	949.38
337.51	949.38
337.738	949.38
337.966	952.38
338.194	962.38
338.422	931.38
338.65	929.38
338.878	917.38
339.106	924.38
339.334	949.38
339.562	927.38
339.79	919.38
340.018	893.38
340.246	883.38
340.474	896.38
340.702	886.38
340.93	874.38
341.158	881.38
341.386	929.38
341.614	978.38
341.842	913.38
342.07	873.38
342.298	905.38
342.526	905.38
342.754	870.38
342.981	865.38
343.209	891.38
343.437	947.38
343.665	938.38
343.893	937.38
344.12	952.38
344.348	967.38
344.576	949.38
344.804	961.38
345.031	913.38
345.259	902.38
345.487	917.38
345.714	927.38
345.942	967.38
346.17	947.38
346.397	913.38
346.625	867.38
346.853	866.38
347.08	849.38
347.308	887.38
347.535	882.38
347.763	858.38
347.99	854.38
348.218	858.38
348.445	867.38
348.673	843.38
348.9	824.38
349.128	863.38
349.355	866.38
349.583	896.38
349.81	858.38
350.037	836.38
350.265	857.38
350.492	848.38
350.72	860.38
350.947	848.38
351.174	880.38
351.402	905.38
351.629	902.38
351.856	869.38
352.083	868.38
352.311	898.38
352.538	883.38
352.765	908.38
352.992	843.38
353.22	837.38
353.447	822.38
353.674	817.38
353.901	832.38
354.128	837.38
354.355	824.38
354.583	812.38
354.81	808.38
355.037	807.38
355.264	853.38
355.491	841.38
355.718	823.38
355.945	819.38
356.172	852.38
356.399	844.38
356.626	866.38
356.853	857.38
357.08	833.38
357.307	831.38
357.534	849.38
357.761	810.38
357.988	837.38
358.215	840.38
358.441	835.38
358.668	823.38
358.895	841.38
359.122	833.38
359.349	829.38
359.576	817.38
359.802	848.38
360.029	854.38
360.256	819.38
360.483	815.38
360.709	834.38
360.936	856.38
361.163	867.38
361.39	846.38
361.616	864.38
361.843	869.38
362.07	917.38
362.296	895.38
362.523	853.38
362.749	849.38
362.976	853.38
363.203	872.38
363.429	835.38
363.656	828.38
363.882	839.38
364.109	821.38
364.335	857.38
364.562	832.38
364.788	829.38
365.015	821.38
365.241	848.38
365.468	816.38
365.694	825.38
365.92	822.38
366.147	841.38
366.373	850.38
366.599	873.38
366.826	851.38
367.052	813.38
367.278	854.38
367.505	841.38
367.731	836.38
367.957	819.38
368.184	853.38
368.41	883.38
368.636	842.38
368.862	855.38
369.089	835.38
369.315	860.38
369.541	861.38
369.767	870.38
369.993	861.38
370.219	865.38
370.445	867.38
370.672	854.38
370.898	876.38
371.124	877.38
371.35	856.38
371.576	887.38
371.802	899.38
372.028	891.38
372.254	919.38
372.48	919.38
372.706	920.38
372.932	924.38
373.158	899.38
373.384	901.38
373.61	895.38
373.835	893.38
374.061	893.38
374.287	904.38
374.513	923.38
374.739	920.38
374.965	932.38
375.191	912.38
375.416	935.38
375.642	898.38
375.868	893.38
376.094	885.38
376.319	894.38
376.545	907.38
376.771	881.38
376.997	895.38
377.222	900.38
377.448	867.38
377.674	892.38
377.899	867.38
378.125	876.38
378.35	891.38
378.576	879.38
378.802	857.38
379.027	865.38
379.253	885.38
379.478	890.38
379.704	890.38
379.929	896.38
380.155	876.38
380.38	868.38
380.606	868.38
380.831	915.38
381.057	870.38
381.282	886.38
381.507	872.38
381.733	851.38
381.958	885.38
382.184	885.38
382.409	896.38
382.634	895.38
382.86	928.38
383.085	914.38
383.31	932.38
383.535	931.38
383.761	915.38
383.986	933.38
384.211	946.38
384.436	975.38
384.662	949.38
384.887	968.38
385.112	961.38
385.337	965.38
385.562	972.38
385.787	970.38
386.013	1017.38
386.238	986.38
386.463	989.38
386.688	992.38
386.913	999.38
387.138	991.38
387.363	988.38
387.588	996.38
387.813	1017.38
388.038	1037.38
388.263	998.38
388.488	1010.38
388.713	991.38
388.938	1011.38
389.163	962.38
389.387	1011.38
389.612	1009.38
389.837	1034.38
390.062	1002.38
390.287	1010.38
390.512	1010.38
390.736	1038.38
390.961	1029.38
391.186	1011.38
391.411	1037.38
391.636	1044.38
391.86	1028.38
392.085	1042.38
392.31	1076.38
392.534	1062.38
392.759	1061.38
392.984	1036.38
393.208	1058.38
393.433	1050.38
393.658	1048.38
393.882	1041.38
394.107	1031.38
394.331	1057.38
394.556	1043.38
394.78	1026.38
395.005	1030.38
395.229	1046.38
395.454	1087.38
395.678	1090.38
395.903	1066.38
396.127	1074.38
396.352	1059.38
396.576	1087.38
396.801	1096.38
397.025	1070.38
397.249	1079.38
397.474	1115.38
397.698	1105.38
397.922	1105.38
398.147	1122.38
398.371	1147.38
398.595	1157.38
398.82	1189.38
399.044	1214.38
399.268	1244.38
399.492	1284.38
399.717	1345.38
399.941	1374.38
400.165	1357.38
400.389	1331.38
400.613	1265.38
400.837	1228.38
401.062	1248.38
401.286	1237.38
401.51	1236.38
401.734	1200.38
401.958	1175.38
402.182	1188.38
402.406	1181.38
402.63	1169.38
402.854	1170.38
403.078	1168.38
403.302	1189.38
403.526	1184.38
403.75	1186.38
403.974	1206.38
404.198	1208.38
404.422	1224.38
404.645	1195.38
404.869	1199.38
405.093	1223.38
405.317	1183.38
405.541	1261.38
405.765	1204.38
405.988	1236.38
406.212	1240.38
406.436	1298.38
406.66	1260.38
406.883	1263.38
407.107	1353.38
407.331	1346.38
407.555	1399.38
407.778	1371.38
408.002	1381.38
408.226	1385.38
408.449	1352.38
408.673	1337.38
408.896	1319.38
409.12	1319.38
409.344	1282.38
409.567	1260.38
409.791	1269.38
410.014	1287.38
410.238	1254.38
410.461	1249.38
410.685	1289.38
410.908	1239.38
411.132	1231.38
411.355	1226.38
411.578	1232.38
411.802	1235.38
412.025	1218.38
412.249	1234.38
412.472	1237.38
412.695	1236.38
412.919	1199.38
413.142	1211.38
413.365	1225.38
413.589	1216.38
413.812	1203.38
414.035	1184.38
414.258	1187.38
414.482	1160.38
414.705	1183.38
414.928	1171.38
415.151	1168.38
415.374	1181.38
415.597	1161.38
415.821	1163.38
416.044	1180.38
416.267	1155.38
416.49	1155.38
416.713	1176.38
416.936	1193.38
417.159	1151.38
417.382	1159.38
417.605	1122.38
417.828	1146.38
418.051	1161.38
418.274	1128.38
418.497	1134.38
418.72	1132.38
418.943	1143.38
419.166	1211.38
419.389	1283.38
419.611	1245.38
419.834	1219.38
420.057	1228.38
420.28	1159.38
420.503	1117.38
420.726	1135.38
420.948	1140.38
421.171	1132.38
421.394	1150.38
421.617	1137.38
421.839	1120.38
422.062	1145.38
422.285	1127.38
422.507	1148.38
422.73	1173.38
422.953	1152.38
423.175	1109.38
423.398	1151.38
423.621	1151.38
423.843	1160.38
424.066	1128.38
424.288	1168.38
424.511	1135.38
424.733	1119.38
424.956	1128.38
425.178	1117.38
425.401	1147.38
425.623	1165.38
425.846	1140.38
426.068	1093.38
426.291	1153.38
426.513	1115.38
426.735	1121.38
426.958	1124.38
427.18	1088.38
427.402	1123.38
427.625	1112.38
427.847	1085.38
428.069	1109.38
428.292	1119.38
428.514	1096.38
428.736	1076.38
428.958	1131.38
429.181	1105.38
429.403	1084.38
429.625	1091.38
429.847	1098.38
430.069	1085.38
430.292	1069.38
430.514	1100.38
430.736	1098.38
430.958	1108.38
431.18	1075.38
431.402	1104.38
431.624	1107.38
431.846	1089.38
432.068	1109.38
432.29	1142.38
432.512	1104.38
432.734	1115.38
432.956	1095.38
433.178	1111.38
433.4	1161.38
433.622	1129.38
433.844	1153.38
434.066	1140.38
434.287	1123.38
434.509	1112.38
434.731	1157.38
434.953	1170.38
435.175	1172.38
435.397	1217.38
435.618	1175.38
435.84	1121.38
436.062	1127.38
436.284	1136.38
436.505	1117.38
436.727	1119.38
436.949	1115.38
437.17	1123.38
437.392	1127.38
437.614	1105.38
437.835	1068.38
438.057	1061.38
438.278	1056.38
438.5	1080.38
438.721	1071.38
438.943	1069.38
439.165	1063.38
439.386	1100.38
439.608	1095.38
439.829	1090.38
440.05	1105.38
440.272	1082.38
440.493	1097.38
440.715	1141.38
440.936	1111.38
441.158	1101.38
441.379	1089.38
441.6	1159.38
441.822	1144.38
442.043	1136.38
442.264	1151.38
442.486	1151.38
442.707	1168.38
442.928	1128.38
443.149	1147.38
443.371	1165.38
443.592	1200.38
443.813	1211.38
444.034	1181.38
444.255	1157.38
444.476	1175.38
444.698	1200.38
444.919	1251.38
445.14	1332.38
445.361	1270.38
445.582	1214.38
445.803	1163.38
446.024	1129.38
446.245	1151.38
446.466	1157.38
446.687	1084.38
446.908	1115.38
447.129	1100.38
447.35	1081.38
447.571	1080.38
447.792	1055.38
448.013	1038.38
448.234	1031.38
448.455	1043.38
448.675	1030.38
448.896	1027.38
449.117	1000.38
449.338	1034.38
449.559	997.38
449.779	1018.38
450	1019.38
450.221	1014.38
450.442	1008.38
450.662	1042.38
450.883	1045.38
451.104	1058.38
451.324	1029.38
451.545	998.38
451.766	1015.38
451.986	1004.38
452.207	981.38
452.428	991.38
452.648	997.38
452.869	981.38
453.089	1003.38
453.31	1005.38
453.53	993.38
453.751	991.38
453.971	987.38
454.192	1038.38
454.412	1030.38
454.633	963.38
454.853	981.38
455.073	943.38
455.294	995.38
455.514	962.38
455.734	998.38
455.955	1027.38
456.175	1010.38
456.395	977.38
456.616	956.38
456.836	1000.38
457.056	995.38
457.276	971.38
457.497	996.38
457.717	1032.38
457.937	1006.38
458.157	1026.38
458.377	993.38
458.598	1033.38
458.818	1028.38
459.038	1024.38
459.258	1072.38
459.478	1148.38
459.698	1204.38
459.918	1200.38
460.138	1216.38
460.358	1216.38
460.578	1197.38
460.798	1261.38
461.018	1239.38
461.238	1237.38
461.458	1227.38
461.678	1181.38
461.898	1179.38
462.118	1200.38
462.338	1249.38
462.558	1312.38
462.777	1289.38
462.997	1335.38
463.217	1367.38
463.437	1394.38
463.657	1343.38
463.876	1323.38
464.096	1289.38
464.316	1299.38
464.536	1268.38
464.755	1263.38
464.975	1262.38
465.195	1199.38
465.414	1205.38
465.634	1149.38
465.854	1141.38
466.073	1124.38
466.293	1104.38
466.512	1083.38
466.732	1083.38
466.951	1077.38
467.171	1096.38
467.391	1086.38
467.61	1076.38
467.829	1052.38
468.049	1067.38
468.268	1056.38
468.488	1081.38
468.707	1052.38
468.927	1066.38
469.146	1041.38
469.365	1111.38
469.585	1072.38
469.804	1093.38
470.023	1080.38
470.243	1067.38
470.462	1072.38
470.681	1068.38
470.901	1096.38
471.12	1056.38
471.339	1061.38
471.558	1056.38
471.777	1054.38
471.997	1090.38
472.216	1073.38
472.435	1051.38
472.654	1035.38
472.873	1051.38
473.092	1049.38
473.311	1062.38
473.53	1072.38
473.749	1093.38
473.968	1074.38
474.187	1044.38
474.406	1020.38
474.625	1097.38
474.844	1085.38
475.063	1077.38
475.282	1083.38
475.501	1088.38
475.72	1076.38
475.939	1066.38
476.158	1077.38
476.377	1122.38
476.596	1082.38
476.814	1137.38
477.033	1106.38
477.252	1114.38
477.471	1137.38
477.69	1163.38
477.908	1165.38
478.127	1196.38
478.346	1191.38
478.564	1220.38
478.783	1228.38
479.002	1259.38
479.22	1288.38
479.439	1248.38
479.658	1238.38
479.876	1239.38
480.095	1221.38
480.313	1240.38
480.532	1280.38
480.751	1244.38
480.969	1250.38
481.188	1220.38
481.406	1251.38
481.624	1230.38
481.843	1214.38
482.061	1205.38
482.28	1218.38
482.498	1213.38
482.717	1251.38
482.935	1255.38
483.153	1259.38
483.372	1260.38
483.59	1315.38
483.808	1279.38
484.027	1261.38
484.245	1234.38
484.463	1263.38
484.681	1291.38
484.9	1283.38
485.118	1224.38
485.336	1258.38
485.554	1267.38
485.772	1281.38
485.99	1254.38
486.209	1236.38
486.427	1242.38
486.645	1248.38
486.863	1250.38
487.081	1269.38
487.299	1288.38
487.517	1251.38
487.735	1295.38
487.953	1301.38
488.171	1270.38
488.389	1283.38
488.607	1269.38
488.825	1279.38
489.043	1275.38
489.261	1254.38
489.479	1257.38
489.696	1264.38
489.914	1256.38
490.132	1263.38
490.35	1288.38
490.568	1292.38
490.786	1244.38
491.003	1258.38
491.221	1289.38
491.439	1313.38
491.657	1291.38
491.874	1280.38
492.092	1312.38
492.31	1311.38
492.527	1351.38
492.745	1316.38
492.963	1334.38
493.18	1283.38
493.398	1345.38
493.615	1336.38
493.833	1341.38
494.05	1338.38
494.268	1323.38
494.485	1320.38
494.703	1330.38
494.92	1329.38
495.138	1382.38
495.355	1367.38
495.573	1340.38
495.79	1352.38
496.008	1366.38
496.225	1372.38
496.442	1416.38
496.66	1395.38
496.877	1407.38
497.094	1445.38
497.312	1461.38
497.529	1464.38
497.746	1514.38
497.963	1504.38
498.181	1552.38
498.398	1592.38
498.615	1651.38
498.832	1692.38
499.049	1719.38
499.267	1845.38
499.484	1860.38
499.701	1941.38
499.918	2043.38
500.135	2115.38
500.352	2175.38
500.569	2228.38
500.786	2226.38
501.003	2187.38
501.22	2079.38
501.437	2052.38
501.654	1933.38
501.871	1905.38
502.088	1813.38
502.305	1704.38
502.522	1724.38
502.739	1663.38
502.956	1618.38
503.172	1581.38
503.389	1540.38
503.606	1515.38
503.823	1463.38
504.04	1467.38
504.256	1421.38
504.473	1421.38
504.69	1393.38
504.907	1380.38
505.123	1393.38
505.34	1369.38
505.557	1330.38
505.773	1309.38
505.99	1290.38
506.207	1225.38
506.423	1235.38
506.64	1250.38
506.856	1203.38
507.073	1209.38
507.289	1205.38
507.506	1167.38
507.722	1173.38
507.939	1184.38
508.155	1151.38
508.372	1153.38
508.588	1155.38
508.805	1154.38
509.021	1141.38
509.238	1116.38
509.454	1099.38
509.67	1103.38
509.887	1105.38
510.103	1111.38
510.319	1129.38
510.536	1096.38
510.752	1090.38
510.968	1051.38
511.184	1091.38
511.401	1081.38
511.617	1080.38
511.833	1083.38
512.049	1074.38
512.265	1067.38
512.481	1105.38
512.698	1090.38
512.914	1090.38
513.13	1077.38
513.346	1091.38
513.562	1080.38
513.778	1092.38
513.994	1097.38
514.21	1102.38
514.426	1076.38
514.642	1064.38
514.858	1057.38
515.074	1090.38
515.29	1075.38
515.506	1109.38
515.721	1105.38
515.937	1105.38
516.153	1100.38
516.369	1098.38
516.585	1116.38
516.801	1165.38
517.016	1159.38
517.232	1176.38
517.448	1182.38
517.664	1209.38
517.879	1176.38
518.095	1155.38
518.311	1202.38
518.527	1160.38
518.742	1156.38
518.958	1129.38
519.173	1088.38
519.389	1126.38
519.605	1105.38
519.82	1062.38
520.036	1082.38
520.251	1081.38
520.467	1073.38
520.682	1044.38
520.898	1015.38
521.113	1022.38
521.329	1021.38
521.544	1012.38
521.76	1016.38
521.975	1016.38
522.19	1012.38
522.406	984.38
522.621	1007.38
522.836	993.38
523.052	991.38
523.267	959.38
523.482	1007.38
523.698	987.38
523.913	973.38
524.128	996.38
524.343	947.38
524.559	1005.38
524.774	978.38
524.989	983.38
525.204	992.38
525.419	935.38
525.634	951.38
525.849	950.38
526.064	956.38
526.28	916.38
526.495	934.38
526.71	945.38
526.925	922.38
527.14	938.38
527.355	918.38
527.57	960.38
527.785	927.38
527.999	922.38
528.214	921.38
528.429	902.38
528.644	952.38
528.859	931.38
529.074	933.38
529.289	955.38
529.503	947.38
529.718	930.38
529.933	907.38
530.148	934.38
530.363	920.38
530.577	908.38
530.792	909.38
531.007	913.38
531.221	895.38
531.436	920.38
531.651	901.38
531.865	908.38
532.08	933.38
532.295	924.38
532.509	895.38
532.724	903.38
532.938	912.38
533.153	908.38
533.367	875.38
533.582	908.38
533.796	879.38
534.011	913.38
534.225	868.38
534.44	876.38
534.654	890.38
534.868	891.38
535.083	896.38
535.297	892.38
535.511	861.38
535.726	859.38
535.94	863.38
536.154	856.38
536.369	870.38
536.583	860.38
536.797	852.38
537.011	817.38
537.225	840.38
537.44	867.38
537.654	822.38
537.868	856.38
538.082	841.38
538.296	853.38
538.51	865.38
538.724	865.38
538.938	862.38
539.153	837.38
539.367	849.38
539.581	851.38
539.795	839.38
540.009	797.38
540.222	820.38
540.436	830.38
540.65	832.38
540.864	836.38
541.078	813.38
541.292	806.38
541.506	837.38
541.72	817.38
541.934	835.38
542.147	848.38
542.361	839.38
542.575	828.38
542.789	839.38
543.002	797.38
543.216	845.38
543.43	856.38
543.644	807.38
543.857	819.38
544.071	812.38
544.285	852.38
544.498	819.38
544.712	818.38
544.925	837.38
545.139	832.38
545.352	825.38
545.566	849.38
545.779	849.38
545.993	840.38
546.206	834.38
546.42	814.38
546.633	833.38
546.847	840.38
547.06	825.38
547.274	815.38
547.487	839.38
547.7	830.38
547.914	839.38
548.127	825.38
548.34	854.38
548.554	812.38
548.767	822.38
548.98	836.38
549.193	812.38
549.407	834.38
549.62	812.38
549.833	820.38
550.046	817.38
550.259	815.38
550.473	815.38
550.686	819.38
550.899	829.38
551.112	831.38
551.325	824.38
551.538	821.38
551.751	796.38
551.964	817.38
552.177	808.38
552.39	807.38
552.603	810.38
552.816	843.38
553.029	828.38
553.242	834.38
553.455	824.38
553.667	818.38
553.88	819.38
554.093	817.38
554.306	801.38
554.519	803.38
554.732	796.38
554.944	751.38
555.157	767.38
555.37	786.38
555.583	776.38
555.795	757.38
556.008	754.38
556.221	740.38
556.433	728.38
556.646	716.38
556.859	716.38
557.071	720.38
557.284	722.38
557.496	723.38
557.709	723.38
557.921	709.38
558.134	713.38
558.346	703.38
558.559	731.38
558.771	702.38
558.984	724.38
559.196	726.38
559.409	698.38
559.621	709.38
559.833	697.38
560.046	693.38
560.258	684.38
560.47	700.38
560.683	682.38
560.895	681.38
561.107	682.38
561.32	666.38
561.532	691.38
561.744	698.38
561.956	669.38
562.168	695.38
562.381	681.38
562.593	685.38
562.805	693.38
563.017	691.38
563.229	691.38
563.441	706.38
563.653	725.38
563.865	717.38
564.077	689.38
564.289	695.38
564.501	712.38
564.713	705.38
564.925	733.38
565.137	732.38
565.349	723.38
565.561	780.38
565.773	767.38
565.985	799.38
566.197	803.38
566.408	813.38
566.62	828.38
566.832	829.38
567.044	842.38
567.255	880.38
567.467	840.38
567.679	855.38
567.891	869.38
568.102	893.38
568.314	847.38
568.526	798.38
568.737	781.38
568.949	808.38
569.161	758.38
569.372	750.38
569.584	707.38
569.795	698.38
570.007	679.38
570.218	676.38
570.43	652.38
570.641	690.38
570.853	665.38
571.064	665.38
571.276	658.38
571.487	627.38
571.698	624.38
571.91	621.38
572.121	602.38
572.333	613.38
572.544	616.38
572.755	586.38
572.966	599.38
573.178	600.38
573.389	597.38
573.6	565.38
573.811	577.38
574.023	574.38
574.234	544.38
574.445	558.38
574.656	567.38
574.867	544.38
575.078	537.38
575.289	562.38
575.501	569.38
575.712	532.38
575.923	549.38
576.134	550.38
576.345	547.38
576.556	517.38
576.767	552.38
576.978	507.38
577.188	532.38
577.399	522.38
577.61	506.38
577.821	520.38
578.032	495.38
578.243	514.38
578.454	506.38
578.665	514.38
578.875	498.38
579.086	499.38
579.297	501.38
579.508	519.38
579.718	493.38
579.929	495.38
580.14	496.38
580.35	482.38
580.561	499.38
580.772	495.38
580.982	500.38
581.193	479.38
581.403	468.38
581.614	480.38
581.825	463.38
582.035	461.38
582.246	465.38
582.456	454.38
582.667	465.38
582.877	482.38
583.087	468.38
583.298	478.38
583.508	446.38
583.719	468.38
583.929	470.38
584.139	475.38
584.35	462.38
584.56	441.38
584.77	471.38
584.981	451.38
585.191	447.38
585.401	444.38
585.611	437.38
585.821	473.38
586.032	437.38
586.242	454.38
586.452	463.38
586.662	437.38
586.872	461.38
587.082	440.38
587.292	441.38
587.502	451.38
587.713	449.38
587.923	469.38
588.133	424.38
588.343	452.38
588.553	459.38
588.762	442.38
588.972	459.38
589.182	520.38
589.392	479.38
589.602	448.38
589.812	463.38
590.022	464.38
590.232	450.38
590.441	443.38
590.651	431.38
590.861	446.38
591.071	447.38
591.281	440.38
591.49	448.38
591.7	445.38
591.91	448.38
592.119	444.38
592.329	462.38
592.539	477.38
592.748	472.38
592.958	473.38
593.167	449.38
593.377	476.38
593.587	480.38
593.796	481.38
594.006	467.38
594.215	462.38
594.424	465.38
594.634	455.38
594.843	453.38
595.053	488.38
595.262	425.38
595.472	450.38
595.681	433.38
595.89	420.38
596.1	428.38
596.309	427.38
596.518	423.38
596.727	423.38
596.937	393.38
597.146	417.38
597.355	426.38
597.564	415.38
597.774	405.38
597.983	396.38
598.192	400.38
598.401	406.38
598.61	400.38
598.819	386.38
599.028	383.38
599.237	400.38
599.446	375.38
599.655	389.38
599.864	383.38
600.073	376.38
600.282	394.38
600.491	391.38
600.7	381.38
600.909	367.38
601.118	360.38
601.327	394.38
601.536	367.38
601.745	373.38
601.953	380.38
602.162	358.38
602.371	356.38
602.58	355.38
602.789	356.38
602.997	345.38
603.206	362.38
603.415	370.38
603.623	371.38
603.832	374.38
604.041	352.38
604.249	362.38
604.458	353.38
604.666	353.38
604.875	359.38
605.084	343.38
605.292	354.38
605.501	346.38
605.709	341.38
605.918	324.38
606.126	333.38
606.334	348.38
606.543	349.38
606.751	356.38
606.96	340.38
607.168	352.38
607.376	343.38
607.585	333.38
607.793	332.38
608.001	337.38
608.21	348.38
608.418	345.38
608.626	343.38
608.834	334.38
609.043	334.38
609.251	341.38
609.459	344.38
609.667	327.38
609.875	332.38
610.083	339.38
610.291	347.38
610.499	357.38
610.707	330.38
610.916	329.38
611.124	317.38
611.332	336.38
611.54	340.38
611.748	330.38
611.955	332.38
612.163	325.38
612.371	329.38
612.579	347.38
612.787	322.38
612.995	329.38
613.203	348.38
613.411	327.38
613.618	320.38
613.826	305.38
614.034	332.38
614.242	332.38
614.449	339.38
614.657	327.38
614.865	321.38
615.072	320.38
615.28	307.38
615.488	311.38
615.695	333.38
615.903	327.38
616.111	320.38
616.318	352.38
616.526	318.38
616.733	326.38
616.941	304.38
617.148	320.38
617.356	301.38
617.563	312.38
617.771	305.38
617.978	313.38
618.185	331.38
618.393	296.38
618.6	309.38
618.807	291.38
619.015	319.38
619.222	293.38
619.429	319.38
619.637	313.38
619.844	321.38
620.051	320.38
620.258	301.38
620.466	296.38
620.673	293.38
620.88	292.38
621.087	287.38
621.294	292.38
621.501	296.38
621.708	290.38
621.915	307.38
622.122	276.38
622.329	284.38
622.536	305.38
622.743	295.38
622.95	296.38
623.157	290.38
623.364	288.38
623.571	285.38
623.778	312.38
623.985	278.38
624.192	276.38
624.399	292.38
624.606	289.38
624.812	289.38
625.019	293.38
625.226	297.38
625.433	288.38
625.639	274.38
625.846	283.38
626.053	275.38
626.259	271.38
626.466	282.38
626.673	263.38
626.879	266.38
627.086	269.38
627.293	277.38
627.499	283.38
627.706	290.38
627.912	288.38
628.119	279.38
628.325	278.38
628.532	259.38
628.738	263.38
628.945	260.38
629.151	279.38
629.357	279.38
629.564	274.38
629.77	270.38
629.976	276.38
630.183	237.38
630.389	267.38
630.595	260.38
630.802	266.38
631.008	264.38
631.214	253.38
631.42	259.38
631.627	264.38
631.833	265.38
632.039	261.38
632.245	236.38
632.451	252.38
632.657	240.38
632.863	262.38
633.069	245.38
633.275	259.38
633.481	234.38
633.688	252.38
633.893	264.38
634.099	263.38
634.305	253.38
634.511	247.38
634.717	245.38
634.923	243.38
635.129	235.38
635.335	251.38
635.541	243.38
635.747	257.38
635.952	255.38
636.158	266.38
636.364	264.38
636.57	254.38
636.775	240.38
636.981	237.38
637.187	248.38
637.392	243.38
637.598	243.38
637.804	263.38
638.009	242.38
638.215	256.38
638.421	257.38
638.626	251.38
638.832	240.38
639.037	226.38
639.243	243.38
639.448	257.38
639.654	233.38
639.859	234.38
640.065	232.38
640.27	236.38
640.475	242.38
640.681	225.38
640.886	231.38
641.091	244.38
641.297	241.38
641.502	222.38
641.707	247.38
641.913	237.38
642.118	219.38
642.323	222.38
642.528	223.38
642.733	241.38
642.939	232.38
643.144	261.38
643.349	247.38
643.554	227.38
643.759	227.38
643.964	236.38
644.169	228.38
644.374	224.38
644.579	234.38
644.784	236.38
644.989	221.38
645.194	226.38
645.399	245.38
645.604	240.38
645.809	227.38
646.014	218.38
646.219	241.38
646.423	235.38
646.628	251.38
646.833	241.38
647.038	235.38
647.243	223.38
647.447	230.38
647.652	240.38
647.857	246.38
648.062	253.38
648.266	241.38
648.471	247.38
648.676	240.38
648.88	255.38
649.085	244.38
649.289	256.38
649.494	242.38
649.698	252.38
649.903	258.38
650.107	255.38
650.312	263.38
650.516	240.38
650.721	232.38
650.925	233.38
651.13	243.38
651.334	226.38
651.539	230.38
651.743	217.38
651.947	219.38
652.152	215.38
652.356	232.38
652.56	215.38
652.764	229.38
652.969	221.38
653.173	242.38
653.377	209.38
653.581	197.38
653.785	200.38
653.99	217.38
654.194	215.38
654.398	221.38
654.602	210.38
654.806	227.38
655.01	208.38
655.214	216.38
655.418	209.38
655.622	199.38
655.826	214.38
656.03	213.38
656.234	199.38
656.438	205.38
656.642	202.38
656.846	197.38
657.049	199.38
657.253	184.38
657.457	187.38
657.661	177.38
657.865	170.38
658.068	161.38
658.272	153.38
658.476	157.38
658.68	151.38
658.883	147.38
659.087	150.38
659.291	124.38
659.494	131.38
659.698	116.38
659.901	123.38
660.105	127.38
660.309	119.38
660.512	121.38
660.716	98.38
660.919	121.38
661.123	107.38
661.326	104.38
661.53	99.38
661.733	121.38
661.936	102.38
662.14	101.38
662.343	108.38
662.546	90.38
662.75	104.38
662.953	93.38
663.156	92.38
663.36	75.38
663.563	96.38
663.766	77.38
663.969	96.38
664.173	82.38
664.376	83.38
664.579	75.38
664.782	76.38
664.985	81.38
665.188	75.38
665.391	84.38
665.594	77.38
665.797	87.38
666	80.38
666.203	87.38
666.406	89.38
666.609	89.38
666.812	81.38
667.015	66.38
667.218	78.38
667.421	79.38
667.624	77.38
667.827	78.38
668.03	90.38
668.232	83.38
668.435	79.38
668.638	89.38
668.841	93.38
669.043	71.38
669.246	71.38
669.449	96.38
669.651	83.38
669.854	92.38
670.057	75.38
670.259	69.38
670.462	64.38
670.665	64.38
670.867	74.38
671.07	73.38
671.272	84.38
671.475	90.38
671.677	75.38
671.88	68.38
672.082	74.38
672.284	87.38
672.487	84.38
672.689	74.38
672.892	87.38
