Data from Ni(NO3)2@0.125M.TitratingCurve.Agarose3%dH2O.NegLispCup.LampEnergy10.LIBS07252019_HRD10591_18-11-30-569.txt Node
Date: Thu Jul 25 18:11:30 EDT 2019
User: cochatt
Spectrometer: HR+D1059
Trigger mode: 1
Integration Time (sec): 1.000000E-1
Scans to average: 1
Electric dark correction enabled: true
Nonlinearity correction enabled: false
Boxcar width: 0
XAxis mode: Wavelengths
Number of Pixels in Spectrum: 2048
>>>>>Begin Spectral Data<<<<<
223.165	-21.31
223.4	-21.31
223.635	-21.31
223.869	-16.31
224.104	-19.31
224.338	-11.31
224.573	-14.31
224.808	-25.31
225.042	0.69
225.277	4.69
225.511	-2.31
225.746	7.69
225.98	3.69
226.215	7.69
226.449	11.69
226.683	17.69
226.918	23.69
227.152	32.69
227.387	31.69
227.621	28.69
227.856	38.69
228.09	42.69
228.324	45.69
228.559	47.69
228.793	59.69
229.027	92.69
229.262	106.69
229.496	118.69
229.73	113.69
229.964	122.69
230.199	136.69
230.433	130.69
230.667	123.69
230.901	142.69
231.136	132.69
231.37	132.69
231.604	144.69
231.838	150.69
232.072	144.69
232.306	147.69
232.541	161.69
232.775	146.69
233.009	152.69
233.243	154.69
233.477	156.69
233.711	148.69
233.945	157.69
234.179	148.69
234.413	164.69
234.647	156.69
234.881	153.69
235.115	136.69
235.349	135.69
235.583	151.69
235.817	159.69
236.051	160.69
236.285	165.69
236.519	170.69
236.753	157.69
236.987	166.69
237.221	145.69
237.455	166.69
237.689	160.69
237.922	165.69
238.156	177.69
238.39	166.69
238.624	184.69
238.858	155.69
239.091	169.69
239.325	173.69
239.559	162.69
239.793	170.69
240.027	183.69
240.26	200.69
240.494	198.69
240.728	189.69
240.961	192.69
241.195	196.69
241.429	178.69
241.662	186.69
241.896	197.69
242.13	198.69
242.363	182.69
242.597	183.69
242.83	200.69
243.064	192.69
243.298	199.69
243.531	189.69
243.765	200.69
243.998	219.69
244.232	207.69
244.465	215.69
244.699	209.69
244.932	211.69
245.166	231.69
245.399	202.69
245.633	212.69
245.866	214.69
246.099	231.69
246.333	224.69
246.566	226.69
246.8	232.69
247.033	230.69
247.266	241.69
247.5	224.69
247.733	225.69
247.966	238.69
248.2	242.69
248.433	235.69
248.666	254.69
248.899	240.69
249.133	246.69
249.366	246.69
249.599	263.69
249.832	237.69
250.066	248.69
250.299	245.69
250.532	256.69
250.765	253.69
250.998	260.69
251.231	240.69
251.465	257.69
251.698	267.69
251.931	287.69
252.164	264.69
252.397	268.69
252.63	270.69
252.863	282.69
253.096	281.69
253.329	281.69
253.562	290.69
253.795	284.69
254.028	291.69
254.261	293.69
254.494	290.69
254.727	284.69
254.96	282.69
255.193	297.69
255.426	282.69
255.659	308.69
255.892	288.69
256.124	300.69
256.357	290.69
256.59	330.69
256.823	301.69
257.056	285.69
257.289	314.69
257.521	311.69
257.754	321.69
257.987	302.69
258.22	311.69
258.452	326.69
258.685	305.69
258.918	297.69
259.151	317.69
259.383	320.69
259.616	308.69
259.849	321.69
260.081	315.69
260.314	324.69
260.547	327.69
260.779	327.69
261.012	349.69
261.244	321.69
261.477	333.69
261.71	331.69
261.942	328.69
262.175	322.69
262.407	349.69
262.64	337.69
262.872	338.69
263.105	342.69
263.337	348.69
263.57	366.69
263.802	338.69
264.035	342.69
264.267	346.69
264.499	342.69
264.732	364.69
264.964	376.69
265.197	359.69
265.429	347.69
265.661	371.69
265.894	376.69
266.126	382.69
266.358	366.69
266.591	352.69
266.823	373.69
267.055	380.69
267.287	403.69
267.52	370.69
267.752	364.69
267.984	378.69
268.216	384.69
268.448	377.69
268.681	363.69
268.913	365.69
269.145	394.69
269.377	402.69
269.609	388.69
269.841	375.69
270.073	385.69
270.306	389.69
270.538	393.69
270.77	385.69
271.002	391.69
271.234	402.69
271.466	402.69
271.698	389.69
271.93	375.69
272.162	396.69
272.394	404.69
272.626	395.69
272.858	382.69
273.09	405.69
273.322	404.69
273.553	387.69
273.785	406.69
274.017	412.69
274.249	410.69
274.481	424.69
274.713	410.69
274.945	414.69
275.176	408.69
275.408	422.69
275.64	421.69
275.872	406.69
276.104	436.69
276.335	404.69
276.567	414.69
276.799	434.69
277.031	437.69
277.262	418.69
277.494	430.69
277.726	436.69
277.957	421.69
278.189	439.69
278.421	437.69
278.652	445.69
278.884	460.69
279.115	439.69
279.347	475.69
279.579	448.69
279.81	444.69
280.042	458.69
280.273	466.69
280.505	463.69
280.736	433.69
280.968	491.69
281.199	468.69
281.431	467.69
281.662	479.69
281.894	487.69
282.125	465.69
282.356	474.69
282.588	474.69
282.819	509.69
283.051	493.69
283.282	478.69
283.513	487.69
283.745	478.69
283.976	481.69
284.207	482.69
284.439	514.69
284.67	472.69
284.901	489.69
285.132	501.69
285.364	485.69
285.595	487.69
285.826	503.69
286.057	509.69
286.288	500.69
286.52	507.69
286.751	532.69
286.982	522.69
287.213	537.69
287.444	512.69
287.675	516.69
287.906	542.69
288.138	524.69
288.369	532.69
288.6	526.69
288.831	510.69
289.062	533.69
289.293	537.69
289.524	536.69
289.755	537.69
289.986	533.69
290.217	548.69
290.448	539.69
290.679	500.69
290.91	532.69
291.141	534.69
291.371	544.69
291.602	532.69
291.833	548.69
292.064	548.69
292.295	536.69
292.526	530.69
292.757	529.69
292.987	553.69
293.218	550.69
293.449	541.69
293.68	546.69
293.91	541.69
294.141	528.69
294.372	527.69
294.603	560.69
294.833	547.69
295.064	540.69
295.295	548.69
295.525	524.69
295.756	545.69
295.987	520.69
296.217	557.69
296.448	564.69
296.679	549.69
296.909	593.69
297.14	562.69
297.37	562.69
297.601	578.69
297.831	594.69
298.062	602.69
298.292	595.69
298.523	617.69
298.753	587.69
298.984	587.69
299.214	589.69
299.445	615.69
299.675	557.69
299.905	572.69
300.136	580.69
300.366	563.69
300.597	605.69
300.827	598.69
301.057	628.69
301.288	636.69
301.518	607.69
301.748	616.69
301.979	636.69
302.209	635.69
302.439	614.69
302.669	594.69
302.9	602.69
303.13	608.69
303.36	628.69
303.59	603.69
303.82	620.69
304.051	588.69
304.281	608.69
304.511	611.69
304.741	600.69
304.971	611.69
305.201	594.69
305.431	602.69
305.661	606.69
305.891	600.69
306.121	605.69
306.352	613.69
306.582	594.69
306.812	593.69
307.042	576.69
307.272	602.69
307.502	605.69
307.731	615.69
307.961	597.69
308.191	589.69
308.421	592.69
308.651	604.69
308.881	604.69
309.111	574.69
309.341	593.69
309.571	608.69
309.8	582.69
310.03	582.69
310.26	587.69
310.49	587.69
310.72	562.69
310.949	606.69
311.179	585.69
311.409	609.69
311.639	617.69
311.868	605.69
312.098	590.69
312.328	618.69
312.557	645.69
312.787	598.69
313.017	634.69
313.246	636.69
313.476	629.69
313.706	620.69
313.935	632.69
314.165	669.69
314.394	644.69
314.624	632.69
314.853	632.69
315.083	657.69
315.312	642.69
315.542	630.69
315.771	631.69
316.001	622.69
316.23	635.69
316.46	628.69
316.689	624.69
316.919	624.69
317.148	641.69
317.377	628.69
317.607	617.69
317.836	611.69
318.065	611.69
318.295	650.69
318.524	623.69
318.753	610.69
318.983	630.69
319.212	623.69
319.441	633.69
319.67	634.69
319.9	652.69
320.129	624.69
320.358	632.69
320.587	635.69
320.816	650.69
321.046	628.69
321.275	649.69
321.504	611.69
321.733	621.69
321.962	642.69
322.191	642.69
322.42	646.69
322.649	658.69
322.878	634.69
323.108	630.69
323.337	644.69
323.566	629.69
323.795	625.69
324.024	666.69
324.253	681.69
324.482	658.69
324.71	646.69
324.939	654.69
325.168	674.69
325.397	644.69
325.626	665.69
325.855	648.69
326.084	682.69
326.313	678.69
326.542	684.69
326.77	719.69
326.999	672.69
327.228	677.69
327.457	702.69
327.686	691.69
327.914	686.69
328.143	699.69
328.372	696.69
328.6	688.69
328.829	676.69
329.058	673.69
329.287	705.69
329.515	725.69
329.744	701.69
329.972	701.69
330.201	703.69
330.43	709.69
330.658	724.69
330.887	711.69
331.115	733.69
331.344	734.69
331.572	716.69
331.801	747.69
332.03	747.69
332.258	760.69
332.486	810.69
332.715	825.69
332.943	846.69
333.172	908.69
333.4	946.69
333.629	973.69
333.857	937.69
334.085	944.69
334.314	916.69
334.542	901.69
334.771	885.69
334.999	871.69
335.227	856.69
335.455	847.69
335.684	857.69
335.912	872.69
336.14	841.69
336.369	803.69
336.597	861.69
336.825	813.69
337.053	823.69
337.281	827.69
337.51	796.69
337.738	775.69
337.966	791.69
338.194	778.69
338.422	735.69
338.65	734.69
338.878	741.69
339.106	745.69
339.334	764.69
339.562	749.69
339.79	728.69
340.018	728.69
340.246	705.69
340.474	728.69
340.702	730.69
340.93	726.69
341.158	728.69
341.386	738.69
341.614	719.69
341.842	725.69
342.07	715.69
342.298	701.69
342.526	714.69
342.754	718.69
342.981	702.69
343.209	753.69
343.437	766.69
343.665	828.69
343.893	879.69
344.12	943.69
344.348	880.69
344.576	788.69
344.804	780.69
345.031	741.69
345.259	752.69
345.487	737.69
345.714	719.69
345.942	700.69
346.17	729.69
346.397	696.69
346.625	712.69
346.853	717.69
347.08	708.69
347.308	710.69
347.535	708.69
347.763	747.69
347.99	713.69
348.218	701.69
348.445	708.69
348.673	690.69
348.9	699.69
349.128	696.69
349.355	693.69
349.583	719.69
349.81	695.69
350.037	666.69
350.265	683.69
350.492	665.69
350.72	661.69
350.947	656.69
351.174	679.69
351.402	694.69
351.629	664.69
351.856	674.69
352.083	675.69
352.311	670.69
352.538	666.69
352.765	639.69
352.992	659.69
353.22	638.69
353.447	662.69
353.674	678.69
353.901	653.69
354.128	679.69
354.355	667.69
354.583	692.69
354.81	674.69
355.037	666.69
355.264	675.69
355.491	678.69
355.718	668.69
355.945	709.69
356.172	666.69
356.399	684.69
356.626	673.69
356.853	674.69
357.08	667.69
357.307	686.69
357.534	660.69
357.761	690.69
357.988	666.69
358.215	682.69
358.441	677.69
358.668	684.69
358.895	670.69
359.122	699.69
359.349	677.69
359.576	670.69
359.802	677.69
360.029	673.69
360.256	694.69
360.483	661.69
360.709	675.69
360.936	676.69
361.163	699.69
361.39	668.69
361.616	665.69
361.843	683.69
362.07	670.69
362.296	664.69
362.523	658.69
362.749	661.69
362.976	669.69
363.203	695.69
363.429	671.69
363.656	685.69
363.882	651.69
364.109	654.69
364.335	650.69
364.562	660.69
364.788	662.69
365.015	667.69
365.241	685.69
365.468	686.69
365.694	676.69
365.92	662.69
366.147	627.69
366.373	656.69
366.599	671.69
366.826	678.69
367.052	665.69
367.278	679.69
367.505	668.69
367.731	678.69
367.957	675.69
368.184	666.69
368.41	672.69
368.636	677.69
368.862	710.69
369.089	694.69
369.315	699.69
369.541	694.69
369.767	716.69
369.993	709.69
370.219	696.69
370.445	698.69
370.672	711.69
370.898	713.69
371.124	725.69
371.35	748.69
371.576	732.69
371.802	731.69
372.028	705.69
372.254	736.69
372.48	729.69
372.706	753.69
372.932	742.69
373.158	752.69
373.384	735.69
373.61	750.69
373.835	746.69
374.061	713.69
374.287	746.69
374.513	744.69
374.739	792.69
374.965	812.69
375.191	833.69
375.416	826.69
375.642	806.69
375.868	788.69
376.094	764.69
376.319	747.69
376.545	749.69
376.771	726.69
376.997	736.69
377.222	733.69
377.448	753.69
377.674	728.69
377.899	709.69
378.125	724.69
378.35	740.69
378.576	738.69
378.802	736.69
379.027	716.69
379.253	700.69
379.478	711.69
379.704	720.69
379.929	739.69
380.155	731.69
380.38	721.69
380.606	729.69
380.831	730.69
381.057	742.69
381.282	736.69
381.507	718.69
381.733	749.69
381.958	722.69
382.184	752.69
382.409	733.69
382.634	751.69
382.86	745.69
383.085	758.69
383.31	798.69
383.535	793.69
383.761	813.69
383.986	839.69
384.211	814.69
384.436	853.69
384.662	870.69
384.887	869.69
385.112	864.69
385.337	872.69
385.562	886.69
385.787	920.69
386.013	892.69
386.238	897.69
386.463	891.69
386.688	882.69
386.913	876.69
387.138	883.69
387.363	852.69
387.588	888.69
387.813	867.69
388.038	861.69
388.263	852.69
388.488	896.69
388.713	874.69
388.938	880.69
389.163	870.69
389.387	859.69
389.612	858.69
389.837	866.69
390.062	873.69
390.287	854.69
390.512	861.69
390.736	889.69
390.961	893.69
391.186	913.69
391.411	902.69
391.636	953.69
391.86	968.69
392.085	984.69
392.31	1000.69
392.534	983.69
392.759	956.69
392.984	930.69
393.208	916.69
393.433	910.69
393.658	929.69
393.882	930.69
394.107	940.69
394.331	929.69
394.556	938.69
394.78	933.69
395.005	954.69
395.229	950.69
395.454	954.69
395.678	995.69
395.903	979.69
396.127	977.69
396.352	933.69
396.576	923.69
396.801	938.69
397.025	952.69
397.249	943.69
397.474	969.69
397.698	999.69
397.922	1019.69
398.147	954.69
398.371	1016.69
398.595	1029.69
398.82	1099.69
399.044	1123.69
399.268	1266.69
399.492	1492.69
399.717	1752.69
399.941	1722.69
400.165	1501.69
400.389	1308.69
400.613	1221.69
400.837	1163.69
401.062	1143.69
401.286	1102.69
401.51	1068.69
401.734	1101.69
401.958	1123.69
402.182	1102.69
402.406	1156.69
402.63	1181.69
402.854	1209.69
403.078	1176.69
403.302	1213.69
403.526	1267.69
403.75	1282.69
403.974	1348.69
404.198	1297.69
404.422	1325.69
404.645	1279.69
404.869	1257.69
405.093	1271.69
405.317	1240.69
405.541	1264.69
405.765	1206.69
405.988	1214.69
406.212	1213.69
406.436	1209.69
406.66	1243.69
406.883	1220.69
407.107	1330.69
407.331	1383.69
407.555	1501.69
407.778	1452.69
408.002	1396.69
408.226	1367.69
408.449	1322.69
408.673	1294.69
408.896	1280.69
409.12	1244.69
409.344	1249.69
409.567	1260.69
409.791	1323.69
410.014	1255.69
410.238	1267.69
410.461	1262.69
410.685	1232.69
410.908	1196.69
411.132	1202.69
411.355	1156.69
411.578	1158.69
411.802	1169.69
412.025	1184.69
412.249	1203.69
412.472	1180.69
412.695	1104.69
412.919	1122.69
413.142	1104.69
413.365	1094.69
413.589	1148.69
413.812	1087.69
414.035	1098.69
414.258	1118.69
414.482	1102.69
414.705	1138.69
414.928	1133.69
415.151	1098.69
415.374	1102.69
415.597	1085.69
415.821	1081.69
416.044	1079.69
416.267	1061.69
416.49	1081.69
416.713	1067.69
416.936	1089.69
417.159	1115.69
417.382	1084.69
417.605	1053.69
417.828	1088.69
418.051	1100.69
418.274	1102.69
418.497	1092.69
418.72	1120.69
418.943	1144.69
419.166	1218.69
419.389	1292.69
419.611	1277.69
419.834	1201.69
420.057	1192.69
420.28	1116.69
420.503	1093.69
420.726	1079.69
420.948	1113.69
421.171	1090.69
421.394	1098.69
421.617	1081.69
421.839	1101.69
422.062	1108.69
422.285	1102.69
422.507	1156.69
422.73	1131.69
422.953	1123.69
423.175	1159.69
423.398	1187.69
423.621	1167.69
423.843	1183.69
424.066	1194.69
424.288	1182.69
424.511	1144.69
424.733	1173.69
424.956	1143.69
425.178	1107.69
425.401	1094.69
425.623	1107.69
425.846	1060.69
426.068	1059.69
426.291	1036.69
426.513	1072.69
426.735	1032.69
426.958	1049.69
427.18	1016.69
427.402	1019.69
427.625	989.69
427.847	1001.69
428.069	975.69
428.292	975.69
428.514	949.69
428.736	982.69
428.958	958.69
429.181	957.69
429.403	958.69
429.625	930.69
429.847	964.69
430.069	955.69
430.292	965.69
430.514	940.69
430.736	960.69
430.958	957.69
431.18	971.69
431.402	959.69
431.624	977.69
431.846	991.69
432.068	993.69
432.29	1029.69
432.512	1004.69
432.734	985.69
432.956	941.69
433.178	982.69
433.4	1002.69
433.622	981.69
433.844	1010.69
434.066	999.69
434.287	977.69
434.509	1028.69
434.731	1068.69
434.953	1126.69
435.175	1134.69
435.397	1114.69
435.618	1075.69
435.84	1027.69
436.062	995.69
436.284	970.69
436.505	986.69
436.727	984.69
436.949	1029.69
437.17	1021.69
437.392	979.69
437.614	941.69
437.835	935.69
438.057	969.69
438.278	931.69
438.5	934.69
438.721	898.69
438.943	954.69
439.165	946.69
439.386	963.69
439.608	972.69
439.829	979.69
440.05	970.69
440.272	1012.69
440.493	998.69
440.715	984.69
440.936	1037.69
441.158	1018.69
441.379	1061.69
441.6	1101.69
441.822	1113.69
442.043	1123.69
442.264	1061.69
442.486	1091.69
442.707	1058.69
442.928	1063.69
443.149	1092.69
443.371	1112.69
443.592	1118.69
443.813	1097.69
444.034	1088.69
444.255	1154.69
444.476	1218.69
444.698	1268.69
444.919	1333.69
445.14	1394.69
445.361	1257.69
445.582	1141.69
445.803	1090.69
446.024	1058.69
446.245	1011.69
446.466	990.69
446.687	970.69
446.908	968.69
447.129	1013.69
447.35	918.69
447.571	950.69
447.792	922.69
448.013	926.69
448.234	916.69
448.455	914.69
448.675	907.69
448.896	902.69
449.117	905.69
449.338	919.69
449.559	890.69
449.779	889.69
450	903.69
450.221	882.69
450.442	896.69
450.662	907.69
450.883	922.69
451.104	925.69
451.324	917.69
451.545	926.69
451.766	915.69
451.986	909.69
452.207	911.69
452.428	900.69
452.648	885.69
452.869	887.69
453.089	880.69
453.31	890.69
453.53	893.69
453.751	874.69
453.971	846.69
454.192	872.69
454.412	882.69
454.633	868.69
454.853	851.69
455.073	841.69
455.294	824.69
455.514	860.69
455.734	828.69
455.955	839.69
456.175	817.69
456.395	813.69
456.616	816.69
456.836	830.69
457.056	819.69
457.276	813.69
457.497	844.69
457.717	828.69
457.937	846.69
458.157	849.69
458.377	843.69
458.598	862.69
458.818	905.69
459.038	936.69
459.258	964.69
459.478	995.69
459.698	1025.69
459.918	1051.69
460.138	1112.69
460.358	1174.69
460.578	1170.69
460.798	1177.69
461.018	1183.69
461.238	1171.69
461.458	1113.69
461.678	1170.69
461.898	1163.69
462.118	1173.69
462.338	1300.69
462.558	1260.69
462.777	1294.69
462.997	1428.69
463.217	1640.69
463.437	1628.69
463.657	1459.69
463.876	1358.69
464.096	1394.69
464.316	1385.69
464.536	1409.69
464.755	1312.69
464.975	1292.69
465.195	1216.69
465.414	1138.69
465.634	1061.69
465.854	1046.69
466.073	1006.69
466.293	959.69
466.512	963.69
466.732	958.69
466.951	951.69
467.171	926.69
467.391	956.69
467.61	952.69
467.829	944.69
468.049	929.69
468.268	909.69
468.488	927.69
468.707	911.69
468.927	911.69
469.146	865.69
469.365	905.69
469.585	933.69
469.804	951.69
470.023	963.69
470.243	946.69
470.462	972.69
470.681	983.69
470.901	958.69
471.12	972.69
471.339	960.69
471.558	910.69
471.777	910.69
471.997	906.69
472.216	901.69
472.435	913.69
472.654	873.69
472.873	892.69
473.092	869.69
473.311	884.69
473.53	857.69
473.749	878.69
473.968	880.69
474.187	856.69
474.406	839.69
474.625	864.69
474.844	856.69
475.063	924.69
475.282	882.69
475.501	869.69
475.72	910.69
475.939	886.69
476.158	927.69
476.377	912.69
476.596	919.69
476.814	923.69
477.033	952.69
477.252	938.69
477.471	974.69
477.69	962.69
477.908	991.69
478.127	1056.69
478.346	1038.69
478.564	1068.69
478.783	1079.69
479.002	1109.69
479.22	1144.69
479.439	1108.69
479.658	1072.69
479.876	1068.69
480.095	1093.69
480.313	1149.69
480.532	1208.69
480.751	1197.69
480.969	1152.69
481.188	1082.69
481.406	1063.69
481.624	1055.69
481.843	1009.69
482.061	1001.69
482.28	1004.69
482.498	1012.69
482.717	976.69
482.935	999.69
483.153	1005.69
483.372	1014.69
483.59	1006.69
483.808	1000.69
484.027	1017.69
484.245	1012.69
484.463	1035.69
484.681	1049.69
484.9	1039.69
485.118	1030.69
485.336	1050.69
485.554	1079.69
485.772	1064.69
485.99	1095.69
486.209	1061.69
486.427	1086.69
486.645	1043.69
486.863	1053.69
487.081	1069.69
487.299	1052.69
487.517	1053.69
487.735	1061.69
487.953	1056.69
488.171	1022.69
488.389	1060.69
488.607	1046.69
488.825	1035.69
489.043	1037.69
489.261	1058.69
489.479	1019.69
489.696	1060.69
489.914	1094.69
490.132	1029.69
490.35	1025.69
490.568	1071.69
490.786	1076.69
491.003	1070.69
491.221	1065.69
491.439	1047.69
491.657	1046.69
491.874	1057.69
492.092	1072.69
492.31	1049.69
492.527	1069.69
492.745	1077.69
492.963	1131.69
493.18	1082.69
493.398	1117.69
493.615	1101.69
493.833	1113.69
494.05	1110.69
494.268	1094.69
494.485	1133.69
494.703	1089.69
494.92	1116.69
495.138	1086.69
495.355	1093.69
495.573	1086.69
495.79	1097.69
496.008	1138.69
496.225	1160.69
496.442	1154.69
496.66	1157.69
496.877	1158.69
497.094	1232.69
497.312	1224.69
497.529	1221.69
497.746	1283.69
497.963	1299.69
498.181	1316.69
498.398	1405.69
498.615	1440.69
498.832	1587.69
499.049	1698.69
499.267	1862.69
499.484	2073.69
499.701	2308.69
499.918	2574.69
500.135	2918.69
500.352	3390.69
500.569	3616.69
500.786	3604.69
501.003	3299.69
501.22	2881.69
501.437	2524.69
501.654	2214.69
501.871	1981.69
502.088	1793.69
502.305	1684.69
502.522	1630.69
502.739	1558.69
502.956	1468.69
503.172	1430.69
503.389	1327.69
503.606	1321.69
503.823	1276.69
504.04	1264.69
504.256	1259.69
504.473	1310.69
504.69	1385.69
504.907	1352.69
505.123	1232.69
505.34	1180.69
505.557	1102.69
505.773	1107.69
505.99	1090.69
506.207	1033.69
506.423	1015.69
506.64	1033.69
506.856	986.69
507.073	976.69
507.289	985.69
507.506	993.69
507.722	960.69
507.939	970.69
508.155	966.69
508.372	922.69
508.588	949.69
508.805	924.69
509.021	944.69
509.238	915.69
509.454	923.69
509.67	891.69
509.887	913.69
510.103	927.69
510.319	909.69
510.536	904.69
510.752	901.69
510.968	888.69
511.184	893.69
511.401	891.69
511.617	902.69
511.833	915.69
512.049	918.69
512.265	877.69
512.481	898.69
512.698	884.69
512.914	887.69
513.13	914.69
513.346	892.69
513.562	892.69
513.778	922.69
513.994	913.69
514.21	905.69
514.426	900.69
514.642	906.69
514.858	933.69
515.074	919.69
515.29	944.69
515.506	938.69
515.721	953.69
515.937	951.69
516.153	969.69
516.369	1020.69
516.585	1024.69
516.801	1060.69
517.016	1109.69
517.232	1168.69
517.448	1220.69
517.664	1283.69
517.879	1309.69
518.095	1292.69
518.311	1276.69
518.527	1204.69
518.742	1157.69
518.958	1089.69
519.173	1072.69
519.389	1029.69
519.605	993.69
519.82	975.69
520.036	953.69
520.251	944.69
520.467	944.69
520.682	917.69
520.898	919.69
521.113	914.69
521.329	902.69
521.544	911.69
521.76	865.69
521.975	855.69
522.19	856.69
522.406	858.69
522.621	825.69
522.836	843.69
523.052	850.69
523.267	846.69
523.482	847.69
523.698	844.69
523.913	829.69
524.128	820.69
524.343	871.69
524.559	816.69
524.774	833.69
524.989	822.69
525.204	850.69
525.419	827.69
525.634	818.69
525.849	830.69
526.064	847.69
526.28	811.69
526.495	820.69
526.71	804.69
526.925	801.69
527.14	802.69
527.355	833.69
527.57	803.69
527.785	781.69
527.999	807.69
528.214	800.69
528.429	833.69
528.644	840.69
528.859	832.69
529.074	826.69
529.289	820.69
529.503	816.69
529.718	829.69
529.933	791.69
530.148	804.69
530.363	809.69
530.577	813.69
530.792	829.69
531.007	824.69
531.221	828.69
531.436	829.69
531.651	823.69
531.865	810.69
532.08	832.69
532.295	818.69
532.509	794.69
532.724	821.69
532.938	815.69
533.153	826.69
533.367	824.69
533.582	834.69
533.796	803.69
534.011	835.69
534.225	810.69
534.44	800.69
534.654	805.69
534.868	786.69
535.083	819.69
535.297	802.69
535.511	814.69
535.726	809.69
535.94	812.69
536.154	760.69
536.369	772.69
536.583	763.69
536.797	769.69
537.011	739.69
537.225	754.69
537.44	764.69
537.654	749.69
537.868	722.69
538.082	748.69
538.296	732.69
538.51	745.69
538.724	756.69
538.938	730.69
539.153	712.69
539.367	727.69
539.581	742.69
539.795	725.69
540.009	730.69
540.222	736.69
540.436	740.69
540.65	724.69
540.864	736.69
541.078	742.69
541.292	730.69
541.506	731.69
541.72	741.69
541.934	733.69
542.147	740.69
542.361	706.69
542.575	705.69
542.789	716.69
543.002	707.69
543.216	698.69
543.43	712.69
543.644	718.69
543.857	702.69
544.071	737.69
544.285	730.69
544.498	727.69
544.712	725.69
544.925	740.69
545.139	734.69
545.352	739.69
545.566	744.69
545.779	765.69
545.993	748.69
546.206	744.69
546.42	761.69
546.633	761.69
546.847	732.69
547.06	718.69
547.274	737.69
547.487	726.69
547.7	754.69
547.914	731.69
548.127	756.69
548.34	780.69
548.554	749.69
548.767	746.69
548.98	752.69
549.193	742.69
549.407	772.69
549.62	780.69
549.833	807.69
550.046	780.69
550.259	772.69
550.473	742.69
550.686	738.69
550.899	750.69
551.112	711.69
551.325	721.69
551.538	703.69
551.751	741.69
551.964	722.69
552.177	752.69
552.39	741.69
552.603	772.69
552.816	774.69
553.029	808.69
553.242	788.69
553.455	847.69
553.667	844.69
553.88	838.69
554.093	820.69
554.306	769.69
554.519	774.69
554.732	752.69
554.944	734.69
555.157	725.69
555.37	714.69
555.583	696.69
555.795	683.69
556.008	677.69
556.221	672.69
556.433	654.69
556.646	635.69
556.859	642.69
557.071	657.69
557.284	660.69
557.496	636.69
557.709	617.69
557.921	653.69
558.134	614.69
558.346	642.69
558.559	640.69
558.771	630.69
558.984	626.69
559.196	606.69
559.409	622.69
559.621	616.69
559.833	615.69
560.046	617.69
560.258	605.69
560.47	614.69
560.683	620.69
560.895	590.69
561.107	600.69
561.32	596.69
561.532	613.69
561.744	614.69
561.956	633.69
562.168	580.69
562.381	620.69
562.593	606.69
562.805	634.69
563.017	628.69
563.229	635.69
563.441	613.69
563.653	635.69
563.865	607.69
564.077	642.69
564.289	626.69
564.501	635.69
564.713	669.69
564.925	654.69
565.137	684.69
565.349	673.69
565.561	710.69
565.773	754.69
565.985	779.69
566.197	818.69
566.408	868.69
566.62	911.69
566.832	1046.69
567.044	1038.69
567.255	1025.69
567.467	1053.69
567.679	1098.69
567.891	1211.69
568.102	1305.69
568.314	1213.69
568.526	1072.69
568.737	952.69
568.949	882.69
569.161	782.69
569.372	716.69
569.584	693.69
569.795	650.69
570.007	660.69
570.218	621.69
570.43	626.69
570.641	617.69
570.853	630.69
571.064	638.69
571.276	640.69
571.487	627.69
571.698	589.69
571.91	579.69
572.121	567.69
572.333	562.69
572.544	545.69
572.755	552.69
572.966	540.69
573.178	529.69
573.389	516.69
573.6	516.69
573.811	533.69
574.023	526.69
574.234	514.69
574.445	544.69
574.656	501.69
574.867	503.69
575.078	491.69
575.289	489.69
575.501	515.69
575.712	475.69
575.923	487.69
576.134	512.69
576.345	490.69
576.556	472.69
576.767	467.69
576.978	487.69
577.188	474.69
577.399	472.69
577.61	473.69
577.821	437.69
578.032	452.69
578.243	469.69
578.454	462.69
578.665	432.69
578.875	436.69
579.086	449.69
579.297	450.69
579.508	461.69
579.718	446.69
579.929	449.69
580.14	427.69
580.35	432.69
580.561	441.69
580.772	412.69
580.982	436.69
581.193	448.69
581.403	429.69
581.614	446.69
581.825	419.69
582.035	431.69
582.246	428.69
582.456	407.69
582.667	435.69
582.877	435.69
583.087	422.69
583.298	429.69
583.508	426.69
583.719	440.69
583.929	418.69
584.139	440.69
584.35	414.69
584.56	429.69
584.77	426.69
584.981	419.69
585.191	424.69
585.401	424.69
585.611	426.69
585.821	430.69
586.032	412.69
586.242	425.69
586.452	402.69
586.662	417.69
586.872	407.69
587.082	420.69
587.292	418.69
587.502	414.69
587.713	392.69
587.923	421.69
588.133	410.69
588.343	410.69
588.553	406.69
588.762	417.69
588.972	401.69
589.182	413.69
589.392	407.69
589.602	406.69
589.812	394.69
590.022	400.69
590.232	406.69
590.441	414.69
590.651	418.69
590.861	395.69
591.071	432.69
591.281	396.69
591.49	417.69
591.7	465.69
591.91	456.69
592.119	416.69
592.329	419.69
592.539	459.69
592.748	467.69
592.958	502.69
593.167	522.69
593.377	532.69
593.587	548.69
593.796	533.69
594.006	502.69
594.215	557.69
594.424	546.69
594.634	536.69
594.843	516.69
595.053	480.69
595.262	465.69
595.472	455.69
595.681	436.69
595.89	445.69
596.1	416.69
596.309	401.69
596.518	397.69
596.727	390.69
596.937	394.69
597.146	383.69
597.355	384.69
597.564	394.69
597.774	377.69
597.983	364.69
598.192	365.69
598.401	349.69
598.61	350.69
598.819	333.69
599.028	368.69
599.237	332.69
599.446	351.69
599.655	359.69
599.864	352.69
600.073	368.69
600.282	352.69
600.491	356.69
600.7	356.69
600.909	334.69
601.118	332.69
601.327	344.69
601.536	347.69
601.745	343.69
601.953	337.69
602.162	333.69
602.371	342.69
602.58	352.69
602.789	354.69
602.997	322.69
603.206	344.69
603.415	341.69
603.623	325.69
603.832	332.69
604.041	338.69
604.249	331.69
604.458	331.69
604.666	318.69
604.875	324.69
605.084	317.69
605.292	332.69
605.501	327.69
605.709	331.69
605.918	325.69
606.126	301.69
606.334	312.69
606.543	320.69
606.751	309.69
606.96	312.69
607.168	310.69
607.376	308.69
607.585	317.69
607.793	314.69
608.001	318.69
608.21	319.69
608.418	291.69
608.626	291.69
608.834	317.69
609.043	320.69
609.251	304.69
609.459	310.69
609.667	307.69
609.875	317.69
610.083	322.69
610.291	317.69
610.499	315.69
610.707	308.69
610.916	314.69
611.124	293.69
611.332	304.69
611.54	308.69
611.748	296.69
611.955	317.69
612.163	291.69
612.371	275.69
612.579	292.69
612.787	283.69
612.995	294.69
613.203	308.69
613.411	301.69
613.618	285.69
613.826	296.69
614.034	310.69
614.242	310.69
614.449	300.69
614.657	314.69
614.865	313.69
615.072	294.69
615.28	290.69
615.488	292.69
615.695	289.69
615.903	286.69
616.111	308.69
616.318	316.69
616.526	308.69
616.733	314.69
616.941	300.69
617.148	295.69
617.356	315.69
617.563	306.69
617.771	314.69
617.978	321.69
618.185	296.69
618.393	308.69
618.6	304.69
618.807	289.69
619.015	293.69
619.222	305.69
619.429	297.69
619.637	320.69
619.844	274.69
620.051	286.69
620.258	290.69
620.466	279.69
620.673	260.69
620.88	266.69
621.087	274.69
621.294	258.69
621.501	287.69
621.708	274.69
621.915	281.69
622.122	265.69
622.329	283.69
622.536	285.69
622.743	279.69
622.95	266.69
623.157	268.69
623.364	275.69
623.571	251.69
623.778	278.69
623.985	261.69
624.192	240.69
624.399	256.69
624.606	264.69
624.812	260.69
625.019	270.69
625.226	252.69
625.433	262.69
625.639	266.69
625.846	253.69
626.053	234.69
626.259	264.69
626.466	254.69
626.673	264.69
626.879	253.69
627.086	240.69
627.293	254.69
627.499	255.69
627.706	264.69
627.912	248.69
628.119	254.69
628.325	243.69
628.532	262.69
628.738	264.69
628.945	252.69
629.151	242.69
629.357	235.69
629.564	235.69
629.77	230.69
629.976	234.69
630.183	233.69
630.389	229.69
630.595	230.69
630.802	213.69
631.008	241.69
631.214	223.69
631.42	211.69
631.627	235.69
631.833	224.69
632.039	230.69
632.245	219.69
632.451	219.69
632.657	219.69
632.863	231.69
633.069	244.69
633.275	221.69
633.481	221.69
633.688	206.69
633.893	216.69
634.099	218.69
634.305	236.69
634.511	215.69
634.717	236.69
634.923	212.69
635.129	220.69
635.335	215.69
635.541	215.69
635.747	211.69
635.952	207.69
636.158	207.69
636.364	203.69
636.57	213.69
636.775	215.69
636.981	212.69
637.187	212.69
637.392	211.69
637.598	213.69
637.804	201.69
638.009	226.69
638.215	223.69
638.421	194.69
638.626	208.69
638.832	209.69
639.037	215.69
639.243	215.69
639.448	202.69
639.654	216.69
639.859	203.69
640.065	193.69
640.27	211.69
640.475	201.69
640.681	205.69
640.886	209.69
641.091	191.69
641.297	206.69
641.502	195.69
641.707	192.69
641.913	197.69
642.118	206.69
642.323	205.69
642.528	203.69
642.733	205.69
642.939	197.69
643.144	198.69
643.349	198.69
643.554	202.69
643.759	196.69
643.964	178.69
644.169	187.69
644.374	196.69
644.579	189.69
644.784	195.69
644.989	174.69
645.194	195.69
645.399	178.69
645.604	185.69
645.809	200.69
646.014	178.69
646.219	195.69
646.423	198.69
646.628	203.69
646.833	196.69
647.038	188.69
647.243	214.69
647.447	207.69
647.652	211.69
647.857	206.69
648.062	196.69
648.266	200.69
648.471	213.69
648.676	235.69
648.88	205.69
649.085	210.69
649.289	199.69
649.494	206.69
649.698	208.69
649.903	204.69
650.107	190.69
650.312	189.69
650.516	186.69
650.721	173.69
650.925	177.69
651.13	178.69
651.334	183.69
651.539	172.69
651.743	186.69
651.947	193.69
652.152	156.69
652.356	157.69
652.56	168.69
652.764	159.69
652.969	185.69
653.173	171.69
653.377	155.69
653.581	142.69
653.785	157.69
653.99	151.69
654.194	158.69
654.398	150.69
654.602	158.69
654.806	157.69
655.01	150.69
655.214	143.69
655.418	145.69
655.622	148.69
655.826	159.69
656.03	143.69
656.234	149.69
656.438	149.69
656.642	155.69
656.846	152.69
657.049	142.69
657.253	143.69
657.457	135.69
657.661	130.69
657.865	129.69
658.068	119.69
658.272	122.69
658.476	122.69
658.68	105.69
658.883	109.69
659.087	117.69
659.291	104.69
659.494	100.69
659.698	107.69
659.901	98.69
660.105	82.69
660.309	97.69
660.512	90.69
660.716	86.69
660.919	105.69
661.123	100.69
661.326	104.69
661.53	96.69
661.733	94.69
661.936	100.69
662.14	73.69
662.343	83.69
662.546	96.69
662.75	82.69
662.953	97.69
663.156	97.69
663.36	91.69
663.563	92.69
663.766	92.69
663.969	83.69
664.173	79.69
664.376	72.69
664.579	83.69
664.782	87.69
664.985	86.69
665.188	89.69
665.391	82.69
665.594	74.69
665.797	82.69
666	95.69
666.203	86.69
666.406	72.69
666.609	88.69
666.812	73.69
667.015	78.69
667.218	77.69
667.421	73.69
667.624	91.69
667.827	95.69
668.03	84.69
668.232	85.69
668.435	88.69
668.638	88.69
668.841	86.69
669.043	86.69
669.246	83.69
669.449	71.69
669.651	74.69
669.854	84.69
670.057	89.69
670.259	82.69
670.462	81.69
670.665	87.69
670.867	92.69
671.07	88.69
671.272	87.69
671.475	75.69
671.677	68.69
671.88	79.69
672.082	82.69
672.284	103.69
672.487	84.69
672.689	77.69
672.892	80.69
