Data from Ni(NO3)2@0.125M.TitratingCurve.Agarose3%dH2O.NegLispCup.LampEnergy10.LIBS07252019_HRD10591_18-08-31-568.txt Node
Date: Thu Jul 25 18:08:31 EDT 2019
User: cochatt
Spectrometer: HR+D1059
Trigger mode: 1
Integration Time (sec): 1.000000E-1
Scans to average: 1
Electric dark correction enabled: true
Nonlinearity correction enabled: false
Boxcar width: 0
XAxis mode: Wavelengths
Number of Pixels in Spectrum: 2048
>>>>>Begin Spectral Data<<<<<
223.165	-3.75
223.4	-3.75
223.635	-3.75
223.869	-26.75
224.104	-7.75
224.338	-8.75
224.573	-20.75
224.808	-21.75
225.042	-1.75
225.277	-27.75
225.511	-0.75
225.746	0.25
225.98	19.25
226.215	-0.75
226.449	4.25
226.683	22.25
226.918	35.25
227.152	39.25
227.387	40.25
227.621	57.25
227.856	48.25
228.09	57.25
228.324	56.25
228.559	48.25
228.793	76.25
229.027	106.25
229.262	120.25
229.496	118.25
229.73	118.25
229.964	145.25
230.199	132.25
230.433	142.25
230.667	166.25
230.901	155.25
231.136	122.25
231.37	152.25
231.604	154.25
231.838	145.25
232.072	176.25
232.306	162.25
232.541	149.25
232.775	154.25
233.009	164.25
233.243	171.25
233.477	158.25
233.711	151.25
233.945	173.25
234.179	167.25
234.413	175.25
234.647	163.25
234.881	162.25
235.115	167.25
235.349	159.25
235.583	164.25
235.817	179.25
236.051	178.25
236.285	155.25
236.519	152.25
236.753	164.25
236.987	185.25
237.221	168.25
237.455	170.25
237.689	170.25
237.922	170.25
238.156	187.25
238.39	189.25
238.624	178.25
238.858	173.25
239.091	183.25
239.325	183.25
239.559	188.25
239.793	195.25
240.027	198.25
240.26	198.25
240.494	194.25
240.728	193.25
240.961	204.25
241.195	200.25
241.429	195.25
241.662	209.25
241.896	200.25
242.13	218.25
242.363	205.25
242.597	195.25
242.83	199.25
243.064	212.25
243.298	214.25
243.531	221.25
243.765	226.25
243.998	222.25
244.232	222.25
244.465	208.25
244.699	232.25
244.932	239.25
245.166	245.25
245.399	250.25
245.633	242.25
245.866	235.25
246.099	255.25
246.333	236.25
246.566	236.25
246.8	238.25
247.033	233.25
247.266	248.25
247.5	226.25
247.733	249.25
247.966	238.25
248.2	262.25
248.433	247.25
248.666	264.25
248.899	257.25
249.133	262.25
249.366	273.25
249.599	267.25
249.832	259.25
250.066	282.25
250.299	262.25
250.532	263.25
250.765	272.25
250.998	264.25
251.231	274.25
251.465	308.25
251.698	293.25
251.931	299.25
252.164	295.25
252.397	286.25
252.63	316.25
252.863	304.25
253.096	300.25
253.329	300.25
253.562	322.25
253.795	303.25
254.028	311.25
254.261	308.25
254.494	324.25
254.727	316.25
254.96	302.25
255.193	311.25
255.426	304.25
255.659	324.25
255.892	330.25
256.124	343.25
256.357	324.25
256.59	323.25
256.823	330.25
257.056	319.25
257.289	325.25
257.521	340.25
257.754	326.25
257.987	354.25
258.22	352.25
258.452	337.25
258.685	338.25
258.918	349.25
259.151	347.25
259.383	352.25
259.616	336.25
259.849	343.25
260.081	358.25
260.314	370.25
260.547	340.25
260.779	355.25
261.012	356.25
261.244	378.25
261.477	380.25
261.71	361.25
261.942	366.25
262.175	375.25
262.407	354.25
262.64	371.25
262.872	370.25
263.105	380.25
263.337	379.25
263.57	396.25
263.802	386.25
264.035	381.25
264.267	378.25
264.499	406.25
264.732	375.25
264.964	397.25
265.197	393.25
265.429	387.25
265.661	394.25
265.894	384.25
266.126	416.25
266.358	416.25
266.591	400.25
266.823	407.25
267.055	396.25
267.287	393.25
267.52	414.25
267.752	410.25
267.984	425.25
268.216	424.25
268.448	453.25
268.681	412.25
268.913	425.25
269.145	423.25
269.377	413.25
269.609	404.25
269.841	420.25
270.073	422.25
270.306	429.25
270.538	406.25
270.77	412.25
271.002	420.25
271.234	439.25
271.466	434.25
271.698	447.25
271.93	434.25
272.162	438.25
272.394	438.25
272.626	430.25
272.858	442.25
273.09	467.25
273.322	472.25
273.553	464.25
273.785	430.25
274.017	451.25
274.249	441.25
274.481	459.25
274.713	465.25
274.945	481.25
275.176	454.25
275.408	462.25
275.64	472.25
275.872	458.25
276.104	475.25
276.335	468.25
276.567	481.25
276.799	469.25
277.031	475.25
277.262	480.25
277.494	462.25
277.726	477.25
277.957	473.25
278.189	475.25
278.421	482.25
278.652	470.25
278.884	491.25
279.115	491.25
279.347	500.25
279.579	509.25
279.81	510.25
280.042	474.25
280.273	501.25
280.505	488.25
280.736	486.25
280.968	510.25
281.199	501.25
281.431	520.25
281.662	524.25
281.894	516.25
282.125	507.25
282.356	533.25
282.588	509.25
282.819	527.25
283.051	527.25
283.282	496.25
283.513	496.25
283.745	526.25
283.976	528.25
284.207	517.25
284.439	534.25
284.67	551.25
284.901	523.25
285.132	542.25
285.364	532.25
285.595	542.25
285.826	530.25
286.057	534.25
286.288	542.25
286.52	562.25
286.751	552.25
286.982	550.25
287.213	558.25
287.444	548.25
287.675	561.25
287.906	580.25
288.138	547.25
288.369	571.25
288.6	557.25
288.831	558.25
289.062	579.25
289.293	557.25
289.524	538.25
289.755	569.25
289.986	558.25
290.217	553.25
290.448	572.25
290.679	591.25
290.91	562.25
291.141	572.25
291.371	575.25
291.602	568.25
291.833	597.25
292.064	559.25
292.295	556.25
292.526	587.25
292.757	588.25
292.987	595.25
293.218	569.25
293.449	603.25
293.68	603.25
293.91	583.25
294.141	570.25
294.372	576.25
294.603	603.25
294.833	587.25
295.064	568.25
295.295	587.25
295.525	577.25
295.756	596.25
295.987	605.25
296.217	605.25
296.448	593.25
296.679	599.25
296.909	580.25
297.14	587.25
297.37	638.25
297.601	605.25
297.831	612.25
298.062	625.25
298.292	623.25
298.523	646.25
298.753	651.25
298.984	653.25
299.214	633.25
299.445	632.25
299.675	615.25
299.905	636.25
300.136	626.25
300.366	630.25
300.597	663.25
300.827	644.25
301.057	649.25
301.288	677.25
301.518	677.25
301.748	659.25
301.979	663.25
302.209	666.25
302.439	670.25
302.669	651.25
302.9	654.25
303.13	648.25
303.36	640.25
303.59	648.25
303.82	642.25
304.051	659.25
304.281	650.25
304.511	658.25
304.741	657.25
304.971	633.25
305.201	636.25
305.431	635.25
305.661	642.25
305.891	637.25
306.121	638.25
306.352	674.25
306.582	664.25
306.812	638.25
307.042	638.25
307.272	634.25
307.502	614.25
307.731	637.25
307.961	634.25
308.191	613.25
308.421	640.25
308.651	634.25
308.881	636.25
309.111	636.25
309.341	665.25
309.571	628.25
309.8	642.25
310.03	626.25
310.26	653.25
310.49	652.25
310.72	645.25
310.949	637.25
311.179	625.25
311.409	632.25
311.639	643.25
311.868	666.25
312.098	668.25
312.328	683.25
312.557	644.25
312.787	649.25
313.017	663.25
313.246	683.25
313.476	673.25
313.706	683.25
313.935	684.25
314.165	701.25
314.394	695.25
314.624	714.25
314.853	668.25
315.083	683.25
315.312	685.25
315.542	693.25
315.771	686.25
316.001	704.25
316.23	724.25
316.46	670.25
316.689	695.25
316.919	671.25
317.148	668.25
317.377	663.25
317.607	683.25
317.836	694.25
318.065	692.25
318.295	667.25
318.524	711.25
318.753	670.25
318.983	682.25
319.212	671.25
319.441	676.25
319.67	688.25
319.9	691.25
320.129	706.25
320.358	691.25
320.587	681.25
320.816	685.25
321.046	693.25
321.275	694.25
321.504	704.25
321.733	719.25
321.962	703.25
322.191	710.25
322.42	706.25
322.649	725.25
322.878	699.25
323.108	678.25
323.337	726.25
323.566	742.25
323.795	723.25
324.024	717.25
324.253	715.25
324.482	697.25
324.71	723.25
324.939	702.25
325.168	714.25
325.397	733.25
325.626	743.25
325.855	740.25
326.084	760.25
326.313	802.25
326.542	786.25
326.77	794.25
326.999	793.25
327.228	753.25
327.457	749.25
327.686	770.25
327.914	772.25
328.143	770.25
328.372	779.25
328.6	774.25
328.829	789.25
329.058	790.25
329.287	769.25
329.515	790.25
329.744	800.25
329.972	822.25
330.201	802.25
330.43	793.25
330.658	795.25
330.887	824.25
331.115	840.25
331.344	835.25
331.572	834.25
331.801	892.25
332.03	861.25
332.258	879.25
332.486	909.25
332.715	930.25
332.943	956.25
333.172	1014.25
333.4	1056.25
333.629	1069.25
333.857	1069.25
334.085	1066.25
334.314	1052.25
334.542	1052.25
334.771	1034.25
334.999	1027.25
335.227	975.25
335.455	1008.25
335.684	978.25
335.912	968.25
336.14	963.25
336.369	940.25
336.597	997.25
336.825	962.25
337.053	967.25
337.281	940.25
337.51	934.25
337.738	906.25
337.966	908.25
338.194	917.25
338.422	863.25
338.65	890.25
338.878	866.25
339.106	885.25
339.334	875.25
339.562	858.25
339.79	831.25
340.018	831.25
340.246	814.25
340.474	826.25
340.702	854.25
340.93	863.25
341.158	828.25
341.386	846.25
341.614	871.25
341.842	834.25
342.07	843.25
342.298	810.25
342.526	830.25
342.754	863.25
342.981	830.25
343.209	831.25
343.437	900.25
343.665	932.25
343.893	1024.25
344.12	1056.25
344.348	998.25
344.576	956.25
344.804	912.25
345.031	891.25
345.259	841.25
345.487	834.25
345.714	834.25
345.942	862.25
346.17	840.25
346.397	851.25
346.625	836.25
346.853	822.25
347.08	819.25
347.308	804.25
347.535	854.25
347.763	809.25
347.99	826.25
348.218	826.25
348.445	853.25
348.673	837.25
348.9	787.25
349.128	809.25
349.355	823.25
349.583	819.25
349.81	787.25
350.037	787.25
350.265	805.25
350.492	776.25
350.72	796.25
350.947	781.25
351.174	756.25
351.402	766.25
351.629	789.25
351.856	813.25
352.083	773.25
352.311	779.25
352.538	763.25
352.765	780.25
352.992	786.25
353.22	775.25
353.447	754.25
353.674	767.25
353.901	783.25
354.128	767.25
354.355	776.25
354.583	768.25
354.81	751.25
355.037	778.25
355.264	753.25
355.491	748.25
355.718	760.25
355.945	800.25
356.172	794.25
356.399	783.25
356.626	785.25
356.853	779.25
357.08	758.25
357.307	774.25
357.534	760.25
357.761	775.25
357.988	783.25
358.215	765.25
358.441	785.25
358.668	763.25
358.895	776.25
359.122	796.25
359.349	779.25
359.576	762.25
359.802	785.25
360.029	767.25
360.256	778.25
360.483	786.25
360.709	769.25
360.936	761.25
361.163	794.25
361.39	758.25
361.616	778.25
361.843	760.25
362.07	799.25
362.296	798.25
362.523	778.25
362.749	782.25
362.976	769.25
363.203	778.25
363.429	758.25
363.656	750.25
363.882	741.25
364.109	743.25
364.335	750.25
364.562	771.25
364.788	782.25
365.015	760.25
365.241	747.25
365.468	737.25
365.694	752.25
365.92	752.25
366.147	755.25
366.373	768.25
366.599	768.25
366.826	795.25
367.052	756.25
367.278	730.25
367.505	751.25
367.731	781.25
367.957	743.25
368.184	770.25
368.41	781.25
368.636	776.25
368.862	796.25
369.089	784.25
369.315	783.25
369.541	784.25
369.767	793.25
369.993	776.25
370.219	776.25
370.445	815.25
370.672	776.25
370.898	807.25
371.124	825.25
371.35	824.25
371.576	829.25
371.802	801.25
372.028	828.25
372.254	808.25
372.48	846.25
372.706	847.25
372.932	854.25
373.158	843.25
373.384	849.25
373.61	834.25
373.835	819.25
374.061	861.25
374.287	864.25
374.513	864.25
374.739	864.25
374.965	888.25
375.191	934.25
375.416	932.25
375.642	874.25
375.868	868.25
376.094	866.25
376.319	858.25
376.545	840.25
376.771	837.25
376.997	834.25
377.222	810.25
377.448	807.25
377.674	820.25
377.899	813.25
378.125	788.25
378.35	780.25
378.576	808.25
378.802	787.25
379.027	804.25
379.253	811.25
379.478	809.25
379.704	785.25
379.929	788.25
380.155	811.25
380.38	801.25
380.606	784.25
380.831	805.25
381.057	802.25
381.282	814.25
381.507	800.25
381.733	852.25
381.958	802.25
382.184	821.25
382.409	839.25
382.634	852.25
382.86	849.25
383.085	860.25
383.31	879.25
383.535	879.25
383.761	911.25
383.986	894.25
384.211	927.25
384.436	935.25
384.662	955.25
384.887	1014.25
385.112	974.25
385.337	964.25
385.562	986.25
385.787	1008.25
386.013	1014.25
386.238	994.25
386.463	982.25
386.688	982.25
386.913	983.25
387.138	971.25
387.363	964.25
387.588	961.25
387.813	973.25
388.038	991.25
388.263	972.25
388.488	1017.25
388.713	974.25
388.938	929.25
389.163	920.25
389.387	964.25
389.612	907.25
389.837	954.25
390.062	956.25
390.287	958.25
390.512	960.25
390.736	941.25
390.961	975.25
391.186	992.25
391.411	1041.25
391.636	1044.25
391.86	1098.25
392.085	1085.25
392.31	1080.25
392.534	1063.25
392.759	1063.25
392.984	1038.25
393.208	1032.25
393.433	1030.25
393.658	1013.25
393.882	1046.25
394.107	1014.25
394.331	1025.25
394.556	1054.25
394.78	1016.25
395.005	1063.25
395.229	1028.25
395.454	1080.25
395.678	1082.25
395.903	1099.25
396.127	1086.25
396.352	1071.25
396.576	987.25
396.801	1040.25
397.025	1029.25
397.249	1094.25
397.474	1077.25
397.698	1113.25
397.922	1093.25
398.147	1069.25
398.371	1110.25
398.595	1142.25
398.82	1208.25
399.044	1259.25
399.268	1424.25
399.492	1623.25
399.717	1882.25
399.941	1860.25
400.165	1684.25
400.389	1482.25
400.613	1368.25
400.837	1332.25
401.062	1242.25
401.286	1237.25
401.51	1230.25
401.734	1226.25
401.958	1252.25
402.182	1261.25
402.406	1267.25
402.63	1270.25
402.854	1307.25
403.078	1333.25
403.302	1342.25
403.526	1377.25
403.75	1394.25
403.974	1426.25
404.198	1434.25
404.422	1433.25
404.645	1419.25
404.869	1366.25
405.093	1392.25
405.317	1387.25
405.541	1363.25
405.765	1347.25
405.988	1355.25
406.212	1338.25
406.436	1357.25
406.66	1399.25
406.883	1398.25
407.107	1480.25
407.331	1551.25
407.555	1590.25
407.778	1634.25
408.002	1575.25
408.226	1526.25
408.449	1474.25
408.673	1389.25
408.896	1398.25
409.12	1382.25
409.344	1394.25
409.567	1396.25
409.791	1390.25
410.014	1370.25
410.238	1389.25
410.461	1376.25
410.685	1363.25
410.908	1330.25
411.132	1284.25
411.355	1245.25
411.578	1262.25
411.802	1262.25
412.025	1288.25
412.249	1322.25
412.472	1287.25
412.695	1257.25
412.919	1250.25
413.142	1220.25
413.365	1231.25
413.589	1259.25
413.812	1223.25
414.035	1199.25
414.258	1209.25
414.482	1210.25
414.705	1248.25
414.928	1259.25
415.151	1262.25
415.374	1257.25
415.597	1256.25
415.821	1231.25
416.044	1229.25
416.267	1211.25
416.49	1204.25
416.713	1196.25
416.936	1228.25
417.159	1213.25
417.382	1222.25
417.605	1207.25
417.828	1243.25
418.051	1219.25
418.274	1231.25
418.497	1250.25
418.72	1267.25
418.943	1243.25
419.166	1357.25
419.389	1430.25
419.611	1380.25
419.834	1369.25
420.057	1324.25
420.28	1287.25
420.503	1215.25
420.726	1239.25
420.948	1236.25
421.171	1218.25
421.394	1240.25
421.617	1226.25
421.839	1271.25
422.062	1227.25
422.285	1232.25
422.507	1275.25
422.73	1263.25
422.953	1264.25
423.175	1294.25
423.398	1314.25
423.621	1301.25
423.843	1323.25
424.066	1334.25
424.288	1318.25
424.511	1320.25
424.733	1318.25
424.956	1248.25
425.178	1295.25
425.401	1256.25
425.623	1227.25
425.846	1209.25
426.068	1256.25
426.291	1214.25
426.513	1208.25
426.735	1173.25
426.958	1162.25
427.18	1141.25
427.402	1132.25
427.625	1148.25
427.847	1144.25
428.069	1113.25
428.292	1098.25
428.514	1106.25
428.736	1099.25
428.958	1129.25
429.181	1080.25
429.403	1076.25
429.625	1099.25
429.847	1094.25
430.069	1063.25
430.292	1074.25
430.514	1074.25
430.736	1081.25
430.958	1080.25
431.18	1087.25
431.402	1117.25
431.624	1080.25
431.846	1087.25
432.068	1171.25
432.29	1156.25
432.512	1083.25
432.734	1129.25
432.956	1119.25
433.178	1107.25
433.4	1149.25
433.622	1132.25
433.844	1126.25
434.066	1132.25
434.287	1132.25
434.509	1175.25
434.731	1215.25
434.953	1260.25
435.175	1261.25
435.397	1261.25
435.618	1215.25
435.84	1141.25
436.062	1098.25
436.284	1117.25
436.505	1162.25
436.727	1114.25
436.949	1099.25
437.17	1136.25
437.392	1105.25
437.614	1102.25
437.835	1065.25
438.057	1071.25
438.278	1072.25
438.5	1083.25
438.721	1076.25
438.943	1088.25
439.165	1051.25
439.386	1066.25
439.608	1109.25
439.829	1118.25
440.05	1127.25
440.272	1164.25
440.493	1142.25
440.715	1192.25
440.936	1167.25
441.158	1180.25
441.379	1228.25
441.6	1267.25
441.822	1277.25
442.043	1288.25
442.264	1271.25
442.486	1262.25
442.707	1229.25
442.928	1203.25
443.149	1236.25
443.371	1233.25
443.592	1257.25
443.813	1305.25
444.034	1307.25
444.255	1378.25
444.476	1400.25
444.698	1453.25
444.919	1511.25
445.14	1627.25
445.361	1472.25
445.582	1350.25
445.803	1289.25
446.024	1224.25
446.245	1180.25
446.466	1186.25
446.687	1179.25
446.908	1160.25
447.129	1100.25
447.35	1091.25
447.571	1078.25
447.792	1064.25
448.013	1051.25
448.234	1065.25
448.455	1053.25
448.675	1059.25
448.896	1076.25
449.117	1016.25
449.338	1054.25
449.559	1064.25
449.779	1020.25
450	1013.25
450.221	1026.25
450.442	1037.25
450.662	1064.25
450.883	1080.25
451.104	1100.25
451.324	1074.25
451.545	1084.25
451.766	1046.25
451.986	1058.25
452.207	1047.25
452.428	1041.25
452.648	1048.25
452.869	1035.25
453.089	989.25
453.31	1030.25
453.53	1026.25
453.751	992.25
453.971	1026.25
454.192	1002.25
454.412	1015.25
454.633	966.25
454.853	999.25
455.073	987.25
455.294	973.25
455.514	967.25
455.734	973.25
455.955	988.25
456.175	958.25
456.395	932.25
456.616	928.25
456.836	968.25
457.056	935.25
457.276	954.25
457.497	960.25
457.717	968.25
457.937	966.25
458.157	977.25
458.377	987.25
458.598	996.25
458.818	1050.25
459.038	1062.25
459.258	1117.25
459.478	1148.25
459.698	1155.25
459.918	1223.25
460.138	1254.25
460.358	1310.25
460.578	1347.25
460.798	1376.25
461.018	1359.25
461.238	1376.25
461.458	1360.25
461.678	1314.25
461.898	1353.25
462.118	1340.25
462.338	1455.25
462.558	1487.25
462.777	1573.25
462.997	1649.25
463.217	1787.25
463.437	1830.25
463.657	1678.25
463.876	1587.25
464.096	1603.25
464.316	1564.25
464.536	1578.25
464.755	1515.25
464.975	1433.25
465.195	1376.25
465.414	1356.25
465.634	1215.25
465.854	1223.25
466.073	1158.25
466.293	1147.25
466.512	1157.25
466.732	1096.25
466.951	1081.25
467.171	1085.25
467.391	1100.25
467.61	1114.25
467.829	1084.25
468.049	1078.25
468.268	1032.25
468.488	1012.25
468.707	1056.25
468.927	1003.25
469.146	1045.25
469.365	1059.25
469.585	1054.25
469.804	1095.25
470.023	1079.25
470.243	1111.25
470.462	1141.25
470.681	1110.25
470.901	1118.25
471.12	1140.25
471.339	1072.25
471.558	1084.25
471.777	1059.25
471.997	1044.25
472.216	1044.25
472.435	1033.25
472.654	991.25
472.873	1014.25
473.092	1008.25
473.311	1008.25
473.53	1030.25
473.749	1026.25
473.968	1006.25
474.187	1005.25
474.406	1004.25
474.625	997.25
474.844	1033.25
475.063	1036.25
475.282	1033.25
475.501	1013.25
475.72	1024.25
475.939	1038.25
476.158	1064.25
476.377	1056.25
476.596	1048.25
476.814	1063.25
477.033	1071.25
477.252	1094.25
477.471	1127.25
477.69	1143.25
477.908	1190.25
478.127	1219.25
478.346	1211.25
478.564	1259.25
478.783	1245.25
479.002	1302.25
479.22	1292.25
479.439	1316.25
479.658	1251.25
479.876	1262.25
480.095	1277.25
480.313	1336.25
480.532	1415.25
480.751	1382.25
480.969	1303.25
481.188	1268.25
481.406	1210.25
481.624	1215.25
481.843	1153.25
482.061	1132.25
482.28	1153.25
482.498	1154.25
482.717	1164.25
482.935	1168.25
483.153	1172.25
483.372	1133.25
483.59	1171.25
483.808	1179.25
484.027	1154.25
484.245	1162.25
484.463	1154.25
484.681	1202.25
484.9	1195.25
485.118	1204.25
485.336	1184.25
485.554	1210.25
485.772	1249.25
485.99	1223.25
486.209	1230.25
486.427	1240.25
486.645	1202.25
486.863	1221.25
487.081	1223.25
487.299	1230.25
487.517	1226.25
487.735	1219.25
487.953	1222.25
488.171	1214.25
488.389	1227.25
488.607	1213.25
488.825	1174.25
489.043	1179.25
489.261	1211.25
489.479	1191.25
489.696	1156.25
489.914	1217.25
490.132	1214.25
490.35	1194.25
490.568	1195.25
490.786	1237.25
491.003	1234.25
491.221	1238.25
491.439	1225.25
491.657	1217.25
491.874	1232.25
492.092	1262.25
492.31	1254.25
492.527	1284.25
492.745	1248.25
492.963	1262.25
493.18	1282.25
493.398	1269.25
493.615	1284.25
493.833	1292.25
494.05	1256.25
494.268	1306.25
494.485	1290.25
494.703	1322.25
494.92	1318.25
495.138	1318.25
495.355	1312.25
495.573	1316.25
495.79	1287.25
496.008	1298.25
496.225	1342.25
496.442	1365.25
496.66	1366.25
496.877	1395.25
497.094	1422.25
497.312	1432.25
497.529	1458.25
497.746	1438.25
497.963	1527.25
498.181	1594.25
498.398	1655.25
498.615	1751.25
498.832	1858.25
499.049	2003.25
499.267	2159.25
499.484	2447.25
499.701	2624.25
499.918	2957.25
500.135	3444.25
500.352	3898.25
500.569	4116.25
500.786	4109.25
501.003	3752.25
501.22	3375.25
501.437	2973.25
501.654	2576.25
501.871	2346.25
502.088	2149.25
502.305	1984.25
502.522	1876.25
502.739	1794.25
502.956	1712.25
503.172	1615.25
503.389	1555.25
503.606	1526.25
503.823	1499.25
504.04	1486.25
504.256	1518.25
504.473	1541.25
504.69	1609.25
504.907	1553.25
505.123	1444.25
505.34	1361.25
505.557	1312.25
505.773	1279.25
505.99	1261.25
506.207	1230.25
506.423	1233.25
506.64	1199.25
506.856	1189.25
507.073	1157.25
507.289	1142.25
507.506	1164.25
507.722	1151.25
507.939	1175.25
508.155	1101.25
508.372	1135.25
508.588	1077.25
508.805	1090.25
509.021	1096.25
509.238	1115.25
509.454	1085.25
509.67	1075.25
509.887	1060.25
510.103	1058.25
510.319	1055.25
510.536	1045.25
510.752	1033.25
510.968	1054.25
511.184	1018.25
511.401	1068.25
511.617	1058.25
511.833	1051.25
512.049	1036.25
512.265	1037.25
512.481	1061.25
512.698	1046.25
512.914	1064.25
513.13	1038.25
513.346	1083.25
513.562	1048.25
513.778	1041.25
513.994	1062.25
514.21	1033.25
514.426	1037.25
514.642	1070.25
514.858	1068.25
515.074	1080.25
515.29	1085.25
515.506	1100.25
515.721	1098.25
515.937	1127.25
516.153	1154.25
516.369	1187.25
516.585	1200.25
516.801	1254.25
517.016	1301.25
517.232	1368.25
517.448	1443.25
517.664	1479.25
517.879	1466.25
518.095	1492.25
518.311	1437.25
518.527	1380.25
518.742	1316.25
518.958	1269.25
519.173	1212.25
519.389	1198.25
519.605	1173.25
519.82	1139.25
520.036	1117.25
520.251	1090.25
520.467	1074.25
520.682	1082.25
520.898	1056.25
521.113	1076.25
521.329	983.25
521.544	1018.25
521.76	1000.25
521.975	1013.25
522.19	998.25
522.406	986.25
522.621	948.25
522.836	969.25
523.052	977.25
523.267	980.25
523.482	963.25
523.698	967.25
523.913	963.25
524.128	979.25
524.343	980.25
524.559	949.25
524.774	942.25
524.989	963.25
525.204	979.25
525.419	948.25
525.634	946.25
525.849	942.25
526.064	932.25
526.28	930.25
526.495	942.25
526.71	922.25
526.925	944.25
527.14	935.25
527.355	938.25
527.57	913.25
527.785	917.25
527.999	926.25
528.214	927.25
528.429	924.25
528.644	947.25
528.859	950.25
529.074	955.25
529.289	984.25
529.503	986.25
529.718	943.25
529.933	926.25
530.148	935.25
530.363	948.25
530.577	945.25
530.792	929.25
531.007	918.25
531.221	952.25
531.436	962.25
531.651	940.25
531.865	944.25
532.08	947.25
532.295	922.25
532.509	950.25
532.724	922.25
532.938	963.25
533.153	936.25
533.367	941.25
533.582	961.25
533.796	950.25
534.011	939.25
534.225	923.25
534.44	912.25
534.654	941.25
534.868	936.25
535.083	924.25
535.297	926.25
535.511	906.25
535.726	898.25
535.94	890.25
536.154	877.25
536.369	886.25
536.583	872.25
536.797	866.25
537.011	925.25
537.225	872.25
537.44	842.25
537.654	877.25
537.868	843.25
538.082	850.25
538.296	852.25
538.51	860.25
538.724	849.25
538.938	844.25
539.153	862.25
539.367	858.25
539.581	833.25
539.795	853.25
540.009	860.25
540.222	848.25
540.436	835.25
540.65	844.25
540.864	830.25
541.078	850.25
541.292	821.25
541.506	846.25
541.72	867.25
541.934	841.25
542.147	820.25
542.361	843.25
542.575	827.25
542.789	843.25
543.002	801.25
543.216	819.25
543.43	811.25
543.644	802.25
543.857	829.25
544.071	851.25
544.285	855.25
544.498	840.25
544.712	853.25
544.925	864.25
545.139	851.25
545.352	870.25
545.566	885.25
545.779	869.25
545.993	857.25
546.206	885.25
546.42	893.25
546.633	883.25
546.847	845.25
547.06	857.25
547.274	852.25
547.487	882.25
547.7	869.25
547.914	890.25
548.127	891.25
548.34	878.25
548.554	880.25
548.767	882.25
548.98	888.25
549.193	901.25
549.407	875.25
549.62	904.25
549.833	914.25
550.046	920.25
550.259	884.25
550.473	840.25
550.686	862.25
550.899	887.25
551.112	867.25
551.325	852.25
551.538	851.25
551.751	851.25
551.964	849.25
552.177	867.25
552.39	868.25
552.603	894.25
552.816	887.25
553.029	950.25
553.242	938.25
553.455	959.25
553.667	984.25
553.88	935.25
554.093	906.25
554.306	917.25
554.519	884.25
554.732	883.25
554.944	860.25
555.157	823.25
555.37	840.25
555.583	838.25
555.795	813.25
556.008	807.25
556.221	778.25
556.433	772.25
556.646	765.25
556.859	721.25
557.071	749.25
557.284	758.25
557.496	762.25
557.709	739.25
557.921	755.25
558.134	736.25
558.346	724.25
558.559	720.25
558.771	725.25
558.984	713.25
559.196	708.25
559.409	719.25
559.621	727.25
559.833	713.25
560.046	732.25
560.258	699.25
560.47	700.25
560.683	728.25
560.895	708.25
561.107	702.25
561.32	701.25
561.532	701.25
561.744	749.25
561.956	708.25
562.168	703.25
562.381	724.25
562.593	722.25
562.805	731.25
563.017	737.25
563.229	705.25
563.441	687.25
563.653	729.25
563.865	714.25
564.077	700.25
564.289	713.25
564.501	730.25
564.713	748.25
564.925	773.25
565.137	780.25
565.349	779.25
565.561	846.25
565.773	860.25
565.985	887.25
566.197	944.25
566.408	1017.25
566.62	1073.25
566.832	1152.25
567.044	1206.25
567.255	1220.25
567.467	1250.25
567.679	1307.25
567.891	1410.25
568.102	1403.25
568.314	1356.25
568.526	1237.25
568.737	1132.25
568.949	1014.25
569.161	942.25
569.372	862.25
569.584	802.25
569.795	779.25
570.007	758.25
570.218	738.25
570.43	738.25
570.641	722.25
570.853	745.25
571.064	751.25
571.276	717.25
571.487	729.25
571.698	697.25
571.91	668.25
572.121	647.25
572.333	655.25
572.544	628.25
572.755	633.25
572.966	635.25
573.178	606.25
573.389	593.25
573.6	602.25
573.811	571.25
574.023	611.25
574.234	598.25
574.445	602.25
574.656	594.25
574.867	610.25
575.078	593.25
575.289	572.25
575.501	550.25
575.712	564.25
575.923	543.25
576.134	540.25
576.345	547.25
576.556	546.25
576.767	564.25
576.978	545.25
577.188	553.25
577.399	558.25
577.61	544.25
577.821	531.25
578.032	532.25
578.243	538.25
578.454	528.25
578.665	522.25
578.875	517.25
579.086	514.25
579.297	514.25
579.508	519.25
579.718	534.25
579.929	499.25
580.14	511.25
580.35	509.25
580.561	509.25
580.772	493.25
580.982	512.25
581.193	498.25
581.403	522.25
581.614	504.25
581.825	516.25
582.035	487.25
582.246	490.25
582.456	495.25
582.667	502.25
582.877	495.25
583.087	499.25
583.298	498.25
583.508	494.25
583.719	471.25
583.929	498.25
584.139	495.25
584.35	480.25
584.56	465.25
584.77	511.25
584.981	493.25
585.191	478.25
585.401	482.25
585.611	469.25
585.821	468.25
586.032	477.25
586.242	472.25
586.452	467.25
586.662	464.25
586.872	470.25
587.082	474.25
587.292	463.25
587.502	448.25
587.713	473.25
587.923	478.25
588.133	476.25
588.343	482.25
588.553	469.25
588.762	446.25
588.972	471.25
589.182	470.25
589.392	475.25
589.602	477.25
589.812	475.25
590.022	471.25
590.232	442.25
590.441	482.25
590.651	484.25
590.861	477.25
591.071	466.25
591.281	472.25
591.49	516.25
591.7	498.25
591.91	479.25
592.119	492.25
592.329	491.25
592.539	517.25
592.748	570.25
592.958	557.25
593.167	587.25
593.377	574.25
593.587	605.25
593.796	632.25
594.006	604.25
594.215	628.25
594.424	621.25
594.634	592.25
594.843	553.25
595.053	558.25
595.262	539.25
595.472	536.25
595.681	518.25
595.89	487.25
596.1	468.25
596.309	468.25
596.518	462.25
596.727	452.25
596.937	423.25
597.146	450.25
597.355	431.25
597.564	420.25
597.774	431.25
597.983	414.25
598.192	442.25
598.401	417.25
598.61	409.25
598.819	428.25
599.028	401.25
599.237	382.25
599.446	390.25
599.655	364.25
599.864	409.25
600.073	378.25
600.282	399.25
600.491	398.25
600.7	407.25
600.909	396.25
601.118	398.25
601.327	374.25
601.536	390.25
601.745	378.25
601.953	374.25
602.162	380.25
602.371	398.25
602.58	389.25
602.789	398.25
602.997	383.25
603.206	372.25
603.415	363.25
603.623	390.25
603.832	394.25
604.041	374.25
604.249	379.25
604.458	367.25
604.666	343.25
604.875	358.25
605.084	380.25
605.292	368.25
605.501	351.25
605.709	378.25
605.918	358.25
606.126	362.25
606.334	361.25
606.543	355.25
606.751	359.25
606.96	346.25
607.168	346.25
607.376	371.25
607.585	327.25
607.793	359.25
608.001	363.25
608.21	352.25
608.418	344.25
608.626	359.25
608.834	362.25
609.043	358.25
609.251	345.25
609.459	367.25
609.667	351.25
609.875	331.25
610.083	347.25
610.291	339.25
610.499	346.25
610.707	341.25
610.916	334.25
611.124	349.25
611.332	343.25
611.54	324.25
611.748	359.25
611.955	350.25
612.163	329.25
612.371	316.25
612.579	336.25
612.787	359.25
612.995	340.25
613.203	340.25
613.411	335.25
613.618	342.25
613.826	333.25
614.034	329.25
614.242	331.25
614.449	352.25
614.657	335.25
614.865	347.25
615.072	346.25
615.28	345.25
615.488	332.25
615.695	324.25
615.903	325.25
616.111	336.25
616.318	354.25
616.526	322.25
616.733	333.25
616.941	326.25
617.148	329.25
617.356	338.25
617.563	316.25
617.771	332.25
617.978	338.25
618.185	340.25
618.393	321.25
618.6	335.25
618.807	319.25
619.015	331.25
619.222	328.25
619.429	314.25
619.637	333.25
619.844	341.25
620.051	310.25
620.258	317.25
620.466	310.25
620.673	305.25
620.88	307.25
621.087	304.25
621.294	314.25
621.501	314.25
621.708	324.25
621.915	311.25
622.122	310.25
622.329	314.25
622.536	311.25
622.743	306.25
622.95	316.25
623.157	297.25
623.364	319.25
623.571	279.25
623.778	296.25
623.985	286.25
624.192	319.25
624.399	301.25
624.606	286.25
624.812	296.25
625.019	306.25
625.226	287.25
625.433	312.25
625.639	293.25
625.846	282.25
626.053	251.25
626.259	262.25
626.466	287.25
626.673	277.25
626.879	290.25
627.086	284.25
627.293	258.25
627.499	272.25
627.706	278.25
627.912	298.25
628.119	284.25
628.325	282.25
628.532	259.25
628.738	284.25
628.945	280.25
629.151	267.25
629.357	280.25
629.564	283.25
629.77	258.25
629.976	262.25
630.183	255.25
630.389	248.25
630.595	292.25
630.802	261.25
631.008	262.25
631.214	255.25
631.42	254.25
631.627	264.25
631.833	243.25
632.039	227.25
632.245	248.25
632.451	268.25
632.657	262.25
632.863	260.25
633.069	258.25
633.275	247.25
633.481	242.25
633.688	242.25
633.893	250.25
634.099	243.25
634.305	251.25
634.511	248.25
634.717	227.25
634.923	259.25
635.129	229.25
635.335	251.25
635.541	235.25
635.747	249.25
635.952	239.25
636.158	258.25
636.364	256.25
636.57	251.25
636.775	251.25
636.981	237.25
637.187	249.25
637.392	252.25
637.598	236.25
637.804	232.25
638.009	229.25
638.215	237.25
638.421	235.25
638.626	238.25
638.832	240.25
639.037	245.25
639.243	232.25
639.448	218.25
639.654	209.25
639.859	199.25
640.065	225.25
640.27	212.25
640.475	219.25
640.681	221.25
640.886	208.25
641.091	197.25
641.297	229.25
641.502	217.25
641.707	239.25
641.913	212.25
642.118	211.25
642.323	211.25
642.528	226.25
642.733	213.25
642.939	206.25
643.144	229.25
643.349	232.25
643.554	213.25
643.759	197.25
643.964	206.25
644.169	224.25
644.374	213.25
644.579	231.25
644.784	222.25
644.989	217.25
645.194	214.25
645.399	213.25
645.604	234.25
645.809	216.25
646.014	200.25
646.219	188.25
646.423	203.25
646.628	210.25
646.833	220.25
647.038	197.25
647.243	216.25
647.447	214.25
647.652	220.25
647.857	229.25
648.062	223.25
648.266	228.25
648.471	226.25
648.676	228.25
648.88	202.25
649.085	230.25
649.289	213.25
649.494	193.25
649.698	213.25
649.903	195.25
650.107	185.25
650.312	195.25
650.516	204.25
650.721	204.25
650.925	192.25
651.13	182.25
651.334	180.25
651.539	187.25
651.743	182.25
651.947	179.25
652.152	185.25
652.356	183.25
652.56	180.25
652.764	177.25
652.969	174.25
653.173	163.25
653.377	156.25
653.581	159.25
653.785	172.25
653.99	146.25
654.194	174.25
654.398	153.25
654.602	158.25
654.806	146.25
655.01	151.25
655.214	143.25
655.418	151.25
655.622	135.25
655.826	152.25
656.03	163.25
656.234	126.25
656.438	136.25
656.642	132.25
656.846	131.25
657.049	139.25
657.253	141.25
657.457	137.25
657.661	133.25
657.865	132.25
658.068	124.25
658.272	114.25
658.476	124.25
658.68	120.25
658.883	117.25
659.087	114.25
659.291	110.25
659.494	108.25
659.698	90.25
659.901	98.25
660.105	102.25
660.309	94.25
660.512	84.25
660.716	102.25
660.919	120.25
661.123	94.25
661.326	95.25
661.53	86.25
661.733	89.25
661.936	77.25
662.14	85.25
662.343	86.25
662.546	92.25
662.75	95.25
662.953	88.25
663.156	88.25
663.36	91.25
663.563	73.25
663.766	93.25
663.969	98.25
664.173	95.25
664.376	88.25
664.579	87.25
664.782	95.25
664.985	83.25
665.188	92.25
665.391	87.25
665.594	78.25
665.797	82.25
666	78.25
666.203	74.25
666.406	94.25
666.609	80.25
666.812	73.25
667.015	80.25
667.218	83.25
667.421	80.25
667.624	71.25
667.827	80.25
668.03	79.25
668.232	79.25
668.435	91.25
668.638	76.25
668.841	115.25
669.043	75.25
669.246	80.25
669.449	76.25
669.651	102.25
669.854	78.25
670.057	93.25
670.259	83.25
670.462	93.25
670.665	84.25
670.867	87.25
671.07	93.25
671.272	88.25
671.475	95.25
671.677	89.25
671.88	85.25
672.082	77.25
672.284	79.25
672.487	83.25
672.689	90.25
672.892	79.25
