Data from Ni(NO3)2@0.0625M.TitratingCurve.Agarose3%dH2O.NegLispCup.LampEnergy10.LIBS07252019_HRD10591_18-13-27-569.txt Node
Date: Thu Jul 25 18:13:27 EDT 2019
User: cochatt
Spectrometer: HR+D1059
Trigger mode: 1
Integration Time (sec): 1.000000E-1
Scans to average: 1
Electric dark correction enabled: true
Nonlinearity correction enabled: false
Boxcar width: 0
XAxis mode: Wavelengths
Number of Pixels in Spectrum: 2048
>>>>>Begin Spectral Data<<<<<
223.165	-23.5
223.4	-23.5
223.635	-23.5
223.869	-14.5
224.104	-16.5
224.338	-12.5
224.573	-12.5
224.808	-6.5
225.042	-8.5
225.277	2.5
225.511	1.5
225.746	-11.5
225.98	13.5
226.215	9.5
226.449	9.5
226.683	17.5
226.918	25.5
227.152	26.5
227.387	44.5
227.621	52.5
227.856	38.5
228.09	46.5
228.324	37.5
228.559	53.5
228.793	72.5
229.027	104.5
229.262	132.5
229.496	106.5
229.73	99.5
229.964	136.5
230.199	129.5
230.433	140.5
230.667	134.5
230.901	145.5
231.136	138.5
231.37	149.5
231.604	136.5
231.838	149.5
232.072	145.5
232.306	153.5
232.541	147.5
232.775	142.5
233.009	141.5
233.243	150.5
233.477	146.5
233.711	151.5
233.945	158.5
234.179	159.5
234.413	140.5
234.647	144.5
234.881	148.5
235.115	160.5
235.349	161.5
235.583	164.5
235.817	154.5
236.051	146.5
236.285	155.5
236.519	144.5
236.753	175.5
236.987	163.5
237.221	151.5
237.455	163.5
237.689	165.5
237.922	177.5
238.156	169.5
238.39	160.5
238.624	161.5
238.858	183.5
239.091	171.5
239.325	166.5
239.559	187.5
239.793	187.5
240.027	171.5
240.26	191.5
240.494	192.5
240.728	193.5
240.961	200.5
241.195	170.5
241.429	199.5
241.662	191.5
241.896	188.5
242.13	204.5
242.363	211.5
242.597	213.5
242.83	212.5
243.064	206.5
243.298	209.5
243.531	212.5
243.765	215.5
243.998	218.5
244.232	208.5
244.465	221.5
244.699	220.5
244.932	215.5
245.166	205.5
245.399	235.5
245.633	232.5
245.866	217.5
246.099	202.5
246.333	228.5
246.566	229.5
246.8	241.5
247.033	236.5
247.266	227.5
247.5	221.5
247.733	246.5
247.966	240.5
248.2	242.5
248.433	250.5
248.666	243.5
248.899	240.5
249.133	252.5
249.366	274.5
249.599	257.5
249.832	260.5
250.066	261.5
250.299	261.5
250.532	269.5
250.765	243.5
250.998	275.5
251.231	241.5
251.465	273.5
251.698	268.5
251.931	267.5
252.164	276.5
252.397	280.5
252.63	277.5
252.863	271.5
253.096	268.5
253.329	285.5
253.562	262.5
253.795	281.5
254.028	295.5
254.261	295.5
254.494	315.5
254.727	280.5
254.96	290.5
255.193	300.5
255.426	293.5
255.659	300.5
255.892	304.5
256.124	306.5
256.357	305.5
256.59	301.5
256.823	304.5
257.056	311.5
257.289	294.5
257.521	297.5
257.754	303.5
257.987	320.5
258.22	305.5
258.452	312.5
258.685	315.5
258.918	302.5
259.151	317.5
259.383	331.5
259.616	300.5
259.849	331.5
260.081	321.5
260.314	312.5
260.547	313.5
260.779	349.5
261.012	339.5
261.244	336.5
261.477	322.5
261.71	329.5
261.942	332.5
262.175	346.5
262.407	329.5
262.64	316.5
262.872	361.5
263.105	323.5
263.337	339.5
263.57	345.5
263.802	355.5
264.035	362.5
264.267	352.5
264.499	350.5
264.732	347.5
264.964	337.5
265.197	355.5
265.429	371.5
265.661	369.5
265.894	361.5
266.126	372.5
266.358	358.5
266.591	368.5
266.823	386.5
267.055	383.5
267.287	381.5
267.52	387.5
267.752	376.5
267.984	347.5
268.216	380.5
268.448	391.5
268.681	384.5
268.913	392.5
269.145	364.5
269.377	393.5
269.609	371.5
269.841	378.5
270.073	381.5
270.306	384.5
270.538	411.5
270.77	387.5
271.002	390.5
271.234	402.5
271.466	419.5
271.698	407.5
271.93	401.5
272.162	383.5
272.394	405.5
272.626	392.5
272.858	407.5
273.09	416.5
273.322	402.5
273.553	405.5
273.785	412.5
274.017	428.5
274.249	403.5
274.481	412.5
274.713	404.5
274.945	409.5
275.176	408.5
275.408	431.5
275.64	441.5
275.872	450.5
276.104	449.5
276.335	426.5
276.567	418.5
276.799	428.5
277.031	450.5
277.262	443.5
277.494	409.5
277.726	439.5
277.957	427.5
278.189	438.5
278.421	426.5
278.652	436.5
278.884	444.5
279.115	460.5
279.347	460.5
279.579	459.5
279.81	441.5
280.042	466.5
280.273	479.5
280.505	469.5
280.736	451.5
280.968	481.5
281.199	470.5
281.431	476.5
281.662	472.5
281.894	481.5
282.125	473.5
282.356	483.5
282.588	469.5
282.819	469.5
283.051	468.5
283.282	491.5
283.513	482.5
283.745	480.5
283.976	488.5
284.207	488.5
284.439	498.5
284.67	505.5
284.901	501.5
285.132	496.5
285.364	509.5
285.595	503.5
285.826	504.5
286.057	484.5
286.288	518.5
286.52	513.5
286.751	519.5
286.982	512.5
287.213	529.5
287.444	538.5
287.675	522.5
287.906	519.5
288.138	523.5
288.369	525.5
288.6	538.5
288.831	533.5
289.062	557.5
289.293	500.5
289.524	518.5
289.755	532.5
289.986	564.5
290.217	534.5
290.448	539.5
290.679	554.5
290.91	522.5
291.141	552.5
291.371	525.5
291.602	531.5
291.833	525.5
292.064	525.5
292.295	555.5
292.526	537.5
292.757	529.5
292.987	530.5
293.218	530.5
293.449	546.5
293.68	555.5
293.91	559.5
294.141	557.5
294.372	525.5
294.603	560.5
294.833	549.5
295.064	555.5
295.295	547.5
295.525	551.5
295.756	554.5
295.987	556.5
296.217	554.5
296.448	572.5
296.679	565.5
296.909	565.5
297.14	561.5
297.37	587.5
297.601	588.5
297.831	597.5
298.062	585.5
298.292	589.5
298.523	595.5
298.753	609.5
298.984	592.5
299.214	592.5
299.445	612.5
299.675	573.5
299.905	609.5
300.136	610.5
300.366	573.5
300.597	605.5
300.827	596.5
301.057	615.5
301.288	641.5
301.518	619.5
301.748	601.5
301.979	623.5
302.209	616.5
302.439	623.5
302.669	623.5
302.9	609.5
303.13	604.5
303.36	624.5
303.59	599.5
303.82	591.5
304.051	631.5
304.281	625.5
304.511	598.5
304.741	614.5
304.971	617.5
305.201	621.5
305.431	603.5
305.661	611.5
305.891	585.5
306.121	614.5
306.352	624.5
306.582	602.5
306.812	604.5
307.042	603.5
307.272	579.5
307.502	600.5
307.731	567.5
307.961	599.5
308.191	610.5
308.421	587.5
308.651	595.5
308.881	599.5
309.111	592.5
309.341	597.5
309.571	599.5
309.8	587.5
310.03	594.5
310.26	594.5
310.49	586.5
310.72	607.5
310.949	595.5
311.179	605.5
311.409	614.5
311.639	602.5
311.868	628.5
312.098	629.5
312.328	607.5
312.557	647.5
312.787	616.5
313.017	648.5
313.246	628.5
313.476	633.5
313.706	635.5
313.935	641.5
314.165	649.5
314.394	638.5
314.624	662.5
314.853	634.5
315.083	659.5
315.312	630.5
315.542	649.5
315.771	644.5
316.001	642.5
316.23	624.5
316.46	634.5
316.689	611.5
316.919	632.5
317.148	636.5
317.377	641.5
317.607	643.5
317.836	601.5
318.065	622.5
318.295	617.5
318.524	602.5
318.753	599.5
318.983	613.5
319.212	621.5
319.441	642.5
319.67	625.5
319.9	630.5
320.129	642.5
320.358	629.5
320.587	638.5
320.816	620.5
321.046	653.5
321.275	630.5
321.504	603.5
321.733	620.5
321.962	646.5
322.191	627.5
322.42	639.5
322.649	623.5
322.878	639.5
323.108	621.5
323.337	633.5
323.566	651.5
323.795	664.5
324.024	669.5
324.253	683.5
324.482	647.5
324.71	643.5
324.939	653.5
325.168	660.5
325.397	683.5
325.626	672.5
325.855	700.5
326.084	675.5
326.313	711.5
326.542	707.5
326.77	687.5
326.999	670.5
327.228	687.5
327.457	694.5
327.686	692.5
327.914	689.5
328.143	692.5
328.372	693.5
328.6	679.5
328.829	678.5
329.058	689.5
329.287	692.5
329.515	711.5
329.744	684.5
329.972	690.5
330.201	704.5
330.43	706.5
330.658	707.5
330.887	717.5
331.115	730.5
331.344	711.5
331.572	731.5
331.801	765.5
332.03	749.5
332.258	788.5
332.486	830.5
332.715	838.5
332.943	880.5
333.172	898.5
333.4	938.5
333.629	960.5
333.857	968.5
334.085	928.5
334.314	922.5
334.542	913.5
334.771	895.5
334.999	848.5
335.227	873.5
335.455	857.5
335.684	852.5
335.912	867.5
336.14	850.5
336.369	858.5
336.597	844.5
336.825	844.5
337.053	829.5
337.281	836.5
337.51	810.5
337.738	798.5
337.966	788.5
338.194	779.5
338.422	762.5
338.65	754.5
338.878	738.5
339.106	752.5
339.334	760.5
339.562	748.5
339.79	722.5
340.018	730.5
340.246	740.5
340.474	720.5
340.702	708.5
340.93	724.5
341.158	729.5
341.386	739.5
341.614	724.5
341.842	750.5
342.07	725.5
342.298	720.5
342.526	729.5
342.754	720.5
342.981	716.5
343.209	738.5
343.437	792.5
343.665	826.5
343.893	930.5
344.12	919.5
344.348	874.5
344.576	820.5
344.804	758.5
345.031	779.5
345.259	757.5
345.487	716.5
345.714	716.5
345.942	715.5
346.17	705.5
346.397	706.5
346.625	706.5
346.853	705.5
347.08	693.5
347.308	724.5
347.535	725.5
347.763	758.5
347.99	713.5
348.218	711.5
348.445	712.5
348.673	696.5
348.9	731.5
349.128	706.5
349.355	710.5
349.583	696.5
349.81	688.5
350.037	669.5
350.265	675.5
350.492	692.5
350.72	691.5
350.947	699.5
351.174	673.5
351.402	661.5
351.629	673.5
351.856	692.5
352.083	687.5
352.311	683.5
352.538	671.5
352.765	674.5
352.992	666.5
353.22	650.5
353.447	660.5
353.674	680.5
353.901	683.5
354.128	697.5
354.355	663.5
354.583	679.5
354.81	672.5
355.037	679.5
355.264	690.5
355.491	672.5
355.718	671.5
355.945	696.5
356.172	663.5
356.399	711.5
356.626	681.5
356.853	695.5
357.08	687.5
357.307	700.5
357.534	677.5
357.761	685.5
357.988	699.5
358.215	675.5
358.441	652.5
358.668	679.5
358.895	671.5
359.122	704.5
359.349	706.5
359.576	693.5
359.802	697.5
360.029	705.5
360.256	677.5
360.483	683.5
360.709	667.5
360.936	659.5
361.163	693.5
361.39	649.5
361.616	673.5
361.843	659.5
362.07	673.5
362.296	679.5
362.523	676.5
362.749	688.5
362.976	663.5
363.203	672.5
363.429	678.5
363.656	654.5
363.882	671.5
364.109	698.5
364.335	677.5
364.562	676.5
364.788	674.5
365.015	657.5
365.241	663.5
365.468	659.5
365.694	687.5
365.92	671.5
366.147	668.5
366.373	663.5
366.599	669.5
366.826	672.5
367.052	668.5
367.278	683.5
367.505	657.5
367.731	673.5
367.957	690.5
368.184	678.5
368.41	691.5
368.636	689.5
368.862	675.5
369.089	682.5
369.315	687.5
369.541	695.5
369.767	691.5
369.993	729.5
370.219	721.5
370.445	708.5
370.672	708.5
370.898	711.5
371.124	726.5
371.35	717.5
371.576	752.5
371.802	739.5
372.028	728.5
372.254	731.5
372.48	732.5
372.706	778.5
372.932	778.5
373.158	793.5
373.384	765.5
373.61	726.5
373.835	736.5
374.061	735.5
374.287	734.5
374.513	753.5
374.739	805.5
374.965	818.5
375.191	815.5
375.416	807.5
375.642	821.5
375.868	803.5
376.094	762.5
376.319	741.5
376.545	759.5
376.771	755.5
376.997	751.5
377.222	769.5
377.448	723.5
377.674	755.5
377.899	741.5
378.125	729.5
378.35	726.5
378.576	752.5
378.802	721.5
379.027	731.5
379.253	716.5
379.478	720.5
379.704	716.5
379.929	724.5
380.155	735.5
380.38	735.5
380.606	729.5
380.831	761.5
381.057	739.5
381.282	737.5
381.507	738.5
381.733	728.5
381.958	746.5
382.184	759.5
382.409	760.5
382.634	791.5
382.86	799.5
383.085	801.5
383.31	792.5
383.535	828.5
383.761	832.5
383.986	825.5
384.211	868.5
384.436	854.5
384.662	897.5
384.887	901.5
385.112	908.5
385.337	913.5
385.562	891.5
385.787	890.5
386.013	921.5
386.238	920.5
386.463	920.5
386.688	892.5
386.913	888.5
387.138	904.5
387.363	887.5
387.588	852.5
387.813	857.5
388.038	861.5
388.263	865.5
388.488	865.5
388.713	875.5
388.938	878.5
389.163	864.5
389.387	859.5
389.612	859.5
389.837	869.5
390.062	857.5
390.287	864.5
390.512	846.5
390.736	886.5
390.961	893.5
391.186	893.5
391.411	927.5
391.636	980.5
391.86	999.5
392.085	1043.5
392.31	1028.5
392.534	975.5
392.759	931.5
392.984	949.5
393.208	941.5
393.433	934.5
393.658	934.5
393.882	958.5
394.107	959.5
394.331	938.5
394.556	939.5
394.78	962.5
395.005	989.5
395.229	920.5
395.454	986.5
395.678	1028.5
395.903	991.5
396.127	991.5
396.352	952.5
396.576	957.5
396.801	946.5
397.025	931.5
397.249	969.5
397.474	983.5
397.698	995.5
397.922	983.5
398.147	991.5
398.371	1017.5
398.595	1040.5
398.82	1068.5
399.044	1165.5
399.268	1313.5
399.492	1536.5
399.717	1813.5
399.941	1730.5
400.165	1551.5
400.389	1405.5
400.613	1232.5
400.837	1180.5
401.062	1119.5
401.286	1111.5
401.51	1097.5
401.734	1091.5
401.958	1119.5
402.182	1115.5
402.406	1157.5
402.63	1173.5
402.854	1217.5
403.078	1223.5
403.302	1239.5
403.526	1281.5
403.75	1313.5
403.974	1354.5
404.198	1329.5
404.422	1363.5
404.645	1309.5
404.869	1284.5
405.093	1269.5
405.317	1237.5
405.541	1236.5
405.765	1244.5
405.988	1226.5
406.212	1227.5
406.436	1250.5
406.66	1240.5
406.883	1289.5
407.107	1341.5
407.331	1392.5
407.555	1485.5
407.778	1492.5
408.002	1419.5
408.226	1395.5
408.449	1359.5
408.673	1292.5
408.896	1226.5
409.12	1296.5
409.344	1291.5
409.567	1289.5
409.791	1303.5
410.014	1289.5
410.238	1279.5
410.461	1257.5
410.685	1250.5
410.908	1206.5
411.132	1196.5
411.355	1209.5
411.578	1143.5
411.802	1139.5
412.025	1176.5
412.249	1173.5
412.472	1183.5
412.695	1146.5
412.919	1135.5
413.142	1130.5
413.365	1087.5
413.589	1136.5
413.812	1115.5
414.035	1115.5
414.258	1104.5
414.482	1152.5
414.705	1149.5
414.928	1183.5
415.151	1128.5
415.374	1124.5
415.597	1127.5
415.821	1083.5
416.044	1061.5
416.267	1087.5
416.49	1088.5
416.713	1113.5
416.936	1085.5
417.159	1097.5
417.382	1111.5
417.605	1106.5
417.828	1092.5
418.051	1112.5
418.274	1145.5
418.497	1108.5
418.72	1135.5
418.943	1159.5
419.166	1192.5
419.389	1311.5
419.611	1246.5
419.834	1193.5
420.057	1177.5
420.28	1116.5
420.503	1108.5
420.726	1084.5
420.948	1072.5
421.171	1104.5
421.394	1115.5
421.617	1096.5
421.839	1114.5
422.062	1143.5
422.285	1108.5
422.507	1129.5
422.73	1124.5
422.953	1166.5
423.175	1171.5
423.398	1183.5
423.621	1182.5
423.843	1223.5
424.066	1194.5
424.288	1187.5
424.511	1181.5
424.733	1165.5
424.956	1124.5
425.178	1138.5
425.401	1144.5
425.623	1120.5
425.846	1081.5
426.068	1088.5
426.291	1057.5
426.513	1035.5
426.735	1037.5
426.958	1045.5
427.18	1010.5
427.402	1012.5
427.625	1017.5
427.847	1008.5
428.069	977.5
428.292	1001.5
428.514	990.5
428.736	961.5
428.958	993.5
429.181	970.5
429.403	955.5
429.625	943.5
429.847	908.5
430.069	942.5
430.292	966.5
430.514	975.5
430.736	948.5
430.958	926.5
431.18	939.5
431.402	983.5
431.624	946.5
431.846	990.5
432.068	1010.5
432.29	996.5
432.512	984.5
432.734	957.5
432.956	996.5
433.178	1000.5
433.4	982.5
433.622	1001.5
433.844	1023.5
434.066	1010.5
434.287	999.5
434.509	1049.5
434.731	1082.5
434.953	1148.5
435.175	1142.5
435.397	1126.5
435.618	1095.5
435.84	1031.5
436.062	1018.5
436.284	990.5
436.505	964.5
436.727	1007.5
436.949	1024.5
437.17	998.5
437.392	973.5
437.614	986.5
437.835	967.5
438.057	962.5
438.278	913.5
438.5	928.5
438.721	949.5
438.943	968.5
439.165	957.5
439.386	981.5
439.608	999.5
439.829	991.5
440.05	969.5
440.272	1008.5
440.493	1011.5
440.715	1002.5
440.936	1028.5
441.158	1005.5
441.379	1051.5
441.6	1085.5
441.822	1158.5
442.043	1139.5
442.264	1097.5
442.486	1105.5
442.707	1074.5
442.928	1070.5
443.149	1113.5
443.371	1111.5
443.592	1096.5
443.813	1145.5
444.034	1129.5
444.255	1156.5
444.476	1204.5
444.698	1324.5
444.919	1381.5
445.14	1416.5
445.361	1258.5
445.582	1143.5
445.803	1119.5
446.024	1049.5
446.245	1065.5
446.466	1018.5
446.687	992.5
446.908	965.5
447.129	987.5
447.35	941.5
447.571	955.5
447.792	928.5
448.013	923.5
448.234	890.5
448.455	909.5
448.675	905.5
448.896	928.5
449.117	891.5
449.338	895.5
449.559	892.5
449.779	924.5
450	873.5
450.221	913.5
450.442	929.5
450.662	907.5
450.883	926.5
451.104	947.5
451.324	960.5
451.545	947.5
451.766	899.5
451.986	917.5
452.207	930.5
452.428	891.5
452.648	918.5
452.869	899.5
453.089	881.5
453.31	875.5
453.53	887.5
453.751	882.5
453.971	865.5
454.192	883.5
454.412	855.5
454.633	868.5
454.853	856.5
455.073	862.5
455.294	861.5
455.514	859.5
455.734	865.5
455.955	840.5
456.175	850.5
456.395	838.5
456.616	805.5
456.836	847.5
457.056	823.5
457.276	829.5
457.497	866.5
457.717	843.5
457.937	885.5
458.157	889.5
458.377	899.5
458.598	884.5
458.818	916.5
459.038	965.5
459.258	983.5
459.478	1009.5
459.698	1062.5
459.918	1055.5
460.138	1117.5
460.358	1161.5
460.578	1203.5
460.798	1181.5
461.018	1202.5
461.238	1171.5
461.458	1143.5
461.678	1153.5
461.898	1180.5
462.118	1170.5
462.338	1275.5
462.558	1271.5
462.777	1347.5
462.997	1418.5
463.217	1639.5
463.437	1677.5
463.657	1508.5
463.876	1352.5
464.096	1391.5
464.316	1381.5
464.536	1407.5
464.755	1360.5
464.975	1277.5
465.195	1227.5
465.414	1163.5
465.634	1075.5
465.854	1035.5
466.073	1042.5
466.293	999.5
466.512	967.5
466.732	997.5
466.951	958.5
467.171	979.5
467.391	950.5
467.61	961.5
467.829	947.5
468.049	947.5
468.268	897.5
468.488	883.5
468.707	902.5
468.927	910.5
469.146	919.5
469.365	947.5
469.585	915.5
469.804	950.5
470.023	949.5
470.243	954.5
470.462	981.5
470.681	998.5
470.901	999.5
471.12	963.5
471.339	947.5
471.558	921.5
471.777	908.5
471.997	909.5
472.216	915.5
472.435	892.5
472.654	914.5
472.873	884.5
473.092	874.5
473.311	858.5
473.53	898.5
473.749	890.5
473.968	915.5
474.187	873.5
474.406	884.5
474.625	904.5
474.844	872.5
475.063	892.5
475.282	892.5
475.501	891.5
475.72	900.5
475.939	905.5
476.158	914.5
476.377	915.5
476.596	898.5
476.814	935.5
477.033	914.5
477.252	947.5
477.471	971.5
477.69	1010.5
477.908	1022.5
478.127	1053.5
478.346	1068.5
478.564	1080.5
478.783	1092.5
479.002	1120.5
479.22	1113.5
479.439	1148.5
479.658	1123.5
479.876	1125.5
480.095	1140.5
480.313	1178.5
480.532	1242.5
480.751	1238.5
480.969	1149.5
481.188	1093.5
481.406	1083.5
481.624	1051.5
481.843	1043.5
482.061	1004.5
482.28	1002.5
482.498	1002.5
482.717	1017.5
482.935	1029.5
483.153	990.5
483.372	958.5
483.59	1016.5
483.808	1008.5
484.027	1012.5
484.245	1014.5
484.463	1011.5
484.681	1064.5
484.9	1040.5
485.118	1072.5
485.336	1067.5
485.554	1086.5
485.772	1059.5
485.99	1060.5
486.209	1073.5
486.427	1080.5
486.645	1092.5
486.863	1082.5
487.081	1081.5
487.299	1050.5
487.517	1082.5
487.735	1076.5
487.953	1092.5
488.171	1068.5
488.389	1048.5
488.607	1014.5
488.825	1041.5
489.043	1005.5
489.261	1020.5
489.479	1028.5
489.696	1079.5
489.914	1064.5
490.132	1088.5
490.35	1066.5
490.568	1071.5
490.786	1102.5
491.003	1074.5
491.221	1066.5
491.439	1070.5
491.657	1058.5
491.874	1057.5
492.092	1063.5
492.31	1083.5
492.527	1081.5
492.745	1086.5
492.963	1113.5
493.18	1103.5
493.398	1089.5
493.615	1119.5
493.833	1101.5
494.05	1119.5
494.268	1119.5
494.485	1100.5
494.703	1130.5
494.92	1086.5
495.138	1148.5
495.355	1118.5
495.573	1110.5
495.79	1131.5
496.008	1144.5
496.225	1121.5
496.442	1136.5
496.66	1189.5
496.877	1155.5
497.094	1176.5
497.312	1189.5
497.529	1227.5
497.746	1255.5
497.963	1329.5
498.181	1367.5
498.398	1407.5
498.615	1491.5
498.832	1599.5
499.049	1747.5
499.267	1868.5
499.484	2087.5
499.701	2266.5
499.918	2540.5
500.135	2957.5
500.352	3412.5
500.569	3666.5
500.786	3644.5
501.003	3365.5
501.22	2986.5
501.437	2584.5
501.654	2250.5
501.871	2024.5
502.088	1853.5
502.305	1711.5
502.522	1596.5
502.739	1596.5
502.956	1469.5
503.172	1408.5
503.389	1334.5
503.606	1299.5
503.823	1300.5
504.04	1284.5
504.256	1260.5
504.473	1304.5
504.69	1395.5
504.907	1386.5
505.123	1251.5
505.34	1194.5
505.557	1147.5
505.773	1078.5
505.99	1067.5
506.207	1034.5
506.423	1037.5
506.64	985.5
506.856	996.5
507.073	1012.5
507.289	995.5
507.506	988.5
507.722	983.5
507.939	996.5
508.155	973.5
508.372	983.5
508.588	951.5
508.805	939.5
509.021	947.5
509.238	946.5
509.454	930.5
509.67	929.5
509.887	927.5
510.103	945.5
510.319	919.5
510.536	906.5
510.752	916.5
510.968	899.5
511.184	927.5
511.401	936.5
511.617	903.5
511.833	907.5
512.049	912.5
512.265	923.5
512.481	914.5
512.698	881.5
512.914	894.5
513.13	924.5
513.346	897.5
513.562	899.5
513.778	925.5
513.994	902.5
514.21	908.5
514.426	888.5
514.642	929.5
514.858	943.5
515.074	961.5
515.29	945.5
515.506	967.5
515.721	980.5
515.937	951.5
516.153	968.5
516.369	1016.5
516.585	1060.5
516.801	1052.5
517.016	1154.5
517.232	1167.5
517.448	1273.5
517.664	1302.5
517.879	1299.5
518.095	1344.5
518.311	1267.5
518.527	1237.5
518.742	1159.5
518.958	1087.5
519.173	1083.5
519.389	1032.5
519.605	1003.5
519.82	988.5
520.036	966.5
520.251	924.5
520.467	904.5
520.682	926.5
520.898	923.5
521.113	923.5
521.329	888.5
521.544	885.5
521.76	876.5
521.975	886.5
522.19	857.5
522.406	869.5
522.621	845.5
522.836	864.5
523.052	853.5
523.267	827.5
523.482	862.5
523.698	827.5
523.913	876.5
524.128	847.5
524.343	828.5
524.559	825.5
524.774	833.5
524.989	847.5
525.204	868.5
525.419	865.5
525.634	829.5
525.849	840.5
526.064	841.5
526.28	827.5
526.495	823.5
526.71	842.5
526.925	811.5
527.14	795.5
527.355	839.5
527.57	834.5
527.785	803.5
527.999	829.5
528.214	841.5
528.429	839.5
528.644	809.5
528.859	818.5
529.074	834.5
529.289	806.5
529.503	821.5
529.718	829.5
529.933	808.5
530.148	827.5
530.363	811.5
530.577	825.5
530.792	799.5
531.007	839.5
531.221	821.5
531.436	845.5
531.651	827.5
531.865	817.5
532.08	809.5
532.295	813.5
532.509	827.5
532.724	819.5
532.938	833.5
533.153	836.5
533.367	840.5
533.582	826.5
533.796	848.5
534.011	821.5
534.225	826.5
534.44	807.5
534.654	825.5
534.868	810.5
535.083	807.5
535.297	802.5
535.511	801.5
535.726	793.5
535.94	797.5
536.154	749.5
536.369	793.5
536.583	799.5
536.797	761.5
537.011	782.5
537.225	774.5
537.44	770.5
537.654	771.5
537.868	760.5
538.082	744.5
538.296	749.5
538.51	743.5
538.724	736.5
538.938	747.5
539.153	755.5
539.367	770.5
539.581	745.5
539.795	744.5
540.009	766.5
540.222	747.5
540.436	736.5
540.65	717.5
540.864	753.5
541.078	741.5
541.292	728.5
541.506	745.5
541.72	723.5
541.934	736.5
542.147	739.5
542.361	761.5
542.575	717.5
542.789	719.5
543.002	694.5
543.216	753.5
543.43	743.5
543.644	741.5
543.857	725.5
544.071	717.5
544.285	749.5
544.498	718.5
544.712	756.5
544.925	723.5
545.139	729.5
545.352	744.5
545.566	779.5
545.779	778.5
545.993	776.5
546.206	744.5
546.42	743.5
546.633	731.5
546.847	745.5
547.06	740.5
547.274	739.5
547.487	739.5
547.7	748.5
547.914	754.5
548.127	753.5
548.34	768.5
548.554	751.5
548.767	754.5
548.98	741.5
549.193	761.5
549.407	766.5
549.62	772.5
549.833	772.5
550.046	768.5
550.259	754.5
550.473	746.5
550.686	751.5
550.899	736.5
551.112	743.5
551.325	731.5
551.538	727.5
551.751	730.5
551.964	736.5
552.177	743.5
552.39	757.5
552.603	783.5
552.816	817.5
553.029	810.5
553.242	834.5
553.455	848.5
553.667	862.5
553.88	819.5
554.093	789.5
554.306	785.5
554.519	760.5
554.732	759.5
554.944	760.5
555.157	758.5
555.37	743.5
555.583	703.5
555.795	690.5
556.008	681.5
556.221	681.5
556.433	663.5
556.646	648.5
556.859	667.5
557.071	659.5
557.284	660.5
557.496	653.5
557.709	623.5
557.921	645.5
558.134	620.5
558.346	626.5
558.559	633.5
558.771	657.5
558.984	611.5
559.196	609.5
559.409	636.5
559.621	635.5
559.833	619.5
560.046	641.5
560.258	629.5
560.47	631.5
560.683	612.5
560.895	627.5
561.107	616.5
561.32	630.5
561.532	616.5
561.744	615.5
561.956	628.5
562.168	635.5
562.381	626.5
562.593	624.5
562.805	628.5
563.017	644.5
563.229	624.5
563.441	623.5
563.653	637.5
563.865	654.5
564.077	629.5
564.289	635.5
564.501	660.5
564.713	661.5
564.925	672.5
565.137	677.5
565.349	699.5
565.561	721.5
565.773	767.5
565.985	796.5
566.197	821.5
566.408	875.5
566.62	959.5
566.832	1045.5
567.044	1043.5
567.255	1053.5
567.467	1082.5
567.679	1164.5
567.891	1250.5
568.102	1313.5
568.314	1261.5
568.526	1069.5
568.737	959.5
568.949	887.5
569.161	803.5
569.372	776.5
569.584	721.5
569.795	689.5
570.007	666.5
570.218	650.5
570.43	650.5
570.641	641.5
570.853	643.5
571.064	645.5
571.276	668.5
571.487	641.5
571.698	625.5
571.91	605.5
572.121	575.5
572.333	551.5
572.544	552.5
572.755	540.5
572.966	547.5
573.178	543.5
573.389	539.5
573.6	526.5
573.811	524.5
574.023	502.5
574.234	506.5
574.445	524.5
574.656	515.5
574.867	503.5
575.078	514.5
575.289	516.5
575.501	521.5
575.712	532.5
575.923	491.5
576.134	496.5
576.345	499.5
576.556	485.5
576.767	483.5
576.978	479.5
577.188	482.5
577.399	459.5
577.61	494.5
577.821	469.5
578.032	449.5
578.243	470.5
578.454	465.5
578.665	476.5
578.875	462.5
579.086	465.5
579.297	444.5
579.508	453.5
579.718	453.5
579.929	445.5
580.14	447.5
580.35	436.5
580.561	448.5
580.772	457.5
580.982	455.5
581.193	414.5
581.403	443.5
581.614	413.5
581.825	411.5
582.035	425.5
582.246	426.5
582.456	427.5
582.667	434.5
582.877	436.5
583.087	442.5
583.298	439.5
583.508	423.5
583.719	417.5
583.929	424.5
584.139	421.5
584.35	423.5
584.56	423.5
584.77	413.5
584.981	405.5
585.191	418.5
585.401	439.5
585.611	426.5
585.821	420.5
586.032	414.5
586.242	397.5
586.452	405.5
586.662	433.5
586.872	409.5
587.082	415.5
587.292	414.5
587.502	410.5
587.713	398.5
587.923	417.5
588.133	429.5
588.343	402.5
588.553	424.5
588.762	416.5
588.972	395.5
589.182	405.5
589.392	410.5
589.602	413.5
589.812	413.5
590.022	415.5
590.232	416.5
590.441	410.5
590.651	425.5
590.861	421.5
591.071	436.5
591.281	430.5
591.49	411.5
591.7	433.5
591.91	455.5
592.119	453.5
592.329	468.5
592.539	462.5
592.748	470.5
592.958	507.5
593.167	534.5
593.377	538.5
593.587	552.5
593.796	530.5
594.006	552.5
594.215	566.5
594.424	559.5
594.634	573.5
594.843	545.5
595.053	493.5
595.262	486.5
595.472	442.5
595.681	436.5
595.89	410.5
596.1	417.5
596.309	415.5
596.518	406.5
596.727	376.5
596.937	390.5
597.146	393.5
597.355	385.5
597.564	376.5
597.774	383.5
597.983	380.5
598.192	381.5
598.401	381.5
598.61	377.5
598.819	370.5
599.028	357.5
599.237	351.5
599.446	358.5
599.655	354.5
599.864	359.5
600.073	342.5
600.282	348.5
600.491	349.5
600.7	337.5
600.909	362.5
601.118	345.5
601.327	352.5
601.536	329.5
601.745	345.5
601.953	326.5
602.162	344.5
602.371	342.5
602.58	348.5
602.789	331.5
602.997	340.5
603.206	325.5
603.415	332.5
603.623	358.5
603.832	326.5
604.041	332.5
604.249	311.5
604.458	312.5
604.666	308.5
604.875	327.5
605.084	336.5
605.292	301.5
605.501	323.5
605.709	312.5
605.918	313.5
606.126	310.5
606.334	339.5
606.543	319.5
606.751	320.5
606.96	333.5
607.168	320.5
607.376	323.5
607.585	304.5
607.793	308.5
608.001	321.5
608.21	316.5
608.418	313.5
608.626	324.5
608.834	307.5
609.043	315.5
609.251	314.5
609.459	326.5
609.667	308.5
609.875	303.5
610.083	306.5
610.291	313.5
610.499	304.5
610.707	312.5
610.916	300.5
611.124	312.5
611.332	305.5
611.54	307.5
611.748	292.5
611.955	293.5
612.163	306.5
612.371	309.5
612.579	287.5
612.787	293.5
612.995	304.5
613.203	305.5
613.411	306.5
613.618	292.5
613.826	293.5
614.034	303.5
614.242	295.5
614.449	301.5
614.657	299.5
614.865	298.5
615.072	332.5
615.28	286.5
615.488	294.5
615.695	299.5
615.903	288.5
616.111	309.5
616.318	312.5
616.526	312.5
616.733	312.5
616.941	319.5
617.148	315.5
617.356	314.5
617.563	327.5
617.771	313.5
617.978	310.5
618.185	311.5
618.393	318.5
618.6	309.5
618.807	303.5
619.015	308.5
619.222	292.5
619.429	282.5
619.637	300.5
619.844	285.5
620.051	295.5
620.258	288.5
620.466	289.5
620.673	284.5
620.88	265.5
621.087	287.5
621.294	281.5
621.501	280.5
621.708	263.5
621.915	268.5
622.122	290.5
622.329	269.5
622.536	279.5
622.743	289.5
622.95	259.5
623.157	273.5
623.364	273.5
623.571	267.5
623.778	272.5
623.985	251.5
624.192	268.5
624.399	256.5
624.606	268.5
624.812	257.5
625.019	265.5
625.226	262.5
625.433	248.5
625.639	270.5
625.846	255.5
626.053	243.5
626.259	261.5
626.466	264.5
626.673	261.5
626.879	255.5
627.086	255.5
627.293	274.5
627.499	247.5
627.706	256.5
627.912	255.5
628.119	249.5
628.325	225.5
628.532	247.5
628.738	232.5
628.945	254.5
629.151	241.5
629.357	212.5
629.564	245.5
629.77	238.5
629.976	240.5
630.183	228.5
630.389	241.5
630.595	255.5
630.802	242.5
631.008	239.5
631.214	213.5
631.42	235.5
631.627	222.5
631.833	228.5
632.039	214.5
632.245	233.5
632.451	229.5
632.657	217.5
632.863	229.5
633.069	220.5
633.275	219.5
633.481	213.5
633.688	231.5
633.893	232.5
634.099	228.5
634.305	234.5
634.511	221.5
634.717	216.5
634.923	227.5
635.129	219.5
635.335	212.5
635.541	236.5
635.747	206.5
635.952	216.5
636.158	218.5
636.364	215.5
636.57	219.5
636.775	223.5
636.981	211.5
637.187	214.5
637.392	226.5
637.598	203.5
637.804	205.5
638.009	193.5
638.215	223.5
638.421	205.5
638.626	231.5
638.832	221.5
639.037	209.5
639.243	194.5
639.448	194.5
639.654	202.5
639.859	215.5
640.065	201.5
640.27	217.5
640.475	198.5
640.681	198.5
640.886	195.5
641.091	204.5
641.297	218.5
641.502	192.5
641.707	200.5
641.913	195.5
642.118	187.5
642.323	205.5
642.528	193.5
642.733	200.5
642.939	204.5
643.144	187.5
643.349	204.5
643.554	209.5
643.759	216.5
643.964	190.5
644.169	196.5
644.374	201.5
644.579	182.5
644.784	201.5
644.989	197.5
645.194	189.5
645.399	197.5
645.604	198.5
645.809	195.5
646.014	193.5
646.219	202.5
646.423	191.5
646.628	211.5
646.833	195.5
647.038	194.5
647.243	203.5
647.447	205.5
647.652	210.5
647.857	208.5
648.062	202.5
648.266	210.5
648.471	222.5
648.676	239.5
648.88	220.5
649.085	212.5
649.289	203.5
649.494	189.5
649.698	199.5
649.903	196.5
650.107	183.5
650.312	199.5
650.516	201.5
650.721	194.5
650.925	178.5
651.13	170.5
651.334	177.5
651.539	165.5
651.743	169.5
651.947	176.5
652.152	178.5
652.356	176.5
652.56	169.5
652.764	166.5
652.969	171.5
653.173	163.5
653.377	155.5
653.581	142.5
653.785	152.5
653.99	148.5
654.194	159.5
654.398	165.5
654.602	144.5
654.806	146.5
655.01	142.5
655.214	132.5
655.418	144.5
655.622	129.5
655.826	148.5
656.03	139.5
656.234	156.5
656.438	139.5
656.642	140.5
656.846	137.5
657.049	138.5
657.253	135.5
657.457	132.5
657.661	120.5
657.865	112.5
658.068	119.5
658.272	115.5
658.476	118.5
658.68	108.5
658.883	107.5
659.087	108.5
659.291	113.5
659.494	112.5
659.698	106.5
659.901	83.5
660.105	107.5
660.309	108.5
660.512	99.5
660.716	100.5
660.919	103.5
661.123	98.5
661.326	98.5
661.53	95.5
661.733	77.5
661.936	100.5
662.14	88.5
662.343	97.5
662.546	91.5
662.75	81.5
662.953	84.5
663.156	93.5
663.36	97.5
663.563	84.5
663.766	89.5
663.969	77.5
664.173	83.5
664.376	77.5
664.579	86.5
664.782	77.5
664.985	93.5
665.188	79.5
665.391	83.5
665.594	81.5
665.797	70.5
666	65.5
666.203	59.5
666.406	81.5
666.609	73.5
666.812	75.5
667.015	71.5
667.218	80.5
667.421	85.5
667.624	68.5
667.827	82.5
668.03	82.5
668.232	93.5
668.435	90.5
668.638	83.5
668.841	93.5
669.043	76.5
669.246	75.5
669.449	63.5
669.651	84.5
669.854	83.5
670.057	100.5
670.259	74.5
670.462	68.5
670.665	90.5
670.867	79.5
671.07	71.5
671.272	63.5
671.475	74.5
671.677	77.5
671.88	83.5
672.082	96.5
672.284	77.5
672.487	81.5
672.689	85.5
672.892	66.5
