Data from Ni(NO3)2@0.25M.TitratingCurve.Agarose3%dH2O.NegLispCup.LampEnergy10.LIBS07252019_HRD10591_18-05-46-566.txt Node
Date: Thu Jul 25 18:05:46 EDT 2019
User: cochatt
Spectrometer: HR+D1059
Trigger mode: 1
Integration Time (sec): 1.000000E-1
Scans to average: 1
Electric dark correction enabled: true
Nonlinearity correction enabled: false
Boxcar width: 0
XAxis mode: Wavelengths
Number of Pixels in Spectrum: 2048
>>>>>Begin Spectral Data<<<<<
223.165	-13.62
223.4	-13.62
223.635	-13.62
223.869	-13.62
224.104	-14.62
224.338	-8.62
224.573	-12.62
224.808	-2.62
225.042	-9.62
225.277	4.38
225.511	-3.62
225.746	-9.62
225.98	-6.62
226.215	5.38
226.449	8.38
226.683	16.38
226.918	38.38
227.152	22.38
227.387	56.38
227.621	43.38
227.856	40.38
228.09	36.38
228.324	40.38
228.559	36.38
228.793	70.38
229.027	119.38
229.262	114.38
229.496	136.38
229.73	141.38
229.964	145.38
230.199	149.38
230.433	127.38
230.667	150.38
230.901	154.38
231.136	150.38
231.37	148.38
231.604	159.38
231.838	168.38
232.072	142.38
232.306	171.38
232.541	162.38
232.775	160.38
233.009	147.38
233.243	166.38
233.477	159.38
233.711	172.38
233.945	177.38
234.179	171.38
234.413	169.38
234.647	180.38
234.881	171.38
235.115	169.38
235.349	170.38
235.583	164.38
235.817	166.38
236.051	174.38
236.285	161.38
236.519	177.38
236.753	174.38
236.987	185.38
237.221	181.38
237.455	168.38
237.689	188.38
237.922	177.38
238.156	189.38
238.39	174.38
238.624	181.38
238.858	192.38
239.091	187.38
239.325	201.38
239.559	184.38
239.793	194.38
240.027	196.38
240.26	219.38
240.494	184.38
240.728	187.38
240.961	210.38
241.195	194.38
241.429	208.38
241.662	213.38
241.896	213.38
242.13	217.38
242.363	224.38
242.597	224.38
242.83	220.38
243.064	226.38
243.298	220.38
243.531	222.38
243.765	220.38
243.998	235.38
244.232	247.38
244.465	240.38
244.699	233.38
244.932	238.38
245.166	245.38
245.399	245.38
245.633	245.38
245.866	263.38
246.099	264.38
246.333	268.38
246.566	244.38
246.8	252.38
247.033	256.38
247.266	256.38
247.5	260.38
247.733	267.38
247.966	269.38
248.2	279.38
248.433	289.38
248.666	285.38
248.899	273.38
249.133	294.38
249.366	309.38
249.599	295.38
249.832	287.38
250.066	294.38
250.299	296.38
250.532	302.38
250.765	298.38
250.998	316.38
251.231	307.38
251.465	313.38
251.698	310.38
251.931	325.38
252.164	351.38
252.397	346.38
252.63	349.38
252.863	335.38
253.096	321.38
253.329	318.38
253.562	330.38
253.795	358.38
254.028	338.38
254.261	347.38
254.494	341.38
254.727	336.38
254.96	358.38
255.193	351.38
255.426	362.38
255.659	346.38
255.892	355.38
256.124	350.38
256.357	367.38
256.59	378.38
256.823	378.38
257.056	362.38
257.289	382.38
257.521	390.38
257.754	370.38
257.987	377.38
258.22	385.38
258.452	398.38
258.685	409.38
258.918	387.38
259.151	394.38
259.383	407.38
259.616	391.38
259.849	418.38
260.081	396.38
260.314	385.38
260.547	397.38
260.779	416.38
261.012	401.38
261.244	406.38
261.477	416.38
261.71	436.38
261.942	418.38
262.175	432.38
262.407	429.38
262.64	420.38
262.872	408.38
263.105	427.38
263.337	424.38
263.57	426.38
263.802	442.38
264.035	416.38
264.267	438.38
264.499	453.38
264.732	442.38
264.964	443.38
265.197	449.38
265.429	448.38
265.661	437.38
265.894	457.38
266.126	461.38
266.358	456.38
266.591	454.38
266.823	445.38
267.055	458.38
267.287	492.38
267.52	476.38
267.752	486.38
267.984	465.38
268.216	470.38
268.448	481.38
268.681	483.38
268.913	496.38
269.145	493.38
269.377	474.38
269.609	483.38
269.841	494.38
270.073	488.38
270.306	500.38
270.538	496.38
270.77	459.38
271.002	498.38
271.234	500.38
271.466	503.38
271.698	503.38
271.93	498.38
272.162	504.38
272.394	483.38
272.626	492.38
272.858	499.38
273.09	500.38
273.322	530.38
273.553	515.38
273.785	510.38
274.017	513.38
274.249	538.38
274.481	536.38
274.713	527.38
274.945	522.38
275.176	547.38
275.408	540.38
275.64	526.38
275.872	546.38
276.104	564.38
276.335	543.38
276.567	540.38
276.799	562.38
277.031	553.38
277.262	531.38
277.494	547.38
277.726	546.38
277.957	553.38
278.189	585.38
278.421	572.38
278.652	558.38
278.884	593.38
279.115	584.38
279.347	577.38
279.579	570.38
279.81	549.38
280.042	595.38
280.273	565.38
280.505	572.38
280.736	578.38
280.968	587.38
281.199	568.38
281.431	590.38
281.662	587.38
281.894	592.38
282.125	610.38
282.356	608.38
282.588	597.38
282.819	626.38
283.051	622.38
283.282	618.38
283.513	617.38
283.745	611.38
283.976	591.38
284.207	589.38
284.439	624.38
284.67	628.38
284.901	640.38
285.132	637.38
285.364	608.38
285.595	652.38
285.826	625.38
286.057	658.38
286.288	654.38
286.52	633.38
286.751	614.38
286.982	642.38
287.213	637.38
287.444	629.38
287.675	626.38
287.906	647.38
288.138	672.38
288.369	629.38
288.6	638.38
288.831	643.38
289.062	635.38
289.293	655.38
289.524	654.38
289.755	673.38
289.986	669.38
290.217	669.38
290.448	632.38
290.679	689.38
290.91	648.38
291.141	648.38
291.371	657.38
291.602	658.38
291.833	685.38
292.064	646.38
292.295	662.38
292.526	633.38
292.757	665.38
292.987	646.38
293.218	614.38
293.449	686.38
293.68	666.38
293.91	686.38
294.141	659.38
294.372	640.38
294.603	654.38
294.833	698.38
295.064	663.38
295.295	657.38
295.525	662.38
295.756	676.38
295.987	670.38
296.217	707.38
296.448	675.38
296.679	690.38
296.909	667.38
297.14	708.38
297.37	697.38
297.601	712.38
297.831	692.38
298.062	697.38
298.292	709.38
298.523	730.38
298.753	717.38
298.984	713.38
299.214	717.38
299.445	721.38
299.675	704.38
299.905	717.38
300.136	724.38
300.366	724.38
300.597	727.38
300.827	778.38
301.057	747.38
301.288	743.38
301.518	744.38
301.748	767.38
301.979	763.38
302.209	754.38
302.439	753.38
302.669	774.38
302.9	746.38
303.13	748.38
303.36	745.38
303.59	768.38
303.82	763.38
304.051	741.38
304.281	769.38
304.511	743.38
304.741	774.38
304.971	759.38
305.201	790.38
305.431	753.38
305.661	782.38
305.891	728.38
306.121	748.38
306.352	755.38
306.582	725.38
306.812	762.38
307.042	736.38
307.272	752.38
307.502	741.38
307.731	758.38
307.961	754.38
308.191	753.38
308.421	730.38
308.651	743.38
308.881	728.38
309.111	727.38
309.341	765.38
309.571	726.38
309.8	754.38
310.03	760.38
310.26	749.38
310.49	770.38
310.72	745.38
310.949	772.38
311.179	792.38
311.409	777.38
311.639	754.38
311.868	779.38
312.098	783.38
312.328	759.38
312.557	785.38
312.787	799.38
313.017	774.38
313.246	776.38
313.476	813.38
313.706	820.38
313.935	788.38
314.165	828.38
314.394	844.38
314.624	850.38
314.853	803.38
315.083	822.38
315.312	813.38
315.542	828.38
315.771	812.38
316.001	818.38
316.23	787.38
316.46	801.38
316.689	824.38
316.919	808.38
317.148	819.38
317.377	814.38
317.607	789.38
317.836	836.38
318.065	800.38
318.295	820.38
318.524	843.38
318.753	854.38
318.983	797.38
319.212	800.38
319.441	830.38
319.67	816.38
319.9	833.38
320.129	826.38
320.358	833.38
320.587	836.38
320.816	832.38
321.046	820.38
321.275	812.38
321.504	836.38
321.733	874.38
321.962	848.38
322.191	864.38
322.42	856.38
322.649	856.38
322.878	851.38
323.108	823.38
323.337	870.38
323.566	876.38
323.795	893.38
324.024	877.38
324.253	869.38
324.482	877.38
324.71	899.38
324.939	878.38
325.168	900.38
325.397	908.38
325.626	913.38
325.855	917.38
326.084	916.38
326.313	905.38
326.542	935.38
326.77	938.38
326.999	939.38
327.228	917.38
327.457	938.38
327.686	910.38
327.914	937.38
328.143	960.38
328.372	938.38
328.6	925.38
328.829	963.38
329.058	954.38
329.287	949.38
329.515	989.38
329.744	958.38
329.972	963.38
330.201	980.38
330.43	982.38
330.658	966.38
330.887	989.38
331.115	972.38
331.344	1023.38
331.572	999.38
331.801	1033.38
332.03	1043.38
332.258	1048.38
332.486	1082.38
332.715	1094.38
332.943	1113.38
333.172	1134.38
333.4	1144.38
333.629	1194.38
333.857	1212.38
334.085	1214.38
334.314	1226.38
334.542	1241.38
334.771	1234.38
334.999	1232.38
335.227	1251.38
335.455	1201.38
335.684	1233.38
335.912	1218.38
336.14	1209.38
336.369	1197.38
336.597	1204.38
336.825	1192.38
337.053	1157.38
337.281	1158.38
337.51	1116.38
337.738	1176.38
337.966	1109.38
338.194	1090.38
338.422	1108.38
338.65	1081.38
338.878	1103.38
339.106	1080.38
339.334	1096.38
339.562	1065.38
339.79	1061.38
340.018	1049.38
340.246	1028.38
340.474	1066.38
340.702	1027.38
340.93	1021.38
341.158	1031.38
341.386	1060.38
341.614	1057.38
341.842	1062.38
342.07	1035.38
342.298	1030.38
342.526	1028.38
342.754	1037.38
342.981	1016.38
343.209	1039.38
343.437	1091.38
343.665	1122.38
343.893	1176.38
344.12	1225.38
344.348	1202.38
344.576	1161.38
344.804	1144.38
345.031	1104.38
345.259	1060.38
345.487	1063.38
345.714	1050.38
345.942	1046.38
346.17	1091.38
346.397	1037.38
346.625	1026.38
346.853	988.38
347.08	979.38
347.308	1003.38
347.535	1007.38
347.763	984.38
347.99	968.38
348.218	1026.38
348.445	1003.38
348.673	993.38
348.9	968.38
349.128	999.38
349.355	987.38
349.583	1019.38
349.81	980.38
350.037	980.38
350.265	955.38
350.492	940.38
350.72	953.38
350.947	962.38
351.174	973.38
351.402	973.38
351.629	984.38
351.856	971.38
352.083	967.38
352.311	963.38
352.538	963.38
352.765	994.38
352.992	1000.38
353.22	927.38
353.447	891.38
353.674	943.38
353.901	953.38
354.128	957.38
354.355	941.38
354.583	955.38
354.81	953.38
355.037	986.38
355.264	962.38
355.491	934.38
355.718	963.38
355.945	981.38
356.172	939.38
356.399	962.38
356.626	964.38
356.853	983.38
357.08	939.38
357.307	954.38
357.534	946.38
357.761	953.38
357.988	929.38
358.215	930.38
358.441	935.38
358.668	944.38
358.895	924.38
359.122	947.38
359.349	946.38
359.576	938.38
359.802	956.38
360.029	954.38
360.256	946.38
360.483	942.38
360.709	940.38
360.936	941.38
361.163	966.38
361.39	937.38
361.616	930.38
361.843	942.38
362.07	961.38
362.296	956.38
362.523	960.38
362.749	947.38
362.976	932.38
363.203	964.38
363.429	917.38
363.656	948.38
363.882	923.38
364.109	942.38
364.335	913.38
364.562	953.38
364.788	953.38
365.015	957.38
365.241	943.38
365.468	925.38
365.694	941.38
365.92	933.38
366.147	951.38
366.373	932.38
366.599	916.38
366.826	932.38
367.052	929.38
367.278	914.38
367.505	932.38
367.731	924.38
367.957	948.38
368.184	980.38
368.41	929.38
368.636	971.38
368.862	994.38
369.089	963.38
369.315	974.38
369.541	953.38
369.767	978.38
369.993	968.38
370.219	980.38
370.445	985.38
370.672	996.38
370.898	989.38
371.124	1014.38
371.35	1018.38
371.576	1006.38
371.802	1003.38
372.028	1008.38
372.254	1038.38
372.48	1001.38
372.706	1028.38
372.932	1036.38
373.158	1003.38
373.384	1050.38
373.61	1000.38
373.835	1012.38
374.061	1020.38
374.287	1046.38
374.513	1039.38
374.739	1039.38
374.965	1091.38
375.191	1099.38
375.416	1110.38
375.642	1070.38
375.868	1069.38
376.094	1058.38
376.319	1044.38
376.545	1018.38
376.771	1019.38
376.997	1008.38
377.222	984.38
377.448	1007.38
377.674	998.38
377.899	1010.38
378.125	997.38
378.35	989.38
378.576	970.38
378.802	993.38
379.027	978.38
379.253	976.38
379.478	989.38
379.704	982.38
379.929	997.38
380.155	985.38
380.38	985.38
380.606	1013.38
380.831	1008.38
381.057	1009.38
381.282	985.38
381.507	988.38
381.733	1036.38
381.958	1010.38
382.184	1018.38
382.409	1029.38
382.634	1033.38
382.86	1032.38
383.085	1038.38
383.31	1074.38
383.535	1049.38
383.761	1074.38
383.986	1093.38
384.211	1123.38
384.436	1135.38
384.662	1130.38
384.887	1146.38
385.112	1128.38
385.337	1152.38
385.562	1170.38
385.787	1168.38
386.013	1206.38
386.238	1172.38
386.463	1190.38
386.688	1173.38
386.913	1186.38
387.138	1193.38
387.363	1202.38
387.588	1174.38
387.813	1209.38
388.038	1158.38
388.263	1222.38
388.488	1206.38
388.713	1222.38
388.938	1206.38
389.163	1201.38
389.387	1158.38
389.612	1152.38
389.837	1152.38
390.062	1177.38
390.287	1206.38
390.512	1167.38
390.736	1188.38
390.961	1243.38
391.186	1208.38
391.411	1251.38
391.636	1289.38
391.86	1323.38
392.085	1323.38
392.31	1340.38
392.534	1316.38
392.759	1311.38
392.984	1282.38
393.208	1272.38
393.433	1276.38
393.658	1294.38
393.882	1289.38
394.107	1282.38
394.331	1284.38
394.556	1268.38
394.78	1278.38
395.005	1284.38
395.229	1312.38
395.454	1305.38
395.678	1337.38
395.903	1329.38
396.127	1329.38
396.352	1311.38
396.576	1300.38
396.801	1314.38
397.025	1294.38
397.249	1352.38
397.474	1364.38
397.698	1381.38
397.922	1428.38
398.147	1396.38
398.371	1451.38
398.595	1444.38
398.82	1536.38
399.044	1606.38
399.268	1681.38
399.492	1869.38
399.717	1955.38
399.941	2012.38
400.165	1953.38
400.389	1827.38
400.613	1740.38
400.837	1630.38
401.062	1588.38
401.286	1567.38
401.51	1554.38
401.734	1548.38
401.958	1556.38
402.182	1542.38
402.406	1517.38
402.63	1565.38
402.854	1567.38
403.078	1538.38
403.302	1563.38
403.526	1601.38
403.75	1578.38
403.974	1674.38
404.198	1589.38
404.422	1620.38
404.645	1609.38
404.869	1637.38
405.093	1624.38
405.317	1603.38
405.541	1663.38
405.765	1630.38
405.988	1604.38
406.212	1666.38
406.436	1650.38
406.66	1709.38
406.883	1765.38
407.107	1788.38
407.331	1855.38
407.555	1894.38
407.778	1890.38
408.002	1883.38
408.226	1838.38
408.449	1799.38
408.673	1790.38
408.896	1742.38
409.12	1727.38
409.344	1737.38
409.567	1720.38
409.791	1732.38
410.014	1739.38
410.238	1715.38
410.461	1696.38
410.685	1664.38
410.908	1672.38
411.132	1630.38
411.355	1621.38
411.578	1606.38
411.802	1577.38
412.025	1606.38
412.249	1609.38
412.472	1600.38
412.695	1578.38
412.919	1539.38
413.142	1549.38
413.365	1577.38
413.589	1568.38
413.812	1546.38
414.035	1517.38
414.258	1517.38
414.482	1523.38
414.705	1526.38
414.928	1562.38
415.151	1576.38
415.374	1523.38
415.597	1517.38
415.821	1484.38
416.044	1501.38
416.267	1527.38
416.49	1482.38
416.713	1501.38
416.936	1502.38
417.159	1494.38
417.382	1470.38
417.605	1478.38
417.828	1491.38
418.051	1479.38
418.274	1506.38
418.497	1506.38
418.72	1522.38
418.943	1492.38
419.166	1637.38
419.389	1752.38
419.611	1709.38
419.834	1652.38
420.057	1579.38
420.28	1524.38
420.503	1509.38
420.726	1472.38
420.948	1487.38
421.171	1490.38
421.394	1480.38
421.617	1486.38
421.839	1531.38
422.062	1495.38
422.285	1498.38
422.507	1481.38
422.73	1469.38
422.953	1520.38
423.175	1560.38
423.398	1542.38
423.621	1533.38
423.843	1556.38
424.066	1543.38
424.288	1554.38
424.511	1504.38
424.733	1523.38
424.956	1532.38
425.178	1497.38
425.401	1512.38
425.623	1502.38
425.846	1458.38
426.068	1441.38
426.291	1460.38
426.513	1440.38
426.735	1473.38
426.958	1472.38
427.18	1425.38
427.402	1431.38
427.625	1394.38
427.847	1414.38
428.069	1406.38
428.292	1400.38
428.514	1368.38
428.736	1381.38
428.958	1418.38
429.181	1355.38
429.403	1333.38
429.625	1361.38
429.847	1380.38
430.069	1380.38
430.292	1393.38
430.514	1346.38
430.736	1373.38
430.958	1379.38
431.18	1353.38
431.402	1394.38
431.624	1364.38
431.846	1383.38
432.068	1366.38
432.29	1390.38
432.512	1399.38
432.734	1407.38
432.956	1383.38
433.178	1400.38
433.4	1403.38
433.622	1377.38
433.844	1428.38
434.066	1422.38
434.287	1431.38
434.509	1449.38
434.731	1507.38
434.953	1489.38
435.175	1533.38
435.397	1535.38
435.618	1428.38
435.84	1437.38
436.062	1388.38
436.284	1363.38
436.505	1372.38
436.727	1402.38
436.949	1394.38
437.17	1398.38
437.392	1349.38
437.614	1346.38
437.835	1309.38
438.057	1347.38
438.278	1290.38
438.5	1326.38
438.721	1305.38
438.943	1339.38
439.165	1352.38
439.386	1349.38
439.608	1382.38
439.829	1374.38
440.05	1429.38
440.272	1369.38
440.493	1414.38
440.715	1417.38
440.936	1442.38
441.158	1475.38
441.379	1460.38
441.6	1498.38
441.822	1542.38
442.043	1533.38
442.264	1538.38
442.486	1461.38
442.707	1503.38
442.928	1498.38
443.149	1501.38
443.371	1514.38
443.592	1520.38
443.813	1552.38
444.034	1500.38
444.255	1576.38
444.476	1636.38
444.698	1652.38
444.919	1726.38
445.14	1771.38
445.361	1672.38
445.582	1595.38
445.803	1548.38
446.024	1513.38
446.245	1478.38
446.466	1456.38
446.687	1394.38
446.908	1421.38
447.129	1352.38
447.35	1350.38
447.571	1364.38
447.792	1304.38
448.013	1314.38
448.234	1315.38
448.455	1313.38
448.675	1317.38
448.896	1283.38
449.117	1304.38
449.338	1261.38
449.559	1266.38
449.779	1248.38
450	1256.38
450.221	1278.38
450.442	1286.38
450.662	1281.38
450.883	1249.38
451.104	1296.38
451.324	1287.38
451.545	1307.38
451.766	1287.38
451.986	1278.38
452.207	1250.38
452.428	1282.38
452.648	1242.38
452.869	1243.38
453.089	1236.38
453.31	1256.38
453.53	1220.38
453.751	1200.38
453.971	1221.38
454.192	1195.38
454.412	1184.38
454.633	1195.38
454.853	1205.38
455.073	1201.38
455.294	1220.38
455.514	1176.38
455.734	1216.38
455.955	1189.38
456.175	1184.38
456.395	1157.38
456.616	1159.38
456.836	1194.38
457.056	1166.38
457.276	1161.38
457.497	1206.38
457.717	1221.38
457.937	1212.38
458.157	1257.38
458.377	1224.38
458.598	1280.38
458.818	1297.38
459.038	1303.38
459.258	1346.38
459.478	1413.38
459.698	1405.38
459.918	1481.38
460.138	1536.38
460.358	1564.38
460.578	1571.38
460.798	1586.38
461.018	1606.38
461.238	1599.38
461.458	1605.38
461.678	1634.38
461.898	1648.38
462.118	1628.38
462.338	1712.38
462.558	1752.38
462.777	1818.38
462.997	1909.38
463.217	1994.38
463.437	2014.38
463.657	1942.38
463.876	1916.38
464.096	1875.38
464.316	1859.38
464.536	1853.38
464.755	1767.38
464.975	1752.38
465.195	1634.38
465.414	1582.38
465.634	1501.38
465.854	1468.38
466.073	1470.38
466.293	1400.38
466.512	1357.38
466.732	1333.38
466.951	1321.38
467.171	1337.38
467.391	1324.38
467.61	1331.38
467.829	1310.38
468.049	1304.38
468.268	1280.38
468.488	1293.38
468.707	1277.38
468.927	1281.38
469.146	1269.38
469.365	1314.38
469.585	1307.38
469.804	1310.38
470.023	1332.38
470.243	1332.38
470.462	1345.38
470.681	1377.38
470.901	1375.38
471.12	1321.38
471.339	1355.38
471.558	1325.38
471.777	1348.38
471.997	1319.38
472.216	1266.38
472.435	1280.38
472.654	1265.38
472.873	1241.38
473.092	1261.38
473.311	1272.38
473.53	1248.38
473.749	1265.38
473.968	1248.38
474.187	1249.38
474.406	1257.38
474.625	1244.38
474.844	1270.38
475.063	1265.38
475.282	1269.38
475.501	1286.38
475.72	1288.38
475.939	1266.38
476.158	1281.38
476.377	1346.38
476.596	1324.38
476.814	1321.38
477.033	1346.38
477.252	1370.38
477.471	1379.38
477.69	1416.38
477.908	1405.38
478.127	1434.38
478.346	1460.38
478.564	1475.38
478.783	1514.38
479.002	1542.38
479.22	1531.38
479.439	1570.38
479.658	1572.38
479.876	1561.38
480.095	1556.38
480.313	1579.38
480.532	1586.38
480.751	1585.38
480.969	1550.38
481.188	1502.38
481.406	1567.38
481.624	1484.38
481.843	1468.38
482.061	1448.38
482.28	1483.38
482.498	1432.38
482.717	1416.38
482.935	1422.38
483.153	1437.38
483.372	1442.38
483.59	1422.38
483.808	1442.38
484.027	1402.38
484.245	1481.38
484.463	1473.38
484.681	1457.38
484.9	1477.38
485.118	1431.38
485.336	1459.38
485.554	1485.38
485.772	1481.38
485.99	1520.38
486.209	1499.38
486.427	1483.38
486.645	1516.38
486.863	1497.38
487.081	1517.38
487.299	1489.38
487.517	1497.38
487.735	1512.38
487.953	1515.38
488.171	1525.38
488.389	1468.38
488.607	1517.38
488.825	1477.38
489.043	1465.38
489.261	1463.38
489.479	1483.38
489.696	1508.38
489.914	1516.38
490.132	1500.38
490.35	1530.38
490.568	1518.38
490.786	1520.38
491.003	1532.38
491.221	1529.38
491.439	1534.38
491.657	1559.38
491.874	1517.38
492.092	1592.38
492.31	1580.38
492.527	1558.38
492.745	1578.38
492.963	1564.38
493.18	1571.38
493.398	1564.38
493.615	1580.38
493.833	1592.38
494.05	1603.38
494.268	1640.38
494.485	1627.38
494.703	1630.38
494.92	1635.38
495.138	1659.38
495.355	1637.38
495.573	1684.38
495.79	1653.38
496.008	1649.38
496.225	1691.38
496.442	1716.38
496.66	1720.38
496.877	1771.38
497.094	1751.38
497.312	1841.38
497.529	1846.38
497.746	1925.38
497.963	1922.38
498.181	2044.38
498.398	2050.38
498.615	2212.38
498.832	2382.38
499.049	2525.38
499.267	2692.38
499.484	2826.38
499.701	3128.38
499.918	3343.38
500.135	3580.38
500.352	3801.38
500.569	4011.38
500.786	3930.38
501.003	3741.38
501.22	3596.38
501.437	3288.38
501.654	3036.38
501.871	2897.38
502.088	2674.38
502.305	2488.38
502.522	2411.38
502.739	2290.38
502.956	2147.38
503.172	2068.38
503.389	1993.38
503.606	1964.38
503.823	1933.38
504.04	1926.38
504.256	1906.38
504.473	1900.38
504.69	1854.38
504.907	1835.38
505.123	1766.38
505.34	1721.38
505.557	1686.38
505.773	1617.38
505.99	1562.38
506.207	1540.38
506.423	1528.38
506.64	1498.38
506.856	1508.38
507.073	1468.38
507.289	1441.38
507.506	1460.38
507.722	1416.38
507.939	1426.38
508.155	1406.38
508.372	1405.38
508.588	1419.38
508.805	1363.38
509.021	1341.38
509.238	1381.38
509.454	1311.38
509.67	1349.38
509.887	1312.38
510.103	1341.38
510.319	1307.38
510.536	1280.38
510.752	1261.38
510.968	1310.38
511.184	1286.38
511.401	1301.38
511.617	1278.38
511.833	1299.38
512.049	1311.38
512.265	1301.38
512.481	1266.38
512.698	1290.38
512.914	1262.38
513.13	1314.38
513.346	1285.38
513.562	1298.38
513.778	1308.38
513.994	1333.38
514.21	1332.38
514.426	1302.38
514.642	1352.38
514.858	1314.38
515.074	1379.38
515.29	1392.38
515.506	1364.38
515.721	1389.38
515.937	1415.38
516.153	1434.38
516.369	1440.38
516.585	1490.38
516.801	1541.38
517.016	1620.38
517.232	1622.38
517.448	1712.38
517.664	1702.38
517.879	1731.38
518.095	1731.38
518.311	1708.38
518.527	1654.38
518.742	1606.38
518.958	1553.38
519.173	1499.38
519.389	1492.38
519.605	1443.38
519.82	1392.38
520.036	1389.38
520.251	1349.38
520.467	1337.38
520.682	1345.38
520.898	1295.38
521.113	1264.38
521.329	1280.38
521.544	1272.38
521.76	1252.38
521.975	1242.38
522.19	1241.38
522.406	1219.38
522.621	1243.38
522.836	1224.38
523.052	1203.38
523.267	1193.38
523.482	1224.38
523.698	1186.38
523.913	1186.38
524.128	1168.38
524.343	1202.38
524.559	1186.38
524.774	1176.38
524.989	1204.38
525.204	1203.38
525.419	1189.38
525.634	1164.38
525.849	1203.38
526.064	1150.38
526.28	1132.38
526.495	1158.38
526.71	1165.38
526.925	1152.38
527.14	1118.38
527.355	1114.38
527.57	1146.38
527.785	1144.38
527.999	1142.38
528.214	1145.38
528.429	1189.38
528.644	1169.38
528.859	1164.38
529.074	1138.38
529.289	1145.38
529.503	1162.38
529.718	1166.38
529.933	1145.38
530.148	1160.38
530.363	1140.38
530.577	1172.38
530.792	1145.38
531.007	1096.38
531.221	1154.38
531.436	1157.38
531.651	1162.38
531.865	1137.38
532.08	1135.38
532.295	1145.38
532.509	1123.38
532.724	1172.38
532.938	1158.38
533.153	1146.38
533.367	1137.38
533.582	1142.38
533.796	1157.38
534.011	1136.38
534.225	1074.38
534.44	1125.38
534.654	1144.38
534.868	1140.38
535.083	1102.38
535.297	1108.38
535.511	1089.38
535.726	1107.38
535.94	1107.38
536.154	1075.38
536.369	1048.38
536.583	1060.38
536.797	1090.38
537.011	1067.38
537.225	1056.38
537.44	1045.38
537.654	1073.38
537.868	1059.38
538.082	1056.38
538.296	1033.38
538.51	1036.38
538.724	1044.38
538.938	1046.38
539.153	1037.38
539.367	1052.38
539.581	1046.38
539.795	1033.38
540.009	1050.38
540.222	1007.38
540.436	1066.38
540.65	1058.38
540.864	1052.38
541.078	1048.38
541.292	1041.38
541.506	1015.38
541.72	1050.38
541.934	1032.38
542.147	1065.38
542.361	1031.38
542.575	1045.38
542.789	1012.38
543.002	1033.38
543.216	1009.38
543.43	1030.38
543.644	1027.38
543.857	989.38
544.071	1032.38
544.285	1031.38
544.498	1031.38
544.712	1031.38
544.925	1054.38
545.139	1065.38
545.352	1051.38
545.566	1045.38
545.779	1057.38
545.993	1036.38
546.206	1070.38
546.42	1037.38
546.633	1056.38
546.847	1061.38
547.06	1083.38
547.274	1030.38
547.487	1050.38
547.7	1065.38
547.914	1099.38
548.127	1064.38
548.34	1068.38
548.554	1072.38
548.767	1057.38
548.98	1066.38
549.193	1072.38
549.407	1060.38
549.62	1039.38
549.833	1085.38
550.046	1090.38
550.259	1066.38
550.473	1050.38
550.686	1048.38
550.899	1044.38
551.112	1058.38
551.325	1036.38
551.538	1027.38
551.751	1039.38
551.964	1032.38
552.177	1062.38
552.39	1063.38
552.603	1081.38
552.816	1082.38
553.029	1080.38
553.242	1102.38
553.455	1122.38
553.667	1106.38
553.88	1095.38
554.093	1086.38
554.306	1082.38
554.519	1035.38
554.732	1016.38
554.944	1025.38
555.157	994.38
555.37	962.38
555.583	975.38
555.795	960.38
556.008	937.38
556.221	917.38
556.433	908.38
556.646	918.38
556.859	901.38
557.071	918.38
557.284	906.38
557.496	905.38
557.709	895.38
557.921	910.38
558.134	908.38
558.346	895.38
558.559	869.38
558.771	873.38
558.984	881.38
559.196	886.38
559.409	873.38
559.621	894.38
559.833	884.38
560.046	868.38
560.258	860.38
560.47	869.38
560.683	868.38
560.895	863.38
561.107	866.38
561.32	860.38
561.532	902.38
561.744	882.38
561.956	867.38
562.168	868.38
562.381	864.38
562.593	871.38
562.805	893.38
563.017	867.38
563.229	900.38
563.441	877.38
563.653	883.38
563.865	896.38
564.077	923.38
564.289	897.38
564.501	947.38
564.713	947.38
564.925	963.38
565.137	969.38
565.349	961.38
565.561	1046.38
565.773	1076.38
565.985	1110.38
566.197	1131.38
566.408	1194.38
566.62	1216.38
566.832	1302.38
567.044	1321.38
567.255	1337.38
567.467	1365.38
567.679	1397.38
567.891	1424.38
568.102	1396.38
568.314	1327.38
568.526	1264.38
568.737	1209.38
568.949	1178.38
569.161	1088.38
569.372	1026.38
569.584	988.38
569.795	963.38
570.007	950.38
570.218	914.38
570.43	893.38
570.641	875.38
570.853	882.38
571.064	875.38
571.276	867.38
571.487	842.38
571.698	816.38
571.91	821.38
572.121	800.38
572.333	795.38
572.544	767.38
572.755	750.38
572.966	759.38
573.178	708.38
573.389	727.38
573.6	713.38
573.811	722.38
574.023	728.38
574.234	734.38
574.445	718.38
574.656	691.38
574.867	705.38
575.078	692.38
575.289	693.38
575.501	698.38
575.712	691.38
575.923	674.38
576.134	666.38
576.345	662.38
576.556	684.38
576.767	660.38
576.978	649.38
577.188	660.38
577.399	668.38
577.61	642.38
577.821	626.38
578.032	622.38
578.243	627.38
578.454	634.38
578.665	626.38
578.875	627.38
579.086	614.38
579.297	617.38
579.508	623.38
579.718	616.38
579.929	610.38
580.14	600.38
580.35	630.38
580.561	614.38
580.772	621.38
580.982	599.38
581.193	593.38
581.403	586.38
581.614	598.38
581.825	600.38
582.035	585.38
582.246	593.38
582.456	571.38
582.667	587.38
582.877	612.38
583.087	588.38
583.298	599.38
583.508	579.38
583.719	587.38
583.929	583.38
584.139	563.38
584.35	563.38
584.56	573.38
584.77	555.38
584.981	562.38
585.191	562.38
585.401	552.38
585.611	553.38
585.821	582.38
586.032	592.38
586.242	563.38
586.452	568.38
586.662	564.38
586.872	537.38
587.082	557.38
587.292	562.38
587.502	571.38
587.713	560.38
587.923	581.38
588.133	574.38
588.343	560.38
588.553	588.38
588.762	555.38
588.972	566.38
589.182	574.38
589.392	573.38
589.602	570.38
589.812	568.38
590.022	561.38
590.232	541.38
590.441	579.38
590.651	583.38
590.861	589.38
591.071	576.38
591.281	578.38
591.49	586.38
591.7	602.38
591.91	598.38
592.119	607.38
592.329	602.38
592.539	639.38
592.748	608.38
592.958	633.38
593.167	648.38
593.377	659.38
593.587	681.38
593.796	664.38
594.006	665.38
594.215	663.38
594.424	652.38
594.634	636.38
594.843	652.38
595.053	621.38
595.262	606.38
595.472	581.38
595.681	571.38
595.89	570.38
596.1	567.38
596.309	538.38
596.518	533.38
596.727	535.38
596.937	532.38
597.146	516.38
597.355	521.38
597.564	523.38
597.774	509.38
597.983	516.38
598.192	502.38
598.401	493.38
598.61	503.38
598.819	481.38
599.028	471.38
599.237	477.38
599.446	467.38
599.655	461.38
599.864	471.38
600.073	470.38
600.282	466.38
600.491	473.38
600.7	477.38
600.909	457.38
601.118	489.38
601.327	448.38
601.536	440.38
601.745	459.38
601.953	477.38
602.162	442.38
602.371	437.38
602.58	448.38
602.789	435.38
602.997	442.38
603.206	449.38
603.415	435.38
603.623	437.38
603.832	436.38
604.041	442.38
604.249	432.38
604.458	419.38
604.666	421.38
604.875	426.38
605.084	422.38
605.292	433.38
605.501	408.38
605.709	432.38
605.918	430.38
606.126	417.38
606.334	416.38
606.543	434.38
606.751	426.38
606.96	406.38
607.168	404.38
607.376	424.38
607.585	408.38
607.793	438.38
608.001	404.38
608.21	400.38
608.418	411.38
608.626	400.38
608.834	410.38
609.043	389.38
609.251	408.38
609.459	413.38
609.667	411.38
609.875	386.38
610.083	423.38
610.291	394.38
610.499	404.38
610.707	392.38
610.916	408.38
611.124	381.38
611.332	399.38
611.54	384.38
611.748	397.38
611.955	397.38
612.163	393.38
612.371	407.38
612.579	402.38
612.787	388.38
612.995	399.38
613.203	393.38
613.411	382.38
613.618	393.38
613.826	404.38
614.034	397.38
614.242	385.38
614.449	400.38
614.657	384.38
614.865	368.38
615.072	386.38
615.28	369.38
615.488	363.38
615.695	386.38
615.903	390.38
616.111	377.38
616.318	412.38
616.526	380.38
616.733	388.38
616.941	387.38
617.148	379.38
617.356	390.38
617.563	396.38
617.771	364.38
617.978	381.38
618.185	388.38
618.393	378.38
618.6	390.38
618.807	363.38
619.015	360.38
619.222	358.38
619.429	373.38
619.637	372.38
619.844	366.38
620.051	368.38
620.258	355.38
620.466	346.38
620.673	351.38
620.88	356.38
621.087	336.38
621.294	369.38
621.501	360.38
621.708	356.38
621.915	355.38
622.122	342.38
622.329	365.38
622.536	365.38
622.743	350.38
622.95	358.38
623.157	351.38
623.364	349.38
623.571	363.38
623.778	353.38
623.985	340.38
624.192	353.38
624.399	356.38
624.606	347.38
624.812	338.38
625.019	350.38
625.226	348.38
625.433	341.38
625.639	315.38
625.846	325.38
626.053	348.38
626.259	334.38
626.466	320.38
626.673	313.38
626.879	336.38
627.086	319.38
627.293	320.38
627.499	334.38
627.706	307.38
627.912	309.38
628.119	325.38
628.325	317.38
628.532	322.38
628.738	318.38
628.945	309.38
629.151	324.38
629.357	290.38
629.564	310.38
629.77	330.38
629.976	296.38
630.183	288.38
630.389	309.38
630.595	309.38
630.802	321.38
631.008	283.38
631.214	286.38
631.42	286.38
631.627	297.38
631.833	300.38
632.039	269.38
632.245	297.38
632.451	276.38
632.657	300.38
632.863	292.38
633.069	292.38
633.275	298.38
633.481	288.38
633.688	301.38
633.893	294.38
634.099	293.38
634.305	284.38
634.511	277.38
634.717	278.38
634.923	282.38
635.129	276.38
635.335	272.38
635.541	276.38
635.747	286.38
635.952	263.38
636.158	276.38
636.364	293.38
636.57	285.38
636.775	259.38
636.981	278.38
637.187	265.38
637.392	282.38
637.598	278.38
637.804	297.38
638.009	279.38
638.215	279.38
638.421	258.38
638.626	269.38
638.832	274.38
639.037	279.38
639.243	270.38
639.448	275.38
639.654	266.38
639.859	251.38
640.065	260.38
640.27	264.38
640.475	264.38
640.681	255.38
640.886	255.38
641.091	262.38
641.297	254.38
641.502	252.38
641.707	248.38
641.913	247.38
642.118	251.38
642.323	262.38
642.528	245.38
642.733	260.38
642.939	260.38
643.144	253.38
643.349	263.38
643.554	232.38
643.759	256.38
643.964	254.38
644.169	237.38
644.374	208.38
644.579	257.38
644.784	253.38
644.989	251.38
645.194	237.38
645.399	240.38
645.604	266.38
645.809	244.38
646.014	256.38
646.219	248.38
646.423	246.38
646.628	232.38
646.833	259.38
647.038	266.38
647.243	231.38
647.447	245.38
647.652	237.38
647.857	264.38
648.062	234.38
648.266	259.38
648.471	257.38
648.676	251.38
648.88	251.38
649.085	236.38
649.289	254.38
649.494	233.38
649.698	253.38
649.903	238.38
650.107	232.38
650.312	227.38
650.516	220.38
650.721	222.38
650.925	238.38
651.13	230.38
651.334	217.38
651.539	209.38
651.743	217.38
651.947	211.38
652.152	216.38
652.356	180.38
652.56	197.38
652.764	214.38
652.969	197.38
653.173	192.38
653.377	185.38
653.581	184.38
653.785	181.38
653.99	179.38
654.194	174.38
654.398	186.38
654.602	181.38
654.806	164.38
655.01	164.38
655.214	172.38
655.418	182.38
655.622	170.38
655.826	172.38
656.03	161.38
656.234	172.38
656.438	150.38
656.642	156.38
656.846	145.38
657.049	166.38
657.253	160.38
657.457	138.38
657.661	137.38
657.865	124.38
658.068	132.38
658.272	130.38
658.476	124.38
658.68	138.38
658.883	116.38
659.087	119.38
659.291	124.38
659.494	121.38
659.698	114.38
659.901	104.38
660.105	91.38
660.309	96.38
660.512	120.38
660.716	104.38
660.919	107.38
661.123	106.38
661.326	102.38
661.53	97.38
661.733	100.38
661.936	106.38
662.14	95.38
662.343	95.38
662.546	88.38
662.75	81.38
662.953	92.38
663.156	93.38
663.36	101.38
663.563	88.38
663.766	69.38
663.969	90.38
664.173	90.38
664.376	98.38
664.579	80.38
664.782	98.38
664.985	82.38
665.188	85.38
665.391	83.38
665.594	68.38
665.797	83.38
666	83.38
666.203	67.38
666.406	81.38
666.609	72.38
666.812	85.38
667.015	87.38
667.218	84.38
667.421	77.38
667.624	75.38
667.827	75.38
668.03	87.38
668.232	87.38
668.435	95.38
668.638	90.38
668.841	90.38
669.043	82.38
669.246	86.38
669.449	76.38
669.651	79.38
669.854	78.38
670.057	78.38
670.259	85.38
670.462	91.38
670.665	76.38
670.867	79.38
671.07	72.38
671.272	74.38
671.475	82.38
671.677	74.38
671.88	89.38
672.082	75.38
672.284	87.38
672.487	88.38
672.689	79.38
672.892	80.38
