Data from Ni(NO3)2@0.125M.TitratingCurve.Agarose3%dH2O.NegLispCup.LampEnergy10.LIBS07252019_HRD10591_18-08-49-567.txt Node
Date: Thu Jul 25 18:08:49 EDT 2019
User: cochatt
Spectrometer: HR+D1059
Trigger mode: 1
Integration Time (sec): 1.000000E-1
Scans to average: 1
Electric dark correction enabled: true
Nonlinearity correction enabled: false
Boxcar width: 0
XAxis mode: Wavelengths
Number of Pixels in Spectrum: 2048
>>>>>Begin Spectral Data<<<<<
223.165	-9.38
223.4	-9.38
223.635	-9.38
223.869	-17.38
224.104	-32.38
224.338	-16.38
224.573	-25.38
224.808	-16.38
225.042	10.62
225.277	-2.38
225.511	-3.38
225.746	15.62
225.98	3.62
226.215	18.62
226.449	20.62
226.683	8.62
226.918	16.62
227.152	28.62
227.387	39.62
227.621	33.62
227.856	50.62
228.09	49.62
228.324	47.62
228.559	58.62
228.793	77.62
229.027	121.62
229.262	132.62
229.496	136.62
229.73	135.62
229.964	151.62
230.199	165.62
230.433	162.62
230.667	156.62
230.901	159.62
231.136	159.62
231.37	155.62
231.604	168.62
231.838	163.62
232.072	163.62
232.306	168.62
232.541	174.62
232.775	168.62
233.009	166.62
233.243	170.62
233.477	178.62
233.711	165.62
233.945	174.62
234.179	169.62
234.413	172.62
234.647	170.62
234.881	184.62
235.115	185.62
235.349	177.62
235.583	187.62
235.817	168.62
236.051	180.62
236.285	187.62
236.519	187.62
236.753	183.62
236.987	181.62
237.221	203.62
237.455	174.62
237.689	191.62
237.922	197.62
238.156	199.62
238.39	198.62
238.624	195.62
238.858	199.62
239.091	209.62
239.325	207.62
239.559	212.62
239.793	213.62
240.027	209.62
240.26	213.62
240.494	207.62
240.728	218.62
240.961	229.62
241.195	208.62
241.429	217.62
241.662	232.62
241.896	243.62
242.13	251.62
242.363	245.62
242.597	237.62
242.83	243.62
243.064	237.62
243.298	267.62
243.531	244.62
243.765	255.62
243.998	247.62
244.232	271.62
244.465	256.62
244.699	250.62
244.932	281.62
245.166	261.62
245.399	258.62
245.633	256.62
245.866	263.62
246.099	279.62
246.333	265.62
246.566	269.62
246.8	276.62
247.033	276.62
247.266	288.62
247.5	285.62
247.733	302.62
247.966	293.62
248.2	300.62
248.433	298.62
248.666	285.62
248.899	295.62
249.133	299.62
249.366	304.62
249.599	318.62
249.832	297.62
250.066	294.62
250.299	304.62
250.532	312.62
250.765	323.62
250.998	318.62
251.231	332.62
251.465	320.62
251.698	325.62
251.931	337.62
252.164	346.62
252.397	331.62
252.63	336.62
252.863	319.62
253.096	331.62
253.329	335.62
253.562	346.62
253.795	347.62
254.028	345.62
254.261	361.62
254.494	358.62
254.727	355.62
254.96	344.62
255.193	353.62
255.426	378.62
255.659	353.62
255.892	368.62
256.124	364.62
256.357	379.62
256.59	364.62
256.823	371.62
257.056	372.62
257.289	382.62
257.521	380.62
257.754	370.62
257.987	370.62
258.22	393.62
258.452	372.62
258.685	400.62
258.918	413.62
259.151	395.62
259.383	406.62
259.616	391.62
259.849	407.62
260.081	416.62
260.314	407.62
260.547	384.62
260.779	415.62
261.012	409.62
261.244	420.62
261.477	407.62
261.71	428.62
261.942	425.62
262.175	419.62
262.407	413.62
262.64	392.62
262.872	423.62
263.105	434.62
263.337	417.62
263.57	433.62
263.802	442.62
264.035	441.62
264.267	451.62
264.499	431.62
264.732	442.62
264.964	456.62
265.197	462.62
265.429	450.62
265.661	451.62
265.894	446.62
266.126	436.62
266.358	433.62
266.591	459.62
266.823	456.62
267.055	454.62
267.287	479.62
267.52	461.62
267.752	468.62
267.984	459.62
268.216	480.62
268.448	480.62
268.681	475.62
268.913	485.62
269.145	467.62
269.377	459.62
269.609	490.62
269.841	479.62
270.073	487.62
270.306	467.62
270.538	475.62
270.77	497.62
271.002	491.62
271.234	512.62
271.466	514.62
271.698	489.62
271.93	484.62
272.162	483.62
272.394	497.62
272.626	508.62
272.858	507.62
273.09	504.62
273.322	508.62
273.553	517.62
273.785	526.62
274.017	554.62
274.249	517.62
274.481	505.62
274.713	515.62
274.945	504.62
275.176	531.62
275.408	538.62
275.64	526.62
275.872	529.62
276.104	530.62
276.335	544.62
276.567	573.62
276.799	543.62
277.031	544.62
277.262	555.62
277.494	540.62
277.726	551.62
277.957	572.62
278.189	569.62
278.421	551.62
278.652	574.62
278.884	558.62
279.115	571.62
279.347	586.62
279.579	558.62
279.81	591.62
280.042	577.62
280.273	587.62
280.505	563.62
280.736	585.62
280.968	607.62
281.199	583.62
281.431	588.62
281.662	581.62
281.894	611.62
282.125	603.62
282.356	623.62
282.588	626.62
282.819	590.62
283.051	619.62
283.282	607.62
283.513	606.62
283.745	619.62
283.976	607.62
284.207	614.62
284.439	616.62
284.67	603.62
284.901	627.62
285.132	633.62
285.364	614.62
285.595	627.62
285.826	629.62
286.057	630.62
286.288	639.62
286.52	631.62
286.751	636.62
286.982	665.62
287.213	647.62
287.444	658.62
287.675	660.62
287.906	623.62
288.138	643.62
288.369	659.62
288.6	655.62
288.831	658.62
289.062	649.62
289.293	667.62
289.524	660.62
289.755	675.62
289.986	669.62
290.217	684.62
290.448	682.62
290.679	699.62
290.91	683.62
291.141	675.62
291.371	670.62
291.602	677.62
291.833	662.62
292.064	686.62
292.295	712.62
292.526	669.62
292.757	667.62
292.987	675.62
293.218	674.62
293.449	665.62
293.68	709.62
293.91	681.62
294.141	649.62
294.372	689.62
294.603	694.62
294.833	689.62
295.064	700.62
295.295	694.62
295.525	692.62
295.756	709.62
295.987	691.62
296.217	699.62
296.448	685.62
296.679	729.62
296.909	710.62
297.14	715.62
297.37	709.62
297.601	716.62
297.831	715.62
298.062	723.62
298.292	748.62
298.523	736.62
298.753	735.62
298.984	752.62
299.214	729.62
299.445	763.62
299.675	743.62
299.905	752.62
300.136	732.62
300.366	748.62
300.597	770.62
300.827	750.62
301.057	783.62
301.288	769.62
301.518	793.62
301.748	807.62
301.979	792.62
302.209	767.62
302.439	773.62
302.669	757.62
302.9	744.62
303.13	759.62
303.36	755.62
303.59	775.62
303.82	780.62
304.051	744.62
304.281	756.62
304.511	735.62
304.741	767.62
304.971	764.62
305.201	788.62
305.431	751.62
305.661	776.62
305.891	760.62
306.121	738.62
306.352	752.62
306.582	752.62
306.812	739.62
307.042	757.62
307.272	731.62
307.502	763.62
307.731	741.62
307.961	741.62
308.191	729.62
308.421	738.62
308.651	767.62
308.881	755.62
309.111	750.62
309.341	737.62
309.571	766.62
309.8	751.62
310.03	751.62
310.26	759.62
310.49	767.62
310.72	779.62
310.949	752.62
311.179	739.62
311.409	782.62
311.639	760.62
311.868	767.62
312.098	763.62
312.328	773.62
312.557	810.62
312.787	815.62
313.017	784.62
313.246	816.62
313.476	804.62
313.706	800.62
313.935	817.62
314.165	848.62
314.394	827.62
314.624	823.62
314.853	799.62
315.083	812.62
315.312	822.62
315.542	832.62
315.771	803.62
316.001	800.62
316.23	813.62
316.46	800.62
316.689	792.62
316.919	774.62
317.148	805.62
317.377	830.62
317.607	773.62
317.836	807.62
318.065	786.62
318.295	787.62
318.524	810.62
318.753	791.62
318.983	807.62
319.212	799.62
319.441	773.62
319.67	794.62
319.9	791.62
320.129	815.62
320.358	797.62
320.587	802.62
320.816	811.62
321.046	812.62
321.275	829.62
321.504	825.62
321.733	798.62
321.962	843.62
322.191	814.62
322.42	819.62
322.649	815.62
322.878	824.62
323.108	825.62
323.337	836.62
323.566	866.62
323.795	840.62
324.024	834.62
324.253	845.62
324.482	835.62
324.71	861.62
324.939	865.62
325.168	838.62
325.397	854.62
325.626	858.62
325.855	887.62
326.084	867.62
326.313	909.62
326.542	888.62
326.77	906.62
326.999	899.62
327.228	865.62
327.457	901.62
327.686	860.62
327.914	884.62
328.143	905.62
328.372	901.62
328.6	898.62
328.829	895.62
329.058	915.62
329.287	884.62
329.515	913.62
329.744	913.62
329.972	893.62
330.201	921.62
330.43	916.62
330.658	910.62
330.887	926.62
331.115	934.62
331.344	941.62
331.572	949.62
331.801	991.62
332.03	1002.62
332.258	996.62
332.486	1054.62
332.715	1090.62
332.943	1157.62
333.172	1187.62
333.4	1263.62
333.629	1250.62
333.857	1273.62
334.085	1243.62
334.314	1203.62
334.542	1163.62
334.771	1183.62
334.999	1165.62
335.227	1153.62
335.455	1157.62
335.684	1131.62
335.912	1118.62
336.14	1101.62
336.369	1098.62
336.597	1116.62
336.825	1092.62
337.053	1079.62
337.281	1098.62
337.51	1091.62
337.738	1046.62
337.966	1031.62
338.194	1004.62
338.422	998.62
338.65	987.62
338.878	1007.62
339.106	1019.62
339.334	1000.62
339.562	991.62
339.79	933.62
340.018	928.62
340.246	911.62
340.474	971.62
340.702	963.62
340.93	974.62
341.158	984.62
341.386	980.62
341.614	972.62
341.842	980.62
342.07	942.62
342.298	955.62
342.526	963.62
342.754	924.62
342.981	982.62
343.209	966.62
343.437	1024.62
343.665	1090.62
343.893	1151.62
344.12	1191.62
344.348	1177.62
344.576	1090.62
344.804	1023.62
345.031	992.62
345.259	971.62
345.487	969.62
345.714	939.62
345.942	966.62
346.17	960.62
346.397	961.62
346.625	957.62
346.853	948.62
347.08	947.62
347.308	960.62
347.535	951.62
347.763	947.62
347.99	953.62
348.218	919.62
348.445	953.62
348.673	931.62
348.9	919.62
349.128	924.62
349.355	922.62
349.583	907.62
349.81	887.62
350.037	895.62
350.265	883.62
350.492	878.62
350.72	858.62
350.947	876.62
351.174	918.62
351.402	932.62
351.629	877.62
351.856	891.62
352.083	901.62
352.311	898.62
352.538	872.62
352.765	887.62
352.992	875.62
353.22	875.62
353.447	879.62
353.674	859.62
353.901	892.62
354.128	859.62
354.355	869.62
354.583	887.62
354.81	881.62
355.037	867.62
355.264	884.62
355.491	891.62
355.718	909.62
355.945	921.62
356.172	892.62
356.399	863.62
356.626	874.62
356.853	897.62
357.08	903.62
357.307	895.62
357.534	896.62
357.761	883.62
357.988	889.62
358.215	895.62
358.441	911.62
358.668	895.62
358.895	891.62
359.122	888.62
359.349	893.62
359.576	905.62
359.802	896.62
360.029	920.62
360.256	927.62
360.483	903.62
360.709	881.62
360.936	891.62
361.163	878.62
361.39	867.62
361.616	904.62
361.843	890.62
362.07	911.62
362.296	908.62
362.523	880.62
362.749	891.62
362.976	872.62
363.203	864.62
363.429	869.62
363.656	884.62
363.882	867.62
364.109	877.62
364.335	876.62
364.562	865.62
364.788	873.62
365.015	877.62
365.241	875.62
365.468	883.62
365.694	856.62
365.92	903.62
366.147	874.62
366.373	885.62
366.599	856.62
366.826	897.62
367.052	887.62
367.278	868.62
367.505	909.62
367.731	897.62
367.957	911.62
368.184	875.62
368.41	899.62
368.636	912.62
368.862	904.62
369.089	900.62
369.315	903.62
369.541	908.62
369.767	900.62
369.993	896.62
370.219	907.62
370.445	924.62
370.672	945.62
370.898	933.62
371.124	955.62
371.35	947.62
371.576	949.62
371.802	953.62
372.028	960.62
372.254	988.62
372.48	968.62
372.706	992.62
372.932	1000.62
373.158	1011.62
373.384	985.62
373.61	985.62
373.835	968.62
374.061	961.62
374.287	961.62
374.513	979.62
374.739	1021.62
374.965	1057.62
375.191	1081.62
375.416	1052.62
375.642	1026.62
375.868	1006.62
376.094	975.62
376.319	960.62
376.545	961.62
376.771	951.62
376.997	947.62
377.222	948.62
377.448	949.62
377.674	939.62
377.899	928.62
378.125	974.62
378.35	972.62
378.576	924.62
378.802	943.62
379.027	934.62
379.253	953.62
379.478	936.62
379.704	926.62
379.929	948.62
380.155	934.62
380.38	972.62
380.606	918.62
380.831	963.62
381.057	953.62
381.282	950.62
381.507	947.62
381.733	971.62
381.958	961.62
382.184	979.62
382.409	967.62
382.634	967.62
382.86	1003.62
383.085	1013.62
383.31	1039.62
383.535	1047.62
383.761	1055.62
383.986	1064.62
384.211	1099.62
384.436	1127.62
384.662	1158.62
384.887	1169.62
385.112	1133.62
385.337	1141.62
385.562	1163.62
385.787	1125.62
386.013	1147.62
386.238	1151.62
386.463	1193.62
386.688	1179.62
386.913	1133.62
387.138	1153.62
387.363	1163.62
387.588	1101.62
387.813	1143.62
388.038	1143.62
388.263	1104.62
388.488	1137.62
388.713	1127.62
388.938	1141.62
389.163	1087.62
389.387	1096.62
389.612	1101.62
389.837	1102.62
390.062	1089.62
390.287	1114.62
390.512	1106.62
390.736	1125.62
390.961	1155.62
391.186	1152.62
391.411	1193.62
391.636	1257.62
391.86	1287.62
392.085	1328.62
392.31	1310.62
392.534	1250.62
392.759	1228.62
392.984	1219.62
393.208	1200.62
393.433	1207.62
393.658	1198.62
393.882	1224.62
394.107	1190.62
394.331	1246.62
394.556	1221.62
394.78	1223.62
395.005	1233.62
395.229	1270.62
395.454	1272.62
395.678	1292.62
395.903	1323.62
396.127	1244.62
396.352	1218.62
396.576	1222.62
396.801	1200.62
397.025	1233.62
397.249	1249.62
397.474	1247.62
397.698	1281.62
397.922	1280.62
398.147	1272.62
398.371	1287.62
398.595	1376.62
398.82	1389.62
399.044	1501.62
399.268	1680.62
399.492	1956.62
399.717	2249.62
399.941	2239.62
400.165	1973.62
400.389	1708.62
400.613	1603.62
400.837	1491.62
401.062	1472.62
401.286	1429.62
401.51	1431.62
401.734	1473.62
401.958	1479.62
402.182	1497.62
402.406	1480.62
402.63	1511.62
402.854	1553.62
403.078	1540.62
403.302	1642.62
403.526	1685.62
403.75	1691.62
403.974	1699.62
404.198	1695.62
404.422	1679.62
404.645	1731.62
404.869	1668.62
405.093	1696.62
405.317	1615.62
405.541	1592.62
405.765	1603.62
405.988	1592.62
406.212	1633.62
406.436	1624.62
406.66	1626.62
406.883	1638.62
407.107	1790.62
407.331	1838.62
407.555	1910.62
407.778	1910.62
408.002	1851.62
408.226	1811.62
408.449	1743.62
408.673	1684.62
408.896	1646.62
409.12	1644.62
409.344	1672.62
409.567	1653.62
409.791	1640.62
410.014	1639.62
410.238	1663.62
410.461	1627.62
410.685	1626.62
410.908	1589.62
411.132	1554.62
411.355	1502.62
411.578	1539.62
411.802	1486.62
412.025	1519.62
412.249	1540.62
412.472	1508.62
412.695	1488.62
412.919	1424.62
413.142	1418.62
413.365	1441.62
413.589	1458.62
413.812	1424.62
414.035	1413.62
414.258	1425.62
414.482	1462.62
414.705	1488.62
414.928	1483.62
415.151	1463.62
415.374	1491.62
415.597	1463.62
415.821	1439.62
416.044	1454.62
416.267	1396.62
416.49	1409.62
416.713	1400.62
416.936	1411.62
417.159	1393.62
417.382	1421.62
417.605	1429.62
417.828	1428.62
418.051	1448.62
418.274	1439.62
418.497	1410.62
418.72	1477.62
418.943	1487.62
419.166	1554.62
419.389	1660.62
419.611	1637.62
419.834	1543.62
420.057	1500.62
420.28	1467.62
420.503	1422.62
420.726	1399.62
420.948	1450.62
421.171	1437.62
421.394	1413.62
421.617	1419.62
421.839	1443.62
422.062	1469.62
422.285	1441.62
422.507	1457.62
422.73	1457.62
422.953	1490.62
423.175	1489.62
423.398	1556.62
423.621	1508.62
423.843	1555.62
424.066	1558.62
424.288	1554.62
424.511	1518.62
424.733	1525.62
424.956	1498.62
425.178	1494.62
425.401	1485.62
425.623	1428.62
425.846	1403.62
426.068	1398.62
426.291	1425.62
426.513	1420.62
426.735	1351.62
426.958	1343.62
427.18	1327.62
427.402	1348.62
427.625	1286.62
427.847	1289.62
428.069	1309.62
428.292	1303.62
428.514	1255.62
428.736	1257.62
428.958	1296.62
429.181	1230.62
429.403	1255.62
429.625	1262.62
429.847	1244.62
430.069	1230.62
430.292	1233.62
430.514	1231.62
430.736	1282.62
430.958	1221.62
431.18	1257.62
431.402	1259.62
431.624	1271.62
431.846	1283.62
432.068	1269.62
432.29	1329.62
432.512	1273.62
432.734	1264.62
432.956	1255.62
433.178	1303.62
433.4	1311.62
433.622	1301.62
433.844	1309.62
434.066	1313.62
434.287	1316.62
434.509	1349.62
434.731	1431.62
434.953	1468.62
435.175	1495.62
435.397	1463.62
435.618	1407.62
435.84	1358.62
436.062	1312.62
436.284	1311.62
436.505	1276.62
436.727	1311.62
436.949	1283.62
437.17	1275.62
437.392	1275.62
437.614	1242.62
437.835	1222.62
438.057	1252.62
438.278	1229.62
438.5	1235.62
438.721	1209.62
438.943	1253.62
439.165	1243.62
439.386	1255.62
439.608	1268.62
439.829	1294.62
440.05	1272.62
440.272	1276.62
440.493	1301.62
440.715	1323.62
440.936	1329.62
441.158	1350.62
441.379	1388.62
441.6	1484.62
441.822	1492.62
442.043	1462.62
442.264	1441.62
442.486	1415.62
442.707	1419.62
442.928	1447.62
443.149	1446.62
443.371	1425.62
443.592	1464.62
443.813	1447.62
444.034	1470.62
444.255	1515.62
444.476	1625.62
444.698	1711.62
444.919	1765.62
445.14	1843.62
445.361	1667.62
445.582	1537.62
445.803	1422.62
446.024	1366.62
446.245	1347.62
446.466	1326.62
446.687	1283.62
446.908	1304.62
447.129	1291.62
447.35	1235.62
447.571	1250.62
447.792	1232.62
448.013	1239.62
448.234	1191.62
448.455	1145.62
448.675	1184.62
448.896	1184.62
449.117	1158.62
449.338	1164.62
449.559	1167.62
449.779	1199.62
450	1175.62
450.221	1183.62
450.442	1213.62
450.662	1175.62
450.883	1192.62
451.104	1231.62
451.324	1233.62
451.545	1224.62
451.766	1175.62
451.986	1200.62
452.207	1182.62
452.428	1185.62
452.648	1172.62
452.869	1170.62
453.089	1167.62
453.31	1201.62
453.53	1151.62
453.751	1159.62
453.971	1114.62
454.192	1135.62
454.412	1108.62
454.633	1139.62
454.853	1121.62
455.073	1093.62
455.294	1124.62
455.514	1122.62
455.734	1109.62
455.955	1078.62
456.175	1065.62
456.395	1077.62
456.616	1060.62
456.836	1101.62
457.056	1076.62
457.276	1081.62
457.497	1089.62
457.717	1069.62
457.937	1094.62
458.157	1136.62
458.377	1130.62
458.598	1145.62
458.818	1221.62
459.038	1210.62
459.258	1241.62
459.478	1307.62
459.698	1373.62
459.918	1385.62
460.138	1459.62
460.358	1529.62
460.578	1557.62
460.798	1553.62
461.018	1574.62
461.238	1531.62
461.458	1494.62
461.678	1491.62
461.898	1518.62
462.118	1519.62
462.338	1644.62
462.558	1695.62
462.777	1768.62
462.997	1922.62
463.217	2109.62
463.437	2164.62
463.657	1940.62
463.876	1838.62
464.096	1778.62
464.316	1803.62
464.536	1835.62
464.755	1733.62
464.975	1712.62
465.195	1593.62
465.414	1502.62
465.634	1425.62
465.854	1322.62
466.073	1302.62
466.293	1299.62
466.512	1253.62
466.732	1284.62
466.951	1227.62
467.171	1253.62
467.391	1231.62
467.61	1231.62
467.829	1215.62
468.049	1218.62
468.268	1196.62
468.488	1169.62
468.707	1166.62
468.927	1188.62
469.146	1198.62
469.365	1203.62
469.585	1204.62
469.804	1217.62
470.023	1261.62
470.243	1261.62
470.462	1299.62
470.681	1301.62
470.901	1300.62
471.12	1252.62
471.339	1218.62
471.558	1212.62
471.777	1184.62
471.997	1186.62
472.216	1157.62
472.435	1175.62
472.654	1143.62
472.873	1147.62
473.092	1148.62
473.311	1140.62
473.53	1109.62
473.749	1162.62
473.968	1148.62
474.187	1128.62
474.406	1114.62
474.625	1138.62
474.844	1156.62
475.063	1164.62
475.282	1156.62
475.501	1161.62
475.72	1169.62
475.939	1181.62
476.158	1185.62
476.377	1189.62
476.596	1188.62
476.814	1227.62
477.033	1194.62
477.252	1230.62
477.471	1276.62
477.69	1298.62
477.908	1334.62
478.127	1358.62
478.346	1368.62
478.564	1418.62
478.783	1431.62
479.002	1461.62
479.22	1474.62
479.439	1448.62
479.658	1453.62
479.876	1465.62
480.095	1443.62
480.313	1532.62
480.532	1600.62
480.751	1598.62
480.969	1501.62
481.188	1436.62
481.406	1424.62
481.624	1383.62
481.843	1319.62
482.061	1309.62
482.28	1319.62
482.498	1300.62
482.717	1298.62
482.935	1300.62
483.153	1300.62
483.372	1340.62
483.59	1342.62
483.808	1308.62
484.027	1299.62
484.245	1335.62
484.463	1299.62
484.681	1353.62
484.9	1367.62
485.118	1360.62
485.336	1368.62
485.554	1372.62
485.772	1364.62
485.99	1376.62
486.209	1403.62
486.427	1380.62
486.645	1383.62
486.863	1375.62
487.081	1384.62
487.299	1410.62
487.517	1387.62
487.735	1369.62
487.953	1402.62
488.171	1407.62
488.389	1383.62
488.607	1372.62
488.825	1356.62
489.043	1395.62
489.261	1382.62
489.479	1376.62
489.696	1349.62
489.914	1397.62
490.132	1386.62
490.35	1395.62
490.568	1357.62
490.786	1407.62
491.003	1415.62
491.221	1415.62
491.439	1425.62
491.657	1401.62
491.874	1388.62
492.092	1405.62
492.31	1432.62
492.527	1461.62
492.745	1439.62
492.963	1445.62
493.18	1434.62
493.398	1477.62
493.615	1448.62
493.833	1403.62
494.05	1436.62
494.268	1504.62
494.485	1486.62
494.703	1502.62
494.92	1488.62
495.138	1447.62
495.355	1440.62
495.573	1485.62
495.79	1489.62
496.008	1473.62
496.225	1485.62
496.442	1507.62
496.66	1528.62
496.877	1535.62
497.094	1561.62
497.312	1626.62
497.529	1636.62
497.746	1647.62
497.963	1707.62
498.181	1802.62
498.398	1845.62
498.615	1955.62
498.832	2122.62
499.049	2277.62
499.267	2450.62
499.484	2703.62
499.701	3067.62
499.918	3337.62
500.135	3950.62
500.352	4519.62
500.569	4759.62
500.786	4718.62
501.003	4269.62
501.22	3780.62
501.437	3327.62
501.654	2922.62
501.871	2657.62
502.088	2400.62
502.305	2233.62
502.522	2123.62
502.739	2019.62
502.956	1927.62
503.172	1840.62
503.389	1751.62
503.606	1721.62
503.823	1651.62
504.04	1664.62
504.256	1697.62
504.473	1773.62
504.69	1830.62
504.907	1784.62
505.123	1666.62
505.34	1519.62
505.557	1505.62
505.773	1464.62
505.99	1389.62
506.207	1365.62
506.423	1360.62
506.64	1376.62
506.856	1304.62
507.073	1301.62
507.289	1302.62
507.506	1309.62
507.722	1300.62
507.939	1248.62
508.155	1231.62
508.372	1243.62
508.588	1250.62
508.805	1225.62
509.021	1216.62
509.238	1199.62
509.454	1201.62
509.67	1208.62
509.887	1190.62
510.103	1183.62
510.319	1197.62
510.536	1165.62
510.752	1154.62
510.968	1183.62
511.184	1148.62
511.401	1189.62
511.617	1195.62
511.833	1158.62
512.049	1177.62
512.265	1175.62
512.481	1189.62
512.698	1164.62
512.914	1175.62
513.13	1170.62
513.346	1173.62
513.562	1161.62
513.778	1182.62
513.994	1201.62
514.21	1197.62
514.426	1197.62
514.642	1177.62
514.858	1207.62
515.074	1195.62
515.29	1227.62
515.506	1248.62
515.721	1284.62
515.937	1302.62
516.153	1318.62
516.369	1335.62
516.585	1371.62
516.801	1402.62
517.016	1459.62
517.232	1541.62
517.448	1617.62
517.664	1700.62
517.879	1696.62
518.095	1747.62
518.311	1665.62
518.527	1605.62
518.742	1512.62
518.958	1454.62
519.173	1393.62
519.389	1333.62
519.605	1290.62
519.82	1252.62
520.036	1256.62
520.251	1212.62
520.467	1172.62
520.682	1208.62
520.898	1183.62
521.113	1189.62
521.329	1184.62
521.544	1161.62
521.76	1150.62
521.975	1131.62
522.19	1159.62
522.406	1147.62
522.621	1122.62
522.836	1081.62
523.052	1131.62
523.267	1096.62
523.482	1105.62
523.698	1079.62
523.913	1096.62
524.128	1108.62
524.343	1095.62
524.559	1112.62
524.774	1079.62
524.989	1068.62
525.204	1102.62
525.419	1076.62
525.634	1079.62
525.849	1098.62
526.064	1063.62
526.28	1074.62
526.495	1057.62
526.71	1079.62
526.925	1078.62
527.14	1043.62
527.355	1046.62
527.57	1050.62
527.785	1065.62
527.999	1055.62
528.214	1067.62
528.429	1071.62
528.644	1060.62
528.859	1096.62
529.074	1084.62
529.289	1084.62
529.503	1053.62
529.718	1062.62
529.933	1075.62
530.148	1059.62
530.363	1058.62
530.577	1070.62
530.792	1047.62
531.007	1065.62
531.221	1088.62
531.436	1058.62
531.651	1051.62
531.865	1060.62
532.08	1100.62
532.295	1069.62
532.509	1047.62
532.724	1050.62
532.938	1059.62
533.153	1051.62
533.367	1052.62
533.582	1027.62
533.796	1045.62
534.011	1042.62
534.225	1066.62
534.44	1050.62
534.654	1018.62
534.868	1045.62
535.083	1045.62
535.297	1021.62
535.511	1032.62
535.726	1031.62
535.94	1034.62
536.154	1017.62
536.369	1015.62
536.583	1006.62
536.797	1001.62
537.011	1000.62
537.225	975.62
537.44	994.62
537.654	988.62
537.868	987.62
538.082	951.62
538.296	991.62
538.51	968.62
538.724	974.62
538.938	977.62
539.153	975.62
539.367	948.62
539.581	955.62
539.795	969.62
540.009	964.62
540.222	948.62
540.436	939.62
540.65	943.62
540.864	955.62
541.078	921.62
541.292	958.62
541.506	936.62
541.72	952.62
541.934	925.62
542.147	976.62
542.361	952.62
542.575	937.62
542.789	927.62
543.002	917.62
543.216	926.62
543.43	909.62
543.644	952.62
543.857	931.62
544.071	936.62
544.285	964.62
544.498	943.62
544.712	947.62
544.925	965.62
545.139	959.62
545.352	975.62
545.566	967.62
545.779	996.62
545.993	996.62
546.206	1017.62
546.42	967.62
546.633	1003.62
546.847	975.62
547.06	993.62
547.274	998.62
547.487	979.62
547.7	963.62
547.914	988.62
548.127	1008.62
548.34	989.62
548.554	991.62
548.767	1000.62
548.98	955.62
549.193	953.62
549.407	994.62
549.62	994.62
549.833	1015.62
550.046	1005.62
550.259	992.62
550.473	980.62
550.686	961.62
550.899	957.62
551.112	912.62
551.325	953.62
551.538	960.62
551.751	943.62
551.964	931.62
552.177	959.62
552.39	969.62
552.603	988.62
552.816	1043.62
553.029	1059.62
553.242	1061.62
553.455	1073.62
553.667	1083.62
553.88	1067.62
554.093	1021.62
554.306	967.62
554.519	981.62
554.732	969.62
554.944	949.62
555.157	934.62
555.37	907.62
555.583	924.62
555.795	891.62
556.008	881.62
556.221	876.62
556.433	850.62
556.646	856.62
556.859	857.62
557.071	822.62
557.284	819.62
557.496	805.62
557.709	812.62
557.921	838.62
558.134	845.62
558.346	806.62
558.559	816.62
558.771	811.62
558.984	823.62
559.196	781.62
559.409	813.62
559.621	791.62
559.833	806.62
560.046	799.62
560.258	783.62
560.47	793.62
560.683	795.62
560.895	801.62
561.107	806.62
561.32	811.62
561.532	785.62
561.744	812.62
561.956	777.62
562.168	784.62
562.381	779.62
562.593	800.62
562.805	799.62
563.017	789.62
563.229	785.62
563.441	795.62
563.653	818.62
563.865	812.62
564.077	830.62
564.289	838.62
564.501	825.62
564.713	854.62
564.925	869.62
565.137	893.62
565.349	873.62
565.561	912.62
565.773	951.62
565.985	974.62
566.197	1035.62
566.408	1122.62
566.62	1247.62
566.832	1337.62
567.044	1367.62
567.255	1319.62
567.467	1351.62
567.679	1446.62
567.891	1603.62
568.102	1657.62
568.314	1595.62
568.526	1380.62
568.737	1227.62
568.949	1153.62
569.161	1021.62
569.372	939.62
569.584	889.62
569.795	865.62
570.007	864.62
570.218	826.62
570.43	803.62
570.641	801.62
570.853	809.62
571.064	854.62
571.276	826.62
571.487	803.62
571.698	753.62
571.91	751.62
572.121	715.62
572.333	682.62
572.544	682.62
572.755	692.62
572.966	665.62
573.178	676.62
573.389	659.62
573.6	679.62
573.811	631.62
574.023	625.62
574.234	641.62
574.445	657.62
574.656	652.62
574.867	660.62
575.078	665.62
575.289	665.62
575.501	636.62
575.712	623.62
575.923	625.62
576.134	621.62
576.345	603.62
576.556	615.62
576.767	619.62
576.978	632.62
577.188	608.62
577.399	591.62
577.61	601.62
577.821	588.62
578.032	587.62
578.243	605.62
578.454	589.62
578.665	583.62
578.875	573.62
579.086	557.62
579.297	604.62
579.508	571.62
579.718	550.62
579.929	586.62
580.14	587.62
580.35	542.62
580.561	557.62
580.772	530.62
580.982	559.62
581.193	549.62
581.403	564.62
581.614	556.62
581.825	558.62
582.035	552.62
582.246	521.62
582.456	553.62
582.667	541.62
582.877	534.62
583.087	540.62
583.298	526.62
583.508	541.62
583.719	537.62
583.929	546.62
584.139	529.62
584.35	527.62
584.56	519.62
584.77	541.62
584.981	533.62
585.191	528.62
585.401	525.62
585.611	522.62
585.821	553.62
586.032	529.62
586.242	500.62
586.452	523.62
586.662	513.62
586.872	501.62
587.082	514.62
587.292	537.62
587.502	526.62
587.713	536.62
587.923	510.62
588.133	529.62
588.343	544.62
588.553	522.62
588.762	520.62
588.972	529.62
589.182	514.62
589.392	527.62
589.602	515.62
589.812	513.62
590.022	513.62
590.232	529.62
590.441	518.62
590.651	514.62
590.861	523.62
591.071	523.62
591.281	551.62
591.49	548.62
591.7	544.62
591.91	551.62
592.119	577.62
592.329	571.62
592.539	593.62
592.748	616.62
592.958	645.62
593.167	641.62
593.377	669.62
593.587	686.62
593.796	667.62
594.006	672.62
594.215	692.62
594.424	698.62
594.634	669.62
594.843	663.62
595.053	635.62
595.262	588.62
595.472	577.62
595.681	555.62
595.89	523.62
596.1	518.62
596.309	525.62
596.518	512.62
596.727	491.62
596.937	464.62
597.146	513.62
597.355	476.62
597.564	488.62
597.774	477.62
597.983	452.62
598.192	469.62
598.401	445.62
598.61	458.62
598.819	432.62
599.028	437.62
599.237	439.62
599.446	424.62
599.655	465.62
599.864	437.62
600.073	426.62
600.282	423.62
600.491	421.62
600.7	432.62
600.909	430.62
601.118	431.62
601.327	419.62
601.536	417.62
601.745	424.62
601.953	411.62
602.162	425.62
602.371	429.62
602.58	416.62
602.789	427.62
602.997	435.62
603.206	417.62
603.415	414.62
603.623	383.62
603.832	409.62
604.041	395.62
604.249	397.62
604.458	406.62
604.666	422.62
604.875	405.62
605.084	400.62
605.292	387.62
605.501	389.62
605.709	386.62
605.918	389.62
606.126	381.62
606.334	390.62
606.543	383.62
606.751	401.62
606.96	396.62
607.168	405.62
607.376	383.62
607.585	399.62
607.793	391.62
608.001	407.62
608.21	382.62
608.418	385.62
608.626	375.62
608.834	365.62
609.043	381.62
609.251	389.62
609.459	373.62
609.667	401.62
609.875	383.62
610.083	365.62
610.291	381.62
610.499	389.62
610.707	382.62
610.916	376.62
611.124	367.62
611.332	373.62
611.54	383.62
611.748	384.62
611.955	380.62
612.163	386.62
612.371	389.62
612.579	379.62
612.787	370.62
612.995	372.62
613.203	380.62
613.411	353.62
613.618	370.62
613.826	361.62
614.034	364.62
614.242	362.62
614.449	358.62
614.657	379.62
614.865	375.62
615.072	372.62
615.28	408.62
615.488	358.62
615.695	347.62
615.903	358.62
616.111	373.62
616.318	397.62
616.526	367.62
616.733	387.62
616.941	364.62
617.148	373.62
617.356	356.62
617.563	372.62
617.771	375.62
617.978	371.62
618.185	372.62
618.393	376.62
618.6	372.62
618.807	374.62
619.015	384.62
619.222	367.62
619.429	362.62
619.637	368.62
619.844	366.62
620.051	340.62
620.258	337.62
620.466	337.62
620.673	337.62
620.88	345.62
621.087	350.62
621.294	359.62
621.501	341.62
621.708	350.62
621.915	321.62
622.122	333.62
622.329	337.62
622.536	359.62
622.743	353.62
622.95	349.62
623.157	333.62
623.364	324.62
623.571	344.62
623.778	326.62
623.985	352.62
624.192	326.62
624.399	321.62
624.606	323.62
624.812	333.62
625.019	318.62
625.226	322.62
625.433	324.62
625.639	297.62
625.846	315.62
626.053	315.62
626.259	311.62
626.466	295.62
626.673	307.62
626.879	311.62
627.086	303.62
627.293	295.62
627.499	312.62
627.706	314.62
627.912	287.62
628.119	299.62
628.325	317.62
628.532	307.62
628.738	300.62
628.945	302.62
629.151	309.62
629.357	292.62
629.564	311.62
629.77	309.62
629.976	298.62
630.183	287.62
630.389	297.62
630.595	282.62
630.802	296.62
631.008	272.62
631.214	283.62
631.42	275.62
631.627	280.62
631.833	270.62
632.039	299.62
632.245	263.62
632.451	272.62
632.657	291.62
632.863	279.62
633.069	261.62
633.275	257.62
633.481	246.62
633.688	274.62
633.893	257.62
634.099	271.62
634.305	276.62
634.511	262.62
634.717	282.62
634.923	259.62
635.129	273.62
635.335	267.62
635.541	272.62
635.747	260.62
635.952	250.62
636.158	256.62
636.364	263.62
636.57	263.62
636.775	274.62
636.981	273.62
637.187	268.62
637.392	262.62
637.598	254.62
637.804	251.62
638.009	261.62
638.215	256.62
638.421	258.62
638.626	240.62
638.832	261.62
639.037	241.62
639.243	260.62
639.448	245.62
639.654	267.62
639.859	234.62
640.065	237.62
640.27	240.62
640.475	253.62
640.681	247.62
640.886	239.62
641.091	227.62
641.297	220.62
641.502	228.62
641.707	231.62
641.913	244.62
642.118	238.62
642.323	238.62
642.528	237.62
642.733	221.62
642.939	228.62
643.144	223.62
643.349	229.62
643.554	216.62
643.759	225.62
643.964	244.62
644.169	241.62
644.374	215.62
644.579	216.62
644.784	204.62
644.989	234.62
645.194	219.62
645.399	231.62
645.604	230.62
645.809	222.62
646.014	215.62
646.219	233.62
646.423	238.62
646.628	214.62
646.833	219.62
647.038	238.62
647.243	208.62
647.447	243.62
647.652	246.62
647.857	255.62
648.062	272.62
648.266	252.62
648.471	266.62
648.676	259.62
648.88	245.62
649.085	255.62
649.289	237.62
649.494	227.62
649.698	234.62
649.903	209.62
650.107	217.62
650.312	215.62
650.516	221.62
650.721	211.62
650.925	221.62
651.13	190.62
651.334	209.62
651.539	215.62
651.743	194.62
651.947	199.62
652.152	203.62
652.356	205.62
652.56	195.62
652.764	199.62
652.969	186.62
653.173	198.62
653.377	180.62
653.581	186.62
653.785	180.62
653.99	175.62
654.194	158.62
654.398	172.62
654.602	177.62
654.806	172.62
655.01	177.62
655.214	174.62
655.418	150.62
655.622	155.62
655.826	152.62
656.03	158.62
656.234	152.62
656.438	160.62
656.642	150.62
656.846	162.62
657.049	139.62
657.253	157.62
657.457	144.62
657.661	141.62
657.865	133.62
658.068	137.62
658.272	126.62
658.476	132.62
658.68	130.62
658.883	123.62
659.087	130.62
659.291	123.62
659.494	110.62
659.698	115.62
659.901	119.62
660.105	115.62
660.309	102.62
660.512	99.62
660.716	96.62
660.919	108.62
661.123	98.62
661.326	91.62
661.53	96.62
661.733	96.62
661.936	101.62
662.14	98.62
662.343	91.62
662.546	80.62
662.75	93.62
662.953	95.62
663.156	92.62
663.36	86.62
663.563	97.62
663.766	98.62
663.969	85.62
664.173	82.62
664.376	78.62
664.579	101.62
664.782	95.62
664.985	94.62
665.188	81.62
665.391	93.62
665.594	95.62
665.797	86.62
666	86.62
666.203	86.62
666.406	93.62
666.609	75.62
666.812	99.62
667.015	90.62
667.218	68.62
667.421	94.62
667.624	83.62
667.827	75.62
668.03	100.62
668.232	97.62
668.435	96.62
668.638	75.62
668.841	88.62
669.043	86.62
669.246	90.62
669.449	87.62
669.651	87.62
669.854	85.62
670.057	88.62
670.259	77.62
670.462	92.62
670.665	80.62
670.867	77.62
671.07	80.62
671.272	80.62
671.475	79.62
671.677	97.62
671.88	72.62
672.082	73.62
672.284	72.62
672.487	80.62
672.689	80.62
672.892	77.62
