Data from Ni(NO3)2@0.0625M.TitratingCurve.Agarose3%dH2O.NegLispCup.LampEnergy10.LIBS07252019_HRD10591_18-13-53-569.txt Node
Date: Thu Jul 25 18:13:53 EDT 2019
User: cochatt
Spectrometer: HR+D1059
Trigger mode: 1
Integration Time (sec): 1.000000E-1
Scans to average: 1
Electric dark correction enabled: true
Nonlinearity correction enabled: false
Boxcar width: 0
XAxis mode: Wavelengths
Number of Pixels in Spectrum: 2048
>>>>>Begin Spectral Data<<<<<
223.165	-15.25
223.4	-15.25
223.635	-15.25
223.869	-24.25
224.104	-13.25
224.338	-19.25
224.573	-23.25
224.808	-10.25
225.042	-1.25
225.277	6.75
225.511	-2.25
225.746	0.75
225.98	13.75
226.215	-5.25
226.449	10.75
226.683	27.75
226.918	19.75
227.152	34.75
227.387	35.75
227.621	41.75
227.856	34.75
228.09	51.75
228.324	46.75
228.559	51.75
228.793	65.75
229.027	105.75
229.262	94.75
229.496	101.75
229.73	114.75
229.964	109.75
230.199	126.75
230.433	121.75
230.667	126.75
230.901	116.75
231.136	125.75
231.37	132.75
231.604	141.75
231.838	142.75
232.072	137.75
232.306	134.75
232.541	146.75
232.775	143.75
233.009	141.75
233.243	130.75
233.477	153.75
233.711	143.75
233.945	148.75
234.179	142.75
234.413	137.75
234.647	142.75
234.881	153.75
235.115	147.75
235.349	145.75
235.583	144.75
235.817	143.75
236.051	176.75
236.285	159.75
236.519	152.75
236.753	154.75
236.987	157.75
237.221	138.75
237.455	148.75
237.689	154.75
237.922	153.75
238.156	162.75
238.39	161.75
238.624	145.75
238.858	161.75
239.091	170.75
239.325	176.75
239.559	160.75
239.793	162.75
240.027	171.75
240.26	168.75
240.494	180.75
240.728	190.75
240.961	168.75
241.195	180.75
241.429	182.75
241.662	166.75
241.896	176.75
242.13	190.75
242.363	189.75
242.597	171.75
242.83	177.75
243.064	185.75
243.298	196.75
243.531	188.75
243.765	211.75
243.998	221.75
244.232	203.75
244.465	198.75
244.699	202.75
244.932	208.75
245.166	212.75
245.399	214.75
245.633	213.75
245.866	210.75
246.099	222.75
246.333	217.75
246.566	208.75
246.8	227.75
247.033	222.75
247.266	217.75
247.5	221.75
247.733	209.75
247.966	227.75
248.2	222.75
248.433	226.75
248.666	240.75
248.899	219.75
249.133	214.75
249.366	249.75
249.599	224.75
249.832	238.75
250.066	234.75
250.299	237.75
250.532	244.75
250.765	267.75
250.998	243.75
251.231	265.75
251.465	239.75
251.698	262.75
251.931	250.75
252.164	259.75
252.397	262.75
252.63	267.75
252.863	272.75
253.096	267.75
253.329	253.75
253.562	275.75
253.795	274.75
254.028	284.75
254.261	255.75
254.494	272.75
254.727	282.75
254.96	252.75
255.193	274.75
255.426	275.75
255.659	293.75
255.892	282.75
256.124	268.75
256.357	288.75
256.59	288.75
256.823	279.75
257.056	286.75
257.289	276.75
257.521	292.75
257.754	287.75
257.987	279.75
258.22	293.75
258.452	303.75
258.685	295.75
258.918	286.75
259.151	298.75
259.383	298.75
259.616	295.75
259.849	288.75
260.081	300.75
260.314	309.75
260.547	306.75
260.779	297.75
261.012	328.75
261.244	313.75
261.477	297.75
261.71	313.75
261.942	318.75
262.175	316.75
262.407	336.75
262.64	316.75
262.872	325.75
263.105	324.75
263.337	324.75
263.57	329.75
263.802	320.75
264.035	330.75
264.267	322.75
264.499	329.75
264.732	332.75
264.964	338.75
265.197	358.75
265.429	332.75
265.661	335.75
265.894	345.75
266.126	368.75
266.358	339.75
266.591	336.75
266.823	367.75
267.055	324.75
267.287	354.75
267.52	369.75
267.752	364.75
267.984	366.75
268.216	360.75
268.448	354.75
268.681	357.75
268.913	376.75
269.145	364.75
269.377	376.75
269.609	352.75
269.841	372.75
270.073	370.75
270.306	377.75
270.538	370.75
270.77	373.75
271.002	370.75
271.234	378.75
271.466	379.75
271.698	394.75
271.93	373.75
272.162	386.75
272.394	376.75
272.626	360.75
272.858	380.75
273.09	380.75
273.322	387.75
273.553	392.75
273.785	398.75
274.017	393.75
274.249	406.75
274.481	390.75
274.713	395.75
274.945	404.75
275.176	406.75
275.408	408.75
275.64	419.75
275.872	423.75
276.104	400.75
276.335	423.75
276.567	421.75
276.799	416.75
277.031	434.75
277.262	424.75
277.494	425.75
277.726	420.75
277.957	419.75
278.189	417.75
278.421	428.75
278.652	418.75
278.884	442.75
279.115	424.75
279.347	419.75
279.579	438.75
279.81	438.75
280.042	440.75
280.273	415.75
280.505	433.75
280.736	442.75
280.968	430.75
281.199	463.75
281.431	464.75
281.662	447.75
281.894	433.75
282.125	463.75
282.356	472.75
282.588	451.75
282.819	442.75
283.051	458.75
283.282	468.75
283.513	455.75
283.745	458.75
283.976	489.75
284.207	476.75
284.439	473.75
284.67	489.75
284.901	481.75
285.132	489.75
285.364	475.75
285.595	481.75
285.826	475.75
286.057	494.75
286.288	481.75
286.52	489.75
286.751	484.75
286.982	504.75
287.213	502.75
287.444	516.75
287.675	498.75
287.906	500.75
288.138	500.75
288.369	500.75
288.6	510.75
288.831	494.75
289.062	491.75
289.293	520.75
289.524	515.75
289.755	516.75
289.986	528.75
290.217	512.75
290.448	515.75
290.679	534.75
290.91	517.75
291.141	526.75
291.371	489.75
291.602	512.75
291.833	510.75
292.064	510.75
292.295	506.75
292.526	515.75
292.757	516.75
292.987	521.75
293.218	524.75
293.449	536.75
293.68	528.75
293.91	529.75
294.141	536.75
294.372	508.75
294.603	529.75
294.833	519.75
295.064	520.75
295.295	513.75
295.525	537.75
295.756	539.75
295.987	561.75
296.217	560.75
296.448	558.75
296.679	555.75
296.909	537.75
297.14	559.75
297.37	556.75
297.601	557.75
297.831	560.75
298.062	572.75
298.292	582.75
298.523	568.75
298.753	606.75
298.984	559.75
299.214	549.75
299.445	588.75
299.675	590.75
299.905	580.75
300.136	572.75
300.366	571.75
300.597	567.75
300.827	606.75
301.057	611.75
301.288	620.75
301.518	596.75
301.748	588.75
301.979	602.75
302.209	625.75
302.439	622.75
302.669	611.75
302.9	617.75
303.13	597.75
303.36	588.75
303.59	588.75
303.82	585.75
304.051	601.75
304.281	583.75
304.511	571.75
304.741	615.75
304.971	599.75
305.201	599.75
305.431	575.75
305.661	585.75
305.891	574.75
306.121	584.75
306.352	600.75
306.582	604.75
306.812	594.75
307.042	574.75
307.272	607.75
307.502	623.75
307.731	614.75
307.961	601.75
308.191	581.75
308.421	585.75
308.651	578.75
308.881	574.75
309.111	598.75
309.341	564.75
309.571	578.75
309.8	580.75
310.03	600.75
310.26	585.75
310.49	571.75
310.72	603.75
310.949	588.75
311.179	588.75
311.409	593.75
311.639	573.75
311.868	600.75
312.098	594.75
312.328	611.75
312.557	617.75
312.787	631.75
313.017	606.75
313.246	611.75
313.476	592.75
313.706	632.75
313.935	626.75
314.165	656.75
314.394	628.75
314.624	621.75
314.853	626.75
315.083	636.75
315.312	625.75
315.542	618.75
315.771	626.75
316.001	636.75
316.23	637.75
316.46	620.75
316.689	640.75
316.919	608.75
317.148	615.75
317.377	619.75
317.607	635.75
317.836	630.75
318.065	634.75
318.295	631.75
318.524	646.75
318.753	622.75
318.983	608.75
319.212	606.75
319.441	611.75
319.67	616.75
319.9	616.75
320.129	626.75
320.358	617.75
320.587	624.75
320.816	624.75
321.046	628.75
321.275	636.75
321.504	627.75
321.733	632.75
321.962	640.75
322.191	648.75
322.42	599.75
322.649	624.75
322.878	625.75
323.108	619.75
323.337	629.75
323.566	640.75
323.795	615.75
324.024	633.75
324.253	634.75
324.482	635.75
324.71	660.75
324.939	625.75
325.168	651.75
325.397	636.75
325.626	643.75
325.855	659.75
326.084	707.75
326.313	697.75
326.542	698.75
326.77	706.75
326.999	680.75
327.228	683.75
327.457	687.75
327.686	686.75
327.914	699.75
328.143	695.75
328.372	684.75
328.6	704.75
328.829	683.75
329.058	675.75
329.287	701.75
329.515	699.75
329.744	681.75
329.972	729.75
330.201	707.75
330.43	723.75
330.658	704.75
330.887	731.75
331.115	716.75
331.344	731.75
331.572	752.75
331.801	747.75
332.03	771.75
332.258	801.75
332.486	797.75
332.715	827.75
332.943	875.75
333.172	911.75
333.4	924.75
333.629	954.75
333.857	955.75
334.085	957.75
334.314	908.75
334.542	899.75
334.771	900.75
334.999	866.75
335.227	855.75
335.455	850.75
335.684	862.75
335.912	852.75
336.14	830.75
336.369	835.75
336.597	850.75
336.825	827.75
337.053	821.75
337.281	817.75
337.51	772.75
337.738	815.75
337.966	793.75
338.194	798.75
338.422	751.75
338.65	736.75
338.878	734.75
339.106	730.75
339.334	738.75
339.562	743.75
339.79	743.75
340.018	711.75
340.246	740.75
340.474	708.75
340.702	719.75
340.93	729.75
341.158	706.75
341.386	722.75
341.614	719.75
341.842	720.75
342.07	715.75
342.298	709.75
342.526	714.75
342.754	715.75
342.981	705.75
343.209	742.75
343.437	786.75
343.665	833.75
343.893	879.75
344.12	914.75
344.348	866.75
344.576	832.75
344.804	778.75
345.031	746.75
345.259	716.75
345.487	733.75
345.714	724.75
345.942	719.75
346.17	711.75
346.397	703.75
346.625	709.75
346.853	684.75
347.08	709.75
347.308	711.75
347.535	702.75
347.763	698.75
347.99	681.75
348.218	694.75
348.445	696.75
348.673	711.75
348.9	704.75
349.128	684.75
349.355	704.75
349.583	684.75
349.81	679.75
350.037	697.75
350.265	708.75
350.492	685.75
350.72	691.75
350.947	655.75
351.174	646.75
351.402	675.75
351.629	692.75
351.856	671.75
352.083	665.75
352.311	674.75
352.538	664.75
352.765	675.75
352.992	647.75
353.22	674.75
353.447	666.75
353.674	660.75
353.901	634.75
354.128	667.75
354.355	674.75
354.583	669.75
354.81	666.75
355.037	683.75
355.264	670.75
355.491	703.75
355.718	688.75
355.945	670.75
356.172	664.75
356.399	677.75
356.626	705.75
356.853	696.75
357.08	644.75
357.307	659.75
357.534	690.75
357.761	662.75
357.988	718.75
358.215	687.75
358.441	673.75
358.668	662.75
358.895	666.75
359.122	703.75
359.349	666.75
359.576	704.75
359.802	662.75
360.029	664.75
360.256	689.75
360.483	686.75
360.709	672.75
360.936	688.75
361.163	679.75
361.39	677.75
361.616	675.75
361.843	671.75
362.07	696.75
362.296	693.75
362.523	671.75
362.749	643.75
362.976	682.75
363.203	666.75
363.429	674.75
363.656	686.75
363.882	660.75
364.109	637.75
364.335	655.75
364.562	682.75
364.788	674.75
365.015	678.75
365.241	655.75
365.468	646.75
365.694	671.75
365.92	683.75
366.147	671.75
366.373	675.75
366.599	681.75
366.826	663.75
367.052	705.75
367.278	670.75
367.505	659.75
367.731	680.75
367.957	668.75
368.184	655.75
368.41	700.75
368.636	669.75
368.862	703.75
369.089	703.75
369.315	690.75
369.541	651.75
369.767	703.75
369.993	671.75
370.219	698.75
370.445	719.75
370.672	709.75
370.898	717.75
371.124	732.75
371.35	759.75
371.576	736.75
371.802	743.75
372.028	713.75
372.254	740.75
372.48	727.75
372.706	772.75
372.932	796.75
373.158	743.75
373.384	755.75
373.61	711.75
373.835	729.75
374.061	742.75
374.287	726.75
374.513	736.75
374.739	779.75
374.965	815.75
375.191	834.75
375.416	831.75
375.642	782.75
375.868	795.75
376.094	766.75
376.319	746.75
376.545	735.75
376.771	750.75
376.997	716.75
377.222	763.75
377.448	722.75
377.674	744.75
377.899	742.75
378.125	753.75
378.35	740.75
378.576	739.75
378.802	714.75
379.027	708.75
379.253	739.75
379.478	738.75
379.704	712.75
379.929	728.75
380.155	742.75
380.38	730.75
380.606	720.75
380.831	741.75
381.057	740.75
381.282	736.75
381.507	729.75
381.733	757.75
381.958	752.75
382.184	758.75
382.409	771.75
382.634	776.75
382.86	807.75
383.085	794.75
383.31	790.75
383.535	819.75
383.761	810.75
383.986	833.75
384.211	871.75
384.436	865.75
384.662	883.75
384.887	884.75
385.112	881.75
385.337	891.75
385.562	897.75
385.787	894.75
386.013	920.75
386.238	881.75
386.463	920.75
386.688	896.75
386.913	898.75
387.138	887.75
387.363	865.75
387.588	880.75
387.813	863.75
388.038	862.75
388.263	887.75
388.488	894.75
388.713	891.75
388.938	866.75
389.163	828.75
389.387	875.75
389.612	870.75
389.837	882.75
390.062	840.75
390.287	849.75
390.512	868.75
390.736	874.75
390.961	885.75
391.186	897.75
391.411	965.75
391.636	975.75
391.86	1032.75
392.085	1012.75
392.31	991.75
392.534	971.75
392.759	951.75
392.984	951.75
393.208	950.75
393.433	944.75
393.658	946.75
393.882	965.75
394.107	961.75
394.331	974.75
394.556	930.75
394.78	977.75
395.005	971.75
395.229	978.75
395.454	987.75
395.678	1026.75
395.903	1007.75
396.127	991.75
396.352	982.75
396.576	940.75
396.801	937.75
397.025	970.75
397.249	999.75
397.474	977.75
397.698	1010.75
397.922	1017.75
398.147	996.75
398.371	986.75
398.595	1052.75
398.82	1104.75
399.044	1193.75
399.268	1360.75
399.492	1570.75
399.717	1781.75
399.941	1756.75
400.165	1500.75
400.389	1358.75
400.613	1224.75
400.837	1170.75
401.062	1160.75
401.286	1127.75
401.51	1122.75
401.734	1109.75
401.958	1130.75
402.182	1151.75
402.406	1155.75
402.63	1159.75
402.854	1170.75
403.078	1228.75
403.302	1239.75
403.526	1291.75
403.75	1303.75
403.974	1353.75
404.198	1336.75
404.422	1361.75
404.645	1339.75
404.869	1316.75
405.093	1280.75
405.317	1253.75
405.541	1242.75
405.765	1214.75
405.988	1242.75
406.212	1227.75
406.436	1222.75
406.66	1274.75
406.883	1294.75
407.107	1385.75
407.331	1420.75
407.555	1456.75
407.778	1451.75
408.002	1415.75
408.226	1382.75
408.449	1367.75
408.673	1283.75
408.896	1304.75
409.12	1283.75
409.344	1310.75
409.567	1288.75
409.791	1301.75
410.014	1323.75
410.238	1252.75
410.461	1255.75
410.685	1241.75
410.908	1174.75
411.132	1211.75
411.355	1154.75
411.578	1180.75
411.802	1167.75
412.025	1168.75
412.249	1199.75
412.472	1186.75
412.695	1142.75
412.919	1086.75
413.142	1125.75
413.365	1114.75
413.589	1111.75
413.812	1091.75
414.035	1089.75
414.258	1132.75
414.482	1135.75
414.705	1165.75
414.928	1131.75
415.151	1146.75
415.374	1091.75
415.597	1097.75
415.821	1127.75
416.044	1081.75
416.267	1070.75
416.49	1091.75
416.713	1059.75
416.936	1105.75
417.159	1085.75
417.382	1111.75
417.605	1110.75
417.828	1104.75
418.051	1120.75
418.274	1091.75
418.497	1126.75
418.72	1156.75
418.943	1162.75
419.166	1210.75
419.389	1270.75
419.611	1230.75
419.834	1201.75
420.057	1158.75
420.28	1131.75
420.503	1093.75
420.726	1095.75
420.948	1100.75
421.171	1099.75
421.394	1062.75
421.617	1076.75
421.839	1105.75
422.062	1138.75
422.285	1089.75
422.507	1115.75
422.73	1152.75
422.953	1144.75
423.175	1148.75
423.398	1189.75
423.621	1188.75
423.843	1214.75
424.066	1190.75
424.288	1191.75
424.511	1182.75
424.733	1185.75
424.956	1141.75
425.178	1142.75
425.401	1124.75
425.623	1119.75
425.846	1056.75
426.068	1062.75
426.291	1024.75
426.513	1057.75
426.735	1015.75
426.958	1036.75
427.18	1006.75
427.402	998.75
427.625	977.75
427.847	962.75
428.069	954.75
428.292	970.75
428.514	956.75
428.736	950.75
428.958	967.75
429.181	929.75
429.403	927.75
429.625	926.75
429.847	931.75
430.069	935.75
430.292	987.75
430.514	919.75
430.736	929.75
430.958	951.75
431.18	954.75
431.402	954.75
431.624	1006.75
431.846	972.75
432.068	995.75
432.29	1019.75
432.512	962.75
432.734	974.75
432.956	938.75
433.178	972.75
433.4	972.75
433.622	998.75
433.844	994.75
434.066	983.75
434.287	987.75
434.509	1043.75
434.731	1091.75
434.953	1104.75
435.175	1123.75
435.397	1120.75
435.618	1061.75
435.84	1006.75
436.062	996.75
436.284	954.75
436.505	944.75
436.727	976.75
436.949	998.75
437.17	970.75
437.392	948.75
437.614	948.75
437.835	936.75
438.057	926.75
438.278	933.75
438.5	959.75
438.721	938.75
438.943	933.75
439.165	945.75
439.386	938.75
439.608	958.75
439.829	971.75
440.05	968.75
440.272	989.75
440.493	980.75
440.715	994.75
440.936	1023.75
441.158	1052.75
441.379	1050.75
441.6	1137.75
441.822	1108.75
442.043	1113.75
442.264	1065.75
442.486	1063.75
442.707	1089.75
442.928	1114.75
443.149	1111.75
443.371	1093.75
443.592	1114.75
443.813	1111.75
444.034	1098.75
444.255	1150.75
444.476	1175.75
444.698	1294.75
444.919	1356.75
445.14	1388.75
445.361	1265.75
445.582	1136.75
445.803	1066.75
446.024	1047.75
446.245	1008.75
446.466	984.75
446.687	983.75
446.908	970.75
447.129	958.75
447.35	925.75
447.571	930.75
447.792	920.75
448.013	923.75
448.234	893.75
448.455	914.75
448.675	894.75
448.896	894.75
449.117	848.75
449.338	883.75
449.559	880.75
449.779	875.75
450	826.75
450.221	872.75
450.442	907.75
450.662	875.75
450.883	884.75
451.104	897.75
451.324	883.75
451.545	892.75
451.766	912.75
451.986	881.75
452.207	892.75
452.428	892.75
452.648	886.75
452.869	886.75
453.089	880.75
453.31	878.75
453.53	871.75
453.751	862.75
453.971	885.75
454.192	858.75
454.412	838.75
454.633	846.75
454.853	831.75
455.073	840.75
455.294	841.75
455.514	837.75
455.734	837.75
455.955	827.75
456.175	821.75
456.395	802.75
456.616	820.75
456.836	836.75
457.056	831.75
457.276	806.75
457.497	842.75
457.717	819.75
457.937	833.75
458.157	844.75
458.377	842.75
458.598	879.75
458.818	920.75
459.038	927.75
459.258	961.75
459.478	980.75
459.698	1012.75
459.918	1062.75
460.138	1111.75
460.358	1145.75
460.578	1151.75
460.798	1202.75
461.018	1186.75
461.238	1140.75
461.458	1160.75
461.678	1168.75
461.898	1197.75
462.118	1184.75
462.338	1246.75
462.558	1253.75
462.777	1336.75
462.997	1422.75
463.217	1613.75
463.437	1570.75
463.657	1419.75
463.876	1361.75
464.096	1342.75
464.316	1352.75
464.536	1373.75
464.755	1316.75
464.975	1258.75
465.195	1174.75
465.414	1099.75
465.634	1042.75
465.854	1011.75
466.073	1000.75
466.293	971.75
466.512	950.75
466.732	928.75
466.951	939.75
467.171	912.75
467.391	921.75
467.61	917.75
467.829	910.75
468.049	895.75
468.268	890.75
468.488	881.75
468.707	885.75
468.927	874.75
469.146	865.75
469.365	896.75
469.585	912.75
469.804	934.75
470.023	964.75
470.243	947.75
470.462	974.75
470.681	999.75
470.901	970.75
471.12	922.75
471.339	935.75
471.558	894.75
471.777	920.75
471.997	877.75
472.216	878.75
472.435	858.75
472.654	850.75
472.873	867.75
473.092	840.75
473.311	873.75
473.53	855.75
473.749	845.75
473.968	852.75
474.187	843.75
474.406	868.75
474.625	868.75
474.844	856.75
475.063	849.75
475.282	862.75
475.501	895.75
475.72	862.75
475.939	873.75
476.158	890.75
476.377	869.75
476.596	900.75
476.814	905.75
477.033	928.75
477.252	955.75
477.471	934.75
477.69	969.75
477.908	967.75
478.127	1021.75
478.346	1033.75
478.564	1042.75
478.783	1067.75
479.002	1131.75
479.22	1100.75
479.439	1060.75
479.658	1084.75
479.876	1085.75
480.095	1078.75
480.313	1160.75
480.532	1189.75
480.751	1171.75
480.969	1113.75
481.188	1032.75
481.406	1028.75
481.624	1023.75
481.843	967.75
482.061	970.75
482.28	970.75
482.498	961.75
482.717	969.75
482.935	951.75
483.153	978.75
483.372	974.75
483.59	977.75
483.808	979.75
484.027	981.75
484.245	988.75
484.463	1004.75
484.681	993.75
484.9	994.75
485.118	983.75
485.336	1019.75
485.554	1030.75
485.772	1037.75
485.99	1058.75
486.209	1010.75
486.427	1054.75
486.645	1035.75
486.863	1048.75
487.081	1024.75
487.299	1013.75
487.517	1028.75
487.735	1035.75
487.953	1001.75
488.171	1003.75
488.389	1014.75
488.607	1003.75
488.825	997.75
489.043	982.75
489.261	1032.75
489.479	1034.75
489.696	1016.75
489.914	1033.75
490.132	1020.75
490.35	1050.75
490.568	1022.75
490.786	992.75
491.003	1017.75
491.221	1034.75
491.439	1027.75
491.657	1008.75
491.874	1009.75
492.092	1007.75
492.31	1027.75
492.527	1034.75
492.745	1060.75
492.963	1062.75
493.18	1036.75
493.398	1044.75
493.615	1067.75
493.833	1080.75
494.05	1082.75
494.268	1083.75
494.485	1080.75
494.703	1092.75
494.92	1107.75
495.138	1099.75
495.355	1088.75
495.573	1103.75
495.79	1118.75
496.008	1093.75
496.225	1104.75
496.442	1110.75
496.66	1144.75
496.877	1138.75
497.094	1149.75
497.312	1183.75
497.529	1242.75
497.746	1235.75
497.963	1257.75
498.181	1346.75
498.398	1414.75
498.615	1493.75
498.832	1590.75
499.049	1684.75
499.267	1858.75
499.484	2071.75
499.701	2273.75
499.918	2518.75
500.135	2970.75
500.352	3488.75
500.569	3650.75
500.786	3483.75
501.003	3266.75
501.22	2810.75
501.437	2448.75
501.654	2148.75
501.871	1939.75
502.088	1788.75
502.305	1648.75
502.522	1542.75
502.739	1523.75
502.956	1462.75
503.172	1370.75
503.389	1289.75
503.606	1279.75
503.823	1242.75
504.04	1246.75
504.256	1305.75
504.473	1319.75
504.69	1344.75
504.907	1283.75
505.123	1216.75
505.34	1131.75
505.557	1065.75
505.773	1040.75
505.99	1046.75
506.207	1048.75
506.423	1010.75
506.64	986.75
506.856	993.75
507.073	966.75
507.289	965.75
507.506	968.75
507.722	965.75
507.939	935.75
508.155	942.75
508.372	935.75
508.588	920.75
508.805	907.75
509.021	890.75
509.238	906.75
509.454	906.75
509.67	913.75
509.887	869.75
510.103	885.75
510.319	882.75
510.536	849.75
510.752	868.75
510.968	889.75
511.184	863.75
511.401	869.75
511.617	871.75
511.833	899.75
512.049	874.75
512.265	877.75
512.481	884.75
512.698	878.75
512.914	869.75
513.13	846.75
513.346	878.75
513.562	858.75
513.778	864.75
513.994	862.75
514.21	876.75
514.426	871.75
514.642	896.75
514.858	885.75
515.074	886.75
515.29	915.75
515.506	892.75
515.721	927.75
515.937	952.75
516.153	976.75
516.369	960.75
516.585	1033.75
516.801	1081.75
517.016	1098.75
517.232	1174.75
517.448	1239.75
517.664	1271.75
517.879	1277.75
518.095	1260.75
518.311	1228.75
518.527	1179.75
518.742	1114.75
518.958	1060.75
519.173	1052.75
519.389	1020.75
519.605	983.75
519.82	960.75
520.036	905.75
520.251	911.75
520.467	916.75
520.682	908.75
520.898	887.75
521.113	874.75
521.329	847.75
521.544	860.75
521.76	865.75
521.975	853.75
522.19	853.75
522.406	820.75
522.621	816.75
522.836	822.75
523.052	802.75
523.267	835.75
523.482	842.75
523.698	820.75
523.913	819.75
524.128	796.75
524.343	801.75
524.559	834.75
524.774	794.75
524.989	824.75
525.204	821.75
525.419	816.75
525.634	795.75
525.849	798.75
526.064	788.75
526.28	788.75
526.495	795.75
526.71	810.75
526.925	790.75
527.14	797.75
527.355	774.75
527.57	745.75
527.785	777.75
527.999	812.75
528.214	795.75
528.429	798.75
528.644	790.75
528.859	793.75
529.074	811.75
529.289	788.75
529.503	788.75
529.718	798.75
529.933	789.75
530.148	790.75
530.363	802.75
530.577	777.75
530.792	766.75
531.007	745.75
531.221	810.75
531.436	775.75
531.651	778.75
531.865	806.75
532.08	809.75
532.295	810.75
532.509	799.75
532.724	787.75
532.938	803.75
533.153	775.75
533.367	758.75
533.582	795.75
533.796	767.75
534.011	794.75
534.225	778.75
534.44	776.75
534.654	778.75
534.868	774.75
535.083	776.75
535.297	754.75
535.511	772.75
535.726	775.75
535.94	759.75
536.154	719.75
536.369	746.75
536.583	720.75
536.797	736.75
537.011	720.75
537.225	757.75
537.44	737.75
537.654	738.75
537.868	741.75
538.082	710.75
538.296	730.75
538.51	714.75
538.724	729.75
538.938	695.75
539.153	701.75
539.367	713.75
539.581	726.75
539.795	712.75
540.009	734.75
540.222	715.75
540.436	704.75
540.65	723.75
540.864	711.75
541.078	696.75
541.292	699.75
541.506	709.75
541.72	701.75
541.934	706.75
542.147	707.75
542.361	728.75
542.575	686.75
542.789	690.75
543.002	683.75
543.216	679.75
543.43	691.75
543.644	667.75
543.857	712.75
544.071	689.75
544.285	683.75
544.498	721.75
544.712	720.75
544.925	711.75
545.139	721.75
545.352	720.75
545.566	723.75
545.779	705.75
545.993	730.75
546.206	743.75
546.42	732.75
546.633	734.75
546.847	708.75
547.06	690.75
547.274	737.75
547.487	698.75
547.7	697.75
547.914	727.75
548.127	730.75
548.34	742.75
548.554	730.75
548.767	726.75
548.98	716.75
549.193	729.75
549.407	742.75
549.62	770.75
549.833	746.75
550.046	739.75
550.259	725.75
550.473	727.75
550.686	723.75
550.899	721.75
551.112	703.75
551.325	678.75
551.538	708.75
551.751	722.75
551.964	712.75
552.177	698.75
552.39	748.75
552.603	738.75
552.816	766.75
553.029	773.75
553.242	789.75
553.455	806.75
553.667	783.75
553.88	768.75
554.093	778.75
554.306	745.75
554.519	732.75
554.732	730.75
554.944	715.75
555.157	654.75
555.37	679.75
555.583	670.75
555.795	663.75
556.008	642.75
556.221	653.75
556.433	638.75
556.646	627.75
556.859	633.75
557.071	630.75
557.284	633.75
557.496	616.75
557.709	633.75
557.921	601.75
558.134	630.75
558.346	598.75
558.559	611.75
558.771	604.75
558.984	604.75
559.196	593.75
559.409	596.75
559.621	619.75
559.833	588.75
560.046	582.75
560.258	582.75
560.47	568.75
560.683	582.75
560.895	589.75
561.107	560.75
561.32	594.75
561.532	600.75
561.744	583.75
561.956	600.75
562.168	579.75
562.381	576.75
562.593	594.75
562.805	599.75
563.017	602.75
563.229	585.75
563.441	598.75
563.653	603.75
563.865	596.75
564.077	593.75
564.289	595.75
564.501	599.75
564.713	622.75
564.925	625.75
565.137	638.75
565.349	652.75
565.561	649.75
565.773	681.75
565.985	727.75
566.197	787.75
566.408	835.75
566.62	907.75
566.832	997.75
567.044	1028.75
567.255	1008.75
567.467	1028.75
567.679	1083.75
567.891	1184.75
568.102	1260.75
568.314	1181.75
568.526	1041.75
568.737	944.75
568.949	854.75
569.161	790.75
569.372	736.75
569.584	674.75
569.795	651.75
570.007	630.75
570.218	627.75
570.43	615.75
570.641	626.75
570.853	602.75
571.064	627.75
571.276	631.75
571.487	599.75
571.698	580.75
571.91	549.75
572.121	532.75
572.333	510.75
572.544	536.75
572.755	515.75
572.966	505.75
573.178	507.75
573.389	511.75
573.6	489.75
573.811	483.75
574.023	491.75
574.234	492.75
574.445	490.75
574.656	489.75
574.867	512.75
575.078	500.75
575.289	488.75
575.501	478.75
575.712	459.75
575.923	469.75
576.134	475.75
576.345	449.75
576.556	445.75
576.767	452.75
576.978	461.75
577.188	460.75
577.399	471.75
577.61	441.75
577.821	445.75
578.032	454.75
578.243	450.75
578.454	429.75
578.665	435.75
578.875	436.75
579.086	426.75
579.297	442.75
579.508	441.75
579.718	443.75
579.929	415.75
580.14	411.75
580.35	413.75
580.561	423.75
580.772	411.75
580.982	428.75
581.193	412.75
581.403	390.75
581.614	418.75
581.825	435.75
582.035	422.75
582.246	422.75
582.456	406.75
582.667	414.75
582.877	412.75
583.087	407.75
583.298	393.75
583.508	415.75
583.719	405.75
583.929	398.75
584.139	409.75
584.35	397.75
584.56	383.75
584.77	387.75
584.981	391.75
585.191	371.75
585.401	384.75
585.611	397.75
585.821	382.75
586.032	393.75
586.242	403.75
586.452	402.75
586.662	385.75
586.872	397.75
587.082	388.75
587.292	375.75
587.502	390.75
587.713	384.75
587.923	391.75
588.133	385.75
588.343	391.75
588.553	388.75
588.762	408.75
588.972	404.75
589.182	391.75
589.392	398.75
589.602	404.75
589.812	401.75
590.022	397.75
590.232	407.75
590.441	398.75
590.651	416.75
590.861	391.75
591.071	395.75
591.281	405.75
591.49	416.75
591.7	413.75
591.91	427.75
592.119	432.75
592.329	436.75
592.539	451.75
592.748	477.75
592.958	488.75
593.167	500.75
593.377	481.75
593.587	526.75
593.796	526.75
594.006	525.75
594.215	530.75
594.424	541.75
594.634	487.75
594.843	475.75
595.053	447.75
595.262	440.75
595.472	445.75
595.681	409.75
595.89	416.75
596.1	394.75
596.309	378.75
596.518	385.75
596.727	384.75
596.937	370.75
597.146	369.75
597.355	335.75
597.564	357.75
597.774	355.75
597.983	352.75
598.192	345.75
598.401	331.75
598.61	356.75
598.819	335.75
599.028	347.75
599.237	344.75
599.446	323.75
599.655	326.75
599.864	336.75
600.073	346.75
600.282	336.75
600.491	336.75
600.7	328.75
600.909	326.75
601.118	302.75
601.327	319.75
601.536	327.75
601.745	339.75
601.953	333.75
602.162	320.75
602.371	319.75
602.58	331.75
602.789	323.75
602.997	326.75
603.206	336.75
603.415	313.75
603.623	295.75
603.832	328.75
604.041	328.75
604.249	307.75
604.458	313.75
604.666	312.75
604.875	305.75
605.084	276.75
605.292	276.75
605.501	295.75
605.709	295.75
605.918	292.75
606.126	296.75
606.334	318.75
606.543	299.75
606.751	292.75
606.96	314.75
607.168	304.75
607.376	297.75
607.585	292.75
607.793	298.75
608.001	294.75
608.21	303.75
608.418	298.75
608.626	290.75
608.834	291.75
609.043	278.75
609.251	297.75
609.459	301.75
609.667	292.75
609.875	288.75
610.083	290.75
610.291	269.75
610.499	302.75
610.707	274.75
610.916	274.75
611.124	273.75
611.332	297.75
611.54	297.75
611.748	296.75
611.955	294.75
612.163	284.75
612.371	289.75
612.579	279.75
612.787	294.75
612.995	292.75
613.203	292.75
613.411	282.75
613.618	290.75
613.826	274.75
614.034	292.75
614.242	286.75
614.449	282.75
614.657	272.75
614.865	259.75
615.072	264.75
615.28	280.75
615.488	280.75
615.695	296.75
615.903	292.75
616.111	283.75
616.318	297.75
616.526	302.75
616.733	294.75
616.941	284.75
617.148	298.75
617.356	295.75
617.563	285.75
617.771	295.75
617.978	286.75
618.185	286.75
618.393	288.75
618.6	275.75
618.807	296.75
619.015	280.75
619.222	277.75
619.429	297.75
619.637	267.75
619.844	272.75
620.051	272.75
620.258	278.75
620.466	270.75
620.673	260.75
620.88	260.75
621.087	265.75
621.294	246.75
621.501	278.75
621.708	254.75
621.915	251.75
622.122	283.75
622.329	257.75
622.536	257.75
622.743	251.75
622.95	240.75
623.157	255.75
623.364	242.75
623.571	243.75
623.778	252.75
623.985	254.75
624.192	249.75
624.399	257.75
624.606	239.75
624.812	248.75
625.019	252.75
625.226	252.75
625.433	243.75
625.639	265.75
625.846	246.75
626.053	223.75
626.259	231.75
626.466	251.75
626.673	245.75
626.879	249.75
627.086	242.75
627.293	253.75
627.499	252.75
627.706	217.75
627.912	216.75
628.119	217.75
628.325	233.75
628.532	230.75
628.738	232.75
628.945	222.75
629.151	223.75
629.357	234.75
629.564	211.75
629.77	233.75
629.976	226.75
630.183	227.75
630.389	222.75
630.595	214.75
630.802	227.75
631.008	237.75
631.214	221.75
631.42	224.75
631.627	227.75
631.833	220.75
632.039	235.75
632.245	211.75
632.451	207.75
632.657	229.75
632.863	219.75
633.069	210.75
633.275	224.75
633.481	213.75
633.688	208.75
633.893	212.75
634.099	224.75
634.305	228.75
634.511	207.75
634.717	202.75
634.923	209.75
635.129	202.75
635.335	200.75
635.541	211.75
635.747	223.75
635.952	223.75
636.158	197.75
636.364	200.75
636.57	176.75
636.775	195.75
636.981	210.75
637.187	215.75
637.392	201.75
637.598	198.75
637.804	215.75
638.009	207.75
638.215	203.75
638.421	192.75
638.626	190.75
638.832	197.75
639.037	190.75
639.243	200.75
639.448	202.75
639.654	208.75
639.859	191.75
640.065	204.75
640.27	223.75
640.475	187.75
640.681	196.75
640.886	206.75
641.091	191.75
641.297	185.75
641.502	198.75
641.707	178.75
641.913	194.75
642.118	192.75
642.323	177.75
642.528	185.75
642.733	194.75
642.939	186.75
643.144	192.75
643.349	174.75
643.554	168.75
643.759	180.75
643.964	188.75
644.169	192.75
644.374	187.75
644.579	198.75
644.784	184.75
644.989	188.75
645.194	188.75
645.399	192.75
645.604	187.75
645.809	172.75
646.014	173.75
646.219	190.75
646.423	192.75
646.628	176.75
646.833	198.75
647.038	174.75
647.243	182.75
647.447	201.75
647.652	212.75
647.857	222.75
648.062	196.75
648.266	210.75
648.471	190.75
648.676	200.75
648.88	194.75
649.085	196.75
649.289	186.75
649.494	190.75
649.698	191.75
649.903	187.75
650.107	174.75
650.312	182.75
650.516	191.75
650.721	182.75
650.925	175.75
651.13	173.75
651.334	172.75
651.539	161.75
651.743	164.75
651.947	180.75
652.152	142.75
652.356	154.75
652.56	161.75
652.764	151.75
652.969	141.75
653.173	164.75
653.377	167.75
653.581	135.75
653.785	146.75
653.99	146.75
654.194	138.75
654.398	156.75
654.602	133.75
654.806	138.75
655.01	145.75
655.214	152.75
655.418	134.75
655.622	118.75
655.826	137.75
656.03	127.75
656.234	138.75
656.438	120.75
656.642	131.75
656.846	146.75
657.049	121.75
657.253	136.75
657.457	130.75
657.661	112.75
657.865	126.75
658.068	136.75
658.272	105.75
658.476	104.75
658.68	114.75
658.883	105.75
659.087	107.75
659.291	112.75
659.494	112.75
659.698	90.75
659.901	101.75
660.105	110.75
660.309	109.75
660.512	88.75
660.716	97.75
660.919	96.75
661.123	99.75
661.326	89.75
661.53	104.75
661.733	106.75
661.936	90.75
662.14	91.75
662.343	80.75
662.546	106.75
662.75	88.75
662.953	91.75
663.156	78.75
663.36	95.75
663.563	80.75
663.766	83.75
663.969	82.75
664.173	85.75
664.376	75.75
664.579	64.75
664.782	66.75
664.985	89.75
665.188	90.75
665.391	78.75
665.594	92.75
665.797	71.75
666	87.75
666.203	80.75
666.406	86.75
666.609	74.75
666.812	84.75
667.015	79.75
667.218	89.75
667.421	71.75
667.624	65.75
667.827	73.75
668.03	84.75
668.232	76.75
668.435	77.75
668.638	74.75
668.841	84.75
669.043	86.75
669.246	88.75
669.449	79.75
669.651	82.75
669.854	79.75
670.057	89.75
670.259	62.75
670.462	70.75
670.665	73.75
670.867	75.75
671.07	89.75
671.272	82.75
671.475	80.75
671.677	82.75
671.88	88.75
672.082	74.75
672.284	90.75
672.487	86.75
672.689	83.75
672.892	80.75
