Data from Ni(NO3)2@0.25M.TitratingCurve.Agarose3%dH2O.NegLispCup.LampEnergy10.LIBS07252019_HRD10591_18-03-02-565.txt Node
Date: Thu Jul 25 18:03:02 EDT 2019
User: cochatt
Spectrometer: HR+D1059
Trigger mode: 1
Integration Time (sec): 1.000000E-1
Scans to average: 1
Electric dark correction enabled: true
Nonlinearity correction enabled: false
Boxcar width: 0
XAxis mode: Wavelengths
Number of Pixels in Spectrum: 2048
>>>>>Begin Spectral Data<<<<<
223.165	-28.62
223.4	-28.62
223.635	-28.62
223.869	-22.62
224.104	-27.62
224.338	-20.62
224.573	-8.62
224.808	-26.62
225.042	-20.62
225.277	-1.62
225.511	-3.62
225.746	19.38
225.98	12.38
226.215	15.38
226.449	29.38
226.683	22.38
226.918	21.38
227.152	40.38
227.387	28.38
227.621	34.38
227.856	40.38
228.09	51.38
228.324	45.38
228.559	64.38
228.793	53.38
229.027	87.38
229.262	81.38
229.496	84.38
229.73	89.38
229.964	89.38
230.199	96.38
230.433	98.38
230.667	125.38
230.901	114.38
231.136	98.38
231.37	87.38
231.604	116.38
231.838	111.38
232.072	126.38
232.306	119.38
232.541	107.38
232.775	106.38
233.009	106.38
233.243	84.38
233.477	106.38
233.711	112.38
233.945	96.38
234.179	96.38
234.413	102.38
234.647	101.38
234.881	106.38
235.115	117.38
235.349	111.38
235.583	107.38
235.817	102.38
236.051	97.38
236.285	100.38
236.519	103.38
236.753	109.38
236.987	118.38
237.221	123.38
237.455	107.38
237.689	106.38
237.922	122.38
238.156	117.38
238.39	107.38
238.624	112.38
238.858	124.38
239.091	109.38
239.325	117.38
239.559	112.38
239.793	117.38
240.027	142.38
240.26	117.38
240.494	114.38
240.728	112.38
240.961	113.38
241.195	120.38
241.429	119.38
241.662	114.38
241.896	127.38
242.13	127.38
242.363	124.38
242.597	115.38
242.83	120.38
243.064	121.38
243.298	117.38
243.531	123.38
243.765	128.38
243.998	128.38
244.232	139.38
244.465	129.38
244.699	128.38
244.932	140.38
245.166	139.38
245.399	134.38
245.633	131.38
245.866	140.38
246.099	136.38
246.333	138.38
246.566	154.38
246.8	153.38
247.033	171.38
247.266	160.38
247.5	150.38
247.733	173.38
247.966	158.38
248.2	165.38
248.433	191.38
248.666	202.38
248.899	189.38
249.133	197.38
249.366	177.38
249.599	205.38
249.832	196.38
250.066	227.38
250.299	187.38
250.532	218.38
250.765	229.38
250.998	228.38
251.231	252.38
251.465	235.38
251.698	247.38
251.931	234.38
252.164	266.38
252.397	266.38
252.63	272.38
252.863	277.38
253.096	274.38
253.329	270.38
253.562	280.38
253.795	295.38
254.028	312.38
254.261	301.38
254.494	282.38
254.727	300.38
254.96	328.38
255.193	320.38
255.426	308.38
255.659	333.38
255.892	341.38
256.124	351.38
256.357	362.38
256.59	344.38
256.823	356.38
257.056	345.38
257.289	384.38
257.521	380.38
257.754	373.38
257.987	372.38
258.22	377.38
258.452	393.38
258.685	371.38
258.918	400.38
259.151	379.38
259.383	386.38
259.616	397.38
259.849	409.38
260.081	392.38
260.314	414.38
260.547	411.38
260.779	403.38
261.012	419.38
261.244	442.38
261.477	441.38
261.71	438.38
261.942	413.38
262.175	429.38
262.407	460.38
262.64	445.38
262.872	454.38
263.105	468.38
263.337	444.38
263.57	449.38
263.802	446.38
264.035	466.38
264.267	465.38
264.499	473.38
264.732	461.38
264.964	474.38
265.197	487.38
265.429	462.38
265.661	460.38
265.894	457.38
266.126	475.38
266.358	472.38
266.591	478.38
266.823	479.38
267.055	449.38
267.287	470.38
267.52	474.38
267.752	470.38
267.984	497.38
268.216	490.38
268.448	477.38
268.681	483.38
268.913	491.38
269.145	476.38
269.377	482.38
269.609	473.38
269.841	507.38
270.073	471.38
270.306	500.38
270.538	492.38
270.77	487.38
271.002	492.38
271.234	492.38
271.466	501.38
271.698	493.38
271.93	497.38
272.162	484.38
272.394	491.38
272.626	489.38
272.858	517.38
273.09	511.38
273.322	492.38
273.553	515.38
273.785	491.38
274.017	493.38
274.249	509.38
274.481	514.38
274.713	491.38
274.945	476.38
275.176	511.38
275.408	505.38
275.64	521.38
275.872	498.38
276.104	480.38
276.335	509.38
276.567	513.38
276.799	507.38
277.031	501.38
277.262	498.38
277.494	491.38
277.726	499.38
277.957	523.38
278.189	503.38
278.421	499.38
278.652	483.38
278.884	508.38
279.115	495.38
279.347	511.38
279.579	483.38
279.81	520.38
280.042	493.38
280.273	525.38
280.505	516.38
280.736	509.38
280.968	476.38
281.199	490.38
281.431	519.38
281.662	505.38
281.894	501.38
282.125	490.38
282.356	499.38
282.588	496.38
282.819	499.38
283.051	508.38
283.282	493.38
283.513	496.38
283.745	503.38
283.976	515.38
284.207	519.38
284.439	495.38
284.67	490.38
284.901	479.38
285.132	515.38
285.364	500.38
285.595	519.38
285.826	479.38
286.057	495.38
286.288	510.38
286.52	491.38
286.751	508.38
286.982	495.38
287.213	498.38
287.444	503.38
287.675	498.38
287.906	514.38
288.138	495.38
288.369	515.38
288.6	479.38
288.831	500.38
289.062	517.38
289.293	490.38
289.524	499.38
289.755	488.38
289.986	513.38
290.217	487.38
290.448	479.38
290.679	484.38
290.91	497.38
291.141	487.38
291.371	475.38
291.602	487.38
291.833	514.38
292.064	504.38
292.295	501.38
292.526	509.38
292.757	491.38
292.987	510.38
293.218	479.38
293.449	488.38
293.68	485.38
293.91	492.38
294.141	498.38
294.372	483.38
294.603	481.38
294.833	486.38
295.064	497.38
295.295	491.38
295.525	495.38
295.756	492.38
295.987	482.38
296.217	481.38
296.448	492.38
296.679	479.38
296.909	475.38
297.14	471.38
297.37	499.38
297.601	506.38
297.831	491.38
298.062	472.38
298.292	482.38
298.523	491.38
298.753	507.38
298.984	504.38
299.214	493.38
299.445	533.38
299.675	513.38
299.905	510.38
300.136	494.38
300.366	500.38
300.597	502.38
300.827	496.38
301.057	509.38
301.288	497.38
301.518	507.38
301.748	523.38
301.979	508.38
302.209	517.38
302.439	545.38
302.669	544.38
302.9	525.38
303.13	553.38
303.36	541.38
303.59	556.38
303.82	543.38
304.051	545.38
304.281	555.38
304.511	563.38
304.741	550.38
304.971	547.38
305.201	564.38
305.431	551.38
305.661	559.38
305.891	548.38
306.121	566.38
306.352	559.38
306.582	554.38
306.812	559.38
307.042	568.38
307.272	541.38
307.502	562.38
307.731	570.38
307.961	580.38
308.191	592.38
308.421	588.38
308.651	579.38
308.881	582.38
309.111	587.38
309.341	589.38
309.571	600.38
309.8	610.38
310.03	605.38
310.26	600.38
310.49	629.38
310.72	645.38
310.949	634.38
311.179	649.38
311.409	652.38
311.639	637.38
311.868	646.38
312.098	640.38
312.328	659.38
312.557	666.38
312.787	676.38
313.017	673.38
313.246	682.38
313.476	707.38
313.706	699.38
313.935	703.38
314.165	708.38
314.394	707.38
314.624	720.38
314.853	733.38
315.083	762.38
315.312	738.38
315.542	769.38
315.771	749.38
316.001	755.38
316.23	766.38
316.46	747.38
316.689	791.38
316.919	775.38
317.148	834.38
317.377	796.38
317.607	796.38
317.836	812.38
318.065	817.38
318.295	812.38
318.524	851.38
318.753	855.38
318.983	853.38
319.212	855.38
319.441	881.38
319.67	873.38
319.9	870.38
320.129	883.38
320.358	923.38
320.587	907.38
320.816	913.38
321.046	920.38
321.275	923.38
321.504	936.38
321.733	963.38
321.962	969.38
322.191	980.38
322.42	972.38
322.649	974.38
322.878	985.38
323.108	1025.38
323.337	1057.38
323.566	992.38
323.795	1029.38
324.024	1072.38
324.253	1049.38
324.482	1044.38
324.71	1087.38
324.939	1077.38
325.168	1089.38
325.397	1094.38
325.626	1080.38
325.855	1099.38
326.084	1118.38
326.313	1139.38
326.542	1107.38
326.77	1177.38
326.999	1136.38
327.228	1126.38
327.457	1157.38
327.686	1169.38
327.914	1183.38
328.143	1187.38
328.372	1171.38
328.6	1178.38
328.829	1179.38
329.058	1216.38
329.287	1215.38
329.515	1228.38
329.744	1208.38
329.972	1251.38
330.201	1235.38
330.43	1256.38
330.658	1275.38
330.887	1258.38
331.115	1271.38
331.344	1265.38
331.572	1303.38
331.801	1303.38
332.03	1284.38
332.258	1284.38
332.486	1286.38
332.715	1277.38
332.943	1346.38
333.172	1324.38
333.4	1294.38
333.629	1360.38
333.857	1324.38
334.085	1349.38
334.314	1306.38
334.542	1355.38
334.771	1359.38
334.999	1372.38
335.227	1380.38
335.455	1393.38
335.684	1383.38
335.912	1370.38
336.14	1360.38
336.369	1393.38
336.597	1375.38
336.825	1379.38
337.053	1402.38
337.281	1392.38
337.51	1391.38
337.738	1380.38
337.966	1395.38
338.194	1406.38
338.422	1385.38
338.65	1381.38
338.878	1380.38
339.106	1417.38
339.334	1401.38
339.562	1386.38
339.79	1383.38
340.018	1372.38
340.246	1370.38
340.474	1401.38
340.702	1405.38
340.93	1386.38
341.158	1379.38
341.386	1364.38
341.614	1386.38
341.842	1395.38
342.07	1383.38
342.298	1372.38
342.526	1363.38
342.754	1412.38
342.981	1388.38
343.209	1423.38
343.437	1416.38
343.665	1415.38
343.893	1423.38
344.12	1438.38
344.348	1404.38
344.576	1420.38
344.804	1384.38
345.031	1379.38
345.259	1415.38
345.487	1391.38
345.714	1417.38
345.942	1395.38
346.17	1409.38
346.397	1391.38
346.625	1410.38
346.853	1376.38
347.08	1397.38
347.308	1388.38
347.535	1393.38
347.763	1397.38
347.99	1421.38
348.218	1416.38
348.445	1377.38
348.673	1384.38
348.9	1385.38
349.128	1395.38
349.355	1359.38
349.583	1390.38
349.81	1359.38
350.037	1358.38
350.265	1400.38
350.492	1377.38
350.72	1365.38
350.947	1369.38
351.174	1387.38
351.402	1386.38
351.629	1394.38
351.856	1335.38
352.083	1350.38
352.311	1348.38
352.538	1329.38
352.765	1347.38
352.992	1337.38
353.22	1361.38
353.447	1379.38
353.674	1365.38
353.901	1345.38
354.128	1383.38
354.355	1361.38
354.583	1356.38
354.81	1362.38
355.037	1356.38
355.264	1384.38
355.491	1364.38
355.718	1333.38
355.945	1356.38
356.172	1356.38
356.399	1372.38
356.626	1332.38
356.853	1388.38
357.08	1369.38
357.307	1366.38
357.534	1350.38
357.761	1352.38
357.988	1352.38
358.215	1362.38
358.441	1336.38
358.668	1328.38
358.895	1356.38
359.122	1348.38
359.349	1385.38
359.576	1366.38
359.802	1361.38
360.029	1324.38
360.256	1362.38
360.483	1331.38
360.709	1314.38
360.936	1346.38
361.163	1357.38
361.39	1329.38
361.616	1332.38
361.843	1348.38
362.07	1353.38
362.296	1356.38
362.523	1334.38
362.749	1315.38
362.976	1350.38
363.203	1346.38
363.429	1330.38
363.656	1378.38
363.882	1351.38
364.109	1342.38
364.335	1355.38
364.562	1346.38
364.788	1340.38
365.015	1331.38
365.241	1316.38
365.468	1324.38
365.694	1331.38
365.92	1325.38
366.147	1331.38
366.373	1310.38
366.599	1316.38
366.826	1302.38
367.052	1299.38
367.278	1329.38
367.505	1324.38
367.731	1337.38
367.957	1325.38
368.184	1308.38
368.41	1317.38
368.636	1313.38
368.862	1336.38
369.089	1323.38
369.315	1297.38
369.541	1338.38
369.767	1335.38
369.993	1304.38
370.219	1315.38
370.445	1321.38
370.672	1311.38
370.898	1330.38
371.124	1307.38
371.35	1295.38
371.576	1330.38
371.802	1305.38
372.028	1290.38
372.254	1283.38
372.48	1267.38
372.706	1285.38
372.932	1273.38
373.158	1265.38
373.384	1315.38
373.61	1282.38
373.835	1261.38
374.061	1284.38
374.287	1248.38
374.513	1266.38
374.739	1270.38
374.965	1256.38
375.191	1236.38
375.416	1250.38
375.642	1240.38
375.868	1241.38
376.094	1239.38
376.319	1222.38
376.545	1231.38
376.771	1194.38
376.997	1215.38
377.222	1213.38
377.448	1203.38
377.674	1214.38
377.899	1191.38
378.125	1211.38
378.35	1217.38
378.576	1223.38
378.802	1173.38
379.027	1191.38
379.253	1220.38
379.478	1172.38
379.704	1179.38
379.929	1232.38
380.155	1162.38
380.38	1196.38
380.606	1196.38
380.831	1187.38
381.057	1172.38
381.282	1165.38
381.507	1153.38
381.733	1200.38
381.958	1190.38
382.184	1189.38
382.409	1175.38
382.634	1142.38
382.86	1176.38
383.085	1153.38
383.31	1151.38
383.535	1172.38
383.761	1180.38
383.986	1207.38
384.211	1175.38
384.436	1218.38
384.662	1171.38
384.887	1224.38
385.112	1172.38
385.337	1189.38
385.562	1200.38
385.787	1192.38
386.013	1219.38
386.238	1205.38
386.463	1216.38
386.688	1207.38
386.913	1191.38
387.138	1224.38
387.363	1191.38
387.588	1207.38
387.813	1200.38
388.038	1216.38
388.263	1179.38
388.488	1191.38
388.713	1176.38
388.938	1214.38
389.163	1207.38
389.387	1196.38
389.612	1184.38
389.837	1203.38
390.062	1181.38
390.287	1187.38
390.512	1186.38
390.736	1186.38
390.961	1172.38
391.186	1171.38
391.411	1179.38
391.636	1183.38
391.86	1202.38
392.085	1187.38
392.31	1226.38
392.534	1217.38
392.759	1181.38
392.984	1174.38
393.208	1196.38
393.433	1191.38
393.658	1203.38
393.882	1209.38
394.107	1196.38
394.331	1194.38
394.556	1190.38
394.78	1186.38
395.005	1183.38
395.229	1182.38
395.454	1246.38
395.678	1208.38
395.903	1161.38
396.127	1195.38
396.352	1180.38
396.576	1201.38
396.801	1186.38
397.025	1193.38
397.249	1230.38
397.474	1195.38
397.698	1216.38
397.922	1247.38
398.147	1199.38
398.371	1193.38
398.595	1249.38
398.82	1230.38
399.044	1233.38
399.268	1269.38
399.492	1290.38
399.717	1315.38
399.941	1347.38
400.165	1294.38
400.389	1265.38
400.613	1300.38
400.837	1281.38
401.062	1272.38
401.286	1243.38
401.51	1280.38
401.734	1279.38
401.958	1279.38
402.182	1271.38
402.406	1268.38
402.63	1309.38
402.854	1297.38
403.078	1283.38
403.302	1300.38
403.526	1278.38
403.75	1302.38
403.974	1296.38
404.198	1270.38
404.422	1299.38
404.645	1284.38
404.869	1315.38
405.093	1306.38
405.317	1304.38
405.541	1346.38
405.765	1344.38
405.988	1320.38
406.212	1380.38
406.436	1330.38
406.66	1319.38
406.883	1337.38
407.107	1381.38
407.331	1391.38
407.555	1421.38
407.778	1382.38
408.002	1399.38
408.226	1386.38
408.449	1411.38
408.673	1389.38
408.896	1371.38
409.12	1356.38
409.344	1392.38
409.567	1393.38
409.791	1407.38
410.014	1359.38
410.238	1369.38
410.461	1397.38
410.685	1347.38
410.908	1359.38
411.132	1364.38
411.355	1346.38
411.578	1373.38
411.802	1347.38
412.025	1365.38
412.249	1358.38
412.472	1382.38
412.695	1323.38
412.919	1379.38
413.142	1361.38
413.365	1391.38
413.589	1397.38
413.812	1379.38
414.035	1370.38
414.258	1389.38
414.482	1362.38
414.705	1369.38
414.928	1381.38
415.151	1379.38
415.374	1373.38
415.597	1347.38
415.821	1371.38
416.044	1351.38
416.267	1379.38
416.49	1365.38
416.713	1349.38
416.936	1380.38
417.159	1331.38
417.382	1385.38
417.605	1329.38
417.828	1352.38
418.051	1373.38
418.274	1341.38
418.497	1347.38
418.72	1410.38
418.943	1334.38
419.166	1375.38
419.389	1516.38
419.611	1514.38
419.834	1448.38
420.057	1444.38
420.28	1402.38
420.503	1353.38
420.726	1340.38
420.948	1376.38
421.171	1373.38
421.394	1399.38
421.617	1365.38
421.839	1387.38
422.062	1371.38
422.285	1345.38
422.507	1391.38
422.73	1397.38
422.953	1396.38
423.175	1373.38
423.398	1417.38
423.621	1414.38
423.843	1394.38
424.066	1421.38
424.288	1428.38
424.511	1419.38
424.733	1373.38
424.956	1417.38
425.178	1387.38
425.401	1415.38
425.623	1452.38
425.846	1398.38
426.068	1411.38
426.291	1423.38
426.513	1416.38
426.735	1446.38
426.958	1436.38
427.18	1437.38
427.402	1449.38
427.625	1435.38
427.847	1411.38
428.069	1451.38
428.292	1468.38
428.514	1411.38
428.736	1425.38
428.958	1472.38
429.181	1410.38
429.403	1443.38
429.625	1458.38
429.847	1467.38
430.069	1416.38
430.292	1476.38
430.514	1476.38
430.736	1464.38
430.958	1437.38
431.18	1431.38
431.402	1468.38
431.624	1419.38
431.846	1428.38
432.068	1396.38
432.29	1455.38
432.512	1427.38
432.734	1463.38
432.956	1449.38
433.178	1484.38
433.4	1506.38
433.622	1498.38
433.844	1507.38
434.066	1480.38
434.287	1451.38
434.509	1481.38
434.731	1488.38
434.953	1423.38
435.175	1497.38
435.397	1498.38
435.618	1503.38
435.84	1488.38
436.062	1479.38
436.284	1420.38
436.505	1439.38
436.727	1459.38
436.949	1484.38
437.17	1476.38
437.392	1459.38
437.614	1471.38
437.835	1424.38
438.057	1431.38
438.278	1414.38
438.5	1443.38
438.721	1428.38
438.943	1485.38
439.165	1450.38
439.386	1447.38
439.608	1452.38
439.829	1469.38
440.05	1476.38
440.272	1459.38
440.493	1472.38
440.715	1466.38
440.936	1477.38
441.158	1475.38
441.379	1457.38
441.6	1487.38
441.822	1472.38
442.043	1491.38
442.264	1462.38
442.486	1452.38
442.707	1464.38
442.928	1487.38
443.149	1485.38
443.371	1477.38
443.592	1484.38
443.813	1479.38
444.034	1474.38
444.255	1469.38
444.476	1485.38
444.698	1489.38
444.919	1494.38
445.14	1584.38
445.361	1520.38
445.582	1485.38
445.803	1476.38
446.024	1446.38
446.245	1480.38
446.466	1447.38
446.687	1452.38
446.908	1437.38
447.129	1423.38
447.35	1412.38
447.571	1443.38
447.792	1401.38
448.013	1405.38
448.234	1423.38
448.455	1408.38
448.675	1428.38
448.896	1431.38
449.117	1367.38
449.338	1420.38
449.559	1378.38
449.779	1371.38
450	1406.38
450.221	1370.38
450.442	1396.38
450.662	1382.38
450.883	1378.38
451.104	1366.38
451.324	1381.38
451.545	1372.38
451.766	1388.38
451.986	1348.38
452.207	1366.38
452.428	1332.38
452.648	1367.38
452.869	1331.38
453.089	1313.38
453.31	1353.38
453.53	1355.38
453.751	1315.38
453.971	1348.38
454.192	1332.38
454.412	1353.38
454.633	1323.38
454.853	1365.38
455.073	1321.38
455.294	1359.38
455.514	1350.38
455.734	1363.38
455.955	1345.38
456.175	1334.38
456.395	1352.38
456.616	1341.38
456.836	1360.38
457.056	1359.38
457.276	1309.38
457.497	1341.38
457.717	1334.38
457.937	1344.38
458.157	1332.38
458.377	1336.38
458.598	1338.38
458.818	1343.38
459.038	1379.38
459.258	1349.38
459.478	1397.38
459.698	1404.38
459.918	1396.38
460.138	1379.38
460.358	1426.38
460.578	1412.38
460.798	1398.38
461.018	1435.38
461.238	1442.38
461.458	1422.38
461.678	1414.38
461.898	1402.38
462.118	1365.38
462.338	1453.38
462.558	1447.38
462.777	1443.38
462.997	1473.38
463.217	1483.38
463.437	1529.38
463.657	1493.38
463.876	1442.38
464.096	1517.38
464.316	1476.38
464.536	1465.38
464.755	1466.38
464.975	1461.38
465.195	1419.38
465.414	1429.38
465.634	1448.38
465.854	1402.38
466.073	1415.38
466.293	1453.38
466.512	1419.38
466.732	1415.38
466.951	1413.38
467.171	1422.38
467.391	1444.38
467.61	1425.38
467.829	1443.38
468.049	1450.38
468.268	1411.38
468.488	1431.38
468.707	1380.38
468.927	1471.38
469.146	1447.38
469.365	1464.38
469.585	1401.38
469.804	1455.38
470.023	1449.38
470.243	1466.38
470.462	1431.38
470.681	1428.38
470.901	1451.38
471.12	1455.38
471.339	1436.38
471.558	1485.38
471.777	1490.38
471.997	1487.38
472.216	1486.38
472.435	1491.38
472.654	1483.38
472.873	1478.38
473.092	1499.38
473.311	1459.38
473.53	1511.38
473.749	1515.38
473.968	1556.38
474.187	1531.38
474.406	1525.38
474.625	1541.38
474.844	1541.38
475.063	1520.38
475.282	1562.38
475.501	1513.38
475.72	1577.38
475.939	1592.38
476.158	1601.38
476.377	1610.38
476.596	1595.38
476.814	1648.38
477.033	1596.38
477.252	1612.38
477.471	1605.38
477.69	1665.38
477.908	1643.38
478.127	1667.38
478.346	1669.38
478.564	1723.38
478.783	1712.38
479.002	1711.38
479.22	1755.38
479.439	1748.38
479.658	1687.38
479.876	1723.38
480.095	1739.38
480.313	1765.38
480.532	1757.38
480.751	1747.38
480.969	1795.38
481.188	1790.38
481.406	1741.38
481.624	1748.38
481.843	1812.38
482.061	1768.38
482.28	1795.38
482.498	1817.38
482.717	1793.38
482.935	1818.38
483.153	1833.38
483.372	1878.38
483.59	1897.38
483.808	1899.38
484.027	1852.38
484.245	1868.38
484.463	1812.38
484.681	1880.38
484.9	1892.38
485.118	1863.38
485.336	1846.38
485.554	1867.38
485.772	1849.38
485.99	1880.38
486.209	1887.38
486.427	1817.38
486.645	1895.38
486.863	1900.38
487.081	1898.38
487.299	1878.38
487.517	1923.38
487.735	1952.38
487.953	1931.38
488.171	1944.38
488.389	1935.38
488.607	1910.38
488.825	1941.38
489.043	1856.38
489.261	1901.38
489.479	1904.38
489.696	1945.38
489.914	1917.38
490.132	1877.38
490.35	1947.38
490.568	1949.38
490.786	1944.38
491.003	1943.38
491.221	1944.38
491.439	1971.38
491.657	1983.38
491.874	1969.38
492.092	2020.38
492.31	2012.38
492.527	1962.38
492.745	2010.38
492.963	1964.38
493.18	1984.38
493.398	1951.38
493.615	1972.38
493.833	2007.38
494.05	1977.38
494.268	1962.38
494.485	1983.38
494.703	1989.38
494.92	1973.38
495.138	1969.38
495.355	2003.38
495.573	2007.38
495.79	2011.38
496.008	2069.38
496.225	2010.38
496.442	1990.38
496.66	2020.38
496.877	2023.38
497.094	2031.38
497.312	2062.38
497.529	2026.38
497.746	2038.38
497.963	2020.38
498.181	2051.38
498.398	2062.38
498.615	2090.38
498.832	2087.38
499.049	2096.38
499.267	2095.38
499.484	2126.38
499.701	2203.38
499.918	2161.38
500.135	2185.38
500.352	2251.38
500.569	2202.38
500.786	2220.38
501.003	2211.38
501.22	2152.38
501.437	2172.38
501.654	2130.38
501.871	2125.38
502.088	2095.38
502.305	2079.38
502.522	2080.38
502.739	2046.38
502.956	2067.38
503.172	2002.38
503.389	2026.38
503.606	1991.38
503.823	1985.38
504.04	1937.38
504.256	1972.38
504.473	1980.38
504.69	1945.38
504.907	1930.38
505.123	1907.38
505.34	1892.38
505.557	1889.38
505.773	1863.38
505.99	1901.38
506.207	1864.38
506.423	1865.38
506.64	1847.38
506.856	1874.38
507.073	1875.38
507.289	1868.38
507.506	1853.38
507.722	1841.38
507.939	1837.38
508.155	1796.38
508.372	1769.38
508.588	1780.38
508.805	1791.38
509.021	1800.38
509.238	1748.38
509.454	1746.38
509.67	1736.38
509.887	1786.38
510.103	1748.38
510.319	1707.38
510.536	1704.38
510.752	1698.38
510.968	1715.38
511.184	1722.38
511.401	1704.38
511.617	1694.38
511.833	1713.38
512.049	1685.38
512.265	1685.38
512.481	1759.38
512.698	1702.38
512.914	1692.38
513.13	1687.38
513.346	1681.38
513.562	1653.38
513.778	1708.38
513.994	1674.38
514.21	1677.38
514.426	1649.38
514.642	1652.38
514.858	1725.38
515.074	1677.38
515.29	1669.38
515.506	1660.38
515.721	1693.38
515.937	1654.38
516.153	1673.38
516.369	1659.38
516.585	1671.38
516.801	1660.38
517.016	1672.38
517.232	1684.38
517.448	1708.38
517.664	1678.38
517.879	1684.38
518.095	1681.38
518.311	1668.38
518.527	1650.38
518.742	1683.38
518.958	1675.38
519.173	1674.38
519.389	1647.38
519.605	1661.38
519.82	1652.38
520.036	1641.38
520.251	1629.38
520.467	1643.38
520.682	1624.38
520.898	1628.38
521.113	1584.38
521.329	1604.38
521.544	1616.38
521.76	1606.38
521.975	1638.38
522.19	1591.38
522.406	1597.38
522.621	1604.38
522.836	1565.38
523.052	1587.38
523.267	1625.38
523.482	1597.38
523.698	1585.38
523.913	1571.38
524.128	1591.38
524.343	1599.38
524.559	1535.38
524.774	1571.38
524.989	1591.38
525.204	1595.38
525.419	1568.38
525.634	1551.38
525.849	1535.38
526.064	1544.38
526.28	1550.38
526.495	1537.38
526.71	1532.38
526.925	1525.38
527.14	1525.38
527.355	1499.38
527.57	1523.38
527.785	1543.38
527.999	1529.38
528.214	1516.38
528.429	1518.38
528.644	1532.38
528.859	1532.38
529.074	1511.38
529.289	1526.38
529.503	1549.38
529.718	1568.38
529.933	1506.38
530.148	1481.38
530.363	1532.38
530.577	1488.38
530.792	1476.38
531.007	1477.38
531.221	1479.38
531.436	1468.38
531.651	1490.38
531.865	1494.38
532.08	1475.38
532.295	1456.38
532.509	1458.38
532.724	1483.38
532.938	1453.38
533.153	1448.38
533.367	1452.38
533.582	1463.38
533.796	1439.38
534.011	1443.38
534.225	1432.38
534.44	1434.38
534.654	1421.38
534.868	1433.38
535.083	1422.38
535.297	1457.38
535.511	1419.38
535.726	1430.38
535.94	1431.38
536.154	1399.38
536.369	1390.38
536.583	1368.38
536.797	1361.38
537.011	1403.38
537.225	1373.38
537.44	1380.38
537.654	1399.38
537.868	1367.38
538.082	1367.38
538.296	1379.38
538.51	1360.38
538.724	1368.38
538.938	1398.38
539.153	1349.38
539.367	1364.38
539.581	1368.38
539.795	1351.38
540.009	1364.38
540.222	1326.38
540.436	1346.38
540.65	1338.38
540.864	1380.38
541.078	1335.38
541.292	1331.38
541.506	1331.38
541.72	1344.38
541.934	1399.38
542.147	1352.38
542.361	1373.38
542.575	1349.38
542.789	1340.38
543.002	1325.38
543.216	1306.38
543.43	1311.38
543.644	1322.38
543.857	1340.38
544.071	1353.38
544.285	1314.38
544.498	1315.38
544.712	1307.38
544.925	1305.38
545.139	1318.38
545.352	1279.38
545.566	1289.38
545.779	1324.38
545.993	1316.38
546.206	1320.38
546.42	1308.38
546.633	1281.38
546.847	1271.38
547.06	1314.38
547.274	1303.38
547.487	1285.38
547.7	1291.38
547.914	1290.38
548.127	1281.38
548.34	1283.38
548.554	1239.38
548.767	1248.38
548.98	1305.38
549.193	1250.38
549.407	1277.38
549.62	1223.38
549.833	1243.38
550.046	1244.38
550.259	1215.38
550.473	1217.38
550.686	1235.38
550.899	1252.38
551.112	1210.38
551.325	1215.38
551.538	1216.38
551.751	1207.38
551.964	1209.38
552.177	1183.38
552.39	1217.38
552.603	1239.38
552.816	1190.38
553.029	1208.38
553.242	1226.38
553.455	1182.38
553.667	1242.38
553.88	1223.38
554.093	1171.38
554.306	1174.38
554.519	1178.38
554.732	1174.38
554.944	1155.38
555.157	1177.38
555.37	1201.38
555.583	1159.38
555.795	1131.38
556.008	1128.38
556.221	1133.38
556.433	1135.38
556.646	1141.38
556.859	1152.38
557.071	1112.38
557.284	1120.38
557.496	1107.38
557.709	1120.38
557.921	1120.38
558.134	1119.38
558.346	1104.38
558.559	1123.38
558.771	1097.38
558.984	1097.38
559.196	1088.38
559.409	1075.38
559.621	1103.38
559.833	1088.38
560.046	1106.38
560.258	1077.38
560.47	1058.38
560.683	1058.38
560.895	1043.38
561.107	1072.38
561.32	1075.38
561.532	1033.38
561.744	1053.38
561.956	1064.38
562.168	1060.38
562.381	1082.38
562.593	1035.38
562.805	1053.38
563.017	1056.38
563.229	1042.38
563.441	1043.38
563.653	1057.38
563.865	1035.38
564.077	1017.38
564.289	1031.38
564.501	1033.38
564.713	1045.38
564.925	1029.38
565.137	1025.38
565.349	1006.38
565.561	1014.38
565.773	1050.38
565.985	1028.38
566.197	1039.38
566.408	1023.38
566.62	1043.38
566.832	1048.38
567.044	1026.38
567.255	1024.38
567.467	1013.38
567.679	1042.38
567.891	1028.38
568.102	999.38
568.314	1016.38
568.526	1015.38
568.737	999.38
568.949	990.38
569.161	915.38
569.372	951.38
569.584	956.38
569.795	947.38
570.007	936.38
570.218	935.38
570.43	906.38
570.641	917.38
570.853	937.38
571.064	939.38
571.276	927.38
571.487	907.38
571.698	923.38
571.91	895.38
572.121	904.38
572.333	895.38
572.544	863.38
572.755	845.38
572.966	888.38
573.178	881.38
573.389	831.38
573.6	851.38
573.811	855.38
574.023	840.38
574.234	838.38
574.445	821.38
574.656	822.38
574.867	825.38
575.078	817.38
575.289	821.38
575.501	818.38
575.712	796.38
575.923	813.38
576.134	819.38
576.345	787.38
576.556	826.38
576.767	793.38
576.978	811.38
577.188	781.38
577.399	789.38
577.61	774.38
577.821	781.38
578.032	789.38
578.243	776.38
578.454	785.38
578.665	763.38
578.875	758.38
579.086	730.38
579.297	783.38
579.508	761.38
579.718	757.38
579.929	744.38
580.14	763.38
580.35	734.38
580.561	753.38
580.772	762.38
580.982	738.38
581.193	710.38
581.403	710.38
581.614	733.38
581.825	707.38
582.035	703.38
582.246	684.38
582.456	705.38
582.667	735.38
582.877	707.38
583.087	726.38
583.298	723.38
583.508	708.38
583.719	691.38
583.929	729.38
584.139	705.38
584.35	697.38
584.56	713.38
584.77	693.38
584.981	682.38
585.191	665.38
585.401	702.38
585.611	707.38
585.821	677.38
586.032	670.38
586.242	660.38
586.452	677.38
586.662	659.38
586.872	677.38
587.082	671.38
587.292	649.38
587.502	663.38
587.713	679.38
587.923	686.38
588.133	668.38
588.343	658.38
588.553	669.38
588.762	645.38
588.972	653.38
589.182	670.38
589.392	667.38
589.602	650.38
589.812	672.38
590.022	629.38
590.232	613.38
590.441	646.38
590.651	648.38
590.861	642.38
591.071	635.38
591.281	636.38
591.49	635.38
591.7	620.38
591.91	604.38
592.119	637.38
592.329	629.38
592.539	619.38
592.748	606.38
592.958	625.38
593.167	612.38
593.377	595.38
593.587	629.38
593.796	629.38
594.006	618.38
594.215	598.38
594.424	613.38
594.634	626.38
594.843	597.38
595.053	603.38
595.262	598.38
595.472	589.38
595.681	589.38
595.89	572.38
596.1	591.38
596.309	575.38
596.518	582.38
596.727	575.38
596.937	564.38
597.146	589.38
597.355	601.38
597.564	558.38
597.774	564.38
597.983	547.38
598.192	551.38
598.401	551.38
598.61	550.38
598.819	552.38
599.028	564.38
599.237	571.38
599.446	567.38
599.655	546.38
599.864	564.38
600.073	557.38
600.282	537.38
600.491	516.38
600.7	545.38
600.909	538.38
601.118	559.38
601.327	547.38
601.536	524.38
601.745	521.38
601.953	528.38
602.162	513.38
602.371	531.38
602.58	545.38
602.789	517.38
602.997	520.38
603.206	507.38
603.415	507.38
603.623	509.38
603.832	500.38
604.041	503.38
604.249	496.38
604.458	507.38
604.666	502.38
604.875	488.38
605.084	520.38
605.292	495.38
605.501	505.38
605.709	501.38
605.918	497.38
606.126	487.38
606.334	475.38
606.543	483.38
606.751	485.38
606.96	485.38
607.168	498.38
607.376	485.38
607.585	485.38
607.793	499.38
608.001	484.38
608.21	470.38
608.418	476.38
608.626	499.38
608.834	471.38
609.043	481.38
609.251	466.38
609.459	483.38
609.667	497.38
609.875	483.38
610.083	472.38
610.291	460.38
610.499	467.38
610.707	465.38
610.916	471.38
611.124	457.38
611.332	476.38
611.54	477.38
611.748	459.38
611.955	462.38
612.163	450.38
612.371	492.38
612.579	477.38
612.787	468.38
612.995	437.38
613.203	465.38
613.411	456.38
613.618	441.38
613.826	450.38
614.034	467.38
614.242	455.38
614.449	451.38
614.657	456.38
614.865	451.38
615.072	445.38
615.28	452.38
615.488	446.38
615.695	460.38
615.903	445.38
616.111	464.38
616.318	440.38
616.526	448.38
616.733	431.38
616.941	439.38
617.148	439.38
617.356	428.38
617.563	440.38
617.771	448.38
617.978	410.38
618.185	425.38
618.393	435.38
618.6	421.38
618.807	428.38
619.015	438.38
619.222	424.38
619.429	421.38
619.637	431.38
619.844	413.38
620.051	406.38
620.258	410.38
620.466	404.38
620.673	396.38
620.88	407.38
621.087	409.38
621.294	405.38
621.501	424.38
621.708	398.38
621.915	395.38
622.122	408.38
622.329	386.38
622.536	411.38
622.743	405.38
622.95	402.38
623.157	392.38
623.364	396.38
623.571	406.38
623.778	382.38
623.985	397.38
624.192	397.38
624.399	398.38
624.606	401.38
624.812	404.38
625.019	388.38
625.226	384.38
625.433	378.38
625.639	384.38
625.846	389.38
626.053	371.38
626.259	375.38
626.466	388.38
626.673	375.38
626.879	354.38
627.086	359.38
627.293	377.38
627.499	375.38
627.706	371.38
627.912	363.38
628.119	333.38
628.325	369.38
628.532	368.38
628.738	377.38
628.945	348.38
629.151	339.38
629.357	347.38
629.564	364.38
629.77	356.38
629.976	371.38
630.183	358.38
630.389	330.38
630.595	346.38
630.802	356.38
631.008	348.38
631.214	353.38
631.42	339.38
631.627	353.38
631.833	347.38
632.039	339.38
632.245	338.38
632.451	327.38
632.657	355.38
632.863	331.38
633.069	353.38
633.275	350.38
633.481	342.38
633.688	344.38
633.893	335.38
634.099	337.38
634.305	338.38
634.511	338.38
634.717	341.38
634.923	306.38
635.129	326.38
635.335	331.38
635.541	337.38
635.747	317.38
635.952	330.38
636.158	325.38
636.364	339.38
636.57	324.38
636.775	314.38
636.981	327.38
637.187	316.38
637.392	324.38
637.598	327.38
637.804	331.38
638.009	324.38
638.215	325.38
638.421	314.38
638.626	306.38
638.832	309.38
639.037	301.38
639.243	321.38
639.448	317.38
639.654	307.38
639.859	326.38
640.065	297.38
640.27	300.38
640.475	296.38
640.681	299.38
640.886	304.38
641.091	293.38
641.297	304.38
641.502	295.38
641.707	292.38
641.913	304.38
642.118	310.38
642.323	287.38
642.528	317.38
642.733	298.38
642.939	310.38
643.144	309.38
643.349	292.38
643.554	319.38
643.759	319.38
643.964	292.38
644.169	303.38
644.374	291.38
644.579	294.38
644.784	284.38
644.989	295.38
645.194	305.38
645.399	283.38
645.604	295.38
645.809	281.38
646.014	295.38
646.219	313.38
646.423	291.38
646.628	293.38
646.833	303.38
647.038	296.38
647.243	304.38
647.447	289.38
647.652	294.38
647.857	282.38
648.062	298.38
648.266	288.38
648.471	292.38
648.676	289.38
648.88	305.38
649.085	296.38
649.289	289.38
649.494	270.38
649.698	285.38
649.903	303.38
650.107	300.38
650.312	273.38
650.516	293.38
650.721	292.38
650.925	277.38
651.13	261.38
651.334	275.38
651.539	253.38
651.743	264.38
651.947	263.38
652.152	284.38
652.356	267.38
652.56	244.38
652.764	255.38
652.969	255.38
653.173	252.38
653.377	233.38
653.581	242.38
653.785	255.38
653.99	235.38
654.194	225.38
654.398	225.38
654.602	247.38
654.806	219.38
655.01	219.38
655.214	208.38
655.418	228.38
655.622	232.38
655.826	232.38
656.03	212.38
656.234	215.38
656.438	191.38
656.642	210.38
656.846	212.38
657.049	189.38
657.253	208.38
657.457	184.38
657.661	179.38
657.865	170.38
658.068	180.38
658.272	170.38
658.476	171.38
658.68	166.38
658.883	159.38
659.087	140.38
659.291	140.38
659.494	135.38
659.698	125.38
659.901	119.38
660.105	128.38
660.309	104.38
660.512	110.38
660.716	127.38
660.919	116.38
661.123	114.38
661.326	102.38
661.53	107.38
661.733	109.38
661.936	112.38
662.14	95.38
662.343	90.38
662.546	100.38
662.75	90.38
662.953	104.38
663.156	77.38
663.36	90.38
663.563	91.38
663.766	67.38
663.969	85.38
664.173	85.38
664.376	87.38
664.579	95.38
664.782	81.38
664.985	88.38
665.188	88.38
665.391	90.38
665.594	86.38
665.797	90.38
666	84.38
666.203	74.38
666.406	101.38
666.609	72.38
666.812	89.38
667.015	91.38
667.218	81.38
667.421	91.38
667.624	79.38
667.827	77.38
668.03	91.38
668.232	76.38
668.435	97.38
668.638	91.38
668.841	70.38
669.043	85.38
669.246	90.38
669.449	73.38
669.651	90.38
669.854	80.38
670.057	86.38
670.259	87.38
670.462	74.38
670.665	80.38
670.867	84.38
671.07	81.38
671.272	69.38
671.475	87.38
671.677	63.38
671.88	93.38
672.082	86.38
672.284	73.38
672.487	82.38
672.689	89.38
672.892	83.38
