Data from Ni(NO3)2@0.125M.TitratingCurve.Agarose3%dH2O.NegLispCup.LampEnergy10.LIBS07252019_HRD10591_18-08-40-567.txt Node
Date: Thu Jul 25 18:08:40 EDT 2019
User: cochatt
Spectrometer: HR+D1059
Trigger mode: 1
Integration Time (sec): 1.000000E-1
Scans to average: 1
Electric dark correction enabled: true
Nonlinearity correction enabled: false
Boxcar width: 0
XAxis mode: Wavelengths
Number of Pixels in Spectrum: 2048
>>>>>Begin Spectral Data<<<<<
223.165	3.75
223.4	3.75
223.635	3.75
223.869	-24.25
224.104	-12.25
224.338	-8.25
224.573	-24.25
224.808	-18.25
225.042	6.75
225.277	-19.25
225.511	-0.25
225.746	-3.25
225.98	4.75
226.215	2.75
226.449	23.75
226.683	14.75
226.918	21.75
227.152	31.75
227.387	24.75
227.621	33.75
227.856	52.75
228.09	41.75
228.324	44.75
228.559	54.75
228.793	73.75
229.027	105.75
229.262	114.75
229.496	121.75
229.73	134.75
229.964	140.75
230.199	145.75
230.433	142.75
230.667	135.75
230.901	145.75
231.136	140.75
231.37	145.75
231.604	155.75
231.838	161.75
232.072	155.75
232.306	164.75
232.541	159.75
232.775	154.75
233.009	169.75
233.243	171.75
233.477	168.75
233.711	169.75
233.945	156.75
234.179	170.75
234.413	154.75
234.647	167.75
234.881	165.75
235.115	164.75
235.349	172.75
235.583	179.75
235.817	161.75
236.051	149.75
236.285	172.75
236.519	172.75
236.753	165.75
236.987	179.75
237.221	172.75
237.455	171.75
237.689	171.75
237.922	181.75
238.156	169.75
238.39	173.75
238.624	177.75
238.858	173.75
239.091	175.75
239.325	187.75
239.559	190.75
239.793	203.75
240.027	197.75
240.26	174.75
240.494	210.75
240.728	207.75
240.961	192.75
241.195	190.75
241.429	197.75
241.662	203.75
241.896	205.75
242.13	222.75
242.363	215.75
242.597	227.75
242.83	227.75
243.064	201.75
243.298	231.75
243.531	218.75
243.765	221.75
243.998	241.75
244.232	233.75
244.465	213.75
244.699	239.75
244.932	245.75
245.166	246.75
245.399	252.75
245.633	262.75
245.866	255.75
246.099	257.75
246.333	244.75
246.566	273.75
246.8	243.75
247.033	246.75
247.266	246.75
247.5	250.75
247.733	274.75
247.966	255.75
248.2	289.75
248.433	267.75
248.666	244.75
248.899	279.75
249.133	272.75
249.366	262.75
249.599	269.75
249.832	309.75
250.066	299.75
250.299	296.75
250.532	306.75
250.765	283.75
250.998	278.75
251.231	278.75
251.465	289.75
251.698	293.75
251.931	302.75
252.164	301.75
252.397	322.75
252.63	323.75
252.863	300.75
253.096	314.75
253.329	318.75
253.562	314.75
253.795	333.75
254.028	314.75
254.261	338.75
254.494	333.75
254.727	335.75
254.96	309.75
255.193	333.75
255.426	343.75
255.659	321.75
255.892	335.75
256.124	354.75
256.357	337.75
256.59	352.75
256.823	359.75
257.056	350.75
257.289	357.75
257.521	358.75
257.754	347.75
257.987	371.75
258.22	347.75
258.452	362.75
258.685	367.75
258.918	362.75
259.151	347.75
259.383	353.75
259.616	354.75
259.849	369.75
260.081	385.75
260.314	383.75
260.547	364.75
260.779	389.75
261.012	405.75
261.244	381.75
261.477	387.75
261.71	369.75
261.942	375.75
262.175	391.75
262.407	390.75
262.64	392.75
262.872	389.75
263.105	389.75
263.337	395.75
263.57	409.75
263.802	409.75
264.035	423.75
264.267	405.75
264.499	437.75
264.732	407.75
264.964	425.75
265.197	435.75
265.429	437.75
265.661	415.75
265.894	419.75
266.126	419.75
266.358	421.75
266.591	411.75
266.823	447.75
267.055	433.75
267.287	449.75
267.52	422.75
267.752	443.75
267.984	468.75
268.216	437.75
268.448	449.75
268.681	452.75
268.913	447.75
269.145	447.75
269.377	434.75
269.609	441.75
269.841	463.75
270.073	445.75
270.306	436.75
270.538	461.75
270.77	445.75
271.002	445.75
271.234	447.75
271.466	467.75
271.698	460.75
271.93	457.75
272.162	472.75
272.394	455.75
272.626	465.75
272.858	471.75
273.09	483.75
273.322	483.75
273.553	458.75
273.785	483.75
274.017	469.75
274.249	511.75
274.481	486.75
274.713	482.75
274.945	494.75
275.176	518.75
275.408	471.75
275.64	513.75
275.872	501.75
276.104	477.75
276.335	483.75
276.567	494.75
276.799	500.75
277.031	510.75
277.262	505.75
277.494	507.75
277.726	510.75
277.957	485.75
278.189	518.75
278.421	510.75
278.652	495.75
278.884	542.75
279.115	508.75
279.347	520.75
279.579	526.75
279.81	519.75
280.042	502.75
280.273	502.75
280.505	535.75
280.736	519.75
280.968	529.75
281.199	525.75
281.431	539.75
281.662	533.75
281.894	558.75
282.125	531.75
282.356	525.75
282.588	572.75
282.819	575.75
283.051	550.75
283.282	562.75
283.513	559.75
283.745	550.75
283.976	558.75
284.207	569.75
284.439	555.75
284.67	554.75
284.901	550.75
285.132	569.75
285.364	561.75
285.595	540.75
285.826	578.75
286.057	566.75
286.288	578.75
286.52	566.75
286.751	569.75
286.982	578.75
287.213	567.75
287.444	568.75
287.675	578.75
287.906	591.75
288.138	608.75
288.369	606.75
288.6	617.75
288.831	612.75
289.062	596.75
289.293	604.75
289.524	612.75
289.755	603.75
289.986	619.75
290.217	597.75
290.448	614.75
290.679	601.75
290.91	607.75
291.141	605.75
291.371	605.75
291.602	601.75
291.833	608.75
292.064	609.75
292.295	633.75
292.526	628.75
292.757	595.75
292.987	625.75
293.218	596.75
293.449	619.75
293.68	645.75
293.91	621.75
294.141	622.75
294.372	589.75
294.603	609.75
294.833	647.75
295.064	622.75
295.295	633.75
295.525	609.75
295.756	626.75
295.987	633.75
296.217	640.75
296.448	653.75
296.679	618.75
296.909	634.75
297.14	641.75
297.37	655.75
297.601	653.75
297.831	654.75
298.062	642.75
298.292	664.75
298.523	681.75
298.753	678.75
298.984	685.75
299.214	677.75
299.445	669.75
299.675	659.75
299.905	656.75
300.136	659.75
300.366	665.75
300.597	685.75
300.827	715.75
301.057	696.75
301.288	700.75
301.518	694.75
301.748	710.75
301.979	717.75
302.209	681.75
302.439	677.75
302.669	694.75
302.9	657.75
303.13	673.75
303.36	692.75
303.59	686.75
303.82	662.75
304.051	689.75
304.281	689.75
304.511	678.75
304.741	677.75
304.971	682.75
305.201	686.75
305.431	669.75
305.661	694.75
305.891	697.75
306.121	683.75
306.352	693.75
306.582	690.75
306.812	675.75
307.042	661.75
307.272	673.75
307.502	683.75
307.731	690.75
307.961	681.75
308.191	671.75
308.421	673.75
308.651	672.75
308.881	648.75
309.111	668.75
309.341	676.75
309.571	654.75
309.8	675.75
310.03	669.75
310.26	688.75
310.49	669.75
310.72	665.75
310.949	670.75
311.179	687.75
311.409	701.75
311.639	687.75
311.868	690.75
312.098	682.75
312.328	712.75
312.557	728.75
312.787	702.75
313.017	708.75
313.246	716.75
313.476	707.75
313.706	739.75
313.935	751.75
314.165	740.75
314.394	710.75
314.624	738.75
314.853	714.75
315.083	756.75
315.312	707.75
315.542	705.75
315.771	740.75
316.001	711.75
316.23	730.75
316.46	737.75
316.689	709.75
316.919	702.75
317.148	721.75
317.377	743.75
317.607	706.75
317.836	745.75
318.065	741.75
318.295	725.75
318.524	712.75
318.753	721.75
318.983	725.75
319.212	716.75
319.441	710.75
319.67	719.75
319.9	744.75
320.129	724.75
320.358	717.75
320.587	722.75
320.816	723.75
321.046	742.75
321.275	716.75
321.504	707.75
321.733	740.75
321.962	737.75
322.191	759.75
322.42	730.75
322.649	753.75
322.878	730.75
323.108	715.75
323.337	743.75
323.566	741.75
323.795	743.75
324.024	741.75
324.253	757.75
324.482	761.75
324.71	747.75
324.939	775.75
325.168	791.75
325.397	789.75
325.626	809.75
325.855	796.75
326.084	797.75
326.313	801.75
326.542	818.75
326.77	811.75
326.999	796.75
327.228	806.75
327.457	787.75
327.686	810.75
327.914	807.75
328.143	831.75
328.372	817.75
328.6	819.75
328.829	813.75
329.058	819.75
329.287	804.75
329.515	840.75
329.744	832.75
329.972	864.75
330.201	840.75
330.43	835.75
330.658	855.75
330.887	842.75
331.115	827.75
331.344	865.75
331.572	859.75
331.801	893.75
332.03	892.75
332.258	948.75
332.486	943.75
332.715	993.75
332.943	1036.75
333.172	1044.75
333.4	1115.75
333.629	1123.75
333.857	1140.75
334.085	1137.75
334.314	1108.75
334.542	1066.75
334.771	1051.75
334.999	1059.75
335.227	1054.75
335.455	1058.75
335.684	1045.75
335.912	1025.75
336.14	1004.75
336.369	995.75
336.597	1007.75
336.825	1010.75
337.053	1029.75
337.281	969.75
337.51	962.75
337.738	973.75
337.966	953.75
338.194	937.75
338.422	939.75
338.65	915.75
338.878	894.75
339.106	933.75
339.334	919.75
339.562	913.75
339.79	890.75
340.018	876.75
340.246	854.75
340.474	869.75
340.702	883.75
340.93	879.75
341.158	872.75
341.386	874.75
341.614	919.75
341.842	852.75
342.07	873.75
342.298	856.75
342.526	865.75
342.754	889.75
342.981	871.75
343.209	909.75
343.437	935.75
343.665	976.75
343.893	1085.75
344.12	1110.75
344.348	1035.75
344.576	998.75
344.804	967.75
345.031	959.75
345.259	903.75
345.487	893.75
345.714	892.75
345.942	901.75
346.17	891.75
346.397	899.75
346.625	847.75
346.853	858.75
347.08	865.75
347.308	865.75
347.535	852.75
347.763	892.75
347.99	866.75
348.218	907.75
348.445	841.75
348.673	867.75
348.9	870.75
349.128	871.75
349.355	841.75
349.583	840.75
349.81	824.75
350.037	777.75
350.265	835.75
350.492	815.75
350.72	793.75
350.947	810.75
351.174	817.75
351.402	817.75
351.629	826.75
351.856	820.75
352.083	814.75
352.311	844.75
352.538	793.75
352.765	803.75
352.992	791.75
353.22	833.75
353.447	815.75
353.674	828.75
353.901	835.75
354.128	831.75
354.355	804.75
354.583	804.75
354.81	820.75
355.037	809.75
355.264	819.75
355.491	816.75
355.718	829.75
355.945	818.75
356.172	817.75
356.399	853.75
356.626	830.75
356.853	846.75
357.08	796.75
357.307	829.75
357.534	811.75
357.761	819.75
357.988	827.75
358.215	806.75
358.441	811.75
358.668	813.75
358.895	829.75
359.122	813.75
359.349	825.75
359.576	796.75
359.802	807.75
360.029	808.75
360.256	831.75
360.483	795.75
360.709	821.75
360.936	827.75
361.163	808.75
361.39	830.75
361.616	827.75
361.843	784.75
362.07	833.75
362.296	835.75
362.523	789.75
362.749	819.75
362.976	809.75
363.203	820.75
363.429	795.75
363.656	796.75
363.882	813.75
364.109	809.75
364.335	818.75
364.562	794.75
364.788	796.75
365.015	800.75
365.241	778.75
365.468	799.75
365.694	777.75
365.92	821.75
366.147	792.75
366.373	801.75
366.599	784.75
366.826	794.75
367.052	793.75
367.278	819.75
367.505	836.75
367.731	817.75
367.957	821.75
368.184	810.75
368.41	803.75
368.636	830.75
368.862	809.75
369.089	812.75
369.315	821.75
369.541	827.75
369.767	850.75
369.993	833.75
370.219	837.75
370.445	842.75
370.672	863.75
370.898	865.75
371.124	838.75
371.35	863.75
371.576	870.75
371.802	852.75
372.028	852.75
372.254	894.75
372.48	859.75
372.706	889.75
372.932	905.75
373.158	909.75
373.384	869.75
373.61	866.75
373.835	891.75
374.061	862.75
374.287	894.75
374.513	900.75
374.739	941.75
374.965	952.75
375.191	969.75
375.416	950.75
375.642	912.75
375.868	930.75
376.094	892.75
376.319	885.75
376.545	886.75
376.771	840.75
376.997	834.75
377.222	857.75
377.448	877.75
377.674	865.75
377.899	855.75
378.125	848.75
378.35	870.75
378.576	891.75
378.802	845.75
379.027	878.75
379.253	876.75
379.478	861.75
379.704	851.75
379.929	846.75
380.155	858.75
380.38	841.75
380.606	870.75
380.831	848.75
381.057	854.75
381.282	856.75
381.507	842.75
381.733	878.75
381.958	857.75
382.184	894.75
382.409	891.75
382.634	862.75
382.86	919.75
383.085	913.75
383.31	946.75
383.535	951.75
383.761	926.75
383.986	927.75
384.211	968.75
384.436	961.75
384.662	1013.75
384.887	1025.75
385.112	1036.75
385.337	1053.75
385.562	1057.75
385.787	1057.75
386.013	1042.75
386.238	1052.75
386.463	1013.75
386.688	1054.75
386.913	1064.75
387.138	1019.75
387.363	1009.75
387.588	1006.75
387.813	1029.75
388.038	1043.75
388.263	999.75
388.488	1031.75
388.713	1014.75
388.938	969.75
389.163	1009.75
389.387	959.75
389.612	1006.75
389.837	988.75
390.062	1027.75
390.287	1006.75
390.512	974.75
390.736	1009.75
390.961	1021.75
391.186	1030.75
391.411	1057.75
391.636	1124.75
391.86	1137.75
392.085	1167.75
392.31	1160.75
392.534	1109.75
392.759	1139.75
392.984	1125.75
393.208	1081.75
393.433	1086.75
393.658	1099.75
393.882	1088.75
394.107	1100.75
394.331	1063.75
394.556	1091.75
394.78	1110.75
395.005	1093.75
395.229	1090.75
395.454	1131.75
395.678	1159.75
395.903	1173.75
396.127	1178.75
396.352	1098.75
396.576	1081.75
396.801	1079.75
397.025	1114.75
397.249	1122.75
397.474	1139.75
397.698	1155.75
397.922	1150.75
398.147	1157.75
398.371	1153.75
398.595	1198.75
398.82	1236.75
399.044	1339.75
399.268	1468.75
399.492	1709.75
399.717	1958.75
399.941	2004.75
400.165	1755.75
400.389	1583.75
400.613	1433.75
400.837	1361.75
401.062	1328.75
401.286	1283.75
401.51	1253.75
401.734	1226.75
401.958	1274.75
402.182	1292.75
402.406	1337.75
402.63	1343.75
402.854	1361.75
403.078	1391.75
403.302	1447.75
403.526	1437.75
403.75	1509.75
403.974	1529.75
404.198	1551.75
404.422	1549.75
404.645	1502.75
404.869	1461.75
405.093	1479.75
405.317	1421.75
405.541	1425.75
405.765	1421.75
405.988	1425.75
406.212	1445.75
406.436	1412.75
406.66	1440.75
406.883	1457.75
407.107	1524.75
407.331	1651.75
407.555	1701.75
407.778	1695.75
408.002	1602.75
408.226	1591.75
408.449	1542.75
408.673	1507.75
408.896	1486.75
409.12	1460.75
409.344	1478.75
409.567	1429.75
409.791	1471.75
410.014	1469.75
410.238	1464.75
410.461	1447.75
410.685	1418.75
410.908	1407.75
411.132	1365.75
411.355	1325.75
411.578	1374.75
411.802	1351.75
412.025	1358.75
412.249	1398.75
412.472	1379.75
412.695	1345.75
412.919	1309.75
413.142	1307.75
413.365	1329.75
413.589	1284.75
413.812	1265.75
414.035	1276.75
414.258	1282.75
414.482	1259.75
414.705	1294.75
414.928	1341.75
415.151	1301.75
415.374	1285.75
415.597	1300.75
415.821	1253.75
416.044	1277.75
416.267	1250.75
416.49	1269.75
416.713	1266.75
416.936	1275.75
417.159	1265.75
417.382	1254.75
417.605	1276.75
417.828	1246.75
418.051	1262.75
418.274	1304.75
418.497	1316.75
418.72	1351.75
418.943	1334.75
419.166	1414.75
419.389	1501.75
419.611	1483.75
419.834	1366.75
420.057	1357.75
420.28	1311.75
420.503	1270.75
420.726	1246.75
420.948	1274.75
421.171	1283.75
421.394	1258.75
421.617	1274.75
421.839	1305.75
422.062	1298.75
422.285	1289.75
422.507	1325.75
422.73	1333.75
422.953	1331.75
423.175	1394.75
423.398	1387.75
423.621	1369.75
423.843	1404.75
424.066	1423.75
424.288	1405.75
424.511	1379.75
424.733	1337.75
424.956	1350.75
425.178	1342.75
425.401	1319.75
425.623	1325.75
425.846	1287.75
426.068	1259.75
426.291	1256.75
426.513	1212.75
426.735	1239.75
426.958	1235.75
427.18	1192.75
427.402	1212.75
427.625	1174.75
427.847	1172.75
428.069	1197.75
428.292	1179.75
428.514	1170.75
428.736	1139.75
428.958	1169.75
429.181	1134.75
429.403	1145.75
429.625	1131.75
429.847	1139.75
430.069	1155.75
430.292	1161.75
430.514	1117.75
430.736	1165.75
430.958	1125.75
431.18	1109.75
431.402	1133.75
431.624	1114.75
431.846	1180.75
432.068	1171.75
432.29	1181.75
432.512	1173.75
432.734	1162.75
432.956	1166.75
433.178	1190.75
433.4	1169.75
433.622	1191.75
433.844	1179.75
434.066	1195.75
434.287	1219.75
434.509	1246.75
434.731	1298.75
434.953	1335.75
435.175	1379.75
435.397	1295.75
435.618	1272.75
435.84	1210.75
436.062	1209.75
436.284	1146.75
436.505	1159.75
436.727	1187.75
436.949	1181.75
437.17	1172.75
437.392	1157.75
437.614	1125.75
437.835	1118.75
438.057	1115.75
438.278	1087.75
438.5	1126.75
438.721	1137.75
438.943	1136.75
439.165	1185.75
439.386	1149.75
439.608	1196.75
439.829	1175.75
440.05	1196.75
440.272	1163.75
440.493	1205.75
440.715	1223.75
440.936	1224.75
441.158	1239.75
441.379	1317.75
441.6	1326.75
441.822	1326.75
442.043	1331.75
442.264	1310.75
442.486	1267.75
442.707	1281.75
442.928	1318.75
443.149	1306.75
443.371	1329.75
443.592	1335.75
443.813	1337.75
444.034	1341.75
444.255	1379.75
444.476	1468.75
444.698	1556.75
444.919	1626.75
445.14	1722.75
445.361	1558.75
445.582	1393.75
445.803	1314.75
446.024	1248.75
446.245	1231.75
446.466	1217.75
446.687	1180.75
446.908	1182.75
447.129	1181.75
447.35	1158.75
447.571	1161.75
447.792	1102.75
448.013	1113.75
448.234	1101.75
448.455	1101.75
448.675	1098.75
448.896	1115.75
449.117	1083.75
449.338	1087.75
449.559	1077.75
449.779	1051.75
450	1075.75
450.221	1085.75
450.442	1115.75
450.662	1065.75
450.883	1094.75
451.104	1151.75
451.324	1107.75
451.545	1139.75
451.766	1129.75
451.986	1109.75
452.207	1092.75
452.428	1089.75
452.648	1100.75
452.869	1044.75
453.089	1062.75
453.31	1083.75
453.53	1061.75
453.751	1066.75
453.971	1065.75
454.192	1046.75
454.412	1052.75
454.633	1060.75
454.853	1015.75
455.073	1043.75
455.294	1026.75
455.514	989.75
455.734	1054.75
455.955	1020.75
456.175	996.75
456.395	1013.75
456.616	1018.75
456.836	1009.75
457.056	1013.75
457.276	1000.75
457.497	1011.75
457.717	1027.75
457.937	1014.75
458.157	1039.75
458.377	1047.75
458.598	1042.75
458.818	1094.75
459.038	1113.75
459.258	1130.75
459.478	1181.75
459.698	1230.75
459.918	1295.75
460.138	1331.75
460.358	1393.75
460.578	1415.75
460.798	1415.75
461.018	1426.75
461.238	1403.75
461.458	1413.75
461.678	1404.75
461.898	1381.75
462.118	1419.75
462.338	1511.75
462.558	1517.75
462.777	1585.75
462.997	1727.75
463.217	1923.75
463.437	1977.75
463.657	1829.75
463.876	1676.75
464.096	1644.75
464.316	1613.75
464.536	1650.75
464.755	1570.75
464.975	1516.75
465.195	1441.75
465.414	1363.75
465.634	1297.75
465.854	1236.75
466.073	1242.75
466.293	1255.75
466.512	1165.75
466.732	1186.75
466.951	1148.75
467.171	1143.75
467.391	1162.75
467.61	1158.75
467.829	1123.75
468.049	1111.75
468.268	1105.75
468.488	1091.75
468.707	1077.75
468.927	1130.75
469.146	1107.75
469.365	1109.75
469.585	1080.75
469.804	1131.75
470.023	1173.75
470.243	1165.75
470.462	1211.75
470.681	1202.75
470.901	1204.75
471.12	1140.75
471.339	1159.75
471.558	1138.75
471.777	1134.75
471.997	1106.75
472.216	1059.75
472.435	1074.75
472.654	1079.75
472.873	1070.75
473.092	1058.75
473.311	1063.75
473.53	1058.75
473.749	1059.75
473.968	1085.75
474.187	1093.75
474.406	1070.75
474.625	1112.75
474.844	1094.75
475.063	1094.75
475.282	1074.75
475.501	1073.75
475.72	1077.75
475.939	1118.75
476.158	1077.75
476.377	1114.75
476.596	1107.75
476.814	1123.75
477.033	1132.75
477.252	1127.75
477.471	1163.75
477.69	1209.75
477.908	1231.75
478.127	1281.75
478.346	1285.75
478.564	1306.75
478.783	1334.75
479.002	1371.75
479.22	1373.75
479.439	1367.75
479.658	1373.75
479.876	1336.75
480.095	1338.75
480.313	1419.75
480.532	1450.75
480.751	1436.75
480.969	1397.75
481.188	1303.75
481.406	1274.75
481.624	1251.75
481.843	1263.75
482.061	1220.75
482.28	1207.75
482.498	1211.75
482.717	1204.75
482.935	1208.75
483.153	1237.75
483.372	1209.75
483.59	1227.75
483.808	1241.75
484.027	1228.75
484.245	1235.75
484.463	1252.75
484.681	1255.75
484.9	1279.75
485.118	1278.75
485.336	1260.75
485.554	1299.75
485.772	1295.75
485.99	1275.75
486.209	1295.75
486.427	1318.75
486.645	1331.75
486.863	1295.75
487.081	1281.75
487.299	1308.75
487.517	1318.75
487.735	1271.75
487.953	1285.75
488.171	1301.75
488.389	1262.75
488.607	1265.75
488.825	1293.75
489.043	1285.75
489.261	1256.75
489.479	1285.75
489.696	1281.75
489.914	1280.75
490.132	1295.75
490.35	1258.75
490.568	1304.75
490.786	1321.75
491.003	1316.75
491.221	1301.75
491.439	1291.75
491.657	1325.75
491.874	1308.75
492.092	1348.75
492.31	1361.75
492.527	1360.75
492.745	1337.75
492.963	1337.75
493.18	1353.75
493.398	1359.75
493.615	1393.75
493.833	1339.75
494.05	1365.75
494.268	1397.75
494.485	1400.75
494.703	1395.75
494.92	1366.75
495.138	1354.75
495.355	1370.75
495.573	1391.75
495.79	1387.75
496.008	1370.75
496.225	1398.75
496.442	1413.75
496.66	1437.75
496.877	1447.75
497.094	1489.75
497.312	1506.75
497.529	1501.75
497.746	1573.75
497.963	1631.75
498.181	1691.75
498.398	1750.75
498.615	1789.75
498.832	1941.75
499.049	2081.75
499.267	2254.75
499.484	2517.75
499.701	2759.75
499.918	3082.75
500.135	3534.75
500.352	4068.75
500.569	4323.75
500.786	4238.75
501.003	3965.75
501.22	3517.75
501.437	3064.75
501.654	2691.75
501.871	2419.75
502.088	2229.75
502.305	2095.75
502.522	1941.75
502.739	1906.75
502.956	1801.75
503.172	1703.75
503.389	1643.75
503.606	1557.75
503.823	1599.75
504.04	1544.75
504.256	1561.75
504.473	1624.75
504.69	1643.75
504.907	1645.75
505.123	1516.75
505.34	1407.75
505.557	1373.75
505.773	1323.75
505.99	1335.75
506.207	1283.75
506.423	1293.75
506.64	1251.75
506.856	1248.75
507.073	1262.75
507.289	1251.75
507.506	1196.75
507.722	1203.75
507.939	1221.75
508.155	1189.75
508.372	1202.75
508.588	1147.75
508.805	1139.75
509.021	1119.75
509.238	1163.75
509.454	1138.75
509.67	1157.75
509.887	1145.75
510.103	1140.75
510.319	1117.75
510.536	1135.75
510.752	1115.75
510.968	1145.75
511.184	1116.75
511.401	1111.75
511.617	1112.75
511.833	1098.75
512.049	1109.75
512.265	1084.75
512.481	1164.75
512.698	1093.75
512.914	1115.75
513.13	1122.75
513.346	1108.75
513.562	1089.75
513.778	1140.75
513.994	1123.75
514.21	1101.75
514.426	1107.75
514.642	1161.75
514.858	1157.75
515.074	1144.75
515.29	1160.75
515.506	1181.75
515.721	1159.75
515.937	1191.75
516.153	1210.75
516.369	1215.75
516.585	1264.75
516.801	1292.75
517.016	1364.75
517.232	1441.75
517.448	1492.75
517.664	1576.75
517.879	1601.75
518.095	1569.75
518.311	1542.75
518.527	1462.75
518.742	1404.75
518.958	1348.75
519.173	1288.75
519.389	1271.75
519.605	1228.75
519.82	1205.75
520.036	1182.75
520.251	1148.75
520.467	1116.75
520.682	1109.75
520.898	1130.75
521.113	1127.75
521.329	1081.75
521.544	1096.75
521.76	1087.75
521.975	1062.75
522.19	1066.75
522.406	1074.75
522.621	1060.75
522.836	1052.75
523.052	1036.75
523.267	1044.75
523.482	1043.75
523.698	1026.75
523.913	1016.75
524.128	1059.75
524.343	1033.75
524.559	1025.75
524.774	1039.75
524.989	1039.75
525.204	1030.75
525.419	1013.75
525.634	1012.75
525.849	1010.75
526.064	1010.75
526.28	1000.75
526.495	1029.75
526.71	987.75
526.925	991.75
527.14	1026.75
527.355	999.75
527.57	1015.75
527.785	1017.75
527.999	1007.75
528.214	991.75
528.429	1019.75
528.644	1057.75
528.859	997.75
529.074	1012.75
529.289	1017.75
529.503	1040.75
529.718	1006.75
529.933	1011.75
530.148	1000.75
530.363	1041.75
530.577	986.75
530.792	1040.75
531.007	1003.75
531.221	1013.75
531.436	980.75
531.651	985.75
531.865	985.75
532.08	986.75
532.295	1030.75
532.509	1021.75
532.724	1005.75
532.938	980.75
533.153	1033.75
533.367	994.75
533.582	997.75
533.796	1019.75
534.011	1003.75
534.225	977.75
534.44	964.75
534.654	988.75
534.868	988.75
535.083	962.75
535.297	969.75
535.511	974.75
535.726	968.75
535.94	958.75
536.154	959.75
536.369	950.75
536.583	957.75
536.797	913.75
537.011	947.75
537.225	957.75
537.44	901.75
537.654	932.75
537.868	938.75
538.082	925.75
538.296	931.75
538.51	929.75
538.724	929.75
538.938	922.75
539.153	899.75
539.367	924.75
539.581	925.75
539.795	878.75
540.009	927.75
540.222	911.75
540.436	920.75
540.65	917.75
540.864	905.75
541.078	949.75
541.292	924.75
541.506	931.75
541.72	889.75
541.934	902.75
542.147	946.75
542.361	887.75
542.575	898.75
542.789	894.75
543.002	894.75
543.216	900.75
543.43	903.75
543.644	881.75
543.857	878.75
544.071	875.75
544.285	902.75
544.498	925.75
544.712	896.75
544.925	939.75
545.139	938.75
545.352	917.75
545.566	952.75
545.779	946.75
545.993	964.75
546.206	960.75
546.42	920.75
546.633	941.75
546.847	922.75
547.06	942.75
547.274	922.75
547.487	915.75
547.7	951.75
547.914	940.75
548.127	939.75
548.34	931.75
548.554	909.75
548.767	935.75
548.98	924.75
549.193	916.75
549.407	924.75
549.62	963.75
549.833	955.75
550.046	987.75
550.259	955.75
550.473	922.75
550.686	922.75
550.899	916.75
551.112	897.75
551.325	899.75
551.538	887.75
551.751	900.75
551.964	914.75
552.177	892.75
552.39	924.75
552.603	967.75
552.816	991.75
553.029	995.75
553.242	1002.75
553.455	1000.75
553.667	1047.75
553.88	1028.75
554.093	1000.75
554.306	936.75
554.519	970.75
554.732	936.75
554.944	899.75
555.157	883.75
555.37	888.75
555.583	862.75
555.795	856.75
556.008	857.75
556.221	832.75
556.433	821.75
556.646	824.75
556.859	812.75
557.071	817.75
557.284	789.75
557.496	773.75
557.709	783.75
557.921	812.75
558.134	802.75
558.346	755.75
558.559	768.75
558.771	794.75
558.984	777.75
559.196	744.75
559.409	790.75
559.621	753.75
559.833	759.75
560.046	759.75
560.258	751.75
560.47	766.75
560.683	746.75
560.895	755.75
561.107	744.75
561.32	754.75
561.532	743.75
561.744	776.75
561.956	750.75
562.168	761.75
562.381	751.75
562.593	755.75
562.805	797.75
563.017	759.75
563.229	727.75
563.441	781.75
563.653	779.75
563.865	752.75
564.077	767.75
564.289	793.75
564.501	784.75
564.713	802.75
564.925	833.75
565.137	820.75
565.349	851.75
565.561	865.75
565.773	891.75
565.985	929.75
566.197	975.75
566.408	1065.75
566.62	1147.75
566.832	1241.75
567.044	1281.75
567.255	1277.75
567.467	1335.75
567.679	1384.75
567.891	1481.75
568.102	1495.75
568.314	1477.75
568.526	1293.75
568.737	1201.75
568.949	1079.75
569.161	945.75
569.372	922.75
569.584	889.75
569.795	828.75
570.007	822.75
570.218	786.75
570.43	763.75
570.641	785.75
570.853	785.75
571.064	805.75
571.276	814.75
571.487	734.75
571.698	747.75
571.91	697.75
572.121	695.75
572.333	698.75
572.544	668.75
572.755	662.75
572.966	663.75
573.178	661.75
573.389	657.75
573.6	649.75
573.811	638.75
574.023	629.75
574.234	638.75
574.445	644.75
574.656	634.75
574.867	643.75
575.078	630.75
575.289	612.75
575.501	600.75
575.712	597.75
575.923	602.75
576.134	593.75
576.345	596.75
576.556	603.75
576.767	603.75
576.978	576.75
577.188	606.75
577.399	566.75
577.61	573.75
577.821	566.75
578.032	569.75
578.243	586.75
578.454	568.75
578.665	559.75
578.875	561.75
579.086	557.75
579.297	554.75
579.508	550.75
579.718	548.75
579.929	543.75
580.14	545.75
580.35	558.75
580.561	550.75
580.772	534.75
580.982	554.75
581.193	513.75
581.403	542.75
581.614	540.75
581.825	538.75
582.035	538.75
582.246	524.75
582.456	528.75
582.667	517.75
582.877	518.75
583.087	534.75
583.298	508.75
583.508	518.75
583.719	515.75
583.929	519.75
584.139	522.75
584.35	501.75
584.56	525.75
584.77	516.75
584.981	497.75
585.191	526.75
585.401	501.75
585.611	519.75
585.821	490.75
586.032	492.75
586.242	493.75
586.452	494.75
586.662	512.75
586.872	508.75
587.082	509.75
587.292	507.75
587.502	489.75
587.713	489.75
587.923	498.75
588.133	474.75
588.343	496.75
588.553	488.75
588.762	471.75
588.972	507.75
589.182	503.75
589.392	501.75
589.602	494.75
589.812	504.75
590.022	501.75
590.232	495.75
590.441	477.75
590.651	491.75
590.861	525.75
591.071	515.75
591.281	502.75
591.49	534.75
591.7	526.75
591.91	537.75
592.119	557.75
592.329	564.75
592.539	567.75
592.748	567.75
592.958	605.75
593.167	606.75
593.377	630.75
593.587	648.75
593.796	616.75
594.006	661.75
594.215	647.75
594.424	643.75
594.634	642.75
594.843	622.75
595.053	575.75
595.262	590.75
595.472	557.75
595.681	544.75
595.89	513.75
596.1	512.75
596.309	486.75
596.518	490.75
596.727	483.75
596.937	479.75
597.146	477.75
597.355	467.75
597.564	452.75
597.774	457.75
597.983	430.75
598.192	447.75
598.401	427.75
598.61	456.75
598.819	446.75
599.028	418.75
599.237	421.75
599.446	445.75
599.655	424.75
599.864	427.75
600.073	411.75
600.282	409.75
600.491	407.75
600.7	419.75
600.909	422.75
601.118	407.75
601.327	398.75
601.536	389.75
601.745	393.75
601.953	405.75
602.162	406.75
602.371	403.75
602.58	396.75
602.789	419.75
602.997	397.75
603.206	385.75
603.415	389.75
603.623	395.75
603.832	391.75
604.041	413.75
604.249	409.75
604.458	393.75
604.666	403.75
604.875	397.75
605.084	384.75
605.292	396.75
605.501	399.75
605.709	382.75
605.918	375.75
606.126	391.75
606.334	389.75
606.543	374.75
606.751	370.75
606.96	387.75
607.168	379.75
607.376	379.75
607.585	387.75
607.793	392.75
608.001	364.75
608.21	386.75
608.418	369.75
608.626	369.75
608.834	366.75
609.043	345.75
609.251	374.75
609.459	383.75
609.667	387.75
609.875	358.75
610.083	371.75
610.291	365.75
610.499	372.75
610.707	370.75
610.916	345.75
611.124	400.75
611.332	375.75
611.54	354.75
611.748	359.75
611.955	373.75
612.163	375.75
612.371	361.75
612.579	362.75
612.787	366.75
612.995	377.75
613.203	378.75
613.411	367.75
613.618	357.75
613.826	373.75
614.034	354.75
614.242	347.75
614.449	361.75
614.657	359.75
614.865	366.75
615.072	367.75
615.28	366.75
615.488	366.75
615.695	362.75
615.903	339.75
616.111	347.75
616.318	355.75
616.526	375.75
616.733	349.75
616.941	337.75
617.148	373.75
617.356	356.75
617.563	351.75
617.771	357.75
617.978	359.75
618.185	350.75
618.393	341.75
618.6	364.75
618.807	353.75
619.015	344.75
619.222	367.75
619.429	362.75
619.637	348.75
619.844	336.75
620.051	341.75
620.258	336.75
620.466	329.75
620.673	321.75
620.88	308.75
621.087	326.75
621.294	325.75
621.501	333.75
621.708	326.75
621.915	324.75
622.122	321.75
622.329	314.75
622.536	334.75
622.743	326.75
622.95	342.75
623.157	309.75
623.364	326.75
623.571	326.75
623.778	335.75
623.985	310.75
624.192	316.75
624.399	315.75
624.606	310.75
624.812	317.75
625.019	315.75
625.226	297.75
625.433	306.75
625.639	319.75
625.846	290.75
626.053	295.75
626.259	311.75
626.466	297.75
626.673	283.75
626.879	305.75
627.086	293.75
627.293	274.75
627.499	299.75
627.706	290.75
627.912	289.75
628.119	298.75
628.325	296.75
628.532	297.75
628.738	296.75
628.945	293.75
629.151	294.75
629.357	281.75
629.564	275.75
629.77	289.75
629.976	275.75
630.183	298.75
630.389	276.75
630.595	275.75
630.802	275.75
631.008	271.75
631.214	272.75
631.42	286.75
631.627	269.75
631.833	259.75
632.039	255.75
632.245	287.75
632.451	262.75
632.657	285.75
632.863	282.75
633.069	248.75
633.275	255.75
633.481	264.75
633.688	252.75
633.893	245.75
634.099	261.75
634.305	269.75
634.511	273.75
634.717	251.75
634.923	244.75
635.129	257.75
635.335	251.75
635.541	268.75
635.747	252.75
635.952	265.75
636.158	256.75
636.364	245.75
636.57	255.75
636.775	259.75
636.981	260.75
637.187	260.75
637.392	250.75
637.598	249.75
637.804	243.75
638.009	262.75
638.215	244.75
638.421	246.75
638.626	245.75
638.832	244.75
639.037	234.75
639.243	249.75
639.448	244.75
639.654	239.75
639.859	250.75
640.065	233.75
640.27	243.75
640.475	228.75
640.681	232.75
640.886	241.75
641.091	230.75
641.297	229.75
641.502	229.75
641.707	228.75
641.913	224.75
642.118	198.75
642.323	209.75
642.528	254.75
642.733	217.75
642.939	227.75
643.144	245.75
643.349	236.75
643.554	230.75
643.759	222.75
643.964	219.75
644.169	231.75
644.374	211.75
644.579	245.75
644.784	225.75
644.989	230.75
645.194	220.75
645.399	220.75
645.604	223.75
645.809	224.75
646.014	230.75
646.219	237.75
646.423	207.75
646.628	210.75
646.833	235.75
647.038	221.75
647.243	220.75
647.447	207.75
647.652	216.75
647.857	234.75
648.062	246.75
648.266	236.75
648.471	252.75
648.676	244.75
648.88	232.75
649.085	218.75
649.289	213.75
649.494	222.75
649.698	203.75
649.903	201.75
650.107	206.75
650.312	225.75
650.516	206.75
650.721	189.75
650.925	205.75
651.13	214.75
651.334	193.75
651.539	187.75
651.743	192.75
651.947	196.75
652.152	194.75
652.356	189.75
652.56	183.75
652.764	177.75
652.969	183.75
653.173	163.75
653.377	170.75
653.581	175.75
653.785	167.75
653.99	182.75
654.194	187.75
654.398	156.75
654.602	176.75
654.806	162.75
655.01	153.75
655.214	150.75
655.418	145.75
655.622	162.75
655.826	148.75
656.03	151.75
656.234	158.75
656.438	150.75
656.642	137.75
656.846	135.75
657.049	149.75
657.253	142.75
657.457	133.75
657.661	124.75
657.865	127.75
658.068	138.75
658.272	125.75
658.476	124.75
658.68	113.75
658.883	122.75
659.087	115.75
659.291	124.75
659.494	108.75
659.698	103.75
659.901	99.75
660.105	110.75
660.309	97.75
660.512	97.75
660.716	108.75
660.919	94.75
661.123	98.75
661.326	115.75
661.53	93.75
661.733	105.75
661.936	100.75
662.14	89.75
662.343	70.75
662.546	81.75
662.75	71.75
662.953	83.75
663.156	82.75
663.36	80.75
663.563	84.75
663.766	86.75
663.969	83.75
664.173	85.75
664.376	98.75
664.579	100.75
664.782	87.75
664.985	83.75
665.188	76.75
665.391	77.75
665.594	76.75
665.797	89.75
666	83.75
666.203	82.75
666.406	86.75
666.609	78.75
666.812	70.75
667.015	90.75
667.218	98.75
667.421	77.75
667.624	78.75
667.827	79.75
668.03	95.75
668.232	91.75
668.435	95.75
668.638	73.75
668.841	80.75
669.043	87.75
669.246	84.75
669.449	77.75
669.651	85.75
669.854	75.75
670.057	84.75
670.259	80.75
670.462	85.75
670.665	90.75
670.867	83.75
671.07	75.75
671.272	74.75
671.475	80.75
671.677	92.75
671.88	87.75
672.082	92.75
672.284	82.75
672.487	74.75
672.689	81.75
672.892	79.75
