Data from Ni(NO3)2@0.5M.TitratingCurve.Agarose3%dH2O.NegLispCup.LampEnergy10.LIBS07252019_HRD10591_17-59-14-564.txt Node
Date: Thu Jul 25 17:59:14 EDT 2019
User: cochatt
Spectrometer: HR+D1059
Trigger mode: 1
Integration Time (sec): 1.000000E-1
Scans to average: 1
Electric dark correction enabled: true
Nonlinearity correction enabled: false
Boxcar width: 0
XAxis mode: Wavelengths
Number of Pixels in Spectrum: 2048
>>>>>Begin Spectral Data<<<<<
223.165	-11.75
223.4	-11.75
223.635	-11.75
223.869	-21.75
224.104	-11.75
224.338	-11.75
224.573	0.25
224.808	-14.75
225.042	-4.75
225.277	-7.75
225.511	-4.75
225.746	4.25
225.98	-4.75
226.215	15.25
226.449	19.25
226.683	12.25
226.918	21.25
227.152	21.25
227.387	27.25
227.621	39.25
227.856	49.25
228.09	52.25
228.324	39.25
228.559	56.25
228.793	78.25
229.027	134.25
229.262	132.25
229.496	119.25
229.73	143.25
229.964	170.25
230.199	192.25
230.433	181.25
230.667	176.25
230.901	192.25
231.136	141.25
231.37	164.25
231.604	170.25
231.838	186.25
232.072	195.25
232.306	196.25
232.541	169.25
232.775	157.25
233.009	151.25
233.243	154.25
233.477	169.25
233.711	159.25
233.945	160.25
234.179	165.25
234.413	158.25
234.647	165.25
234.881	157.25
235.115	169.25
235.349	146.25
235.583	152.25
235.817	147.25
236.051	152.25
236.285	160.25
236.519	158.25
236.753	154.25
236.987	151.25
237.221	152.25
237.455	161.25
237.689	149.25
237.922	176.25
238.156	164.25
238.39	161.25
238.624	164.25
238.858	159.25
239.091	178.25
239.325	183.25
239.559	195.25
239.793	220.25
240.027	216.25
240.26	186.25
240.494	170.25
240.728	177.25
240.961	183.25
241.195	166.25
241.429	184.25
241.662	199.25
241.896	213.25
242.13	216.25
242.363	191.25
242.597	190.25
242.83	188.25
243.064	187.25
243.298	190.25
243.531	205.25
243.765	206.25
243.998	209.25
244.232	208.25
244.465	203.25
244.699	208.25
244.932	190.25
245.166	203.25
245.399	224.25
245.633	210.25
245.866	220.25
246.099	200.25
246.333	209.25
246.566	209.25
246.8	216.25
247.033	202.25
247.266	216.25
247.5	220.25
247.733	212.25
247.966	232.25
248.2	214.25
248.433	224.25
248.666	219.25
248.899	224.25
249.133	222.25
249.366	230.25
249.599	238.25
249.832	236.25
250.066	251.25
250.299	239.25
250.532	247.25
250.765	261.25
250.998	258.25
251.231	277.25
251.465	269.25
251.698	259.25
251.931	256.25
252.164	252.25
252.397	274.25
252.63	245.25
252.863	254.25
253.096	265.25
253.329	257.25
253.562	268.25
253.795	262.25
254.028	272.25
254.261	268.25
254.494	276.25
254.727	266.25
254.96	283.25
255.193	256.25
255.426	267.25
255.659	291.25
255.892	280.25
256.124	281.25
256.357	293.25
256.59	282.25
256.823	272.25
257.056	290.25
257.289	275.25
257.521	285.25
257.754	292.25
257.987	290.25
258.22	282.25
258.452	301.25
258.685	312.25
258.918	285.25
259.151	290.25
259.383	307.25
259.616	299.25
259.849	295.25
260.081	308.25
260.314	326.25
260.547	302.25
260.779	319.25
261.012	333.25
261.244	305.25
261.477	323.25
261.71	309.25
261.942	324.25
262.175	334.25
262.407	320.25
262.64	302.25
262.872	332.25
263.105	335.25
263.337	333.25
263.57	335.25
263.802	326.25
264.035	342.25
264.267	340.25
264.499	348.25
264.732	350.25
264.964	353.25
265.197	342.25
265.429	340.25
265.661	340.25
265.894	329.25
266.126	359.25
266.358	342.25
266.591	345.25
266.823	357.25
267.055	350.25
267.287	361.25
267.52	339.25
267.752	340.25
267.984	356.25
268.216	374.25
268.448	357.25
268.681	362.25
268.913	364.25
269.145	347.25
269.377	378.25
269.609	344.25
269.841	353.25
270.073	371.25
270.306	386.25
270.538	369.25
270.77	347.25
271.002	364.25
271.234	356.25
271.466	376.25
271.698	372.25
271.93	391.25
272.162	388.25
272.394	396.25
272.626	379.25
272.858	395.25
273.09	402.25
273.322	388.25
273.553	377.25
273.785	377.25
274.017	402.25
274.249	419.25
274.481	418.25
274.713	398.25
274.945	400.25
275.176	420.25
275.408	406.25
275.64	404.25
275.872	408.25
276.104	409.25
276.335	423.25
276.567	414.25
276.799	406.25
277.031	404.25
277.262	389.25
277.494	434.25
277.726	412.25
277.957	416.25
278.189	409.25
278.421	420.25
278.652	414.25
278.884	426.25
279.115	427.25
279.347	444.25
279.579	445.25
279.81	430.25
280.042	402.25
280.273	447.25
280.505	444.25
280.736	441.25
280.968	436.25
281.199	481.25
281.431	422.25
281.662	451.25
281.894	438.25
282.125	456.25
282.356	460.25
282.588	451.25
282.819	452.25
283.051	456.25
283.282	465.25
283.513	473.25
283.745	466.25
283.976	444.25
284.207	459.25
284.439	468.25
284.67	472.25
284.901	464.25
285.132	461.25
285.364	454.25
285.595	475.25
285.826	447.25
286.057	464.25
286.288	467.25
286.52	490.25
286.751	488.25
286.982	468.25
287.213	458.25
287.444	477.25
287.675	466.25
287.906	496.25
288.138	476.25
288.369	483.25
288.6	499.25
288.831	501.25
289.062	489.25
289.293	495.25
289.524	490.25
289.755	482.25
289.986	472.25
290.217	508.25
290.448	493.25
290.679	498.25
290.91	498.25
291.141	490.25
291.371	500.25
291.602	514.25
291.833	487.25
292.064	483.25
292.295	485.25
292.526	486.25
292.757	494.25
292.987	520.25
293.218	484.25
293.449	503.25
293.68	498.25
293.91	496.25
294.141	499.25
294.372	486.25
294.603	476.25
294.833	495.25
295.064	473.25
295.295	500.25
295.525	504.25
295.756	494.25
295.987	497.25
296.217	505.25
296.448	514.25
296.679	525.25
296.909	526.25
297.14	514.25
297.37	526.25
297.601	527.25
297.831	562.25
298.062	542.25
298.292	565.25
298.523	566.25
298.753	539.25
298.984	555.25
299.214	523.25
299.445	546.25
299.675	550.25
299.905	539.25
300.136	542.25
300.366	598.25
300.597	600.25
300.827	572.25
301.057	570.25
301.288	571.25
301.518	593.25
301.748	566.25
301.979	560.25
302.209	553.25
302.439	546.25
302.669	581.25
302.9	570.25
303.13	532.25
303.36	568.25
303.59	571.25
303.82	589.25
304.051	584.25
304.281	561.25
304.511	562.25
304.741	595.25
304.971	590.25
305.201	608.25
305.431	612.25
305.661	627.25
305.891	592.25
306.121	580.25
306.352	590.25
306.582	588.25
306.812	560.25
307.042	570.25
307.272	574.25
307.502	566.25
307.731	595.25
307.961	578.25
308.191	570.25
308.421	586.25
308.651	572.25
308.881	571.25
309.111	580.25
309.341	584.25
309.571	617.25
309.8	609.25
310.03	612.25
310.26	622.25
310.49	612.25
310.72	624.25
310.949	598.25
311.179	592.25
311.409	603.25
311.639	632.25
311.868	602.25
312.098	587.25
312.328	613.25
312.557	610.25
312.787	618.25
313.017	616.25
313.246	618.25
313.476	635.25
313.706	662.25
313.935	628.25
314.165	645.25
314.394	643.25
314.624	635.25
314.853	610.25
315.083	636.25
315.312	632.25
315.542	626.25
315.771	626.25
316.001	628.25
316.23	652.25
316.46	635.25
316.689	645.25
316.919	620.25
317.148	638.25
317.377	658.25
317.607	628.25
317.836	620.25
318.065	642.25
318.295	640.25
318.524	631.25
318.753	639.25
318.983	636.25
319.212	626.25
319.441	630.25
319.67	630.25
319.9	663.25
320.129	624.25
320.358	660.25
320.587	678.25
320.816	635.25
321.046	660.25
321.275	653.25
321.504	648.25
321.733	665.25
321.962	669.25
322.191	678.25
322.42	659.25
322.649	656.25
322.878	650.25
323.108	684.25
323.337	686.25
323.566	684.25
323.795	692.25
324.024	690.25
324.253	674.25
324.482	689.25
324.71	688.25
324.939	693.25
325.168	697.25
325.397	674.25
325.626	680.25
325.855	690.25
326.084	696.25
326.313	718.25
326.542	700.25
326.77	689.25
326.999	731.25
327.228	681.25
327.457	693.25
327.686	711.25
327.914	689.25
328.143	696.25
328.372	680.25
328.6	697.25
328.829	724.25
329.058	702.25
329.287	713.25
329.515	700.25
329.744	736.25
329.972	753.25
330.201	744.25
330.43	751.25
330.658	738.25
330.887	733.25
331.115	743.25
331.344	748.25
331.572	740.25
331.801	742.25
332.03	779.25
332.258	780.25
332.486	774.25
332.715	781.25
332.943	788.25
333.172	789.25
333.4	803.25
333.629	800.25
333.857	819.25
334.085	836.25
334.314	822.25
334.542	824.25
334.771	834.25
334.999	821.25
335.227	851.25
335.455	834.25
335.684	843.25
335.912	821.25
336.14	828.25
336.369	820.25
336.597	840.25
336.825	830.25
337.053	861.25
337.281	877.25
337.51	849.25
337.738	839.25
337.966	877.25
338.194	851.25
338.422	852.25
338.65	790.25
338.878	790.25
339.106	814.25
339.334	837.25
339.562	808.25
339.79	809.25
340.018	778.25
340.246	786.25
340.474	739.25
340.702	757.25
340.93	801.25
341.158	818.25
341.386	830.25
341.614	864.25
341.842	846.25
342.07	811.25
342.298	801.25
342.526	794.25
342.754	775.25
342.981	786.25
343.209	816.25
343.437	838.25
343.665	842.25
343.893	844.25
344.12	845.25
344.348	843.25
344.576	830.25
344.804	846.25
345.031	808.25
345.259	809.25
345.487	803.25
345.714	831.25
345.942	850.25
346.17	846.25
346.397	843.25
346.625	785.25
346.853	748.25
347.08	781.25
347.308	772.25
347.535	767.25
347.763	759.25
347.99	740.25
348.218	758.25
348.445	752.25
348.673	738.25
348.9	742.25
349.128	761.25
349.355	802.25
349.583	800.25
349.81	747.25
350.037	726.25
350.265	752.25
350.492	756.25
350.72	746.25
350.947	771.25
351.174	782.25
351.402	790.25
351.629	794.25
351.856	768.25
352.083	768.25
352.311	790.25
352.538	845.25
352.765	806.25
352.992	760.25
353.22	734.25
353.447	698.25
353.674	722.25
353.901	716.25
354.128	737.25
354.355	729.25
354.583	731.25
354.81	718.25
355.037	747.25
355.264	729.25
355.491	735.25
355.718	712.25
355.945	732.25
356.172	736.25
356.399	721.25
356.626	770.25
356.853	794.25
357.08	753.25
357.307	747.25
357.534	743.25
357.761	732.25
357.988	725.25
358.215	724.25
358.441	716.25
358.668	720.25
358.895	742.25
359.122	727.25
359.349	728.25
359.576	729.25
359.802	732.25
360.029	740.25
360.256	743.25
360.483	760.25
360.709	764.25
360.936	745.25
361.163	741.25
361.39	731.25
361.616	767.25
361.843	805.25
362.07	821.25
362.296	796.25
362.523	748.25
362.749	756.25
362.976	749.25
363.203	747.25
363.429	749.25
363.656	774.25
363.882	738.25
364.109	735.25
364.335	725.25
364.562	721.25
364.788	730.25
365.015	732.25
365.241	732.25
365.468	738.25
365.694	763.25
365.92	728.25
366.147	715.25
366.373	742.25
366.599	748.25
366.826	739.25
367.052	752.25
367.278	743.25
367.505	770.25
367.731	759.25
367.957	729.25
368.184	770.25
368.41	772.25
368.636	739.25
368.862	796.25
369.089	755.25
369.315	732.25
369.541	736.25
369.767	776.25
369.993	764.25
370.219	734.25
370.445	768.25
370.672	795.25
370.898	772.25
371.124	796.25
371.35	779.25
371.576	770.25
371.802	784.25
372.028	768.25
372.254	783.25
372.48	792.25
372.706	813.25
372.932	796.25
373.158	787.25
373.384	799.25
373.61	817.25
373.835	790.25
374.061	788.25
374.287	822.25
374.513	796.25
374.739	813.25
374.965	825.25
375.191	842.25
375.416	844.25
375.642	815.25
375.868	821.25
376.094	813.25
376.319	800.25
376.545	792.25
376.771	781.25
376.997	794.25
377.222	782.25
377.448	785.25
377.674	780.25
377.899	772.25
378.125	776.25
378.35	786.25
378.576	793.25
378.802	772.25
379.027	776.25
379.253	764.25
379.478	775.25
379.704	785.25
379.929	790.25
380.155	790.25
380.38	777.25
380.606	785.25
380.831	764.25
381.057	782.25
381.282	792.25
381.507	752.25
381.733	804.25
381.958	797.25
382.184	794.25
382.409	795.25
382.634	811.25
382.86	817.25
383.085	812.25
383.31	848.25
383.535	790.25
383.761	828.25
383.986	858.25
384.211	844.25
384.436	816.25
384.662	839.25
384.887	880.25
385.112	838.25
385.337	886.25
385.562	873.25
385.787	899.25
386.013	904.25
386.238	909.25
386.463	887.25
386.688	900.25
386.913	878.25
387.138	887.25
387.363	898.25
387.588	885.25
387.813	890.25
388.038	910.25
388.263	907.25
388.488	898.25
388.713	887.25
388.938	904.25
389.163	877.25
389.387	880.25
389.612	905.25
389.837	878.25
390.062	900.25
390.287	866.25
390.512	900.25
390.736	915.25
390.961	900.25
391.186	915.25
391.411	897.25
391.636	937.25
391.86	957.25
392.085	944.25
392.31	946.25
392.534	957.25
392.759	928.25
392.984	972.25
393.208	928.25
393.433	968.25
393.658	935.25
393.882	933.25
394.107	935.25
394.331	908.25
394.556	917.25
394.78	958.25
395.005	960.25
395.229	916.25
395.454	970.25
395.678	973.25
395.903	952.25
396.127	974.25
396.352	934.25
396.576	977.25
396.801	947.25
397.025	976.25
397.249	980.25
397.474	979.25
397.698	988.25
397.922	1010.25
398.147	1037.25
398.371	1042.25
398.595	1036.25
398.82	1073.25
399.044	1114.25
399.268	1103.25
399.492	1171.25
399.717	1194.25
399.941	1236.25
400.165	1200.25
400.389	1158.25
400.613	1147.25
400.837	1137.25
401.062	1081.25
401.286	1079.25
401.51	1050.25
401.734	1065.25
401.958	1059.25
402.182	1033.25
402.406	1048.25
402.63	1062.25
402.854	1037.25
403.078	1068.25
403.302	1083.25
403.526	1070.25
403.75	1072.25
403.974	1069.25
404.198	1042.25
404.422	1078.25
404.645	1065.25
404.869	1067.25
405.093	1091.25
405.317	1083.25
405.541	1092.25
405.765	1088.25
405.988	1102.25
406.212	1117.25
406.436	1116.25
406.66	1170.25
406.883	1157.25
407.107	1200.25
407.331	1184.25
407.555	1210.25
407.778	1219.25
408.002	1192.25
408.226	1188.25
408.449	1200.25
408.673	1171.25
408.896	1196.25
409.12	1125.25
409.344	1198.25
409.567	1140.25
409.791	1129.25
410.014	1128.25
410.238	1127.25
410.461	1141.25
410.685	1112.25
410.908	1138.25
411.132	1120.25
411.355	1101.25
411.578	1132.25
411.802	1094.25
412.025	1108.25
412.249	1114.25
412.472	1115.25
412.695	1089.25
412.919	1068.25
413.142	1097.25
413.365	1113.25
413.589	1061.25
413.812	1044.25
414.035	1074.25
414.258	1077.25
414.482	1065.25
414.705	1051.25
414.928	1024.25
415.151	1052.25
415.374	1036.25
415.597	1045.25
415.821	1053.25
416.044	1050.25
416.267	1052.25
416.49	1017.25
416.713	1010.25
416.936	1026.25
417.159	1042.25
417.382	1020.25
417.605	1025.25
417.828	1018.25
418.051	1010.25
418.274	1027.25
418.497	1010.25
418.72	1051.25
418.943	1003.25
419.166	1072.25
419.389	1141.25
419.611	1097.25
419.834	1067.25
420.057	1048.25
420.28	1012.25
420.503	1005.25
420.726	1020.25
420.948	994.25
421.171	1011.25
421.394	983.25
421.617	1003.25
421.839	1033.25
422.062	1015.25
422.285	990.25
422.507	998.25
422.73	1009.25
422.953	1002.25
423.175	1010.25
423.398	1008.25
423.621	973.25
423.843	1012.25
424.066	1046.25
424.288	996.25
424.511	1038.25
424.733	999.25
424.956	999.25
425.178	1016.25
425.401	1008.25
425.623	984.25
425.846	994.25
426.068	990.25
426.291	996.25
426.513	999.25
426.735	1010.25
426.958	988.25
427.18	931.25
427.402	1011.25
427.625	995.25
427.847	967.25
428.069	992.25
428.292	1005.25
428.514	979.25
428.736	983.25
428.958	962.25
429.181	954.25
429.403	947.25
429.625	944.25
429.847	966.25
430.069	952.25
430.292	975.25
430.514	963.25
430.736	977.25
430.958	998.25
431.18	983.25
431.402	960.25
431.624	972.25
431.846	985.25
432.068	961.25
432.29	969.25
432.512	966.25
432.734	990.25
432.956	967.25
433.178	997.25
433.4	1038.25
433.622	1023.25
433.844	1019.25
434.066	1025.25
434.287	1012.25
434.509	996.25
434.731	1020.25
434.953	1014.25
435.175	1056.25
435.397	1097.25
435.618	1020.25
435.84	984.25
436.062	995.25
436.284	1001.25
436.505	999.25
436.727	957.25
436.949	972.25
437.17	988.25
437.392	959.25
437.614	938.25
437.835	956.25
438.057	970.25
438.278	948.25
438.5	955.25
438.721	946.25
438.943	980.25
439.165	932.25
439.386	971.25
439.608	958.25
439.829	958.25
440.05	946.25
440.272	1000.25
440.493	981.25
440.715	996.25
440.936	992.25
441.158	991.25
441.379	1000.25
441.6	1022.25
441.822	1036.25
442.043	1027.25
442.264	1031.25
442.486	1041.25
442.707	1024.25
442.928	1024.25
443.149	1032.25
443.371	1054.25
443.592	1113.25
443.813	1079.25
444.034	1026.25
444.255	1060.25
444.476	1074.25
444.698	1117.25
444.919	1109.25
445.14	1182.25
445.361	1146.25
445.582	1096.25
445.803	1010.25
446.024	983.25
446.245	1014.25
446.466	978.25
446.687	972.25
446.908	957.25
447.129	952.25
447.35	920.25
447.571	946.25
447.792	907.25
448.013	929.25
448.234	917.25
448.455	916.25
448.675	894.25
448.896	893.25
449.117	891.25
449.338	892.25
449.559	888.25
449.779	891.25
450	901.25
450.221	903.25
450.442	922.25
450.662	872.25
450.883	948.25
451.104	939.25
451.324	884.25
451.545	888.25
451.766	897.25
451.986	878.25
452.207	906.25
452.428	890.25
452.648	893.25
452.869	881.25
453.089	868.25
453.31	894.25
453.53	885.25
453.751	856.25
453.971	863.25
454.192	899.25
454.412	914.25
454.633	871.25
454.853	850.25
455.073	850.25
455.294	881.25
455.514	884.25
455.734	909.25
455.955	893.25
456.175	907.25
456.395	876.25
456.616	843.25
456.836	859.25
457.056	861.25
457.276	867.25
457.497	895.25
457.717	903.25
457.937	946.25
458.157	875.25
458.377	894.25
458.598	894.25
458.818	894.25
459.038	918.25
459.258	949.25
459.478	1042.25
459.698	1108.25
459.918	1123.25
460.138	1060.25
460.358	1079.25
460.578	1076.25
460.798	1137.25
461.018	1089.25
461.238	1093.25
461.458	1065.25
461.678	1007.25
461.898	1074.25
462.118	1088.25
462.338	1105.25
462.558	1143.25
462.777	1194.25
462.997	1190.25
463.217	1234.25
463.437	1264.25
463.657	1225.25
463.876	1164.25
464.096	1174.25
464.316	1157.25
464.536	1142.25
464.755	1124.25
464.975	1101.25
465.195	1095.25
465.414	1046.25
465.634	1042.25
465.854	1019.25
466.073	986.25
466.293	964.25
466.512	955.25
466.732	978.25
466.951	967.25
467.171	971.25
467.391	955.25
467.61	964.25
467.829	941.25
468.049	923.25
468.268	970.25
468.488	931.25
468.707	916.25
468.927	925.25
469.146	925.25
469.365	989.25
469.585	963.25
469.804	944.25
470.023	950.25
470.243	917.25
470.462	978.25
470.681	966.25
470.901	949.25
471.12	929.25
471.339	969.25
471.558	962.25
471.777	961.25
471.997	952.25
472.216	936.25
472.435	948.25
472.654	934.25
472.873	914.25
473.092	901.25
473.311	940.25
473.53	955.25
473.749	931.25
473.968	954.25
474.187	935.25
474.406	900.25
474.625	933.25
474.844	926.25
475.063	946.25
475.282	962.25
475.501	958.25
475.72	962.25
475.939	934.25
476.158	967.25
476.377	946.25
476.596	973.25
476.814	991.25
477.033	981.25
477.252	1000.25
477.471	1048.25
477.69	1030.25
477.908	1036.25
478.127	1030.25
478.346	1076.25
478.564	1078.25
478.783	1103.25
479.002	1127.25
479.22	1176.25
479.439	1147.25
479.658	1140.25
479.876	1109.25
480.095	1124.25
480.313	1119.25
480.532	1132.25
480.751	1155.25
480.969	1120.25
481.188	1132.25
481.406	1114.25
481.624	1105.25
481.843	1112.25
482.061	1092.25
482.28	1124.25
482.498	1098.25
482.717	1099.25
482.935	1110.25
483.153	1120.25
483.372	1144.25
483.59	1167.25
483.808	1145.25
484.027	1124.25
484.245	1121.25
484.463	1156.25
484.681	1106.25
484.9	1118.25
485.118	1118.25
485.336	1120.25
485.554	1130.25
485.772	1112.25
485.99	1153.25
486.209	1122.25
486.427	1112.25
486.645	1136.25
486.863	1120.25
487.081	1154.25
487.299	1172.25
487.517	1155.25
487.735	1177.25
487.953	1178.25
488.171	1150.25
488.389	1164.25
488.607	1164.25
488.825	1097.25
489.043	1125.25
489.261	1150.25
489.479	1145.25
489.696	1156.25
489.914	1162.25
490.132	1124.25
490.35	1129.25
490.568	1160.25
490.786	1167.25
491.003	1176.25
491.221	1155.25
491.439	1163.25
491.657	1179.25
491.874	1171.25
492.092	1163.25
492.31	1161.25
492.527	1166.25
492.745	1152.25
492.963	1155.25
493.18	1142.25
493.398	1190.25
493.615	1173.25
493.833	1196.25
494.05	1212.25
494.268	1200.25
494.485	1186.25
494.703	1186.25
494.92	1191.25
495.138	1227.25
495.355	1185.25
495.573	1202.25
495.79	1197.25
496.008	1236.25
496.225	1223.25
496.442	1222.25
496.66	1248.25
496.877	1244.25
497.094	1268.25
497.312	1285.25
497.529	1306.25
497.746	1333.25
497.963	1378.25
498.181	1402.25
498.398	1403.25
498.615	1459.25
498.832	1509.25
499.049	1558.25
499.267	1611.25
499.484	1681.25
499.701	1752.25
499.918	1818.25
500.135	1892.25
500.352	1974.25
500.569	2007.25
500.786	1981.25
501.003	1939.25
501.22	1880.25
501.437	1809.25
501.654	1715.25
501.871	1653.25
502.088	1640.25
502.305	1568.25
502.522	1545.25
502.739	1470.25
502.956	1411.25
503.172	1350.25
503.389	1353.25
503.606	1308.25
503.823	1318.25
504.04	1317.25
504.256	1278.25
504.473	1270.25
504.69	1271.25
504.907	1240.25
505.123	1184.25
505.34	1166.25
505.557	1173.25
505.773	1144.25
505.99	1164.25
506.207	1117.25
506.423	1073.25
506.64	1061.25
506.856	1084.25
507.073	1057.25
507.289	1076.25
507.506	1033.25
507.722	1052.25
507.939	1024.25
508.155	1044.25
508.372	1047.25
508.588	1018.25
508.805	1015.25
509.021	988.25
509.238	1002.25
509.454	989.25
509.67	984.25
509.887	992.25
510.103	962.25
510.319	963.25
510.536	942.25
510.752	950.25
510.968	970.25
511.184	929.25
511.401	969.25
511.617	963.25
511.833	918.25
512.049	935.25
512.265	926.25
512.481	971.25
512.698	929.25
512.914	957.25
513.13	941.25
513.346	957.25
513.562	933.25
513.778	949.25
513.994	954.25
514.21	948.25
514.426	955.25
514.642	954.25
514.858	927.25
515.074	960.25
515.29	951.25
515.506	945.25
515.721	968.25
515.937	965.25
516.153	963.25
516.369	1000.25
516.585	981.25
516.801	997.25
517.016	1052.25
517.232	1033.25
517.448	1083.25
517.664	1036.25
517.879	1043.25
518.095	1050.25
518.311	1072.25
518.527	1008.25
518.742	983.25
518.958	1012.25
519.173	982.25
519.389	984.25
519.605	965.25
519.82	934.25
520.036	958.25
520.251	933.25
520.467	929.25
520.682	925.25
520.898	915.25
521.113	906.25
521.329	903.25
521.544	868.25
521.76	875.25
521.975	884.25
522.19	886.25
522.406	895.25
522.621	867.25
522.836	874.25
523.052	830.25
523.267	865.25
523.482	884.25
523.698	876.25
523.913	859.25
524.128	846.25
524.343	840.25
524.559	838.25
524.774	838.25
524.989	852.25
525.204	821.25
525.419	818.25
525.634	821.25
525.849	823.25
526.064	833.25
526.28	864.25
526.495	820.25
526.71	820.25
526.925	835.25
527.14	796.25
527.355	840.25
527.57	818.25
527.785	834.25
527.999	810.25
528.214	813.25
528.429	800.25
528.644	797.25
528.859	825.25
529.074	802.25
529.289	828.25
529.503	850.25
529.718	817.25
529.933	800.25
530.148	806.25
530.363	837.25
530.577	789.25
530.792	820.25
531.007	820.25
531.221	804.25
531.436	807.25
531.651	787.25
531.865	777.25
532.08	823.25
532.295	829.25
532.509	817.25
532.724	804.25
532.938	769.25
533.153	796.25
533.367	788.25
533.582	801.25
533.796	793.25
534.011	811.25
534.225	768.25
534.44	755.25
534.654	775.25
534.868	758.25
535.083	782.25
535.297	791.25
535.511	760.25
535.726	781.25
535.94	773.25
536.154	781.25
536.369	774.25
536.583	744.25
536.797	747.25
537.011	768.25
537.225	738.25
537.44	754.25
537.654	742.25
537.868	742.25
538.082	734.25
538.296	738.25
538.51	736.25
538.724	738.25
538.938	722.25
539.153	725.25
539.367	729.25
539.581	725.25
539.795	720.25
540.009	737.25
540.222	704.25
540.436	726.25
540.65	728.25
540.864	729.25
541.078	725.25
541.292	731.25
541.506	736.25
541.72	717.25
541.934	766.25
542.147	734.25
542.361	742.25
542.575	706.25
542.789	739.25
543.002	741.25
543.216	724.25
543.43	706.25
543.644	704.25
543.857	716.25
544.071	721.25
544.285	732.25
544.498	764.25
544.712	746.25
544.925	734.25
545.139	705.25
545.352	728.25
545.566	713.25
545.779	718.25
545.993	752.25
546.206	736.25
546.42	733.25
546.633	728.25
546.847	723.25
547.06	704.25
547.274	713.25
547.487	732.25
547.7	744.25
547.914	769.25
548.127	768.25
548.34	758.25
548.554	708.25
548.767	743.25
548.98	722.25
549.193	739.25
549.407	734.25
549.62	737.25
549.833	725.25
550.046	704.25
550.259	748.25
550.473	730.25
550.686	704.25
550.899	705.25
551.112	712.25
551.325	727.25
551.538	700.25
551.751	708.25
551.964	715.25
552.177	716.25
552.39	732.25
552.603	703.25
552.816	713.25
553.029	748.25
553.242	736.25
553.455	728.25
553.667	713.25
553.88	718.25
554.093	690.25
554.306	696.25
554.519	722.25
554.732	701.25
554.944	701.25
555.157	690.25
555.37	685.25
555.583	685.25
555.795	678.25
556.008	671.25
556.221	650.25
556.433	652.25
556.646	649.25
556.859	671.25
557.071	642.25
557.284	641.25
557.496	640.25
557.709	645.25
557.921	652.25
558.134	638.25
558.346	619.25
558.559	612.25
558.771	645.25
558.984	626.25
559.196	612.25
559.409	620.25
559.621	623.25
559.833	632.25
560.046	599.25
560.258	615.25
560.47	614.25
560.683	626.25
560.895	627.25
561.107	624.25
561.32	603.25
561.532	624.25
561.744	626.25
561.956	620.25
562.168	600.25
562.381	625.25
562.593	600.25
562.805	615.25
563.017	611.25
563.229	621.25
563.441	605.25
563.653	627.25
563.865	635.25
564.077	606.25
564.289	645.25
564.501	642.25
564.713	629.25
564.925	649.25
565.137	657.25
565.349	651.25
565.561	676.25
565.773	680.25
565.985	723.25
566.197	712.25
566.408	748.25
566.62	746.25
566.832	756.25
567.044	772.25
567.255	762.25
567.467	788.25
567.679	790.25
567.891	774.25
568.102	777.25
568.314	766.25
568.526	723.25
568.737	703.25
568.949	673.25
569.161	678.25
569.372	675.25
569.584	631.25
569.795	631.25
570.007	611.25
570.218	583.25
570.43	588.25
570.641	594.25
570.853	588.25
571.064	581.25
571.276	576.25
571.487	576.25
571.698	538.25
571.91	563.25
572.121	534.25
572.333	525.25
572.544	514.25
572.755	521.25
572.966	526.25
573.178	527.25
573.389	526.25
573.6	496.25
573.811	508.25
574.023	493.25
574.234	492.25
574.445	499.25
574.656	486.25
574.867	480.25
575.078	485.25
575.289	511.25
575.501	477.25
575.712	470.25
575.923	477.25
576.134	462.25
576.345	456.25
576.556	476.25
576.767	473.25
576.978	450.25
577.188	463.25
577.399	456.25
577.61	449.25
577.821	456.25
578.032	459.25
578.243	455.25
578.454	463.25
578.665	464.25
578.875	443.25
579.086	453.25
579.297	437.25
579.508	443.25
579.718	442.25
579.929	433.25
580.14	440.25
580.35	437.25
580.561	435.25
580.772	436.25
580.982	449.25
581.193	404.25
581.403	429.25
581.614	435.25
581.825	459.25
582.035	415.25
582.246	436.25
582.456	432.25
582.667	426.25
582.877	434.25
583.087	413.25
583.298	402.25
583.508	419.25
583.719	413.25
583.929	413.25
584.139	399.25
584.35	410.25
584.56	409.25
584.77	399.25
584.981	414.25
585.191	406.25
585.401	416.25
585.611	381.25
585.821	414.25
586.032	404.25
586.242	405.25
586.452	408.25
586.662	404.25
586.872	418.25
587.082	397.25
587.292	397.25
587.502	381.25
587.713	384.25
587.923	408.25
588.133	388.25
588.343	393.25
588.553	405.25
588.762	416.25
588.972	399.25
589.182	453.25
589.392	426.25
589.602	398.25
589.812	439.25
590.022	420.25
590.232	399.25
590.441	391.25
590.651	385.25
590.861	400.25
591.071	394.25
591.281	389.25
591.49	389.25
591.7	396.25
591.91	413.25
592.119	433.25
592.329	421.25
592.539	406.25
592.748	420.25
592.958	418.25
593.167	420.25
593.377	416.25
593.587	441.25
593.796	414.25
594.006	433.25
594.215	412.25
594.424	412.25
594.634	419.25
594.843	408.25
595.053	412.25
595.262	405.25
595.472	389.25
595.681	397.25
595.89	390.25
596.1	389.25
596.309	357.25
596.518	378.25
596.727	390.25
596.937	363.25
597.146	367.25
597.355	355.25
597.564	374.25
597.774	354.25
597.983	368.25
598.192	354.25
598.401	336.25
598.61	332.25
598.819	350.25
599.028	347.25
599.237	355.25
599.446	341.25
599.655	333.25
599.864	348.25
600.073	339.25
600.282	336.25
600.491	340.25
600.7	331.25
600.909	336.25
601.118	342.25
601.327	332.25
601.536	339.25
601.745	334.25
601.953	335.25
602.162	329.25
602.371	318.25
602.58	338.25
602.789	317.25
602.997	313.25
603.206	327.25
603.415	309.25
603.623	317.25
603.832	328.25
604.041	326.25
604.249	297.25
604.458	324.25
604.666	326.25
604.875	329.25
605.084	326.25
605.292	308.25
605.501	316.25
605.709	325.25
605.918	296.25
606.126	300.25
606.334	321.25
606.543	306.25
606.751	316.25
606.96	303.25
607.168	322.25
607.376	300.25
607.585	306.25
607.793	308.25
608.001	305.25
608.21	318.25
608.418	308.25
608.626	309.25
608.834	300.25
609.043	301.25
609.251	283.25
609.459	297.25
609.667	279.25
609.875	299.25
610.083	300.25
610.291	297.25
610.499	303.25
610.707	292.25
610.916	283.25
611.124	288.25
611.332	299.25
611.54	316.25
611.748	312.25
611.955	303.25
612.163	296.25
612.371	308.25
612.579	293.25
612.787	309.25
612.995	304.25
613.203	295.25
613.411	291.25
613.618	300.25
613.826	300.25
614.034	281.25
614.242	301.25
614.449	284.25
614.657	275.25
614.865	296.25
615.072	287.25
615.28	294.25
615.488	281.25
615.695	287.25
615.903	277.25
616.111	278.25
616.318	284.25
616.526	308.25
616.733	297.25
616.941	299.25
617.148	304.25
617.356	281.25
617.563	274.25
617.771	292.25
617.978	278.25
618.185	276.25
618.393	277.25
618.6	271.25
618.807	292.25
619.015	264.25
619.222	285.25
619.429	290.25
619.637	256.25
619.844	263.25
620.051	284.25
620.258	274.25
620.466	267.25
620.673	280.25
620.88	277.25
621.087	258.25
621.294	273.25
621.501	266.25
621.708	277.25
621.915	280.25
622.122	282.25
622.329	264.25
622.536	260.25
622.743	260.25
622.95	281.25
623.157	270.25
623.364	263.25
623.571	261.25
623.778	273.25
623.985	265.25
624.192	257.25
624.399	284.25
624.606	266.25
624.812	261.25
625.019	258.25
625.226	246.25
625.433	270.25
625.639	250.25
625.846	252.25
626.053	260.25
626.259	265.25
626.466	261.25
626.673	250.25
626.879	242.25
627.086	272.25
627.293	252.25
627.499	274.25
627.706	255.25
627.912	263.25
628.119	249.25
628.325	257.25
628.532	244.25
628.738	252.25
628.945	242.25
629.151	243.25
629.357	252.25
629.564	246.25
629.77	257.25
629.976	245.25
630.183	255.25
630.389	245.25
630.595	242.25
630.802	263.25
631.008	229.25
631.214	235.25
631.42	244.25
631.627	241.25
631.833	252.25
632.039	229.25
632.245	241.25
632.451	240.25
632.657	234.25
632.863	238.25
633.069	232.25
633.275	235.25
633.481	228.25
633.688	219.25
633.893	219.25
634.099	240.25
634.305	243.25
634.511	223.25
634.717	234.25
634.923	221.25
635.129	216.25
635.335	231.25
635.541	220.25
635.747	236.25
635.952	227.25
636.158	227.25
636.364	247.25
636.57	212.25
636.775	226.25
636.981	238.25
637.187	232.25
637.392	247.25
637.598	240.25
637.804	226.25
638.009	235.25
638.215	225.25
638.421	209.25
638.626	200.25
638.832	233.25
639.037	217.25
639.243	226.25
639.448	218.25
639.654	228.25
639.859	205.25
640.065	229.25
640.27	215.25
640.475	228.25
640.681	219.25
640.886	236.25
641.091	232.25
641.297	235.25
641.502	228.25
641.707	224.25
641.913	221.25
642.118	219.25
642.323	223.25
642.528	226.25
642.733	215.25
642.939	205.25
643.144	222.25
643.349	204.25
643.554	235.25
643.759	213.25
643.964	215.25
644.169	226.25
644.374	221.25
644.579	218.25
644.784	236.25
644.989	215.25
645.194	231.25
645.399	213.25
645.604	213.25
645.809	210.25
646.014	217.25
646.219	220.25
646.423	229.25
646.628	222.25
646.833	225.25
647.038	229.25
647.243	224.25
647.447	221.25
647.652	233.25
647.857	241.25
648.062	240.25
648.266	245.25
648.471	239.25
648.676	247.25
648.88	247.25
649.085	227.25
649.289	216.25
649.494	216.25
649.698	223.25
649.903	228.25
650.107	222.25
650.312	235.25
650.516	228.25
650.721	219.25
650.925	220.25
651.13	241.25
651.334	212.25
651.539	220.25
651.743	217.25
651.947	232.25
652.152	221.25
652.356	235.25
652.56	229.25
652.764	212.25
652.969	216.25
653.173	216.25
653.377	205.25
653.581	234.25
653.785	225.25
653.99	231.25
654.194	214.25
654.398	216.25
654.602	213.25
654.806	214.25
655.01	213.25
655.214	217.25
655.418	210.25
655.622	222.25
655.826	230.25
656.03	227.25
656.234	226.25
656.438	238.25
656.642	234.25
656.846	217.25
657.049	220.25
657.253	203.25
657.457	206.25
657.661	201.25
657.865	169.25
658.068	170.25
658.272	157.25
658.476	158.25
658.68	151.25
658.883	140.25
659.087	150.25
659.291	146.25
659.494	138.25
659.698	147.25
659.901	126.25
660.105	126.25
660.309	129.25
660.512	105.25
660.716	130.25
660.919	110.25
661.123	121.25
661.326	106.25
661.53	111.25
661.733	90.25
661.936	102.25
662.14	100.25
662.343	98.25
662.546	99.25
662.75	95.25
662.953	102.25
663.156	75.25
663.36	91.25
663.563	89.25
663.766	74.25
663.969	81.25
664.173	61.25
664.376	89.25
664.579	85.25
664.782	74.25
664.985	75.25
665.188	76.25
665.391	73.25
665.594	78.25
665.797	98.25
666	87.25
666.203	81.25
666.406	82.25
666.609	86.25
666.812	90.25
667.015	73.25
667.218	91.25
667.421	77.25
667.624	80.25
667.827	91.25
668.03	82.25
668.232	82.25
668.435	81.25
668.638	92.25
668.841	96.25
669.043	90.25
669.246	85.25
669.449	93.25
669.651	82.25
669.854	74.25
670.057	79.25
670.259	84.25
670.462	72.25
670.665	78.25
670.867	78.25
671.07	82.25
671.272	87.25
671.475	77.25
671.677	79.25
671.88	90.25
672.082	82.25
672.284	88.25
672.487	72.25
672.689	84.25
672.892	68.25
