Data from Ni(NO3)2@0.5M.TitratingCurve.Agarose3%dH2O.NegLispCup.LampEnergy10.LIBS07252019_HRD10591_17-59-06-564.txt Node
Date: Thu Jul 25 17:59:06 EDT 2019
User: cochatt
Spectrometer: HR+D1059
Trigger mode: 1
Integration Time (sec): 1.000000E-1
Scans to average: 1
Electric dark correction enabled: true
Nonlinearity correction enabled: false
Boxcar width: 0
XAxis mode: Wavelengths
Number of Pixels in Spectrum: 2048
>>>>>Begin Spectral Data<<<<<
223.165	-16.5
223.4	-16.5
223.635	-16.5
223.869	-16.5
224.104	-11.5
224.338	-22.5
224.573	-14.5
224.808	-14.5
225.042	9.5
225.277	-3.5
225.511	1.5
225.746	-6.5
225.98	10.5
226.215	1.5
226.449	19.5
226.683	15.5
226.918	29.5
227.152	18.5
227.387	31.5
227.621	24.5
227.856	51.5
228.09	46.5
228.324	61.5
228.559	48.5
228.793	65.5
229.027	116.5
229.262	141.5
229.496	138.5
229.73	161.5
229.964	176.5
230.199	218.5
230.433	218.5
230.667	197.5
230.901	194.5
231.136	169.5
231.37	159.5
231.604	182.5
231.838	233.5
232.072	230.5
232.306	204.5
232.541	179.5
232.775	178.5
233.009	168.5
233.243	173.5
233.477	154.5
233.711	161.5
233.945	173.5
234.179	181.5
234.413	172.5
234.647	187.5
234.881	180.5
235.115	186.5
235.349	180.5
235.583	159.5
235.817	166.5
236.051	161.5
236.285	169.5
236.519	159.5
236.753	184.5
236.987	159.5
237.221	181.5
237.455	176.5
237.689	198.5
237.922	193.5
238.156	183.5
238.39	169.5
238.624	159.5
238.858	188.5
239.091	191.5
239.325	208.5
239.559	211.5
239.793	215.5
240.027	223.5
240.26	195.5
240.494	197.5
240.728	195.5
240.961	194.5
241.195	192.5
241.429	198.5
241.662	206.5
241.896	248.5
242.13	235.5
242.363	220.5
242.597	220.5
242.83	211.5
243.064	225.5
243.298	198.5
243.531	220.5
243.765	229.5
243.998	230.5
244.232	224.5
244.465	245.5
244.699	228.5
244.932	231.5
245.166	214.5
245.399	226.5
245.633	208.5
245.866	231.5
246.099	237.5
246.333	223.5
246.566	234.5
246.8	243.5
247.033	250.5
247.266	257.5
247.5	255.5
247.733	243.5
247.966	262.5
248.2	259.5
248.433	261.5
248.666	254.5
248.899	251.5
249.133	272.5
249.366	270.5
249.599	281.5
249.832	276.5
250.066	285.5
250.299	275.5
250.532	274.5
250.765	282.5
250.998	291.5
251.231	326.5
251.465	338.5
251.698	312.5
251.931	275.5
252.164	295.5
252.397	280.5
252.63	299.5
252.863	285.5
253.096	293.5
253.329	279.5
253.562	303.5
253.795	291.5
254.028	300.5
254.261	324.5
254.494	298.5
254.727	324.5
254.96	324.5
255.193	298.5
255.426	314.5
255.659	323.5
255.892	324.5
256.124	336.5
256.357	320.5
256.59	308.5
256.823	318.5
257.056	338.5
257.289	317.5
257.521	334.5
257.754	318.5
257.987	339.5
258.22	352.5
258.452	344.5
258.685	327.5
258.918	335.5
259.151	345.5
259.383	339.5
259.616	354.5
259.849	372.5
260.081	371.5
260.314	356.5
260.547	340.5
260.779	356.5
261.012	361.5
261.244	360.5
261.477	370.5
261.71	372.5
261.942	373.5
262.175	392.5
262.407	371.5
262.64	357.5
262.872	403.5
263.105	379.5
263.337	387.5
263.57	396.5
263.802	372.5
264.035	394.5
264.267	380.5
264.499	386.5
264.732	364.5
264.964	399.5
265.197	381.5
265.429	378.5
265.661	412.5
265.894	407.5
266.126	407.5
266.358	409.5
266.591	412.5
266.823	420.5
267.055	393.5
267.287	407.5
267.52	395.5
267.752	416.5
267.984	408.5
268.216	417.5
268.448	424.5
268.681	416.5
268.913	450.5
269.145	423.5
269.377	412.5
269.609	455.5
269.841	440.5
270.073	427.5
270.306	433.5
270.538	427.5
270.77	431.5
271.002	435.5
271.234	420.5
271.466	457.5
271.698	443.5
271.93	437.5
272.162	441.5
272.394	453.5
272.626	452.5
272.858	442.5
273.09	450.5
273.322	450.5
273.553	472.5
273.785	462.5
274.017	469.5
274.249	456.5
274.481	476.5
274.713	460.5
274.945	485.5
275.176	459.5
275.408	471.5
275.64	471.5
275.872	461.5
276.104	486.5
276.335	480.5
276.567	491.5
276.799	485.5
277.031	482.5
277.262	489.5
277.494	489.5
277.726	488.5
277.957	500.5
278.189	511.5
278.421	488.5
278.652	487.5
278.884	507.5
279.115	502.5
279.347	504.5
279.579	521.5
279.81	501.5
280.042	494.5
280.273	517.5
280.505	513.5
280.736	522.5
280.968	498.5
281.199	509.5
281.431	533.5
281.662	537.5
281.894	519.5
282.125	513.5
282.356	531.5
282.588	527.5
282.819	506.5
283.051	521.5
283.282	537.5
283.513	548.5
283.745	529.5
283.976	538.5
284.207	543.5
284.439	548.5
284.67	554.5
284.901	539.5
285.132	535.5
285.364	542.5
285.595	544.5
285.826	552.5
286.057	554.5
286.288	559.5
286.52	548.5
286.751	563.5
286.982	573.5
287.213	555.5
287.444	555.5
287.675	580.5
287.906	578.5
288.138	560.5
288.369	571.5
288.6	572.5
288.831	575.5
289.062	591.5
289.293	548.5
289.524	568.5
289.755	581.5
289.986	577.5
290.217	583.5
290.448	566.5
290.679	564.5
290.91	579.5
291.141	559.5
291.371	601.5
291.602	589.5
291.833	581.5
292.064	580.5
292.295	596.5
292.526	584.5
292.757	584.5
292.987	571.5
293.218	563.5
293.449	571.5
293.68	587.5
293.91	555.5
294.141	595.5
294.372	572.5
294.603	616.5
294.833	582.5
295.064	605.5
295.295	579.5
295.525	583.5
295.756	603.5
295.987	608.5
296.217	605.5
296.448	620.5
296.679	596.5
296.909	608.5
297.14	605.5
297.37	620.5
297.601	607.5
297.831	611.5
298.062	635.5
298.292	645.5
298.523	652.5
298.753	633.5
298.984	629.5
299.214	599.5
299.445	620.5
299.675	633.5
299.905	631.5
300.136	649.5
300.366	667.5
300.597	656.5
300.827	667.5
301.057	688.5
301.288	650.5
301.518	683.5
301.748	649.5
301.979	675.5
302.209	651.5
302.439	654.5
302.669	698.5
302.9	670.5
303.13	663.5
303.36	680.5
303.59	676.5
303.82	666.5
304.051	692.5
304.281	658.5
304.511	676.5
304.741	710.5
304.971	679.5
305.201	684.5
305.431	732.5
305.661	708.5
305.891	699.5
306.121	679.5
306.352	671.5
306.582	646.5
306.812	664.5
307.042	692.5
307.272	688.5
307.502	697.5
307.731	682.5
307.961	699.5
308.191	654.5
308.421	672.5
308.651	693.5
308.881	687.5
309.111	688.5
309.341	676.5
309.571	699.5
309.8	712.5
310.03	713.5
310.26	758.5
310.49	737.5
310.72	720.5
310.949	697.5
311.179	720.5
311.409	681.5
311.639	722.5
311.868	717.5
312.098	702.5
312.328	729.5
312.557	717.5
312.787	719.5
313.017	730.5
313.246	736.5
313.476	759.5
313.706	752.5
313.935	753.5
314.165	741.5
314.394	730.5
314.624	745.5
314.853	727.5
315.083	744.5
315.312	742.5
315.542	732.5
315.771	738.5
316.001	747.5
316.23	721.5
316.46	768.5
316.689	732.5
316.919	770.5
317.148	777.5
317.377	756.5
317.607	769.5
317.836	762.5
318.065	736.5
318.295	754.5
318.524	773.5
318.753	751.5
318.983	763.5
319.212	775.5
319.441	793.5
319.67	784.5
319.9	764.5
320.129	772.5
320.358	769.5
320.587	775.5
320.816	789.5
321.046	780.5
321.275	785.5
321.504	782.5
321.733	801.5
321.962	780.5
322.191	807.5
322.42	808.5
322.649	806.5
322.878	793.5
323.108	788.5
323.337	795.5
323.566	826.5
323.795	839.5
324.024	810.5
324.253	830.5
324.482	827.5
324.71	810.5
324.939	828.5
325.168	829.5
325.397	828.5
325.626	831.5
325.855	810.5
326.084	823.5
326.313	809.5
326.542	828.5
326.77	854.5
326.999	818.5
327.228	852.5
327.457	813.5
327.686	848.5
327.914	851.5
328.143	857.5
328.372	884.5
328.6	832.5
328.829	853.5
329.058	850.5
329.287	848.5
329.515	843.5
329.744	863.5
329.972	847.5
330.201	885.5
330.43	863.5
330.658	882.5
330.887	879.5
331.115	895.5
331.344	868.5
331.572	895.5
331.801	906.5
332.03	901.5
332.258	917.5
332.486	910.5
332.715	956.5
332.943	931.5
333.172	888.5
333.4	932.5
333.629	929.5
333.857	947.5
334.085	960.5
334.314	963.5
334.542	982.5
334.771	982.5
334.999	983.5
335.227	964.5
335.455	985.5
335.684	959.5
335.912	975.5
336.14	960.5
336.369	1001.5
336.597	988.5
336.825	1013.5
337.053	997.5
337.281	996.5
337.51	965.5
337.738	984.5
337.966	979.5
338.194	973.5
338.422	1013.5
338.65	923.5
338.878	947.5
339.106	979.5
339.334	1033.5
339.562	974.5
339.79	925.5
340.018	954.5
340.246	961.5
340.474	914.5
340.702	922.5
340.93	905.5
341.158	935.5
341.386	985.5
341.614	1027.5
341.842	1001.5
342.07	909.5
342.298	947.5
342.526	945.5
342.754	928.5
342.981	920.5
343.209	946.5
343.437	997.5
343.665	979.5
343.893	989.5
344.12	989.5
344.348	995.5
344.576	1011.5
344.804	1005.5
345.031	977.5
345.259	964.5
345.487	972.5
345.714	963.5
345.942	996.5
346.17	1010.5
346.397	995.5
346.625	929.5
346.853	895.5
347.08	901.5
347.308	900.5
347.535	922.5
347.763	909.5
347.99	892.5
348.218	910.5
348.445	899.5
348.673	897.5
348.9	912.5
349.128	915.5
349.355	917.5
349.583	944.5
349.81	899.5
350.037	869.5
350.265	899.5
350.492	913.5
350.72	893.5
350.947	899.5
351.174	908.5
351.402	946.5
351.629	971.5
351.856	943.5
352.083	899.5
352.311	940.5
352.538	987.5
352.765	951.5
352.992	891.5
353.22	846.5
353.447	866.5
353.674	840.5
353.901	870.5
354.128	849.5
354.355	843.5
354.583	852.5
354.81	885.5
355.037	874.5
355.264	851.5
355.491	837.5
355.718	843.5
355.945	869.5
356.172	857.5
356.399	873.5
356.626	901.5
356.853	925.5
357.08	884.5
357.307	900.5
357.534	886.5
357.761	877.5
357.988	886.5
358.215	867.5
358.441	854.5
358.668	876.5
358.895	858.5
359.122	868.5
359.349	895.5
359.576	893.5
359.802	890.5
360.029	910.5
360.256	894.5
360.483	886.5
360.709	890.5
360.936	886.5
361.163	866.5
361.39	865.5
361.616	880.5
361.843	940.5
362.07	958.5
362.296	922.5
362.523	899.5
362.749	886.5
362.976	898.5
363.203	895.5
363.429	899.5
363.656	892.5
363.882	880.5
364.109	878.5
364.335	844.5
364.562	883.5
364.788	868.5
365.015	869.5
365.241	850.5
365.468	885.5
365.694	883.5
365.92	898.5
366.147	879.5
366.373	895.5
366.599	906.5
366.826	879.5
367.052	851.5
367.278	905.5
367.505	909.5
367.731	900.5
367.957	880.5
368.184	901.5
368.41	884.5
368.636	902.5
368.862	894.5
369.089	883.5
369.315	904.5
369.541	926.5
369.767	933.5
369.993	910.5
370.219	926.5
370.445	913.5
370.672	943.5
370.898	923.5
371.124	916.5
371.35	956.5
371.576	957.5
371.802	921.5
372.028	936.5
372.254	953.5
372.48	950.5
372.706	964.5
372.932	956.5
373.158	925.5
373.384	927.5
373.61	955.5
373.835	945.5
374.061	964.5
374.287	1000.5
374.513	945.5
374.739	955.5
374.965	992.5
375.191	942.5
375.416	982.5
375.642	973.5
375.868	971.5
376.094	960.5
376.319	921.5
376.545	963.5
376.771	951.5
376.997	943.5
377.222	956.5
377.448	925.5
377.674	919.5
377.899	944.5
378.125	927.5
378.35	935.5
378.576	921.5
378.802	924.5
379.027	930.5
379.253	923.5
379.478	937.5
379.704	917.5
379.929	933.5
380.155	908.5
380.38	917.5
380.606	937.5
380.831	923.5
381.057	940.5
381.282	921.5
381.507	955.5
381.733	955.5
381.958	960.5
382.184	945.5
382.409	936.5
382.634	943.5
382.86	949.5
383.085	982.5
383.31	987.5
383.535	981.5
383.761	985.5
383.986	997.5
384.211	993.5
384.436	976.5
384.662	1016.5
384.887	1012.5
385.112	1010.5
385.337	997.5
385.562	1043.5
385.787	1025.5
386.013	1051.5
386.238	1057.5
386.463	1045.5
386.688	1053.5
386.913	1037.5
387.138	1049.5
387.363	1043.5
387.588	1041.5
387.813	1022.5
388.038	1041.5
388.263	1025.5
388.488	1059.5
388.713	1070.5
388.938	1049.5
389.163	1071.5
389.387	1051.5
389.612	1062.5
389.837	1050.5
390.062	1028.5
390.287	1053.5
390.512	1050.5
390.736	1078.5
390.961	1058.5
391.186	1065.5
391.411	1072.5
391.636	1107.5
391.86	1103.5
392.085	1106.5
392.31	1093.5
392.534	1100.5
392.759	1101.5
392.984	1099.5
393.208	1091.5
393.433	1079.5
393.658	1072.5
393.882	1088.5
394.107	1133.5
394.331	1116.5
394.556	1107.5
394.78	1119.5
395.005	1111.5
395.229	1107.5
395.454	1094.5
395.678	1114.5
395.903	1116.5
396.127	1106.5
396.352	1132.5
396.576	1115.5
396.801	1139.5
397.025	1114.5
397.249	1160.5
397.474	1145.5
397.698	1177.5
397.922	1177.5
398.147	1170.5
398.371	1191.5
398.595	1204.5
398.82	1238.5
399.044	1248.5
399.268	1285.5
399.492	1322.5
399.717	1360.5
399.941	1428.5
400.165	1375.5
400.389	1341.5
400.613	1302.5
400.837	1273.5
401.062	1291.5
401.286	1248.5
401.51	1237.5
401.734	1231.5
401.958	1236.5
402.182	1224.5
402.406	1220.5
402.63	1239.5
402.854	1250.5
403.078	1228.5
403.302	1188.5
403.526	1232.5
403.75	1216.5
403.974	1259.5
404.198	1257.5
404.422	1255.5
404.645	1244.5
404.869	1230.5
405.093	1288.5
405.317	1264.5
405.541	1291.5
405.765	1272.5
405.988	1290.5
406.212	1288.5
406.436	1344.5
406.66	1320.5
406.883	1344.5
407.107	1352.5
407.331	1392.5
407.555	1432.5
407.778	1387.5
408.002	1412.5
408.226	1379.5
408.449	1415.5
408.673	1365.5
408.896	1357.5
409.12	1335.5
409.344	1323.5
409.567	1330.5
409.791	1329.5
410.014	1311.5
410.238	1292.5
410.461	1290.5
410.685	1282.5
410.908	1290.5
411.132	1318.5
411.355	1256.5
411.578	1279.5
411.802	1291.5
412.025	1260.5
412.249	1293.5
412.472	1299.5
412.695	1265.5
412.919	1265.5
413.142	1236.5
413.365	1260.5
413.589	1243.5
413.812	1217.5
414.035	1245.5
414.258	1236.5
414.482	1246.5
414.705	1239.5
414.928	1244.5
415.151	1244.5
415.374	1235.5
415.597	1237.5
415.821	1191.5
416.044	1205.5
416.267	1175.5
416.49	1189.5
416.713	1199.5
416.936	1186.5
417.159	1201.5
417.382	1171.5
417.605	1178.5
417.828	1177.5
418.051	1197.5
418.274	1191.5
418.497	1207.5
418.72	1197.5
418.943	1188.5
419.166	1263.5
419.389	1335.5
419.611	1303.5
419.834	1235.5
420.057	1211.5
420.28	1207.5
420.503	1167.5
420.726	1188.5
420.948	1190.5
421.171	1159.5
421.394	1142.5
421.617	1132.5
421.839	1125.5
422.062	1196.5
422.285	1156.5
422.507	1175.5
422.73	1159.5
422.953	1210.5
423.175	1167.5
423.398	1182.5
423.621	1182.5
423.843	1188.5
424.066	1202.5
424.288	1194.5
424.511	1186.5
424.733	1147.5
424.956	1152.5
425.178	1158.5
425.401	1172.5
425.623	1190.5
425.846	1197.5
426.068	1153.5
426.291	1175.5
426.513	1163.5
426.735	1179.5
426.958	1169.5
427.18	1129.5
427.402	1100.5
427.625	1167.5
427.847	1143.5
428.069	1139.5
428.292	1170.5
428.514	1120.5
428.736	1127.5
428.958	1134.5
429.181	1131.5
429.403	1132.5
429.625	1135.5
429.847	1123.5
430.069	1109.5
430.292	1171.5
430.514	1121.5
430.736	1134.5
430.958	1157.5
431.18	1151.5
431.402	1135.5
431.624	1133.5
431.846	1122.5
432.068	1109.5
432.29	1172.5
432.512	1193.5
432.734	1137.5
432.956	1171.5
433.178	1183.5
433.4	1199.5
433.622	1170.5
433.844	1207.5
434.066	1154.5
434.287	1209.5
434.509	1181.5
434.731	1174.5
434.953	1199.5
435.175	1236.5
435.397	1237.5
435.618	1186.5
435.84	1185.5
436.062	1157.5
436.284	1179.5
436.505	1155.5
436.727	1143.5
436.949	1149.5
437.17	1185.5
437.392	1167.5
437.614	1139.5
437.835	1135.5
438.057	1119.5
438.278	1091.5
438.5	1100.5
438.721	1109.5
438.943	1132.5
439.165	1125.5
439.386	1142.5
439.608	1111.5
439.829	1127.5
440.05	1117.5
440.272	1136.5
440.493	1159.5
440.715	1202.5
440.936	1164.5
441.158	1162.5
441.379	1204.5
441.6	1204.5
441.822	1219.5
442.043	1201.5
442.264	1209.5
442.486	1217.5
442.707	1185.5
442.928	1172.5
443.149	1239.5
443.371	1235.5
443.592	1286.5
443.813	1264.5
444.034	1194.5
444.255	1226.5
444.476	1227.5
444.698	1275.5
444.919	1294.5
445.14	1393.5
445.361	1333.5
445.582	1235.5
445.803	1228.5
446.024	1157.5
446.245	1166.5
446.466	1159.5
446.687	1152.5
446.908	1165.5
447.129	1125.5
447.35	1115.5
447.571	1100.5
447.792	1089.5
448.013	1077.5
448.234	1068.5
448.455	1086.5
448.675	1088.5
448.896	1074.5
449.117	1041.5
449.338	1055.5
449.559	1033.5
449.779	1044.5
450	1040.5
450.221	1056.5
450.442	1049.5
450.662	1054.5
450.883	1069.5
451.104	1096.5
451.324	1065.5
451.545	1043.5
451.766	1057.5
451.986	1013.5
452.207	1015.5
452.428	1012.5
452.648	1012.5
452.869	1015.5
453.089	1016.5
453.31	1064.5
453.53	1005.5
453.751	1023.5
453.971	1033.5
454.192	1027.5
454.412	1088.5
454.633	1029.5
454.853	1001.5
455.073	1021.5
455.294	1063.5
455.514	1045.5
455.734	1089.5
455.955	1058.5
456.175	1074.5
456.395	1001.5
456.616	1023.5
456.836	1008.5
457.056	999.5
457.276	992.5
457.497	1058.5
457.717	1045.5
457.937	1078.5
458.157	1043.5
458.377	1061.5
458.598	1037.5
458.818	1043.5
459.038	1062.5
459.258	1119.5
459.478	1205.5
459.698	1307.5
459.918	1261.5
460.138	1279.5
460.358	1212.5
460.578	1229.5
460.798	1268.5
461.018	1324.5
461.238	1245.5
461.458	1201.5
461.678	1223.5
461.898	1263.5
462.118	1228.5
462.338	1283.5
462.558	1307.5
462.777	1370.5
462.997	1426.5
463.217	1430.5
463.437	1450.5
463.657	1450.5
463.876	1386.5
464.096	1319.5
464.316	1335.5
464.536	1329.5
464.755	1305.5
464.975	1252.5
465.195	1239.5
465.414	1237.5
465.634	1177.5
465.854	1178.5
466.073	1161.5
466.293	1128.5
466.512	1104.5
466.732	1120.5
466.951	1151.5
467.171	1139.5
467.391	1145.5
467.61	1101.5
467.829	1069.5
468.049	1097.5
468.268	1077.5
468.488	1075.5
468.707	1090.5
468.927	1112.5
469.146	1107.5
469.365	1122.5
469.585	1106.5
469.804	1117.5
470.023	1104.5
470.243	1085.5
470.462	1106.5
470.681	1122.5
470.901	1127.5
471.12	1101.5
471.339	1107.5
471.558	1134.5
471.777	1139.5
471.997	1122.5
472.216	1119.5
472.435	1074.5
472.654	1088.5
472.873	1068.5
473.092	1065.5
473.311	1088.5
473.53	1090.5
473.749	1119.5
473.968	1077.5
474.187	1105.5
474.406	1103.5
474.625	1145.5
474.844	1144.5
475.063	1113.5
475.282	1159.5
475.501	1137.5
475.72	1099.5
475.939	1125.5
476.158	1159.5
476.377	1145.5
476.596	1158.5
476.814	1155.5
477.033	1173.5
477.252	1195.5
477.471	1212.5
477.69	1194.5
477.908	1224.5
478.127	1233.5
478.346	1209.5
478.564	1250.5
478.783	1275.5
479.002	1316.5
479.22	1343.5
479.439	1323.5
479.658	1305.5
479.876	1275.5
480.095	1291.5
480.313	1299.5
480.532	1319.5
480.751	1333.5
480.969	1327.5
481.188	1303.5
481.406	1294.5
481.624	1282.5
481.843	1298.5
482.061	1260.5
482.28	1300.5
482.498	1307.5
482.717	1289.5
482.935	1337.5
483.153	1339.5
483.372	1364.5
483.59	1391.5
483.808	1364.5
484.027	1308.5
484.245	1305.5
484.463	1319.5
484.681	1315.5
484.9	1353.5
485.118	1338.5
485.336	1314.5
485.554	1340.5
485.772	1305.5
485.99	1300.5
486.209	1319.5
486.427	1324.5
486.645	1344.5
486.863	1348.5
487.081	1337.5
487.299	1281.5
487.517	1332.5
487.735	1381.5
487.953	1371.5
488.171	1360.5
488.389	1354.5
488.607	1340.5
488.825	1327.5
489.043	1319.5
489.261	1314.5
489.479	1343.5
489.696	1312.5
489.914	1336.5
490.132	1361.5
490.35	1361.5
490.568	1382.5
490.786	1341.5
491.003	1332.5
491.221	1363.5
491.439	1367.5
491.657	1386.5
491.874	1371.5
492.092	1406.5
492.31	1367.5
492.527	1373.5
492.745	1384.5
492.963	1348.5
493.18	1375.5
493.398	1361.5
493.615	1409.5
493.833	1395.5
494.05	1420.5
494.268	1426.5
494.485	1404.5
494.703	1409.5
494.92	1426.5
495.138	1428.5
495.355	1408.5
495.573	1420.5
495.79	1459.5
496.008	1440.5
496.225	1447.5
496.442	1437.5
496.66	1464.5
496.877	1455.5
497.094	1468.5
497.312	1477.5
497.529	1507.5
497.746	1534.5
497.963	1557.5
498.181	1613.5
498.398	1620.5
498.615	1690.5
498.832	1746.5
499.049	1795.5
499.267	1849.5
499.484	1896.5
499.701	1977.5
499.918	2066.5
500.135	2141.5
500.352	2227.5
500.569	2263.5
500.786	2271.5
501.003	2226.5
501.22	2166.5
501.437	2076.5
501.654	1949.5
501.871	1910.5
502.088	1869.5
502.305	1790.5
502.522	1797.5
502.739	1698.5
502.956	1633.5
503.172	1577.5
503.389	1526.5
503.606	1548.5
503.823	1499.5
504.04	1520.5
504.256	1479.5
504.473	1454.5
504.69	1445.5
504.907	1427.5
505.123	1399.5
505.34	1368.5
505.557	1361.5
505.773	1354.5
505.99	1309.5
506.207	1280.5
506.423	1337.5
506.64	1269.5
506.856	1252.5
507.073	1234.5
507.289	1239.5
507.506	1255.5
507.722	1211.5
507.939	1235.5
508.155	1218.5
508.372	1197.5
508.588	1186.5
508.805	1181.5
509.021	1149.5
509.238	1159.5
509.454	1161.5
509.67	1170.5
509.887	1175.5
510.103	1153.5
510.319	1092.5
510.536	1137.5
510.752	1103.5
510.968	1159.5
511.184	1139.5
511.401	1145.5
511.617	1102.5
511.833	1147.5
512.049	1088.5
512.265	1105.5
512.481	1099.5
512.698	1109.5
512.914	1099.5
513.13	1099.5
513.346	1106.5
513.562	1103.5
513.778	1106.5
513.994	1107.5
514.21	1132.5
514.426	1111.5
514.642	1121.5
514.858	1131.5
515.074	1114.5
515.29	1148.5
515.506	1159.5
515.721	1142.5
515.937	1128.5
516.153	1148.5
516.369	1168.5
516.585	1168.5
516.801	1218.5
517.016	1182.5
517.232	1219.5
517.448	1210.5
517.664	1224.5
517.879	1217.5
518.095	1209.5
518.311	1220.5
518.527	1212.5
518.742	1159.5
518.958	1163.5
519.173	1155.5
519.389	1179.5
519.605	1113.5
519.82	1110.5
520.036	1109.5
520.251	1104.5
520.467	1114.5
520.682	1096.5
520.898	1094.5
521.113	1072.5
521.329	1043.5
521.544	1061.5
521.76	1046.5
521.975	1031.5
522.19	1029.5
522.406	1013.5
522.621	1030.5
522.836	1013.5
523.052	993.5
523.267	1029.5
523.482	1017.5
523.698	1020.5
523.913	997.5
524.128	1048.5
524.343	1009.5
524.559	1011.5
524.774	1013.5
524.989	1032.5
525.204	999.5
525.419	1003.5
525.634	1006.5
525.849	999.5
526.064	998.5
526.28	953.5
526.495	968.5
526.71	1001.5
526.925	967.5
527.14	964.5
527.355	998.5
527.57	964.5
527.785	961.5
527.999	965.5
528.214	968.5
528.429	974.5
528.644	976.5
528.859	960.5
529.074	953.5
529.289	947.5
529.503	956.5
529.718	998.5
529.933	951.5
530.148	961.5
530.363	934.5
530.577	978.5
530.792	940.5
531.007	961.5
531.221	952.5
531.436	937.5
531.651	924.5
531.865	965.5
532.08	928.5
532.295	944.5
532.509	948.5
532.724	939.5
532.938	935.5
533.153	948.5
533.367	976.5
533.582	919.5
533.796	944.5
534.011	936.5
534.225	913.5
534.44	893.5
534.654	938.5
534.868	909.5
535.083	924.5
535.297	932.5
535.511	915.5
535.726	921.5
535.94	906.5
536.154	909.5
536.369	892.5
536.583	898.5
536.797	902.5
537.011	908.5
537.225	894.5
537.44	896.5
537.654	879.5
537.868	900.5
538.082	876.5
538.296	857.5
538.51	884.5
538.724	893.5
538.938	875.5
539.153	860.5
539.367	872.5
539.581	851.5
539.795	856.5
540.009	871.5
540.222	902.5
540.436	849.5
540.65	837.5
540.864	849.5
541.078	817.5
541.292	869.5
541.506	866.5
541.72	868.5
541.934	869.5
542.147	856.5
542.361	875.5
542.575	858.5
542.789	854.5
543.002	837.5
543.216	835.5
543.43	832.5
543.644	840.5
543.857	850.5
544.071	844.5
544.285	871.5
544.498	858.5
544.712	883.5
544.925	853.5
545.139	857.5
545.352	872.5
545.566	854.5
545.779	884.5
545.993	848.5
546.206	877.5
546.42	865.5
546.633	873.5
546.847	865.5
547.06	828.5
547.274	850.5
547.487	853.5
547.7	873.5
547.914	869.5
548.127	855.5
548.34	845.5
548.554	849.5
548.767	817.5
548.98	848.5
549.193	853.5
549.407	811.5
549.62	835.5
549.833	840.5
550.046	833.5
550.259	832.5
550.473	816.5
550.686	842.5
550.899	810.5
551.112	818.5
551.325	833.5
551.538	849.5
551.751	835.5
551.964	853.5
552.177	857.5
552.39	847.5
552.603	860.5
552.816	841.5
553.029	855.5
553.242	823.5
553.455	845.5
553.667	839.5
553.88	838.5
554.093	821.5
554.306	805.5
554.519	807.5
554.732	812.5
554.944	796.5
555.157	817.5
555.37	770.5
555.583	800.5
555.795	754.5
556.008	783.5
556.221	757.5
556.433	754.5
556.646	740.5
556.859	737.5
557.071	738.5
557.284	723.5
557.496	739.5
557.709	737.5
557.921	756.5
558.134	741.5
558.346	725.5
558.559	725.5
558.771	724.5
558.984	742.5
559.196	730.5
559.409	730.5
559.621	714.5
559.833	700.5
560.046	705.5
560.258	703.5
560.47	717.5
560.683	736.5
560.895	729.5
561.107	696.5
561.32	712.5
561.532	715.5
561.744	718.5
561.956	692.5
562.168	721.5
562.381	707.5
562.593	703.5
562.805	729.5
563.017	709.5
563.229	731.5
563.441	712.5
563.653	732.5
563.865	692.5
564.077	723.5
564.289	734.5
564.501	744.5
564.713	751.5
564.925	746.5
565.137	732.5
565.349	747.5
565.561	761.5
565.773	793.5
565.985	809.5
566.197	810.5
566.408	814.5
566.62	833.5
566.832	871.5
567.044	864.5
567.255	872.5
567.467	881.5
567.679	860.5
567.891	890.5
568.102	882.5
568.314	848.5
568.526	817.5
568.737	810.5
568.949	782.5
569.161	769.5
569.372	745.5
569.584	710.5
569.795	723.5
570.007	728.5
570.218	699.5
570.43	702.5
570.641	679.5
570.853	671.5
571.064	663.5
571.276	660.5
571.487	654.5
571.698	647.5
571.91	626.5
572.121	617.5
572.333	618.5
572.544	647.5
572.755	581.5
572.966	603.5
573.178	584.5
573.389	613.5
573.6	583.5
573.811	589.5
574.023	585.5
574.234	593.5
574.445	588.5
574.656	579.5
574.867	590.5
575.078	565.5
575.289	571.5
575.501	565.5
575.712	560.5
575.923	549.5
576.134	556.5
576.345	552.5
576.556	552.5
576.767	543.5
576.978	540.5
577.188	521.5
577.399	543.5
577.61	548.5
577.821	532.5
578.032	525.5
578.243	547.5
578.454	533.5
578.665	530.5
578.875	546.5
579.086	530.5
579.297	515.5
579.508	524.5
579.718	526.5
579.929	512.5
580.14	515.5
580.35	509.5
580.561	519.5
580.772	496.5
580.982	487.5
581.193	488.5
581.403	499.5
581.614	504.5
581.825	482.5
582.035	495.5
582.246	510.5
582.456	496.5
582.667	477.5
582.877	485.5
583.087	483.5
583.298	473.5
583.508	481.5
583.719	473.5
583.929	484.5
584.139	474.5
584.35	475.5
584.56	474.5
584.77	472.5
584.981	482.5
585.191	504.5
585.401	478.5
585.611	469.5
585.821	470.5
586.032	471.5
586.242	492.5
586.452	469.5
586.662	456.5
586.872	453.5
587.082	468.5
587.292	451.5
587.502	460.5
587.713	461.5
587.923	475.5
588.133	443.5
588.343	477.5
588.553	463.5
588.762	459.5
588.972	473.5
589.182	513.5
589.392	489.5
589.602	459.5
589.812	503.5
590.022	463.5
590.232	467.5
590.441	458.5
590.651	469.5
590.861	476.5
591.071	482.5
591.281	480.5
591.49	474.5
591.7	470.5
591.91	476.5
592.119	464.5
592.329	456.5
592.539	481.5
592.748	458.5
592.958	456.5
593.167	469.5
593.377	491.5
593.587	479.5
593.796	461.5
594.006	477.5
594.215	475.5
594.424	465.5
594.634	450.5
594.843	458.5
595.053	469.5
595.262	475.5
595.472	425.5
595.681	436.5
595.89	457.5
596.1	439.5
596.309	419.5
596.518	419.5
596.727	410.5
596.937	420.5
597.146	427.5
597.355	404.5
597.564	416.5
597.774	429.5
597.983	393.5
598.192	408.5
598.401	405.5
598.61	401.5
598.819	407.5
599.028	406.5
599.237	411.5
599.446	386.5
599.655	387.5
599.864	375.5
600.073	376.5
600.282	374.5
600.491	377.5
600.7	396.5
600.909	401.5
601.118	395.5
601.327	381.5
601.536	380.5
601.745	377.5
601.953	372.5
602.162	384.5
602.371	356.5
602.58	377.5
602.789	369.5
602.997	394.5
603.206	384.5
603.415	355.5
603.623	372.5
603.832	344.5
604.041	379.5
604.249	371.5
604.458	361.5
604.666	364.5
604.875	361.5
605.084	344.5
605.292	367.5
605.501	374.5
605.709	351.5
605.918	353.5
606.126	369.5
606.334	370.5
606.543	371.5
606.751	343.5
606.96	351.5
607.168	350.5
607.376	372.5
607.585	365.5
607.793	353.5
608.001	362.5
608.21	338.5
608.418	341.5
608.626	364.5
608.834	357.5
609.043	362.5
609.251	365.5
609.459	348.5
609.667	347.5
609.875	356.5
610.083	347.5
610.291	345.5
610.499	340.5
610.707	343.5
610.916	354.5
611.124	355.5
611.332	356.5
611.54	354.5
611.748	332.5
611.955	342.5
612.163	323.5
612.371	327.5
612.579	328.5
612.787	339.5
612.995	328.5
613.203	325.5
613.411	332.5
613.618	331.5
613.826	324.5
614.034	333.5
614.242	339.5
614.449	339.5
614.657	328.5
614.865	323.5
615.072	329.5
615.28	332.5
615.488	340.5
615.695	332.5
615.903	351.5
616.111	345.5
616.318	338.5
616.526	334.5
616.733	327.5
616.941	327.5
617.148	322.5
617.356	320.5
617.563	318.5
617.771	323.5
617.978	335.5
618.185	341.5
618.393	310.5
618.6	332.5
618.807	331.5
619.015	322.5
619.222	316.5
619.429	325.5
619.637	302.5
619.844	319.5
620.051	297.5
620.258	325.5
620.466	319.5
620.673	304.5
620.88	291.5
621.087	317.5
621.294	291.5
621.501	297.5
621.708	322.5
621.915	305.5
622.122	298.5
622.329	305.5
622.536	292.5
622.743	299.5
622.95	313.5
623.157	303.5
623.364	293.5
623.571	297.5
623.778	304.5
623.985	313.5
624.192	311.5
624.399	305.5
624.606	293.5
624.812	293.5
625.019	318.5
625.226	291.5
625.433	282.5
625.639	284.5
625.846	290.5
626.053	292.5
626.259	302.5
626.466	288.5
626.673	281.5
626.879	298.5
627.086	287.5
627.293	283.5
627.499	295.5
627.706	295.5
627.912	283.5
628.119	282.5
628.325	264.5
628.532	276.5
628.738	283.5
628.945	282.5
629.151	292.5
629.357	266.5
629.564	270.5
629.77	278.5
629.976	269.5
630.183	263.5
630.389	276.5
630.595	280.5
630.802	279.5
631.008	290.5
631.214	265.5
631.42	270.5
631.627	272.5
631.833	259.5
632.039	277.5
632.245	263.5
632.451	284.5
632.657	284.5
632.863	259.5
633.069	259.5
633.275	258.5
633.481	260.5
633.688	289.5
633.893	256.5
634.099	235.5
634.305	259.5
634.511	255.5
634.717	253.5
634.923	267.5
635.129	260.5
635.335	236.5
635.541	246.5
635.747	267.5
635.952	259.5
636.158	252.5
636.364	263.5
636.57	248.5
636.775	253.5
636.981	236.5
637.187	237.5
637.392	268.5
637.598	262.5
637.804	250.5
638.009	251.5
638.215	245.5
638.421	261.5
638.626	252.5
638.832	253.5
639.037	224.5
639.243	251.5
639.448	239.5
639.654	268.5
639.859	242.5
640.065	225.5
640.27	255.5
640.475	248.5
640.681	247.5
640.886	240.5
641.091	235.5
641.297	262.5
641.502	236.5
641.707	238.5
641.913	240.5
642.118	233.5
642.323	237.5
642.528	244.5
642.733	244.5
642.939	259.5
643.144	239.5
643.349	247.5
643.554	248.5
643.759	246.5
643.964	243.5
644.169	261.5
644.374	231.5
644.579	233.5
644.784	251.5
644.989	243.5
645.194	241.5
645.399	252.5
645.604	243.5
645.809	249.5
646.014	228.5
646.219	239.5
646.423	264.5
646.628	266.5
646.833	239.5
647.038	240.5
647.243	250.5
647.447	256.5
647.652	273.5
647.857	240.5
648.062	259.5
648.266	260.5
648.471	264.5
648.676	267.5
648.88	257.5
649.085	248.5
649.289	256.5
649.494	234.5
649.698	226.5
649.903	271.5
650.107	253.5
650.312	254.5
650.516	255.5
650.721	240.5
650.925	235.5
651.13	231.5
651.334	237.5
651.539	245.5
651.743	245.5
651.947	242.5
652.152	242.5
652.356	234.5
652.56	221.5
652.764	236.5
652.969	258.5
653.173	243.5
653.377	223.5
653.581	229.5
653.785	230.5
653.99	228.5
654.194	239.5
654.398	225.5
654.602	219.5
654.806	236.5
655.01	248.5
655.214	251.5
655.418	244.5
655.622	231.5
655.826	229.5
656.03	235.5
656.234	244.5
656.438	243.5
656.642	227.5
656.846	223.5
657.049	222.5
657.253	215.5
657.457	214.5
657.661	187.5
657.865	185.5
658.068	160.5
658.272	168.5
658.476	161.5
658.68	164.5
658.883	155.5
659.087	163.5
659.291	145.5
659.494	133.5
659.698	126.5
659.901	133.5
660.105	113.5
660.309	127.5
660.512	115.5
660.716	101.5
660.919	123.5
661.123	111.5
661.326	115.5
661.53	101.5
661.733	93.5
661.936	100.5
662.14	115.5
662.343	113.5
662.546	91.5
662.75	105.5
662.953	95.5
663.156	90.5
663.36	87.5
663.563	87.5
663.766	93.5
663.969	89.5
664.173	88.5
664.376	73.5
664.579	85.5
664.782	92.5
664.985	88.5
665.188	82.5
665.391	77.5
665.594	90.5
665.797	69.5
666	82.5
666.203	69.5
666.406	73.5
666.609	78.5
666.812	97.5
667.015	82.5
667.218	80.5
667.421	79.5
667.624	75.5
667.827	80.5
668.03	77.5
668.232	73.5
668.435	80.5
668.638	77.5
668.841	83.5
669.043	79.5
669.246	93.5
669.449	88.5
669.651	84.5
669.854	100.5
670.057	90.5
670.259	75.5
670.462	75.5
670.665	76.5
670.867	71.5
671.07	82.5
671.272	85.5
671.475	84.5
671.677	74.5
671.88	84.5
672.082	87.5
672.284	80.5
672.487	82.5
672.689	75.5
672.892	73.5
