Data from Ni(NO3)2@0.0625M.TitratingCurve.Agarose3%dH2O.NegLispCup.LampEnergy10.LIBS07252019_HRD10591_18-15-46-570.txt Node
Date: Thu Jul 25 18:15:46 EDT 2019
User: cochatt
Spectrometer: HR+D1059
Trigger mode: 1
Integration Time (sec): 1.000000E-1
Scans to average: 1
Electric dark correction enabled: true
Nonlinearity correction enabled: false
Boxcar width: 0
XAxis mode: Wavelengths
Number of Pixels in Spectrum: 2048
>>>>>Begin Spectral Data<<<<<
223.165	-12.06
223.4	-12.06
223.635	-12.06
223.869	-5.06
224.104	-14.06
224.338	-25.06
224.573	-14.06
224.808	-5.06
225.042	-9.06
225.277	-8.06
225.511	2.94
225.746	3.94
225.98	23.94
226.215	11.94
226.449	5.94
226.683	8.94
226.918	22.94
227.152	11.94
227.387	33.94
227.621	31.94
227.856	49.94
228.09	51.94
228.324	58.94
228.559	55.94
228.793	58.94
229.027	99.94
229.262	103.94
229.496	124.94
229.73	119.94
229.964	116.94
230.199	118.94
230.433	113.94
230.667	118.94
230.901	132.94
231.136	129.94
231.37	114.94
231.604	119.94
231.838	133.94
232.072	137.94
232.306	146.94
232.541	129.94
232.775	126.94
233.009	139.94
233.243	135.94
233.477	133.94
233.711	139.94
233.945	131.94
234.179	143.94
234.413	148.94
234.647	152.94
234.881	133.94
235.115	161.94
235.349	144.94
235.583	131.94
235.817	132.94
236.051	153.94
236.285	153.94
236.519	150.94
236.753	148.94
236.987	129.94
237.221	150.94
237.455	152.94
237.689	148.94
237.922	150.94
238.156	143.94
238.39	145.94
238.624	149.94
238.858	168.94
239.091	150.94
239.325	142.94
239.559	165.94
239.793	157.94
240.027	166.94
240.26	157.94
240.494	165.94
240.728	163.94
240.961	169.94
241.195	167.94
241.429	177.94
241.662	187.94
241.896	167.94
242.13	180.94
242.363	175.94
242.597	168.94
242.83	159.94
243.064	176.94
243.298	167.94
243.531	177.94
243.765	185.94
243.998	181.94
244.232	180.94
244.465	174.94
244.699	200.94
244.932	202.94
245.166	204.94
245.399	190.94
245.633	190.94
245.866	197.94
246.099	199.94
246.333	196.94
246.566	205.94
246.8	190.94
247.033	204.94
247.266	206.94
247.5	209.94
247.733	206.94
247.966	201.94
248.2	188.94
248.433	196.94
248.666	221.94
248.899	206.94
249.133	204.94
249.366	212.94
249.599	198.94
249.832	217.94
250.066	210.94
250.299	234.94
250.532	213.94
250.765	217.94
250.998	223.94
251.231	204.94
251.465	224.94
251.698	235.94
251.931	239.94
252.164	239.94
252.397	222.94
252.63	236.94
252.863	229.94
253.096	247.94
253.329	224.94
253.562	218.94
253.795	231.94
254.028	242.94
254.261	233.94
254.494	254.94
254.727	244.94
254.96	249.94
255.193	244.94
255.426	222.94
255.659	244.94
255.892	240.94
256.124	259.94
256.357	250.94
256.59	256.94
256.823	235.94
257.056	237.94
257.289	256.94
257.521	243.94
257.754	249.94
257.987	251.94
258.22	242.94
258.452	263.94
258.685	260.94
258.918	270.94
259.151	270.94
259.383	266.94
259.616	256.94
259.849	261.94
260.081	265.94
260.314	279.94
260.547	270.94
260.779	266.94
261.012	275.94
261.244	278.94
261.477	285.94
261.71	290.94
261.942	297.94
262.175	292.94
262.407	271.94
262.64	289.94
262.872	271.94
263.105	296.94
263.337	287.94
263.57	287.94
263.802	299.94
264.035	298.94
264.267	289.94
264.499	287.94
264.732	295.94
264.964	311.94
265.197	306.94
265.429	313.94
265.661	296.94
265.894	315.94
266.126	309.94
266.358	321.94
266.591	307.94
266.823	325.94
267.055	300.94
267.287	300.94
267.52	325.94
267.752	329.94
267.984	323.94
268.216	308.94
268.448	311.94
268.681	321.94
268.913	322.94
269.145	314.94
269.377	305.94
269.609	319.94
269.841	329.94
270.073	328.94
270.306	332.94
270.538	323.94
270.77	329.94
271.002	341.94
271.234	345.94
271.466	317.94
271.698	348.94
271.93	348.94
272.162	351.94
272.394	323.94
272.626	335.94
272.858	335.94
273.09	340.94
273.322	344.94
273.553	341.94
273.785	347.94
274.017	363.94
274.249	351.94
274.481	358.94
274.713	353.94
274.945	330.94
275.176	350.94
275.408	350.94
275.64	361.94
275.872	345.94
276.104	377.94
276.335	357.94
276.567	364.94
276.799	350.94
277.031	371.94
277.262	355.94
277.494	374.94
277.726	383.94
277.957	370.94
278.189	377.94
278.421	370.94
278.652	396.94
278.884	383.94
279.115	366.94
279.347	373.94
279.579	383.94
279.81	391.94
280.042	376.94
280.273	380.94
280.505	389.94
280.736	389.94
280.968	401.94
281.199	388.94
281.431	388.94
281.662	393.94
281.894	392.94
282.125	389.94
282.356	411.94
282.588	393.94
282.819	406.94
283.051	390.94
283.282	389.94
283.513	406.94
283.745	427.94
283.976	414.94
284.207	422.94
284.439	417.94
284.67	398.94
284.901	421.94
285.132	438.94
285.364	416.94
285.595	428.94
285.826	437.94
286.057	423.94
286.288	429.94
286.52	422.94
286.751	395.94
286.982	426.94
287.213	411.94
287.444	418.94
287.675	402.94
287.906	435.94
288.138	437.94
288.369	450.94
288.6	445.94
288.831	451.94
289.062	437.94
289.293	437.94
289.524	435.94
289.755	449.94
289.986	448.94
290.217	453.94
290.448	445.94
290.679	457.94
290.91	449.94
291.141	457.94
291.371	465.94
291.602	429.94
291.833	467.94
292.064	473.94
292.295	451.94
292.526	448.94
292.757	474.94
292.987	441.94
293.218	435.94
293.449	449.94
293.68	449.94
293.91	456.94
294.141	456.94
294.372	450.94
294.603	453.94
294.833	458.94
295.064	460.94
295.295	457.94
295.525	472.94
295.756	468.94
295.987	460.94
296.217	481.94
296.448	460.94
296.679	482.94
296.909	494.94
297.14	477.94
297.37	490.94
297.601	483.94
297.831	493.94
298.062	499.94
298.292	495.94
298.523	487.94
298.753	495.94
298.984	466.94
299.214	499.94
299.445	492.94
299.675	481.94
299.905	511.94
300.136	516.94
300.366	509.94
300.597	511.94
300.827	512.94
301.057	525.94
301.288	526.94
301.518	518.94
301.748	523.94
301.979	525.94
302.209	521.94
302.439	521.94
302.669	509.94
302.9	529.94
303.13	499.94
303.36	487.94
303.59	506.94
303.82	501.94
304.051	531.94
304.281	525.94
304.511	521.94
304.741	510.94
304.971	527.94
305.201	532.94
305.431	515.94
305.661	533.94
305.891	485.94
306.121	518.94
306.352	508.94
306.582	518.94
306.812	503.94
307.042	518.94
307.272	510.94
307.502	481.94
307.731	489.94
307.961	505.94
308.191	513.94
308.421	503.94
308.651	492.94
308.881	503.94
309.111	503.94
309.341	482.94
309.571	477.94
309.8	509.94
310.03	505.94
310.26	505.94
310.49	493.94
310.72	514.94
310.949	519.94
311.179	501.94
311.409	497.94
311.639	518.94
311.868	517.94
312.098	508.94
312.328	534.94
312.557	517.94
312.787	517.94
313.017	534.94
313.246	506.94
313.476	542.94
313.706	558.94
313.935	541.94
314.165	545.94
314.394	529.94
314.624	550.94
314.853	538.94
315.083	525.94
315.312	555.94
315.542	541.94
315.771	532.94
316.001	541.94
316.23	511.94
316.46	498.94
316.689	526.94
316.919	531.94
317.148	539.94
317.377	526.94
317.607	524.94
317.836	538.94
318.065	510.94
318.295	536.94
318.524	528.94
318.753	518.94
318.983	515.94
319.212	538.94
319.441	536.94
319.67	501.94
319.9	526.94
320.129	518.94
320.358	540.94
320.587	528.94
320.816	529.94
321.046	525.94
321.275	533.94
321.504	525.94
321.733	522.94
321.962	515.94
322.191	522.94
322.42	535.94
322.649	543.94
322.878	532.94
323.108	530.94
323.337	534.94
323.566	516.94
323.795	523.94
324.024	546.94
324.253	527.94
324.482	571.94
324.71	535.94
324.939	517.94
325.168	550.94
325.397	561.94
325.626	561.94
325.855	561.94
326.084	571.94
326.313	567.94
326.542	569.94
326.77	597.94
326.999	568.94
327.228	576.94
327.457	582.94
327.686	570.94
327.914	579.94
328.143	575.94
328.372	574.94
328.6	602.94
328.829	597.94
329.058	577.94
329.287	611.94
329.515	590.94
329.744	597.94
329.972	607.94
330.201	581.94
330.43	595.94
330.658	602.94
330.887	600.94
331.115	627.94
331.344	618.94
331.572	624.94
331.801	621.94
332.03	607.94
332.258	634.94
332.486	650.94
332.715	683.94
332.943	737.94
333.172	733.94
333.4	756.94
333.629	774.94
333.857	776.94
334.085	781.94
334.314	754.94
334.542	740.94
334.771	735.94
334.999	749.94
335.227	742.94
335.455	715.94
335.684	731.94
335.912	718.94
336.14	711.94
336.369	690.94
336.597	701.94
336.825	730.94
337.053	687.94
337.281	698.94
337.51	686.94
337.738	670.94
337.966	701.94
338.194	661.94
338.422	627.94
338.65	638.94
338.878	622.94
339.106	643.94
339.334	617.94
339.562	645.94
339.79	629.94
340.018	612.94
340.246	609.94
340.474	612.94
340.702	635.94
340.93	613.94
341.158	621.94
341.386	628.94
341.614	625.94
341.842	605.94
342.07	622.94
342.298	607.94
342.526	605.94
342.754	630.94
342.981	649.94
343.209	620.94
343.437	649.94
343.665	723.94
343.893	739.94
344.12	758.94
344.348	717.94
344.576	693.94
344.804	671.94
345.031	662.94
345.259	613.94
345.487	628.94
345.714	596.94
345.942	605.94
346.17	615.94
346.397	605.94
346.625	581.94
346.853	594.94
347.08	581.94
347.308	593.94
347.535	598.94
347.763	590.94
347.99	617.94
348.218	590.94
348.445	599.94
348.673	609.94
348.9	591.94
349.128	596.94
349.355	587.94
349.583	601.94
349.81	573.94
350.037	564.94
350.265	572.94
350.492	573.94
350.72	565.94
350.947	588.94
351.174	573.94
351.402	589.94
351.629	595.94
351.856	576.94
352.083	565.94
352.311	571.94
352.538	572.94
352.765	578.94
352.992	564.94
353.22	552.94
353.447	573.94
353.674	588.94
353.901	595.94
354.128	560.94
354.355	582.94
354.583	579.94
354.81	585.94
355.037	596.94
355.264	575.94
355.491	588.94
355.718	567.94
355.945	577.94
356.172	591.94
356.399	587.94
356.626	586.94
356.853	610.94
357.08	605.94
357.307	575.94
357.534	586.94
357.761	571.94
357.988	595.94
358.215	575.94
358.441	573.94
358.668	547.94
358.895	561.94
359.122	575.94
359.349	595.94
359.576	555.94
359.802	574.94
360.029	571.94
360.256	583.94
360.483	572.94
360.709	565.94
360.936	583.94
361.163	578.94
361.39	573.94
361.616	587.94
361.843	588.94
362.07	572.94
362.296	587.94
362.523	571.94
362.749	567.94
362.976	590.94
363.203	571.94
363.429	557.94
363.656	545.94
363.882	580.94
364.109	574.94
364.335	581.94
364.562	581.94
364.788	562.94
365.015	567.94
365.241	557.94
365.468	573.94
365.694	581.94
365.92	590.94
366.147	562.94
366.373	566.94
366.599	590.94
366.826	577.94
367.052	581.94
367.278	576.94
367.505	555.94
367.731	564.94
367.957	577.94
368.184	553.94
368.41	572.94
368.636	590.94
368.862	589.94
369.089	571.94
369.315	599.94
369.541	601.94
369.767	595.94
369.993	592.94
370.219	570.94
370.445	600.94
370.672	612.94
370.898	609.94
371.124	607.94
371.35	660.94
371.576	628.94
371.802	635.94
372.028	640.94
372.254	606.94
372.48	630.94
372.706	631.94
372.932	639.94
373.158	636.94
373.384	612.94
373.61	614.94
373.835	611.94
374.061	623.94
374.287	628.94
374.513	650.94
374.739	670.94
374.965	678.94
375.191	710.94
375.416	718.94
375.642	669.94
375.868	661.94
376.094	655.94
376.319	637.94
376.545	638.94
376.771	651.94
376.997	641.94
377.222	626.94
377.448	611.94
377.674	627.94
377.899	625.94
378.125	622.94
378.35	611.94
378.576	606.94
378.802	631.94
379.027	623.94
379.253	616.94
379.478	622.94
379.704	619.94
379.929	633.94
380.155	609.94
380.38	627.94
380.606	629.94
380.831	619.94
381.057	631.94
381.282	625.94
381.507	629.94
381.733	622.94
381.958	630.94
382.184	655.94
382.409	669.94
382.634	641.94
382.86	648.94
383.085	670.94
383.31	697.94
383.535	678.94
383.761	717.94
383.986	718.94
384.211	734.94
384.436	739.94
384.662	745.94
384.887	753.94
385.112	750.94
385.337	769.94
385.562	762.94
385.787	741.94
386.013	769.94
386.238	749.94
386.463	755.94
386.688	759.94
386.913	735.94
387.138	749.94
387.363	762.94
387.588	742.94
387.813	710.94
388.038	735.94
388.263	768.94
388.488	732.94
388.713	741.94
388.938	717.94
389.163	728.94
389.387	727.94
389.612	717.94
389.837	739.94
390.062	741.94
390.287	735.94
390.512	732.94
390.736	733.94
390.961	771.94
391.186	768.94
391.411	796.94
391.636	828.94
391.86	833.94
392.085	873.94
392.31	838.94
392.534	827.94
392.759	793.94
392.984	785.94
393.208	810.94
393.433	782.94
393.658	792.94
393.882	796.94
394.107	788.94
394.331	807.94
394.556	811.94
394.78	807.94
395.005	799.94
395.229	798.94
395.454	835.94
395.678	817.94
395.903	814.94
396.127	815.94
396.352	786.94
396.576	783.94
396.801	798.94
397.025	811.94
397.249	826.94
397.474	814.94
397.698	845.94
397.922	837.94
398.147	830.94
398.371	859.94
398.595	882.94
398.82	913.94
399.044	945.94
399.268	1079.94
399.492	1244.94
399.717	1413.94
399.941	1380.94
400.165	1247.94
400.389	1159.94
400.613	1029.94
400.837	967.94
401.062	926.94
401.286	965.94
401.51	925.94
401.734	949.94
401.958	947.94
402.182	938.94
402.406	951.94
402.63	995.94
402.854	1017.94
403.078	1029.94
403.302	1022.94
403.526	1030.94
403.75	1084.94
403.974	1071.94
404.198	1090.94
404.422	1077.94
404.645	1063.94
404.869	1078.94
405.093	1053.94
405.317	1033.94
405.541	1013.94
405.765	1017.94
405.988	1009.94
406.212	1013.94
406.436	1026.94
406.66	1054.94
406.883	1071.94
407.107	1112.94
407.331	1180.94
407.555	1249.94
407.778	1247.94
408.002	1185.94
408.226	1143.94
408.449	1110.94
408.673	1061.94
408.896	1047.94
409.12	1050.94
409.344	1069.94
409.567	1037.94
409.791	1078.94
410.014	1083.94
410.238	1059.94
410.461	1053.94
410.685	1082.94
410.908	1030.94
411.132	995.94
411.355	965.94
411.578	991.94
411.802	976.94
412.025	981.94
412.249	972.94
412.472	954.94
412.695	980.94
412.919	927.94
413.142	924.94
413.365	948.94
413.589	934.94
413.812	934.94
414.035	923.94
414.258	911.94
414.482	947.94
414.705	958.94
414.928	938.94
415.151	952.94
415.374	941.94
415.597	957.94
415.821	911.94
416.044	903.94
416.267	904.94
416.49	913.94
416.713	911.94
416.936	919.94
417.159	919.94
417.382	883.94
417.605	915.94
417.828	910.94
418.051	932.94
418.274	920.94
418.497	932.94
418.72	969.94
418.943	965.94
419.166	999.94
419.389	1045.94
419.611	1047.94
419.834	1025.94
420.057	942.94
420.28	917.94
420.503	914.94
420.726	888.94
420.948	899.94
421.171	895.94
421.394	911.94
421.617	894.94
421.839	914.94
422.062	910.94
422.285	910.94
422.507	924.94
422.73	953.94
422.953	934.94
423.175	963.94
423.398	973.94
423.621	985.94
423.843	955.94
424.066	983.94
424.288	971.94
424.511	966.94
424.733	949.94
424.956	966.94
425.178	953.94
425.401	937.94
425.623	937.94
425.846	872.94
426.068	890.94
426.291	871.94
426.513	851.94
426.735	870.94
426.958	895.94
427.18	840.94
427.402	833.94
427.625	884.94
427.847	814.94
428.069	806.94
428.292	831.94
428.514	826.94
428.736	808.94
428.958	856.94
429.181	794.94
429.403	813.94
429.625	823.94
429.847	796.94
430.069	823.94
430.292	814.94
430.514	813.94
430.736	802.94
430.958	841.94
431.18	794.94
431.402	788.94
431.624	810.94
431.846	817.94
432.068	833.94
432.29	850.94
432.512	821.94
432.734	829.94
432.956	840.94
433.178	842.94
433.4	824.94
433.622	821.94
433.844	855.94
434.066	843.94
434.287	827.94
434.509	874.94
434.731	895.94
434.953	905.94
435.175	949.94
435.397	927.94
435.618	894.94
435.84	868.94
436.062	840.94
436.284	836.94
436.505	818.94
436.727	811.94
436.949	825.94
437.17	828.94
437.392	813.94
437.614	805.94
437.835	802.94
438.057	809.94
438.278	794.94
438.5	803.94
438.721	781.94
438.943	797.94
439.165	798.94
439.386	784.94
439.608	835.94
439.829	814.94
440.05	807.94
440.272	845.94
440.493	815.94
440.715	848.94
440.936	839.94
441.158	857.94
441.379	916.94
441.6	937.94
441.822	951.94
442.043	926.94
442.264	901.94
442.486	901.94
442.707	928.94
442.928	906.94
443.149	905.94
443.371	896.94
443.592	926.94
443.813	910.94
444.034	942.94
444.255	975.94
444.476	978.94
444.698	1083.94
444.919	1114.94
445.14	1148.94
445.361	1076.94
445.582	960.94
445.803	906.94
446.024	878.94
446.245	886.94
446.466	870.94
446.687	853.94
446.908	836.94
447.129	819.94
447.35	802.94
447.571	817.94
447.792	805.94
448.013	802.94
448.234	772.94
448.455	786.94
448.675	780.94
448.896	775.94
449.117	760.94
449.338	768.94
449.559	764.94
449.779	771.94
450	763.94
450.221	750.94
450.442	773.94
450.662	801.94
450.883	748.94
451.104	789.94
451.324	776.94
451.545	749.94
451.766	796.94
451.986	757.94
452.207	785.94
452.428	779.94
452.648	784.94
452.869	762.94
453.089	746.94
453.31	753.94
453.53	718.94
453.751	757.94
453.971	721.94
454.192	719.94
454.412	713.94
454.633	722.94
454.853	733.94
455.073	757.94
455.294	714.94
455.514	721.94
455.734	722.94
455.955	663.94
456.175	718.94
456.395	705.94
456.616	697.94
456.836	727.94
457.056	706.94
457.276	689.94
457.497	720.94
457.717	731.94
457.937	726.94
458.157	695.94
458.377	717.94
458.598	714.94
458.818	789.94
459.038	789.94
459.258	833.94
459.478	843.94
459.698	873.94
459.918	854.94
460.138	908.94
460.358	946.94
460.578	949.94
460.798	986.94
461.018	988.94
461.238	985.94
461.458	961.94
461.678	989.94
461.898	1000.94
462.118	977.94
462.338	1038.94
462.558	1075.94
462.777	1103.94
462.997	1169.94
463.217	1310.94
463.437	1305.94
463.657	1203.94
463.876	1161.94
464.096	1166.94
464.316	1144.94
464.536	1173.94
464.755	1095.94
464.975	1073.94
465.195	1021.94
465.414	929.94
465.634	899.94
465.854	884.94
466.073	802.94
466.293	810.94
466.512	819.94
466.732	812.94
466.951	809.94
467.171	788.94
467.391	795.94
467.61	804.94
467.829	807.94
468.049	797.94
468.268	781.94
468.488	781.94
468.707	750.94
468.927	733.94
469.146	757.94
469.365	748.94
469.585	775.94
469.804	818.94
470.023	795.94
470.243	829.94
470.462	852.94
470.681	811.94
470.901	823.94
471.12	794.94
471.339	792.94
471.558	781.94
471.777	776.94
471.997	743.94
472.216	772.94
472.435	787.94
472.654	757.94
472.873	718.94
473.092	735.94
473.311	736.94
473.53	732.94
473.749	735.94
473.968	736.94
474.187	735.94
474.406	729.94
474.625	727.94
474.844	756.94
475.063	767.94
475.282	762.94
475.501	778.94
475.72	764.94
475.939	771.94
476.158	755.94
476.377	772.94
476.596	793.94
476.814	784.94
477.033	822.94
477.252	813.94
477.471	814.94
477.69	833.94
477.908	855.94
478.127	881.94
478.346	897.94
478.564	913.94
478.783	883.94
479.002	949.94
479.22	921.94
479.439	915.94
479.658	935.94
479.876	925.94
480.095	931.94
480.313	972.94
480.532	1007.94
480.751	999.94
480.969	951.94
481.188	951.94
481.406	918.94
481.624	899.94
481.843	893.94
482.061	841.94
482.28	862.94
482.498	859.94
482.717	853.94
482.935	839.94
483.153	844.94
483.372	862.94
483.59	869.94
483.808	893.94
484.027	861.94
484.245	862.94
484.463	853.94
484.681	876.94
484.9	886.94
485.118	893.94
485.336	869.94
485.554	926.94
485.772	923.94
485.99	903.94
486.209	911.94
486.427	924.94
486.645	899.94
486.863	923.94
487.081	920.94
487.299	882.94
487.517	888.94
487.735	892.94
487.953	895.94
488.171	890.94
488.389	868.94
488.607	883.94
488.825	890.94
489.043	875.94
489.261	877.94
489.479	896.94
489.696	874.94
489.914	875.94
490.132	909.94
490.35	893.94
490.568	876.94
490.786	899.94
491.003	911.94
491.221	895.94
491.439	909.94
491.657	887.94
491.874	909.94
492.092	897.94
492.31	929.94
492.527	889.94
492.745	934.94
492.963	915.94
493.18	902.94
493.398	933.94
493.615	937.94
493.833	915.94
494.05	931.94
494.268	913.94
494.485	958.94
494.703	929.94
494.92	921.94
495.138	958.94
495.355	920.94
495.573	939.94
495.79	952.94
496.008	973.94
496.225	953.94
496.442	960.94
496.66	948.94
496.877	992.94
497.094	982.94
497.312	1031.94
497.529	1027.94
497.746	1084.94
497.963	1085.94
498.181	1171.94
498.398	1187.94
498.615	1226.94
498.832	1311.94
499.049	1425.94
499.267	1529.94
499.484	1651.94
499.701	1840.94
499.918	2041.94
500.135	2364.94
500.352	2704.94
500.569	2856.94
500.786	2780.94
501.003	2606.94
501.22	2331.94
501.437	2008.94
501.654	1786.94
501.871	1618.94
502.088	1491.94
502.305	1402.94
502.522	1325.94
502.739	1258.94
502.956	1211.94
503.172	1158.94
503.389	1113.94
503.606	1063.94
503.823	1079.94
504.04	1079.94
504.256	1046.94
504.473	1115.94
504.69	1118.94
504.907	1101.94
505.123	1045.94
505.34	994.94
505.557	962.94
505.773	896.94
505.99	889.94
506.207	894.94
506.423	874.94
506.64	841.94
506.856	878.94
507.073	829.94
507.289	803.94
507.506	834.94
507.722	834.94
507.939	810.94
508.155	805.94
508.372	807.94
508.588	799.94
508.805	784.94
509.021	805.94
509.238	787.94
509.454	762.94
509.67	773.94
509.887	764.94
510.103	775.94
510.319	753.94
510.536	788.94
510.752	767.94
510.968	774.94
511.184	769.94
511.401	742.94
511.617	759.94
511.833	790.94
512.049	746.94
512.265	750.94
512.481	782.94
512.698	796.94
512.914	763.94
513.13	771.94
513.346	755.94
513.562	766.94
513.778	762.94
513.994	748.94
514.21	791.94
514.426	787.94
514.642	774.94
514.858	774.94
515.074	771.94
515.29	797.94
515.506	785.94
515.721	794.94
515.937	818.94
516.153	825.94
516.369	866.94
516.585	894.94
516.801	926.94
517.016	933.94
517.232	965.94
517.448	1036.94
517.664	1053.94
517.879	1044.94
518.095	1087.94
518.311	1033.94
518.527	1015.94
518.742	948.94
518.958	898.94
519.173	917.94
519.389	861.94
519.605	849.94
519.82	840.94
520.036	810.94
520.251	774.94
520.467	789.94
520.682	761.94
520.898	782.94
521.113	760.94
521.329	748.94
521.544	758.94
521.76	739.94
521.975	735.94
522.19	734.94
522.406	744.94
522.621	731.94
522.836	719.94
523.052	719.94
523.267	700.94
523.482	707.94
523.698	721.94
523.913	724.94
524.128	707.94
524.343	690.94
524.559	702.94
524.774	691.94
524.989	716.94
525.204	682.94
525.419	677.94
525.634	706.94
525.849	707.94
526.064	683.94
526.28	676.94
526.495	689.94
526.71	672.94
526.925	696.94
527.14	693.94
527.355	663.94
527.57	707.94
527.785	699.94
527.999	725.94
528.214	699.94
528.429	698.94
528.644	694.94
528.859	702.94
529.074	694.94
529.289	711.94
529.503	708.94
529.718	707.94
529.933	686.94
530.148	689.94
530.363	701.94
530.577	690.94
530.792	692.94
531.007	707.94
531.221	714.94
531.436	698.94
531.651	670.94
531.865	709.94
532.08	695.94
532.295	699.94
532.509	689.94
532.724	718.94
532.938	701.94
533.153	672.94
533.367	700.94
533.582	696.94
533.796	671.94
534.011	676.94
534.225	686.94
534.44	671.94
534.654	664.94
534.868	678.94
535.083	653.94
535.297	709.94
535.511	662.94
535.726	669.94
535.94	663.94
536.154	674.94
536.369	635.94
536.583	641.94
536.797	652.94
537.011	637.94
537.225	637.94
537.44	645.94
537.654	654.94
537.868	644.94
538.082	639.94
538.296	628.94
538.51	645.94
538.724	633.94
538.938	629.94
539.153	607.94
539.367	611.94
539.581	633.94
539.795	627.94
540.009	623.94
540.222	614.94
540.436	603.94
540.65	607.94
540.864	617.94
541.078	602.94
541.292	615.94
541.506	639.94
541.72	615.94
541.934	641.94
542.147	638.94
542.361	612.94
542.575	589.94
542.789	604.94
543.002	599.94
543.216	618.94
543.43	617.94
543.644	617.94
543.857	628.94
544.071	614.94
544.285	609.94
544.498	603.94
544.712	604.94
544.925	626.94
545.139	637.94
545.352	623.94
545.566	620.94
545.779	621.94
545.993	647.94
546.206	610.94
546.42	623.94
546.633	631.94
546.847	629.94
547.06	617.94
547.274	613.94
547.487	652.94
547.7	616.94
547.914	635.94
548.127	655.94
548.34	659.94
548.554	629.94
548.767	645.94
548.98	625.94
549.193	626.94
549.407	636.94
549.62	657.94
549.833	657.94
550.046	633.94
550.259	631.94
550.473	605.94
550.686	615.94
550.899	621.94
551.112	608.94
551.325	615.94
551.538	631.94
551.751	609.94
551.964	615.94
552.177	616.94
552.39	619.94
552.603	660.94
552.816	664.94
553.029	662.94
553.242	689.94
553.455	709.94
553.667	688.94
553.88	667.94
554.093	683.94
554.306	663.94
554.519	641.94
554.732	640.94
554.944	594.94
555.157	600.94
555.37	594.94
555.583	586.94
555.795	578.94
556.008	569.94
556.221	557.94
556.433	588.94
556.646	573.94
556.859	554.94
557.071	539.94
557.284	540.94
557.496	532.94
557.709	550.94
557.921	557.94
558.134	553.94
558.346	515.94
558.559	540.94
558.771	542.94
558.984	523.94
559.196	526.94
559.409	525.94
559.621	524.94
559.833	517.94
560.046	527.94
560.258	524.94
560.47	523.94
560.683	539.94
560.895	527.94
561.107	508.94
561.32	539.94
561.532	506.94
561.744	533.94
561.956	533.94
562.168	522.94
562.381	523.94
562.593	521.94
562.805	536.94
563.017	531.94
563.229	521.94
563.441	531.94
563.653	537.94
563.865	515.94
564.077	558.94
564.289	548.94
564.501	534.94
564.713	553.94
564.925	562.94
565.137	576.94
565.349	603.94
565.561	614.94
565.773	621.94
565.985	656.94
566.197	665.94
566.408	703.94
566.62	773.94
566.832	845.94
567.044	869.94
567.255	853.94
567.467	875.94
567.679	932.94
567.891	999.94
568.102	1041.94
568.314	1001.94
568.526	889.94
568.737	821.94
568.949	726.94
569.161	678.94
569.372	589.94
569.584	604.94
569.795	580.94
570.007	539.94
570.218	538.94
570.43	526.94
570.641	549.94
570.853	561.94
571.064	554.94
571.276	573.94
571.487	540.94
571.698	518.94
571.91	487.94
572.121	487.94
572.333	485.94
572.544	474.94
572.755	458.94
572.966	468.94
573.178	465.94
573.389	441.94
573.6	454.94
573.811	441.94
574.023	451.94
574.234	441.94
574.445	451.94
574.656	437.94
574.867	440.94
575.078	445.94
575.289	441.94
575.501	439.94
575.712	427.94
575.923	430.94
576.134	416.94
576.345	428.94
576.556	425.94
576.767	393.94
576.978	418.94
577.188	421.94
577.399	420.94
577.61	412.94
577.821	406.94
578.032	387.94
578.243	377.94
578.454	385.94
578.665	382.94
578.875	379.94
579.086	379.94
579.297	383.94
579.508	387.94
579.718	383.94
579.929	401.94
580.14	394.94
580.35	381.94
580.561	366.94
580.772	400.94
580.982	385.94
581.193	378.94
581.403	388.94
581.614	375.94
581.825	373.94
582.035	363.94
582.246	373.94
582.456	374.94
582.667	386.94
582.877	381.94
583.087	376.94
583.298	373.94
583.508	371.94
583.719	369.94
583.929	375.94
584.139	365.94
584.35	367.94
584.56	377.94
584.77	377.94
584.981	375.94
585.191	361.94
585.401	361.94
585.611	351.94
585.821	377.94
586.032	352.94
586.242	329.94
586.452	350.94
586.662	345.94
586.872	343.94
587.082	378.94
587.292	362.94
587.502	366.94
587.713	353.94
587.923	330.94
588.133	357.94
588.343	363.94
588.553	354.94
588.762	385.94
588.972	373.94
589.182	377.94
589.392	341.94
589.602	354.94
589.812	351.94
590.022	354.94
590.232	370.94
590.441	356.94
590.651	338.94
590.861	351.94
591.071	358.94
591.281	371.94
591.49	367.94
591.7	375.94
591.91	376.94
592.119	386.94
592.329	380.94
592.539	410.94
592.748	412.94
592.958	408.94
593.167	433.94
593.377	449.94
593.587	456.94
593.796	450.94
594.006	484.94
594.215	459.94
594.424	454.94
594.634	439.94
594.843	436.94
595.053	404.94
595.262	380.94
595.472	396.94
595.681	390.94
595.89	384.94
596.1	376.94
596.309	372.94
596.518	331.94
596.727	332.94
596.937	335.94
597.146	320.94
597.355	330.94
597.564	340.94
597.774	336.94
597.983	320.94
598.192	333.94
598.401	310.94
598.61	307.94
598.819	321.94
599.028	321.94
599.237	301.94
599.446	312.94
599.655	289.94
599.864	303.94
600.073	318.94
600.282	290.94
600.491	298.94
600.7	316.94
600.909	314.94
601.118	323.94
601.327	299.94
601.536	303.94
601.745	302.94
601.953	303.94
602.162	307.94
602.371	281.94
602.58	289.94
602.789	295.94
602.997	305.94
603.206	293.94
603.415	317.94
603.623	274.94
603.832	298.94
604.041	282.94
604.249	300.94
604.458	288.94
604.666	284.94
604.875	279.94
605.084	268.94
605.292	270.94
605.501	290.94
605.709	281.94
605.918	273.94
606.126	290.94
606.334	269.94
606.543	268.94
606.751	269.94
606.96	292.94
607.168	264.94
607.376	277.94
607.585	281.94
607.793	291.94
608.001	285.94
608.21	260.94
608.418	275.94
608.626	261.94
608.834	269.94
609.043	266.94
609.251	277.94
609.459	263.94
609.667	263.94
609.875	270.94
610.083	262.94
610.291	262.94
610.499	257.94
610.707	261.94
610.916	277.94
611.124	270.94
611.332	283.94
611.54	271.94
611.748	267.94
611.955	269.94
612.163	248.94
612.371	278.94
612.579	273.94
612.787	258.94
612.995	274.94
613.203	262.94
613.411	263.94
613.618	253.94
613.826	245.94
614.034	270.94
614.242	250.94
614.449	271.94
614.657	257.94
614.865	253.94
615.072	252.94
615.28	257.94
615.488	263.94
615.695	262.94
615.903	271.94
616.111	273.94
616.318	267.94
616.526	276.94
616.733	262.94
616.941	265.94
617.148	266.94
617.356	259.94
617.563	266.94
617.771	268.94
617.978	282.94
618.185	274.94
618.393	277.94
618.6	253.94
618.807	243.94
619.015	261.94
619.222	251.94
619.429	267.94
619.637	258.94
619.844	269.94
620.051	232.94
620.258	233.94
620.466	242.94
620.673	246.94
620.88	260.94
621.087	226.94
621.294	248.94
621.501	247.94
621.708	264.94
621.915	259.94
622.122	239.94
622.329	235.94
622.536	242.94
622.743	253.94
622.95	232.94
623.157	231.94
623.364	246.94
623.571	248.94
623.778	248.94
623.985	247.94
624.192	237.94
624.399	229.94
624.606	241.94
624.812	246.94
625.019	220.94
625.226	240.94
625.433	239.94
625.639	228.94
625.846	229.94
626.053	241.94
626.259	227.94
626.466	207.94
626.673	226.94
626.879	219.94
627.086	212.94
627.293	228.94
627.499	217.94
627.706	237.94
627.912	209.94
628.119	213.94
628.325	212.94
628.532	190.94
628.738	209.94
628.945	213.94
629.151	225.94
629.357	228.94
629.564	218.94
629.77	220.94
629.976	225.94
630.183	195.94
630.389	197.94
630.595	218.94
630.802	237.94
631.008	222.94
631.214	220.94
631.42	210.94
631.627	209.94
631.833	210.94
632.039	209.94
632.245	194.94
632.451	212.94
632.657	219.94
632.863	196.94
633.069	204.94
633.275	191.94
633.481	203.94
633.688	199.94
633.893	204.94
634.099	203.94
634.305	208.94
634.511	204.94
634.717	211.94
634.923	206.94
635.129	207.94
635.335	206.94
635.541	190.94
635.747	212.94
635.952	201.94
636.158	203.94
636.364	191.94
636.57	198.94
636.775	209.94
636.981	199.94
637.187	173.94
637.392	197.94
637.598	194.94
637.804	198.94
638.009	194.94
638.215	186.94
638.421	182.94
638.626	189.94
638.832	185.94
639.037	190.94
639.243	193.94
639.448	183.94
639.654	193.94
639.859	171.94
640.065	199.94
640.27	185.94
640.475	179.94
640.681	195.94
640.886	163.94
641.091	177.94
641.297	194.94
641.502	191.94
641.707	177.94
641.913	181.94
642.118	164.94
642.323	178.94
642.528	177.94
642.733	174.94
642.939	191.94
643.144	183.94
643.349	181.94
643.554	171.94
643.759	188.94
643.964	179.94
644.169	186.94
644.374	166.94
644.579	169.94
644.784	193.94
644.989	184.94
645.194	177.94
645.399	173.94
645.604	188.94
645.809	197.94
646.014	180.94
646.219	173.94
646.423	171.94
646.628	189.94
646.833	183.94
647.038	181.94
647.243	168.94
647.447	180.94
647.652	189.94
647.857	197.94
648.062	192.94
648.266	188.94
648.471	190.94
648.676	189.94
648.88	192.94
649.085	202.94
649.289	187.94
649.494	187.94
649.698	167.94
649.903	180.94
650.107	178.94
650.312	172.94
650.516	173.94
650.721	167.94
650.925	177.94
651.13	172.94
651.334	157.94
651.539	163.94
651.743	177.94
651.947	170.94
652.152	159.94
652.356	158.94
652.56	159.94
652.764	164.94
652.969	161.94
653.173	151.94
653.377	139.94
653.581	132.94
653.785	147.94
653.99	142.94
654.194	153.94
654.398	152.94
654.602	135.94
654.806	141.94
655.01	158.94
655.214	151.94
655.418	141.94
655.622	121.94
655.826	134.94
656.03	151.94
656.234	151.94
656.438	154.94
656.642	154.94
656.846	148.94
657.049	133.94
657.253	138.94
657.457	134.94
657.661	131.94
657.865	127.94
658.068	125.94
658.272	122.94
658.476	115.94
658.68	104.94
658.883	115.94
659.087	121.94
659.291	121.94
659.494	102.94
659.698	99.94
659.901	107.94
660.105	102.94
660.309	109.94
660.512	95.94
660.716	92.94
660.919	109.94
661.123	108.94
661.326	98.94
661.53	95.94
661.733	92.94
661.936	89.94
662.14	98.94
662.343	101.94
662.546	84.94
662.75	90.94
662.953	105.94
663.156	85.94
663.36	85.94
663.563	90.94
663.766	89.94
663.969	80.94
664.173	93.94
664.376	72.94
664.579	83.94
664.782	86.94
664.985	79.94
665.188	80.94
665.391	78.94
665.594	91.94
665.797	91.94
666	82.94
666.203	72.94
666.406	89.94
666.609	80.94
666.812	87.94
667.015	87.94
667.218	89.94
667.421	83.94
667.624	87.94
667.827	88.94
668.03	75.94
668.232	91.94
668.435	95.94
668.638	80.94
668.841	87.94
669.043	86.94
669.246	87.94
669.449	70.94
669.651	81.94
669.854	75.94
670.057	86.94
670.259	83.94
670.462	79.94
670.665	75.94
670.867	79.94
671.07	91.94
671.272	79.94
671.475	75.94
671.677	65.94
671.88	87.94
672.082	88.94
672.284	63.94
672.487	86.94
672.689	81.94
672.892	85.94
