Data from Ni(NO3)2@0.25M.TitratingCurve.Agarose3%dH2O.NegLispCup.LampEnergy10.LIBS07252019_HRD10591_18-03-38-565.txt Node
Date: Thu Jul 25 18:03:38 EDT 2019
User: cochatt
Spectrometer: HR+D1059
Trigger mode: 1
Integration Time (sec): 1.000000E-1
Scans to average: 1
Electric dark correction enabled: true
Nonlinearity correction enabled: false
Boxcar width: 0
XAxis mode: Wavelengths
Number of Pixels in Spectrum: 2048
>>>>>Begin Spectral Data<<<<<
223.165	-12.44
223.4	-12.44
223.635	-12.44
223.869	-11.44
224.104	-11.44
224.338	-9.44
224.573	-16.44
224.808	-16.44
225.042	-10.44
225.277	-16.44
225.511	-3.44
225.746	-0.44
225.98	-2.44
226.215	18.56
226.449	16.56
226.683	23.56
226.918	19.56
227.152	32.56
227.387	36.56
227.621	22.56
227.856	39.56
228.09	47.56
228.324	39.56
228.559	60.56
228.793	75.56
229.027	97.56
229.262	89.56
229.496	91.56
229.73	114.56
229.964	108.56
230.199	118.56
230.433	118.56
230.667	115.56
230.901	130.56
231.136	126.56
231.37	113.56
231.604	137.56
231.838	118.56
232.072	130.56
232.306	134.56
232.541	127.56
232.775	133.56
233.009	140.56
233.243	135.56
233.477	119.56
233.711	129.56
233.945	116.56
234.179	110.56
234.413	130.56
234.647	123.56
234.881	130.56
235.115	138.56
235.349	111.56
235.583	118.56
235.817	119.56
236.051	131.56
236.285	132.56
236.519	131.56
236.753	127.56
236.987	136.56
237.221	138.56
237.455	136.56
237.689	142.56
237.922	129.56
238.156	129.56
238.39	137.56
238.624	132.56
238.858	142.56
239.091	142.56
239.325	130.56
239.559	153.56
239.793	139.56
240.027	145.56
240.26	140.56
240.494	160.56
240.728	147.56
240.961	140.56
241.195	139.56
241.429	145.56
241.662	154.56
241.896	158.56
242.13	160.56
242.363	148.56
242.597	166.56
242.83	128.56
243.064	150.56
243.298	146.56
243.531	164.56
243.765	154.56
243.998	159.56
244.232	166.56
244.465	163.56
244.699	159.56
244.932	155.56
245.166	164.56
245.399	166.56
245.633	166.56
245.866	174.56
246.099	168.56
246.333	166.56
246.566	190.56
246.8	167.56
247.033	183.56
247.266	180.56
247.5	171.56
247.733	180.56
247.966	176.56
248.2	202.56
248.433	186.56
248.666	187.56
248.899	198.56
249.133	194.56
249.366	198.56
249.599	199.56
249.832	198.56
250.066	220.56
250.299	202.56
250.532	209.56
250.765	211.56
250.998	234.56
251.231	233.56
251.465	260.56
251.698	240.56
251.931	241.56
252.164	239.56
252.397	244.56
252.63	239.56
252.863	270.56
253.096	254.56
253.329	251.56
253.562	248.56
253.795	241.56
254.028	257.56
254.261	280.56
254.494	283.56
254.727	264.56
254.96	260.56
255.193	282.56
255.426	284.56
255.659	288.56
255.892	295.56
256.124	298.56
256.357	299.56
256.59	289.56
256.823	289.56
257.056	304.56
257.289	282.56
257.521	313.56
257.754	314.56
257.987	319.56
258.22	307.56
258.452	300.56
258.685	318.56
258.918	286.56
259.151	309.56
259.383	302.56
259.616	330.56
259.849	307.56
260.081	321.56
260.314	343.56
260.547	331.56
260.779	339.56
261.012	333.56
261.244	315.56
261.477	332.56
261.71	323.56
261.942	338.56
262.175	344.56
262.407	359.56
262.64	330.56
262.872	345.56
263.105	329.56
263.337	366.56
263.57	353.56
263.802	333.56
264.035	361.56
264.267	379.56
264.499	370.56
264.732	344.56
264.964	360.56
265.197	372.56
265.429	377.56
265.661	372.56
265.894	360.56
266.126	382.56
266.358	366.56
266.591	374.56
266.823	387.56
267.055	380.56
267.287	375.56
267.52	375.56
267.752	372.56
267.984	372.56
268.216	373.56
268.448	386.56
268.681	395.56
268.913	398.56
269.145	388.56
269.377	392.56
269.609	380.56
269.841	391.56
270.073	389.56
270.306	407.56
270.538	385.56
270.77	388.56
271.002	390.56
271.234	408.56
271.466	390.56
271.698	392.56
271.93	389.56
272.162	374.56
272.394	385.56
272.626	391.56
272.858	400.56
273.09	424.56
273.322	405.56
273.553	400.56
273.785	418.56
274.017	395.56
274.249	398.56
274.481	419.56
274.713	421.56
274.945	401.56
275.176	402.56
275.408	405.56
275.64	412.56
275.872	413.56
276.104	443.56
276.335	430.56
276.567	422.56
276.799	399.56
277.031	430.56
277.262	422.56
277.494	440.56
277.726	451.56
277.957	414.56
278.189	439.56
278.421	426.56
278.652	448.56
278.884	423.56
279.115	436.56
279.347	440.56
279.579	410.56
279.81	424.56
280.042	430.56
280.273	426.56
280.505	432.56
280.736	448.56
280.968	432.56
281.199	424.56
281.431	435.56
281.662	443.56
281.894	463.56
282.125	445.56
282.356	454.56
282.588	452.56
282.819	450.56
283.051	447.56
283.282	421.56
283.513	434.56
283.745	440.56
283.976	432.56
284.207	444.56
284.439	460.56
284.67	425.56
284.901	438.56
285.132	460.56
285.364	463.56
285.595	456.56
285.826	441.56
286.057	457.56
286.288	476.56
286.52	463.56
286.751	467.56
286.982	471.56
287.213	465.56
287.444	459.56
287.675	444.56
287.906	450.56
288.138	460.56
288.369	471.56
288.6	457.56
288.831	471.56
289.062	460.56
289.293	463.56
289.524	458.56
289.755	440.56
289.986	462.56
290.217	478.56
290.448	455.56
290.679	467.56
290.91	483.56
291.141	473.56
291.371	469.56
291.602	464.56
291.833	461.56
292.064	469.56
292.295	462.56
292.526	474.56
292.757	458.56
292.987	480.56
293.218	439.56
293.449	466.56
293.68	496.56
293.91	479.56
294.141	482.56
294.372	453.56
294.603	467.56
294.833	466.56
295.064	461.56
295.295	486.56
295.525	454.56
295.756	460.56
295.987	475.56
296.217	476.56
296.448	451.56
296.679	478.56
296.909	482.56
297.14	472.56
297.37	488.56
297.601	475.56
297.831	483.56
298.062	499.56
298.292	503.56
298.523	500.56
298.753	494.56
298.984	501.56
299.214	491.56
299.445	479.56
299.675	489.56
299.905	513.56
300.136	507.56
300.366	546.56
300.597	516.56
300.827	510.56
301.057	520.56
301.288	523.56
301.518	530.56
301.748	521.56
301.979	517.56
302.209	531.56
302.439	534.56
302.669	521.56
302.9	540.56
303.13	525.56
303.36	525.56
303.59	516.56
303.82	533.56
304.051	534.56
304.281	523.56
304.511	536.56
304.741	530.56
304.971	541.56
305.201	555.56
305.431	538.56
305.661	551.56
305.891	533.56
306.121	520.56
306.352	530.56
306.582	523.56
306.812	529.56
307.042	528.56
307.272	555.56
307.502	539.56
307.731	536.56
307.961	529.56
308.191	530.56
308.421	531.56
308.651	535.56
308.881	547.56
309.111	554.56
309.341	560.56
309.571	550.56
309.8	546.56
310.03	562.56
310.26	594.56
310.49	567.56
310.72	582.56
310.949	591.56
311.179	580.56
311.409	574.56
311.639	611.56
311.868	585.56
312.098	574.56
312.328	578.56
312.557	596.56
312.787	605.56
313.017	617.56
313.246	624.56
313.476	598.56
313.706	636.56
313.935	611.56
314.165	614.56
314.394	650.56
314.624	611.56
314.853	627.56
315.083	618.56
315.312	640.56
315.542	602.56
315.771	663.56
316.001	634.56
316.23	651.56
316.46	636.56
316.689	668.56
316.919	656.56
317.148	656.56
317.377	660.56
317.607	635.56
317.836	640.56
318.065	649.56
318.295	672.56
318.524	658.56
318.753	680.56
318.983	703.56
319.212	686.56
319.441	678.56
319.67	682.56
319.9	695.56
320.129	697.56
320.358	695.56
320.587	681.56
320.816	701.56
321.046	700.56
321.275	718.56
321.504	724.56
321.733	729.56
321.962	753.56
322.191	708.56
322.42	771.56
322.649	761.56
322.878	731.56
323.108	728.56
323.337	770.56
323.566	774.56
323.795	750.56
324.024	780.56
324.253	774.56
324.482	771.56
324.71	804.56
324.939	786.56
325.168	792.56
325.397	777.56
325.626	801.56
325.855	835.56
326.084	830.56
326.313	822.56
326.542	819.56
326.77	863.56
326.999	859.56
327.228	826.56
327.457	823.56
327.686	840.56
327.914	872.56
328.143	872.56
328.372	841.56
328.6	890.56
328.829	868.56
329.058	878.56
329.287	882.56
329.515	879.56
329.744	910.56
329.972	897.56
330.201	927.56
330.43	898.56
330.658	898.56
330.887	912.56
331.115	928.56
331.344	929.56
331.572	946.56
331.801	965.56
332.03	979.56
332.258	966.56
332.486	930.56
332.715	996.56
332.943	1027.56
333.172	1009.56
333.4	1032.56
333.629	1027.56
333.857	1071.56
334.085	1089.56
334.314	1072.56
334.542	1105.56
334.771	1099.56
334.999	1099.56
335.227	1110.56
335.455	1108.56
335.684	1103.56
335.912	1107.56
336.14	1127.56
336.369	1089.56
336.597	1127.56
336.825	1112.56
337.053	1117.56
337.281	1117.56
337.51	1075.56
337.738	1084.56
337.966	1065.56
338.194	1080.56
338.422	1074.56
338.65	1056.56
338.878	1049.56
339.106	1062.56
339.334	1086.56
339.562	1066.56
339.79	1015.56
340.018	1010.56
340.246	1017.56
340.474	1013.56
340.702	1001.56
340.93	1036.56
341.158	1065.56
341.386	1074.56
341.614	1066.56
341.842	1043.56
342.07	980.56
342.298	1005.56
342.526	1030.56
342.754	1042.56
342.981	1036.56
343.209	1054.56
343.437	1060.56
343.665	1106.56
343.893	1111.56
344.12	1117.56
344.348	1116.56
344.576	1087.56
344.804	1138.56
345.031	1115.56
345.259	1062.56
345.487	1095.56
345.714	1067.56
345.942	1073.56
346.17	1050.56
346.397	1047.56
346.625	995.56
346.853	984.56
347.08	968.56
347.308	1004.56
347.535	988.56
347.763	988.56
347.99	960.56
348.218	996.56
348.445	1010.56
348.673	982.56
348.9	981.56
349.128	992.56
349.355	985.56
349.583	1003.56
349.81	1007.56
350.037	950.56
350.265	944.56
350.492	954.56
350.72	962.56
350.947	1010.56
351.174	1001.56
351.402	1008.56
351.629	1040.56
351.856	994.56
352.083	999.56
352.311	1019.56
352.538	991.56
352.765	998.56
352.992	964.56
353.22	967.56
353.447	950.56
353.674	920.56
353.901	944.56
354.128	946.56
354.355	924.56
354.583	928.56
354.81	940.56
355.037	977.56
355.264	952.56
355.491	950.56
355.718	972.56
355.945	967.56
356.172	932.56
356.399	952.56
356.626	989.56
356.853	976.56
357.08	972.56
357.307	942.56
357.534	929.56
357.761	953.56
357.988	959.56
358.215	930.56
358.441	937.56
358.668	945.56
358.895	924.56
359.122	955.56
359.349	964.56
359.576	949.56
359.802	954.56
360.029	950.56
360.256	937.56
360.483	942.56
360.709	941.56
360.936	970.56
361.163	946.56
361.39	954.56
361.616	973.56
361.843	974.56
362.07	990.56
362.296	1007.56
362.523	956.56
362.749	908.56
362.976	911.56
363.203	935.56
363.429	950.56
363.656	956.56
363.882	927.56
364.109	958.56
364.335	947.56
364.562	925.56
364.788	927.56
365.015	937.56
365.241	920.56
365.468	943.56
365.694	932.56
365.92	938.56
366.147	921.56
366.373	887.56
366.599	938.56
366.826	914.56
367.052	943.56
367.278	927.56
367.505	948.56
367.731	932.56
367.957	920.56
368.184	942.56
368.41	938.56
368.636	930.56
368.862	923.56
369.089	942.56
369.315	928.56
369.541	948.56
369.767	953.56
369.993	948.56
370.219	969.56
370.445	959.56
370.672	959.56
370.898	948.56
371.124	946.56
371.35	952.56
371.576	987.56
371.802	961.56
372.028	971.56
372.254	948.56
372.48	950.56
372.706	958.56
372.932	993.56
373.158	944.56
373.384	962.56
373.61	986.56
373.835	966.56
374.061	966.56
374.287	947.56
374.513	988.56
374.739	983.56
374.965	990.56
375.191	998.56
375.416	1009.56
375.642	961.56
375.868	964.56
376.094	967.56
376.319	956.56
376.545	970.56
376.771	959.56
376.997	950.56
377.222	944.56
377.448	929.56
377.674	958.56
377.899	924.56
378.125	966.56
378.35	944.56
378.576	909.56
378.802	912.56
379.027	938.56
379.253	913.56
379.478	907.56
379.704	932.56
379.929	940.56
380.155	914.56
380.38	908.56
380.606	915.56
380.831	962.56
381.057	926.56
381.282	913.56
381.507	936.56
381.733	918.56
381.958	917.56
382.184	943.56
382.409	951.56
382.634	928.56
382.86	954.56
383.085	935.56
383.31	962.56
383.535	976.56
383.761	962.56
383.986	957.56
384.211	1001.56
384.436	953.56
384.662	962.56
384.887	991.56
385.112	1004.56
385.337	1027.56
385.562	1028.56
385.787	1037.56
386.013	1042.56
386.238	1028.56
386.463	1047.56
386.688	1013.56
386.913	1028.56
387.138	1048.56
387.363	1008.56
387.588	1076.56
387.813	1051.56
388.038	1049.56
388.263	1033.56
388.488	1058.56
388.713	1060.56
388.938	1076.56
389.163	1008.56
389.387	1071.56
389.612	1027.56
389.837	1031.56
390.062	1050.56
390.287	1042.56
390.512	1010.56
390.736	1050.56
390.961	1072.56
391.186	1093.56
391.411	1073.56
391.636	1096.56
391.86	1090.56
392.085	1103.56
392.31	1111.56
392.534	1125.56
392.759	1099.56
392.984	1100.56
393.208	1079.56
393.433	1086.56
393.658	1118.56
393.882	1083.56
394.107	1091.56
394.331	1081.56
394.556	1104.56
394.78	1086.56
395.005	1109.56
395.229	1076.56
395.454	1110.56
395.678	1133.56
395.903	1121.56
396.127	1141.56
396.352	1109.56
396.576	1138.56
396.801	1140.56
397.025	1170.56
397.249	1142.56
397.474	1188.56
397.698	1190.56
397.922	1227.56
398.147	1220.56
398.371	1187.56
398.595	1246.56
398.82	1282.56
399.044	1319.56
399.268	1381.56
399.492	1440.56
399.717	1468.56
399.941	1510.56
400.165	1458.56
400.389	1453.56
400.613	1397.56
400.837	1345.56
401.062	1331.56
401.286	1292.56
401.51	1287.56
401.734	1292.56
401.958	1315.56
402.182	1284.56
402.406	1284.56
402.63	1282.56
402.854	1313.56
403.078	1287.56
403.302	1323.56
403.526	1302.56
403.75	1338.56
403.974	1334.56
404.198	1356.56
404.422	1308.56
404.645	1306.56
404.869	1328.56
405.093	1338.56
405.317	1374.56
405.541	1359.56
405.765	1354.56
405.988	1334.56
406.212	1335.56
406.436	1381.56
406.66	1410.56
406.883	1404.56
407.107	1423.56
407.331	1474.56
407.555	1526.56
407.778	1482.56
408.002	1499.56
408.226	1472.56
408.449	1484.56
408.673	1448.56
408.896	1462.56
409.12	1420.56
409.344	1430.56
409.567	1405.56
409.791	1400.56
410.014	1394.56
410.238	1367.56
410.461	1385.56
410.685	1385.56
410.908	1387.56
411.132	1398.56
411.355	1332.56
411.578	1353.56
411.802	1344.56
412.025	1363.56
412.249	1374.56
412.472	1354.56
412.695	1362.56
412.919	1317.56
413.142	1337.56
413.365	1344.56
413.589	1369.56
413.812	1322.56
414.035	1353.56
414.258	1370.56
414.482	1314.56
414.705	1354.56
414.928	1360.56
415.151	1339.56
415.374	1358.56
415.597	1321.56
415.821	1319.56
416.044	1333.56
416.267	1298.56
416.49	1273.56
416.713	1283.56
416.936	1319.56
417.159	1280.56
417.382	1282.56
417.605	1269.56
417.828	1296.56
418.051	1339.56
418.274	1327.56
418.497	1272.56
418.72	1285.56
418.943	1291.56
419.166	1402.56
419.389	1462.56
419.611	1425.56
419.834	1420.56
420.057	1381.56
420.28	1330.56
420.503	1328.56
420.726	1342.56
420.948	1326.56
421.171	1312.56
421.394	1324.56
421.617	1308.56
421.839	1357.56
422.062	1351.56
422.285	1321.56
422.507	1322.56
422.73	1331.56
422.953	1351.56
423.175	1337.56
423.398	1339.56
423.621	1299.56
423.843	1356.56
424.066	1333.56
424.288	1328.56
424.511	1311.56
424.733	1370.56
424.956	1348.56
425.178	1348.56
425.401	1359.56
425.623	1332.56
425.846	1360.56
426.068	1342.56
426.291	1329.56
426.513	1321.56
426.735	1329.56
426.958	1339.56
427.18	1297.56
427.402	1319.56
427.625	1329.56
427.847	1321.56
428.069	1301.56
428.292	1322.56
428.514	1257.56
428.736	1310.56
428.958	1323.56
429.181	1311.56
429.403	1272.56
429.625	1287.56
429.847	1291.56
430.069	1299.56
430.292	1301.56
430.514	1284.56
430.736	1311.56
430.958	1294.56
431.18	1310.56
431.402	1305.56
431.624	1293.56
431.846	1299.56
432.068	1307.56
432.29	1292.56
432.512	1299.56
432.734	1320.56
432.956	1300.56
433.178	1292.56
433.4	1327.56
433.622	1352.56
433.844	1342.56
434.066	1364.56
434.287	1355.56
434.509	1334.56
434.731	1382.56
434.953	1355.56
435.175	1366.56
435.397	1398.56
435.618	1355.56
435.84	1348.56
436.062	1310.56
436.284	1316.56
436.505	1327.56
436.727	1332.56
436.949	1314.56
437.17	1311.56
437.392	1311.56
437.614	1238.56
437.835	1288.56
438.057	1280.56
438.278	1257.56
438.5	1254.56
438.721	1296.56
438.943	1305.56
439.165	1288.56
439.386	1283.56
439.608	1251.56
439.829	1332.56
440.05	1269.56
440.272	1328.56
440.493	1342.56
440.715	1329.56
440.936	1334.56
441.158	1360.56
441.379	1350.56
441.6	1390.56
441.822	1411.56
442.043	1383.56
442.264	1382.56
442.486	1374.56
442.707	1392.56
442.928	1426.56
443.149	1390.56
443.371	1400.56
443.592	1399.56
443.813	1414.56
444.034	1388.56
444.255	1408.56
444.476	1491.56
444.698	1468.56
444.919	1528.56
445.14	1562.56
445.361	1493.56
445.582	1421.56
445.803	1375.56
446.024	1320.56
446.245	1355.56
446.466	1359.56
446.687	1335.56
446.908	1353.56
447.129	1303.56
447.35	1310.56
447.571	1278.56
447.792	1255.56
448.013	1252.56
448.234	1279.56
448.455	1258.56
448.675	1249.56
448.896	1242.56
449.117	1218.56
449.338	1234.56
449.559	1217.56
449.779	1211.56
450	1210.56
450.221	1237.56
450.442	1241.56
450.662	1243.56
450.883	1213.56
451.104	1251.56
451.324	1235.56
451.545	1218.56
451.766	1214.56
451.986	1218.56
452.207	1229.56
452.428	1210.56
452.648	1206.56
452.869	1162.56
453.089	1177.56
453.31	1185.56
453.53	1182.56
453.751	1172.56
453.971	1175.56
454.192	1162.56
454.412	1176.56
454.633	1170.56
454.853	1165.56
455.073	1172.56
455.294	1196.56
455.514	1159.56
455.734	1178.56
455.955	1193.56
456.175	1156.56
456.395	1168.56
456.616	1142.56
456.836	1191.56
457.056	1192.56
457.276	1156.56
457.497	1174.56
457.717	1194.56
457.937	1231.56
458.157	1187.56
458.377	1218.56
458.598	1210.56
458.818	1240.56
459.038	1254.56
459.258	1262.56
459.478	1336.56
459.698	1395.56
459.918	1370.56
460.138	1370.56
460.358	1409.56
460.578	1420.56
460.798	1441.56
461.018	1474.56
461.238	1482.56
461.458	1460.56
461.678	1471.56
461.898	1510.56
462.118	1473.56
462.338	1526.56
462.558	1584.56
462.777	1596.56
462.997	1650.56
463.217	1655.56
463.437	1686.56
463.657	1654.56
463.876	1627.56
464.096	1619.56
464.316	1584.56
464.536	1590.56
464.755	1571.56
464.975	1528.56
465.195	1439.56
465.414	1448.56
465.634	1390.56
465.854	1399.56
466.073	1371.56
466.293	1349.56
466.512	1283.56
466.732	1319.56
466.951	1339.56
467.171	1308.56
467.391	1299.56
467.61	1307.56
467.829	1269.56
468.049	1303.56
468.268	1280.56
468.488	1270.56
468.707	1257.56
468.927	1297.56
469.146	1253.56
469.365	1266.56
469.585	1319.56
469.804	1284.56
470.023	1316.56
470.243	1300.56
470.462	1310.56
470.681	1329.56
470.901	1326.56
471.12	1302.56
471.339	1271.56
471.558	1287.56
471.777	1299.56
471.997	1283.56
472.216	1269.56
472.435	1292.56
472.654	1280.56
472.873	1249.56
473.092	1277.56
473.311	1240.56
473.53	1282.56
473.749	1284.56
473.968	1254.56
474.187	1281.56
474.406	1242.56
474.625	1314.56
474.844	1288.56
475.063	1263.56
475.282	1292.56
475.501	1282.56
475.72	1300.56
475.939	1299.56
476.158	1310.56
476.377	1372.56
476.596	1335.56
476.814	1348.56
477.033	1382.56
477.252	1378.56
477.471	1400.56
477.69	1415.56
477.908	1419.56
478.127	1475.56
478.346	1475.56
478.564	1470.56
478.783	1481.56
479.002	1509.56
479.22	1539.56
479.439	1499.56
479.658	1483.56
479.876	1519.56
480.095	1524.56
480.313	1553.56
480.532	1551.56
480.751	1547.56
480.969	1514.56
481.188	1562.56
481.406	1511.56
481.624	1472.56
481.843	1470.56
482.061	1454.56
482.28	1472.56
482.498	1466.56
482.717	1458.56
482.935	1478.56
483.153	1476.56
483.372	1518.56
483.59	1544.56
483.808	1545.56
484.027	1487.56
484.245	1489.56
484.463	1491.56
484.681	1490.56
484.9	1489.56
485.118	1507.56
485.336	1511.56
485.554	1522.56
485.772	1496.56
485.99	1499.56
486.209	1522.56
486.427	1532.56
486.645	1558.56
486.863	1552.56
487.081	1539.56
487.299	1534.56
487.517	1564.56
487.735	1567.56
487.953	1572.56
488.171	1553.56
488.389	1531.56
488.607	1558.56
488.825	1545.56
489.043	1534.56
489.261	1549.56
489.479	1535.56
489.696	1559.56
489.914	1536.56
490.132	1533.56
490.35	1552.56
490.568	1579.56
490.786	1600.56
491.003	1588.56
491.221	1596.56
491.439	1569.56
491.657	1575.56
491.874	1632.56
492.092	1635.56
492.31	1659.56
492.527	1618.56
492.745	1627.56
492.963	1667.56
493.18	1644.56
493.398	1664.56
493.615	1658.56
493.833	1675.56
494.05	1662.56
494.268	1679.56
494.485	1673.56
494.703	1692.56
494.92	1686.56
495.138	1674.56
495.355	1682.56
495.573	1760.56
495.79	1738.56
496.008	1741.56
496.225	1769.56
496.442	1775.56
496.66	1814.56
496.877	1829.56
497.094	1851.56
497.312	1847.56
497.529	1903.56
497.746	1955.56
497.963	1982.56
498.181	2025.56
498.398	2086.56
498.615	2163.56
498.832	2241.56
499.049	2324.56
499.267	2384.56
499.484	2502.56
499.701	2624.56
499.918	2709.56
500.135	2840.56
500.352	2974.56
500.569	2954.56
500.786	2962.56
501.003	2922.56
501.22	2856.56
501.437	2689.56
501.654	2587.56
501.871	2442.56
502.088	2389.56
502.305	2289.56
502.522	2228.56
502.739	2207.56
502.956	2080.56
503.172	2045.56
503.389	1999.56
503.606	1988.56
503.823	1906.56
504.04	1884.56
504.256	1880.56
504.473	1849.56
504.69	1840.56
504.907	1822.56
505.123	1772.56
505.34	1743.56
505.557	1712.56
505.773	1688.56
505.99	1627.56
506.207	1596.56
506.423	1595.56
506.64	1543.56
506.856	1570.56
507.073	1572.56
507.289	1549.56
507.506	1498.56
507.722	1509.56
507.939	1486.56
508.155	1496.56
508.372	1490.56
508.588	1457.56
508.805	1444.56
509.021	1449.56
509.238	1463.56
509.454	1408.56
509.67	1423.56
509.887	1395.56
510.103	1429.56
510.319	1385.56
510.536	1396.56
510.752	1372.56
510.968	1392.56
511.184	1402.56
511.401	1378.56
511.617	1406.56
511.833	1362.56
512.049	1365.56
512.265	1389.56
512.481	1394.56
512.698	1383.56
512.914	1359.56
513.13	1378.56
513.346	1393.56
513.562	1362.56
513.778	1367.56
513.994	1370.56
514.21	1356.56
514.426	1375.56
514.642	1392.56
514.858	1436.56
515.074	1385.56
515.29	1404.56
515.506	1424.56
515.721	1466.56
515.937	1443.56
516.153	1445.56
516.369	1448.56
516.585	1485.56
516.801	1499.56
517.016	1543.56
517.232	1556.56
517.448	1554.56
517.664	1598.56
517.879	1558.56
518.095	1577.56
518.311	1567.56
518.527	1560.56
518.742	1500.56
518.958	1478.56
519.173	1479.56
519.389	1488.56
519.605	1425.56
519.82	1396.56
520.036	1419.56
520.251	1375.56
520.467	1358.56
520.682	1327.56
520.898	1352.56
521.113	1329.56
521.329	1350.56
521.544	1338.56
521.76	1336.56
521.975	1287.56
522.19	1274.56
522.406	1303.56
522.621	1335.56
522.836	1270.56
523.052	1289.56
523.267	1259.56
523.482	1284.56
523.698	1238.56
523.913	1257.56
524.128	1272.56
524.343	1272.56
524.559	1266.56
524.774	1281.56
524.989	1259.56
525.204	1248.56
525.419	1224.56
525.634	1248.56
525.849	1231.56
526.064	1226.56
526.28	1221.56
526.495	1217.56
526.71	1219.56
526.925	1231.56
527.14	1190.56
527.355	1222.56
527.57	1240.56
527.785	1193.56
527.999	1200.56
528.214	1203.56
528.429	1213.56
528.644	1225.56
528.859	1210.56
529.074	1237.56
529.289	1211.56
529.503	1201.56
529.718	1202.56
529.933	1192.56
530.148	1176.56
530.363	1227.56
530.577	1177.56
530.792	1183.56
531.007	1194.56
531.221	1218.56
531.436	1175.56
531.651	1185.56
531.865	1159.56
532.08	1203.56
532.295	1190.56
532.509	1206.56
532.724	1177.56
532.938	1196.56
533.153	1159.56
533.367	1201.56
533.582	1152.56
533.796	1174.56
534.011	1161.56
534.225	1128.56
534.44	1166.56
534.654	1142.56
534.868	1149.56
535.083	1182.56
535.297	1139.56
535.511	1143.56
535.726	1161.56
535.94	1122.56
536.154	1144.56
536.369	1135.56
536.583	1139.56
536.797	1133.56
537.011	1118.56
537.225	1139.56
537.44	1105.56
537.654	1095.56
537.868	1121.56
538.082	1082.56
538.296	1110.56
538.51	1098.56
538.724	1124.56
538.938	1105.56
539.153	1083.56
539.367	1119.56
539.581	1098.56
539.795	1114.56
540.009	1088.56
540.222	1087.56
540.436	1093.56
540.65	1100.56
540.864	1091.56
541.078	1117.56
541.292	1060.56
541.506	1113.56
541.72	1104.56
541.934	1107.56
542.147	1108.56
542.361	1088.56
542.575	1062.56
542.789	1051.56
543.002	1073.56
543.216	1036.56
543.43	1074.56
543.644	1093.56
543.857	1067.56
544.071	1072.56
544.285	1084.56
544.498	1098.56
544.712	1071.56
544.925	1104.56
545.139	1086.56
545.352	1081.56
545.566	1080.56
545.779	1083.56
545.993	1098.56
546.206	1116.56
546.42	1129.56
546.633	1113.56
546.847	1082.56
547.06	1091.56
547.274	1104.56
547.487	1094.56
547.7	1114.56
547.914	1081.56
548.127	1105.56
548.34	1110.56
548.554	1107.56
548.767	1104.56
548.98	1099.56
549.193	1080.56
549.407	1097.56
549.62	1086.56
549.833	1097.56
550.046	1101.56
550.259	1088.56
550.473	1056.56
550.686	1091.56
550.899	1096.56
551.112	1086.56
551.325	1089.56
551.538	1072.56
551.751	1040.56
551.964	1093.56
552.177	1063.56
552.39	1039.56
552.603	1083.56
552.816	1102.56
553.029	1082.56
553.242	1133.56
553.455	1109.56
553.667	1120.56
553.88	1112.56
554.093	1045.56
554.306	1060.56
554.519	1082.56
554.732	1036.56
554.944	1006.56
555.157	1026.56
555.37	1008.56
555.583	1017.56
555.795	1002.56
556.008	1015.56
556.221	987.56
556.433	975.56
556.646	972.56
556.859	974.56
557.071	952.56
557.284	964.56
557.496	951.56
557.709	971.56
557.921	961.56
558.134	934.56
558.346	935.56
558.559	944.56
558.771	918.56
558.984	930.56
559.196	912.56
559.409	938.56
559.621	920.56
559.833	907.56
560.046	914.56
560.258	895.56
560.47	895.56
560.683	899.56
560.895	900.56
561.107	903.56
561.32	934.56
561.532	926.56
561.744	899.56
561.956	892.56
562.168	906.56
562.381	909.56
562.593	902.56
562.805	907.56
563.017	920.56
563.229	911.56
563.441	936.56
563.653	934.56
563.865	931.56
564.077	939.56
564.289	960.56
564.501	950.56
564.713	930.56
564.925	963.56
565.137	1000.56
565.349	1011.56
565.561	1012.56
565.773	1002.56
565.985	1034.56
566.197	1097.56
566.408	1060.56
566.62	1116.56
566.832	1130.56
567.044	1144.56
567.255	1144.56
567.467	1172.56
567.679	1173.56
567.891	1190.56
568.102	1138.56
568.314	1142.56
568.526	1111.56
568.737	1082.56
568.949	1041.56
569.161	998.56
569.372	976.56
569.584	937.56
569.795	932.56
570.007	924.56
570.218	893.56
570.43	882.56
570.641	861.56
570.853	883.56
571.064	850.56
571.276	836.56
571.487	826.56
571.698	836.56
571.91	842.56
572.121	802.56
572.333	799.56
572.544	808.56
572.755	788.56
572.966	786.56
573.178	751.56
573.389	770.56
573.6	743.56
573.811	750.56
574.023	739.56
574.234	738.56
574.445	744.56
574.656	731.56
574.867	721.56
575.078	714.56
575.289	713.56
575.501	694.56
575.712	690.56
575.923	715.56
576.134	695.56
576.345	705.56
576.556	699.56
576.767	698.56
576.978	688.56
577.188	658.56
577.399	702.56
577.61	683.56
577.821	665.56
578.032	662.56
578.243	658.56
578.454	654.56
578.665	670.56
578.875	651.56
579.086	644.56
579.297	659.56
579.508	625.56
579.718	642.56
579.929	646.56
580.14	624.56
580.35	599.56
580.561	636.56
580.772	626.56
580.982	623.56
581.193	594.56
581.403	633.56
581.614	600.56
581.825	612.56
582.035	623.56
582.246	622.56
582.456	602.56
582.667	609.56
582.877	623.56
583.087	607.56
583.298	600.56
583.508	611.56
583.719	609.56
583.929	586.56
584.139	626.56
584.35	592.56
584.56	599.56
584.77	590.56
584.981	577.56
585.191	581.56
585.401	576.56
585.611	581.56
585.821	594.56
586.032	580.56
586.242	604.56
586.452	585.56
586.662	584.56
586.872	599.56
587.082	602.56
587.292	573.56
587.502	574.56
587.713	564.56
587.923	590.56
588.133	568.56
588.343	583.56
588.553	567.56
588.762	566.56
588.972	568.56
589.182	624.56
589.392	618.56
589.602	573.56
589.812	603.56
590.022	596.56
590.232	545.56
590.441	578.56
590.651	570.56
590.861	595.56
591.071	583.56
591.281	574.56
591.49	570.56
591.7	583.56
591.91	593.56
592.119	597.56
592.329	593.56
592.539	599.56
592.748	568.56
592.958	627.56
593.167	619.56
593.377	625.56
593.587	610.56
593.796	601.56
594.006	602.56
594.215	606.56
594.424	606.56
594.634	591.56
594.843	571.56
595.053	569.56
595.262	561.56
595.472	581.56
595.681	534.56
595.89	557.56
596.1	528.56
596.309	540.56
596.518	517.56
596.727	522.56
596.937	542.56
597.146	528.56
597.355	515.56
597.564	516.56
597.774	502.56
597.983	487.56
598.192	500.56
598.401	511.56
598.61	463.56
598.819	478.56
599.028	489.56
599.237	500.56
599.446	496.56
599.655	479.56
599.864	486.56
600.073	475.56
600.282	470.56
600.491	486.56
600.7	475.56
600.909	471.56
601.118	479.56
601.327	454.56
601.536	472.56
601.745	465.56
601.953	453.56
602.162	465.56
602.371	467.56
602.58	450.56
602.789	450.56
602.997	454.56
603.206	460.56
603.415	443.56
603.623	461.56
603.832	460.56
604.041	454.56
604.249	451.56
604.458	448.56
604.666	427.56
604.875	438.56
605.084	424.56
605.292	428.56
605.501	448.56
605.709	432.56
605.918	441.56
606.126	436.56
606.334	440.56
606.543	446.56
606.751	436.56
606.96	426.56
607.168	430.56
607.376	422.56
607.585	427.56
607.793	411.56
608.001	434.56
608.21	400.56
608.418	425.56
608.626	421.56
608.834	401.56
609.043	419.56
609.251	403.56
609.459	397.56
609.667	419.56
609.875	408.56
610.083	420.56
610.291	416.56
610.499	406.56
610.707	416.56
610.916	411.56
611.124	384.56
611.332	416.56
611.54	404.56
611.748	393.56
611.955	385.56
612.163	400.56
612.371	408.56
612.579	383.56
612.787	400.56
612.995	404.56
613.203	399.56
613.411	394.56
613.618	411.56
613.826	391.56
614.034	388.56
614.242	402.56
614.449	410.56
614.657	403.56
614.865	403.56
615.072	387.56
615.28	390.56
615.488	390.56
615.695	376.56
615.903	388.56
616.111	387.56
616.318	406.56
616.526	387.56
616.733	378.56
616.941	359.56
617.148	384.56
617.356	388.56
617.563	388.56
617.771	404.56
617.978	399.56
618.185	393.56
618.393	376.56
618.6	376.56
618.807	387.56
619.015	370.56
619.222	369.56
619.429	380.56
619.637	367.56
619.844	377.56
620.051	348.56
620.258	366.56
620.466	375.56
620.673	354.56
620.88	382.56
621.087	354.56
621.294	352.56
621.501	339.56
621.708	347.56
621.915	364.56
622.122	341.56
622.329	381.56
622.536	352.56
622.743	349.56
622.95	344.56
623.157	354.56
623.364	347.56
623.571	347.56
623.778	338.56
623.985	359.56
624.192	352.56
624.399	356.56
624.606	343.56
624.812	359.56
625.019	341.56
625.226	342.56
625.433	334.56
625.639	338.56
625.846	333.56
626.053	321.56
626.259	314.56
626.466	317.56
626.673	318.56
626.879	328.56
627.086	321.56
627.293	346.56
627.499	310.56
627.706	345.56
627.912	321.56
628.119	324.56
628.325	325.56
628.532	338.56
628.738	323.56
628.945	314.56
629.151	332.56
629.357	328.56
629.564	314.56
629.77	324.56
629.976	312.56
630.183	310.56
630.389	307.56
630.595	322.56
630.802	307.56
631.008	292.56
631.214	292.56
631.42	296.56
631.627	297.56
631.833	287.56
632.039	286.56
632.245	309.56
632.451	296.56
632.657	295.56
632.863	289.56
633.069	298.56
633.275	303.56
633.481	293.56
633.688	286.56
633.893	302.56
634.099	277.56
634.305	290.56
634.511	288.56
634.717	282.56
634.923	292.56
635.129	278.56
635.335	261.56
635.541	280.56
635.747	279.56
635.952	286.56
636.158	277.56
636.364	278.56
636.57	283.56
636.775	290.56
636.981	278.56
637.187	282.56
637.392	275.56
637.598	287.56
637.804	269.56
638.009	269.56
638.215	265.56
638.421	284.56
638.626	284.56
638.832	270.56
639.037	268.56
639.243	272.56
639.448	274.56
639.654	271.56
639.859	260.56
640.065	269.56
640.27	264.56
640.475	257.56
640.681	255.56
640.886	257.56
641.091	266.56
641.297	258.56
641.502	254.56
641.707	244.56
641.913	257.56
642.118	263.56
642.323	269.56
642.528	267.56
642.733	261.56
642.939	256.56
643.144	255.56
643.349	265.56
643.554	265.56
643.759	249.56
643.964	256.56
644.169	254.56
644.374	257.56
644.579	262.56
644.784	253.56
644.989	254.56
645.194	273.56
645.399	260.56
645.604	233.56
645.809	242.56
646.014	260.56
646.219	261.56
646.423	263.56
646.628	247.56
646.833	262.56
647.038	243.56
647.243	256.56
647.447	256.56
647.652	256.56
647.857	235.56
648.062	268.56
648.266	249.56
648.471	242.56
648.676	248.56
648.88	256.56
649.085	240.56
649.289	239.56
649.494	228.56
649.698	233.56
649.903	244.56
650.107	235.56
650.312	238.56
650.516	234.56
650.721	237.56
650.925	218.56
651.13	228.56
651.334	240.56
651.539	232.56
651.743	222.56
651.947	232.56
652.152	224.56
652.356	203.56
652.56	210.56
652.764	207.56
652.969	223.56
653.173	208.56
653.377	202.56
653.581	200.56
653.785	184.56
653.99	194.56
654.194	190.56
654.398	182.56
654.602	164.56
654.806	172.56
655.01	201.56
655.214	192.56
655.418	194.56
655.622	171.56
655.826	174.56
656.03	187.56
656.234	189.56
656.438	188.56
656.642	178.56
656.846	178.56
657.049	163.56
657.253	148.56
657.457	161.56
657.661	172.56
657.865	150.56
658.068	140.56
658.272	146.56
658.476	131.56
658.68	135.56
658.883	130.56
659.087	116.56
659.291	135.56
659.494	132.56
659.698	118.56
659.901	127.56
660.105	114.56
660.309	122.56
660.512	104.56
660.716	112.56
660.919	100.56
661.123	90.56
661.326	86.56
661.53	90.56
661.733	85.56
661.936	86.56
662.14	100.56
662.343	102.56
662.546	86.56
662.75	86.56
662.953	100.56
663.156	86.56
663.36	82.56
663.563	94.56
663.766	69.56
663.969	98.56
664.173	70.56
664.376	76.56
664.579	89.56
664.782	102.56
664.985	82.56
665.188	70.56
665.391	87.56
665.594	86.56
665.797	78.56
666	80.56
666.203	91.56
666.406	82.56
666.609	86.56
666.812	93.56
667.015	85.56
667.218	86.56
667.421	80.56
667.624	98.56
667.827	87.56
668.03	91.56
668.232	94.56
668.435	82.56
668.638	78.56
668.841	64.56
669.043	72.56
669.246	79.56
669.449	89.56
669.651	77.56
669.854	87.56
670.057	74.56
670.259	85.56
670.462	87.56
670.665	72.56
670.867	73.56
671.07	82.56
671.272	87.56
671.475	105.56
671.677	84.56
671.88	95.56
672.082	89.56
672.284	89.56
672.487	71.56
672.689	76.56
672.892	79.56
