Data from Ni(NO3)2@0.0625M.TitratingCurve.Agarose3%dH2O.NegLispCup.LampEnergy10.LIBS07252019_HRD10591_18-14-07-569.txt Node
Date: Thu Jul 25 18:14:07 EDT 2019
User: cochatt
Spectrometer: HR+D1059
Trigger mode: 1
Integration Time (sec): 1.000000E-1
Scans to average: 1
Electric dark correction enabled: true
Nonlinearity correction enabled: false
Boxcar width: 0
XAxis mode: Wavelengths
Number of Pixels in Spectrum: 2048
>>>>>Begin Spectral Data<<<<<
223.165	-23.25
223.4	-23.25
223.635	-23.25
223.869	-16.25
224.104	-8.25
224.338	-23.25
224.573	-22.25
224.808	-21.25
225.042	-21.25
225.277	-6.25
225.511	-1.25
225.746	7.75
225.98	8.75
226.215	17.75
226.449	28.75
226.683	19.75
226.918	32.75
227.152	27.75
227.387	22.75
227.621	39.75
227.856	45.75
228.09	43.75
228.324	56.75
228.559	48.75
228.793	73.75
229.027	112.75
229.262	107.75
229.496	116.75
229.73	126.75
229.964	123.75
230.199	124.75
230.433	130.75
230.667	129.75
230.901	141.75
231.136	144.75
231.37	158.75
231.604	139.75
231.838	153.75
232.072	147.75
232.306	147.75
232.541	143.75
232.775	146.75
233.009	131.75
233.243	145.75
233.477	158.75
233.711	139.75
233.945	141.75
234.179	152.75
234.413	158.75
234.647	144.75
234.881	146.75
235.115	156.75
235.349	148.75
235.583	147.75
235.817	164.75
236.051	163.75
236.285	151.75
236.519	167.75
236.753	146.75
236.987	154.75
237.221	169.75
237.455	162.75
237.689	167.75
237.922	153.75
238.156	162.75
238.39	163.75
238.624	170.75
238.858	176.75
239.091	176.75
239.325	170.75
239.559	187.75
239.793	156.75
240.027	171.75
240.26	179.75
240.494	188.75
240.728	180.75
240.961	187.75
241.195	183.75
241.429	190.75
241.662	170.75
241.896	204.75
242.13	181.75
242.363	194.75
242.597	176.75
242.83	211.75
243.064	202.75
243.298	200.75
243.531	200.75
243.765	216.75
243.998	220.75
244.232	220.75
244.465	193.75
244.699	201.75
244.932	227.75
245.166	219.75
245.399	216.75
245.633	243.75
245.866	222.75
246.099	221.75
246.333	223.75
246.566	230.75
246.8	214.75
247.033	219.75
247.266	234.75
247.5	223.75
247.733	238.75
247.966	237.75
248.2	231.75
248.433	243.75
248.666	242.75
248.899	242.75
249.133	257.75
249.366	255.75
249.599	245.75
249.832	245.75
250.066	257.75
250.299	252.75
250.532	248.75
250.765	258.75
250.998	262.75
251.231	268.75
251.465	263.75
251.698	259.75
251.931	272.75
252.164	260.75
252.397	268.75
252.63	281.75
252.863	259.75
253.096	274.75
253.329	269.75
253.562	294.75
253.795	259.75
254.028	278.75
254.261	294.75
254.494	279.75
254.727	274.75
254.96	265.75
255.193	283.75
255.426	294.75
255.659	297.75
255.892	297.75
256.124	296.75
256.357	305.75
256.59	299.75
256.823	307.75
257.056	294.75
257.289	282.75
257.521	304.75
257.754	304.75
257.987	311.75
258.22	297.75
258.452	306.75
258.685	315.75
258.918	304.75
259.151	298.75
259.383	323.75
259.616	304.75
259.849	330.75
260.081	332.75
260.314	326.75
260.547	319.75
260.779	316.75
261.012	313.75
261.244	305.75
261.477	327.75
261.71	335.75
261.942	327.75
262.175	338.75
262.407	336.75
262.64	346.75
262.872	342.75
263.105	337.75
263.337	344.75
263.57	327.75
263.802	328.75
264.035	335.75
264.267	342.75
264.499	341.75
264.732	362.75
264.964	346.75
265.197	339.75
265.429	346.75
265.661	368.75
265.894	362.75
266.126	360.75
266.358	355.75
266.591	339.75
266.823	358.75
267.055	352.75
267.287	343.75
267.52	358.75
267.752	362.75
267.984	366.75
268.216	374.75
268.448	385.75
268.681	363.75
268.913	367.75
269.145	388.75
269.377	391.75
269.609	372.75
269.841	380.75
270.073	381.75
270.306	393.75
270.538	391.75
270.77	367.75
271.002	388.75
271.234	378.75
271.466	392.75
271.698	374.75
271.93	402.75
272.162	404.75
272.394	374.75
272.626	403.75
272.858	387.75
273.09	392.75
273.322	410.75
273.553	395.75
273.785	412.75
274.017	430.75
274.249	405.75
274.481	404.75
274.713	393.75
274.945	414.75
275.176	402.75
275.408	410.75
275.64	419.75
275.872	423.75
276.104	415.75
276.335	410.75
276.567	425.75
276.799	416.75
277.031	422.75
277.262	423.75
277.494	418.75
277.726	416.75
277.957	433.75
278.189	438.75
278.421	456.75
278.652	441.75
278.884	453.75
279.115	423.75
279.347	461.75
279.579	433.75
279.81	434.75
280.042	441.75
280.273	445.75
280.505	484.75
280.736	456.75
280.968	449.75
281.199	464.75
281.431	438.75
281.662	440.75
281.894	482.75
282.125	467.75
282.356	466.75
282.588	466.75
282.819	475.75
283.051	476.75
283.282	465.75
283.513	458.75
283.745	466.75
283.976	492.75
284.207	497.75
284.439	470.75
284.67	466.75
284.901	491.75
285.132	490.75
285.364	484.75
285.595	503.75
285.826	486.75
286.057	495.75
286.288	496.75
286.52	486.75
286.751	498.75
286.982	491.75
287.213	513.75
287.444	491.75
287.675	504.75
287.906	515.75
288.138	516.75
288.369	491.75
288.6	500.75
288.831	514.75
289.062	508.75
289.293	514.75
289.524	513.75
289.755	524.75
289.986	531.75
290.217	523.75
290.448	525.75
290.679	536.75
290.91	524.75
291.141	524.75
291.371	526.75
291.602	535.75
291.833	510.75
292.064	529.75
292.295	518.75
292.526	531.75
292.757	531.75
292.987	515.75
293.218	510.75
293.449	579.75
293.68	550.75
293.91	534.75
294.141	540.75
294.372	533.75
294.603	512.75
294.833	544.75
295.064	533.75
295.295	528.75
295.525	555.75
295.756	561.75
295.987	546.75
296.217	545.75
296.448	548.75
296.679	554.75
296.909	546.75
297.14	543.75
297.37	576.75
297.601	581.75
297.831	563.75
298.062	566.75
298.292	582.75
298.523	602.75
298.753	610.75
298.984	610.75
299.214	598.75
299.445	568.75
299.675	575.75
299.905	576.75
300.136	571.75
300.366	562.75
300.597	585.75
300.827	597.75
301.057	603.75
301.288	614.75
301.518	617.75
301.748	593.75
301.979	599.75
302.209	601.75
302.439	594.75
302.669	611.75
302.9	584.75
303.13	611.75
303.36	608.75
303.59	568.75
303.82	591.75
304.051	608.75
304.281	594.75
304.511	594.75
304.741	628.75
304.971	592.75
305.201	577.75
305.431	579.75
305.661	587.75
305.891	592.75
306.121	573.75
306.352	590.75
306.582	589.75
306.812	586.75
307.042	585.75
307.272	579.75
307.502	561.75
307.731	560.75
307.961	566.75
308.191	590.75
308.421	602.75
308.651	578.75
308.881	580.75
309.111	583.75
309.341	580.75
309.571	570.75
309.8	585.75
310.03	588.75
310.26	588.75
310.49	575.75
310.72	586.75
310.949	595.75
311.179	597.75
311.409	588.75
311.639	591.75
311.868	577.75
312.098	604.75
312.328	592.75
312.557	595.75
312.787	594.75
313.017	607.75
313.246	628.75
313.476	607.75
313.706	615.75
313.935	636.75
314.165	653.75
314.394	634.75
314.624	622.75
314.853	600.75
315.083	598.75
315.312	613.75
315.542	633.75
315.771	609.75
316.001	602.75
316.23	589.75
316.46	601.75
316.689	601.75
316.919	594.75
317.148	577.75
317.377	596.75
317.607	597.75
317.836	589.75
318.065	606.75
318.295	638.75
318.524	602.75
318.753	570.75
318.983	604.75
319.212	603.75
319.441	582.75
319.67	614.75
319.9	606.75
320.129	596.75
320.358	587.75
320.587	606.75
320.816	635.75
321.046	592.75
321.275	628.75
321.504	603.75
321.733	604.75
321.962	614.75
322.191	609.75
322.42	586.75
322.649	603.75
322.878	632.75
323.108	619.75
323.337	624.75
323.566	624.75
323.795	634.75
324.024	610.75
324.253	598.75
324.482	628.75
324.71	635.75
324.939	617.75
325.168	652.75
325.397	630.75
325.626	637.75
325.855	659.75
326.084	650.75
326.313	672.75
326.542	660.75
326.77	689.75
326.999	672.75
327.228	664.75
327.457	678.75
327.686	677.75
327.914	650.75
328.143	679.75
328.372	667.75
328.6	675.75
328.829	672.75
329.058	657.75
329.287	661.75
329.515	682.75
329.744	681.75
329.972	679.75
330.201	674.75
330.43	701.75
330.658	697.75
330.887	689.75
331.115	701.75
331.344	703.75
331.572	705.75
331.801	712.75
332.03	730.75
332.258	726.75
332.486	763.75
332.715	804.75
332.943	830.75
333.172	843.75
333.4	907.75
333.629	914.75
333.857	911.75
334.085	899.75
334.314	867.75
334.542	859.75
334.771	855.75
334.999	831.75
335.227	852.75
335.455	817.75
335.684	847.75
335.912	840.75
336.14	810.75
336.369	823.75
336.597	786.75
336.825	806.75
337.053	811.75
337.281	779.75
337.51	786.75
337.738	773.75
337.966	756.75
338.194	752.75
338.422	729.75
338.65	726.75
338.878	729.75
339.106	740.75
339.334	724.75
339.562	716.75
339.79	701.75
340.018	718.75
340.246	680.75
340.474	679.75
340.702	694.75
340.93	701.75
341.158	706.75
341.386	665.75
341.614	688.75
341.842	678.75
342.07	677.75
342.298	689.75
342.526	695.75
342.754	707.75
342.981	697.75
343.209	699.75
343.437	747.75
343.665	788.75
343.893	844.75
344.12	883.75
344.348	836.75
344.576	790.75
344.804	754.75
345.031	744.75
345.259	726.75
345.487	702.75
345.714	718.75
345.942	702.75
346.17	700.75
346.397	676.75
346.625	690.75
346.853	690.75
347.08	677.75
347.308	687.75
347.535	693.75
347.763	689.75
347.99	722.75
348.218	683.75
348.445	675.75
348.673	684.75
348.9	675.75
349.128	676.75
349.355	682.75
349.583	692.75
349.81	664.75
350.037	671.75
350.265	664.75
350.492	665.75
350.72	660.75
350.947	667.75
351.174	646.75
351.402	646.75
351.629	634.75
351.856	649.75
352.083	638.75
352.311	620.75
352.538	656.75
352.765	642.75
352.992	625.75
353.22	636.75
353.447	638.75
353.674	656.75
353.901	635.75
354.128	627.75
354.355	628.75
354.583	640.75
354.81	653.75
355.037	627.75
355.264	652.75
355.491	670.75
355.718	652.75
355.945	651.75
356.172	648.75
356.399	656.75
356.626	662.75
356.853	642.75
357.08	662.75
357.307	668.75
357.534	665.75
357.761	668.75
357.988	649.75
358.215	651.75
358.441	637.75
358.668	682.75
358.895	656.75
359.122	634.75
359.349	674.75
359.576	630.75
359.802	641.75
360.029	652.75
360.256	646.75
360.483	656.75
360.709	634.75
360.936	663.75
361.163	655.75
361.39	624.75
361.616	643.75
361.843	637.75
362.07	647.75
362.296	660.75
362.523	662.75
362.749	640.75
362.976	629.75
363.203	665.75
363.429	635.75
363.656	630.75
363.882	661.75
364.109	629.75
364.335	628.75
364.562	638.75
364.788	650.75
365.015	638.75
365.241	644.75
365.468	646.75
365.694	663.75
365.92	643.75
366.147	650.75
366.373	658.75
366.599	622.75
366.826	647.75
367.052	643.75
367.278	649.75
367.505	645.75
367.731	681.75
367.957	649.75
368.184	658.75
368.41	658.75
368.636	644.75
368.862	670.75
369.089	671.75
369.315	687.75
369.541	659.75
369.767	665.75
369.993	689.75
370.219	680.75
370.445	689.75
370.672	682.75
370.898	696.75
371.124	702.75
371.35	718.75
371.576	700.75
371.802	700.75
372.028	687.75
372.254	717.75
372.48	703.75
372.706	733.75
372.932	714.75
373.158	742.75
373.384	714.75
373.61	691.75
373.835	712.75
374.061	692.75
374.287	716.75
374.513	710.75
374.739	727.75
374.965	784.75
375.191	790.75
375.416	781.75
375.642	750.75
375.868	760.75
376.094	763.75
376.319	770.75
376.545	732.75
376.771	752.75
376.997	714.75
377.222	723.75
377.448	728.75
377.674	708.75
377.899	692.75
378.125	691.75
378.35	699.75
378.576	683.75
378.802	704.75
379.027	696.75
379.253	683.75
379.478	701.75
379.704	683.75
379.929	705.75
380.155	714.75
380.38	699.75
380.606	712.75
380.831	698.75
381.057	700.75
381.282	709.75
381.507	722.75
381.733	705.75
381.958	716.75
382.184	715.75
382.409	741.75
382.634	756.75
382.86	733.75
383.085	759.75
383.31	794.75
383.535	778.75
383.761	770.75
383.986	823.75
384.211	834.75
384.436	858.75
384.662	853.75
384.887	873.75
385.112	878.75
385.337	851.75
385.562	867.75
385.787	872.75
386.013	885.75
386.238	872.75
386.463	884.75
386.688	860.75
386.913	841.75
387.138	867.75
387.363	841.75
387.588	820.75
387.813	842.75
388.038	862.75
388.263	843.75
388.488	841.75
388.713	850.75
388.938	818.75
389.163	815.75
389.387	826.75
389.612	837.75
389.837	820.75
390.062	826.75
390.287	833.75
390.512	824.75
390.736	840.75
390.961	835.75
391.186	859.75
391.411	899.75
391.636	944.75
391.86	944.75
392.085	992.75
392.31	960.75
392.534	914.75
392.759	910.75
392.984	902.75
393.208	900.75
393.433	890.75
393.658	906.75
393.882	899.75
394.107	903.75
394.331	921.75
394.556	910.75
394.78	902.75
395.005	917.75
395.229	907.75
395.454	940.75
395.678	931.75
395.903	967.75
396.127	939.75
396.352	881.75
396.576	894.75
396.801	894.75
397.025	889.75
397.249	901.75
397.474	951.75
397.698	920.75
397.922	940.75
398.147	956.75
398.371	963.75
398.595	994.75
398.82	1059.75
399.044	1114.75
399.268	1211.75
399.492	1469.75
399.717	1685.75
399.941	1710.75
400.165	1462.75
400.389	1286.75
400.613	1189.75
400.837	1131.75
401.062	1064.75
401.286	1052.75
401.51	1064.75
401.734	1049.75
401.958	1104.75
402.182	1044.75
402.406	1087.75
402.63	1118.75
402.854	1144.75
403.078	1148.75
403.302	1214.75
403.526	1206.75
403.75	1258.75
403.974	1294.75
404.198	1272.75
404.422	1296.75
404.645	1278.75
404.869	1208.75
405.093	1238.75
405.317	1203.75
405.541	1211.75
405.765	1170.75
405.988	1180.75
406.212	1188.75
406.436	1157.75
406.66	1207.75
406.883	1195.75
407.107	1288.75
407.331	1346.75
407.555	1407.75
407.778	1376.75
408.002	1377.75
408.226	1317.75
408.449	1270.75
408.673	1255.75
408.896	1228.75
409.12	1196.75
409.344	1238.75
409.567	1193.75
409.791	1256.75
410.014	1251.75
410.238	1243.75
410.461	1218.75
410.685	1218.75
410.908	1148.75
411.132	1148.75
411.355	1114.75
411.578	1130.75
411.802	1111.75
412.025	1144.75
412.249	1156.75
412.472	1134.75
412.695	1118.75
412.919	1068.75
413.142	1066.75
413.365	1067.75
413.589	1086.75
413.812	1058.75
414.035	1028.75
414.258	1035.75
414.482	1062.75
414.705	1110.75
414.928	1096.75
415.151	1073.75
415.374	1097.75
415.597	1054.75
415.821	1051.75
416.044	1054.75
416.267	1034.75
416.49	1025.75
416.713	1060.75
416.936	1065.75
417.159	1074.75
417.382	1024.75
417.605	1056.75
417.828	1077.75
418.051	1054.75
418.274	1048.75
418.497	1085.75
418.72	1108.75
418.943	1088.75
419.166	1179.75
419.389	1215.75
419.611	1231.75
419.834	1171.75
420.057	1126.75
420.28	1083.75
420.503	1059.75
420.726	1056.75
420.948	1031.75
421.171	1053.75
421.394	1008.75
421.617	1047.75
421.839	1054.75
422.062	1079.75
422.285	1033.75
422.507	1098.75
422.73	1078.75
422.953	1055.75
423.175	1126.75
423.398	1174.75
423.621	1120.75
423.843	1119.75
424.066	1163.75
424.288	1165.75
424.511	1121.75
424.733	1117.75
424.956	1091.75
425.178	1086.75
425.401	1054.75
425.623	1066.75
425.846	1007.75
426.068	1018.75
426.291	1014.75
426.513	1012.75
426.735	985.75
426.958	991.75
427.18	971.75
427.402	962.75
427.625	965.75
427.847	952.75
428.069	941.75
428.292	950.75
428.514	928.75
428.736	925.75
428.958	930.75
429.181	923.75
429.403	944.75
429.625	944.75
429.847	911.75
430.069	902.75
430.292	934.75
430.514	891.75
430.736	897.75
430.958	932.75
431.18	898.75
431.402	943.75
431.624	922.75
431.846	932.75
432.068	947.75
432.29	981.75
432.512	926.75
432.734	936.75
432.956	936.75
433.178	934.75
433.4	972.75
433.622	956.75
433.844	959.75
434.066	959.75
434.287	951.75
434.509	991.75
434.731	1040.75
434.953	1082.75
435.175	1081.75
435.397	1064.75
435.618	1037.75
435.84	994.75
436.062	987.75
436.284	919.75
436.505	938.75
436.727	962.75
436.949	967.75
437.17	930.75
437.392	901.75
437.614	925.75
437.835	900.75
438.057	926.75
438.278	899.75
438.5	884.75
438.721	919.75
438.943	936.75
439.165	906.75
439.386	910.75
439.608	905.75
439.829	940.75
440.05	928.75
440.272	974.75
440.493	970.75
440.715	946.75
440.936	970.75
441.158	1006.75
441.379	1008.75
441.6	1051.75
441.822	1086.75
442.043	1081.75
442.264	1089.75
442.486	1059.75
442.707	1031.75
442.928	1045.75
443.149	1072.75
443.371	1044.75
443.592	1059.75
443.813	1050.75
444.034	1093.75
444.255	1114.75
444.476	1202.75
444.698	1238.75
444.919	1293.75
445.14	1404.75
445.361	1213.75
445.582	1111.75
445.803	1024.75
446.024	1042.75
446.245	1008.75
446.466	973.75
446.687	954.75
446.908	947.75
447.129	918.75
447.35	913.75
447.571	909.75
447.792	904.75
448.013	908.75
448.234	881.75
448.455	872.75
448.675	859.75
448.896	851.75
449.117	863.75
449.338	861.75
449.559	873.75
449.779	854.75
450	858.75
450.221	879.75
450.442	887.75
450.662	883.75
450.883	907.75
451.104	920.75
451.324	909.75
451.545	920.75
451.766	884.75
451.986	895.75
452.207	883.75
452.428	877.75
452.648	878.75
452.869	870.75
453.089	873.75
453.31	889.75
453.53	884.75
453.751	851.75
453.971	855.75
454.192	852.75
454.412	830.75
454.633	841.75
454.853	826.75
455.073	830.75
455.294	820.75
455.514	830.75
455.734	800.75
455.955	836.75
456.175	821.75
456.395	798.75
456.616	798.75
456.836	804.75
457.056	800.75
457.276	808.75
457.497	820.75
457.717	808.75
457.937	814.75
458.157	829.75
458.377	844.75
458.598	867.75
458.818	883.75
459.038	932.75
459.258	942.75
459.478	964.75
459.698	968.75
459.918	1003.75
460.138	1060.75
460.358	1110.75
460.578	1148.75
460.798	1138.75
461.018	1155.75
461.238	1139.75
461.458	1108.75
461.678	1094.75
461.898	1129.75
462.118	1107.75
462.338	1174.75
462.558	1227.75
462.777	1252.75
462.997	1380.75
463.217	1525.75
463.437	1594.75
463.657	1429.75
463.876	1348.75
464.096	1317.75
464.316	1375.75
464.536	1361.75
464.755	1318.75
464.975	1292.75
465.195	1182.75
465.414	1109.75
465.634	1050.75
465.854	1024.75
466.073	990.75
466.293	932.75
466.512	950.75
466.732	890.75
466.951	921.75
467.171	915.75
467.391	918.75
467.61	919.75
467.829	938.75
468.049	914.75
468.268	893.75
468.488	854.75
468.707	881.75
468.927	863.75
469.146	882.75
469.365	890.75
469.585	879.75
469.804	948.75
470.023	943.75
470.243	930.75
470.462	940.75
470.681	968.75
470.901	944.75
471.12	934.75
471.339	928.75
471.558	892.75
471.777	875.75
471.997	863.75
472.216	878.75
472.435	884.75
472.654	862.75
472.873	864.75
473.092	850.75
473.311	809.75
473.53	852.75
473.749	851.75
473.968	869.75
474.187	849.75
474.406	836.75
474.625	856.75
474.844	858.75
475.063	825.75
475.282	853.75
475.501	871.75
475.72	883.75
475.939	871.75
476.158	890.75
476.377	896.75
476.596	869.75
476.814	887.75
477.033	911.75
477.252	910.75
477.471	931.75
477.69	951.75
477.908	1000.75
478.127	991.75
478.346	1006.75
478.564	1043.75
478.783	1054.75
479.002	1096.75
479.22	1083.75
479.439	1083.75
479.658	1086.75
479.876	1058.75
480.095	1062.75
480.313	1111.75
480.532	1200.75
480.751	1166.75
480.969	1119.75
481.188	1065.75
481.406	1028.75
481.624	1009.75
481.843	995.75
482.061	984.75
482.28	964.75
482.498	976.75
482.717	967.75
482.935	954.75
483.153	975.75
483.372	976.75
483.59	954.75
483.808	979.75
484.027	958.75
484.245	969.75
484.463	995.75
484.681	1042.75
484.9	1023.75
485.118	1024.75
485.336	982.75
485.554	1046.75
485.772	1022.75
485.99	1025.75
486.209	1055.75
486.427	1056.75
486.645	1054.75
486.863	1070.75
487.081	1029.75
487.299	1022.75
487.517	1031.75
487.735	1037.75
487.953	1040.75
488.171	1000.75
488.389	1008.75
488.607	994.75
488.825	977.75
489.043	988.75
489.261	978.75
489.479	995.75
489.696	995.75
489.914	1030.75
490.132	1001.75
490.35	1051.75
490.568	987.75
490.786	993.75
491.003	1002.75
491.221	1038.75
491.439	1062.75
491.657	1042.75
491.874	1020.75
492.092	1017.75
492.31	1035.75
492.527	1042.75
492.745	1044.75
492.963	1028.75
493.18	1048.75
493.398	1047.75
493.615	1055.75
493.833	1072.75
494.05	1064.75
494.268	1083.75
494.485	1080.75
494.703	1107.75
494.92	1072.75
495.138	1084.75
495.355	1079.75
495.573	1080.75
495.79	1066.75
496.008	1086.75
496.225	1080.75
496.442	1114.75
496.66	1137.75
496.877	1119.75
497.094	1136.75
497.312	1168.75
497.529	1183.75
497.746	1226.75
497.963	1279.75
498.181	1312.75
498.398	1361.75
498.615	1450.75
498.832	1548.75
499.049	1644.75
499.267	1747.75
499.484	1978.75
499.701	2217.75
499.918	2457.75
500.135	2816.75
500.352	3291.75
500.569	3518.75
500.786	3486.75
501.003	3228.75
501.22	2865.75
501.437	2466.75
501.654	2177.75
501.871	1944.75
502.088	1759.75
502.305	1629.75
502.522	1552.75
502.739	1485.75
502.956	1392.75
503.172	1358.75
503.389	1305.75
503.606	1228.75
503.823	1244.75
504.04	1262.75
504.256	1267.75
504.473	1266.75
504.69	1342.75
504.907	1319.75
505.123	1241.75
505.34	1137.75
505.557	1078.75
505.773	1079.75
505.99	1066.75
506.207	1034.75
506.423	1007.75
506.64	978.75
506.856	984.75
507.073	965.75
507.289	968.75
507.506	940.75
507.722	967.75
507.939	945.75
508.155	940.75
508.372	939.75
508.588	909.75
508.805	906.75
509.021	902.75
509.238	921.75
509.454	869.75
509.67	892.75
509.887	928.75
510.103	882.75
510.319	868.75
510.536	883.75
510.752	878.75
510.968	896.75
511.184	862.75
511.401	886.75
511.617	886.75
511.833	889.75
512.049	860.75
512.265	878.75
512.481	862.75
512.698	877.75
512.914	894.75
513.13	886.75
513.346	884.75
513.562	870.75
513.778	898.75
513.994	886.75
514.21	890.75
514.426	891.75
514.642	867.75
514.858	902.75
515.074	902.75
515.29	922.75
515.506	921.75
515.721	934.75
515.937	926.75
516.153	958.75
516.369	986.75
516.585	993.75
516.801	1038.75
517.016	1106.75
517.232	1139.75
517.448	1216.75
517.664	1263.75
517.879	1232.75
518.095	1231.75
518.311	1230.75
518.527	1174.75
518.742	1158.75
518.958	1058.75
519.173	1026.75
519.389	1012.75
519.605	953.75
519.82	919.75
520.036	918.75
520.251	911.75
520.467	909.75
520.682	893.75
520.898	872.75
521.113	898.75
521.329	883.75
521.544	881.75
521.76	860.75
521.975	821.75
522.19	841.75
522.406	837.75
522.621	856.75
522.836	834.75
523.052	836.75
523.267	795.75
523.482	832.75
523.698	810.75
523.913	803.75
524.128	832.75
524.343	827.75
524.559	806.75
524.774	782.75
524.989	817.75
525.204	796.75
525.419	799.75
525.634	818.75
525.849	809.75
526.064	816.75
526.28	800.75
526.495	808.75
526.71	793.75
526.925	789.75
527.14	792.75
527.355	793.75
527.57	793.75
527.785	769.75
527.999	810.75
528.214	780.75
528.429	816.75
528.644	801.75
528.859	789.75
529.074	792.75
529.289	801.75
529.503	786.75
529.718	788.75
529.933	794.75
530.148	801.75
530.363	806.75
530.577	800.75
530.792	796.75
531.007	791.75
531.221	821.75
531.436	799.75
531.651	793.75
531.865	799.75
532.08	794.75
532.295	818.75
532.509	806.75
532.724	793.75
532.938	831.75
533.153	815.75
533.367	816.75
533.582	819.75
533.796	818.75
534.011	805.75
534.225	770.75
534.44	787.75
534.654	760.75
534.868	770.75
535.083	787.75
535.297	792.75
535.511	779.75
535.726	753.75
535.94	754.75
536.154	778.75
536.369	769.75
536.583	740.75
536.797	760.75
537.011	747.75
537.225	748.75
537.44	741.75
537.654	739.75
537.868	718.75
538.082	745.75
538.296	726.75
538.51	740.75
538.724	756.75
538.938	737.75
539.153	737.75
539.367	719.75
539.581	731.75
539.795	721.75
540.009	732.75
540.222	721.75
540.436	698.75
540.65	738.75
540.864	691.75
541.078	731.75
541.292	718.75
541.506	708.75
541.72	702.75
541.934	690.75
542.147	697.75
542.361	693.75
542.575	729.75
542.789	726.75
543.002	678.75
543.216	695.75
543.43	681.75
543.644	709.75
543.857	678.75
544.071	662.75
544.285	729.75
544.498	706.75
544.712	681.75
544.925	705.75
545.139	715.75
545.352	734.75
545.566	719.75
545.779	715.75
545.993	722.75
546.206	722.75
546.42	736.75
546.633	717.75
546.847	731.75
547.06	705.75
547.274	715.75
547.487	726.75
547.7	717.75
547.914	730.75
548.127	725.75
548.34	716.75
548.554	726.75
548.767	720.75
548.98	743.75
549.193	727.75
549.407	736.75
549.62	731.75
549.833	757.75
550.046	734.75
550.259	733.75
550.473	737.75
550.686	725.75
550.899	686.75
551.112	698.75
551.325	701.75
551.538	719.75
551.751	695.75
551.964	715.75
552.177	717.75
552.39	732.75
552.603	754.75
552.816	766.75
553.029	779.75
553.242	791.75
553.455	801.75
553.667	813.75
553.88	795.75
554.093	794.75
554.306	754.75
554.519	739.75
554.732	724.75
554.944	705.75
555.157	713.75
555.37	731.75
555.583	699.75
555.795	673.75
556.008	646.75
556.221	630.75
556.433	641.75
556.646	656.75
556.859	631.75
557.071	622.75
557.284	602.75
557.496	640.75
557.709	626.75
557.921	616.75
558.134	614.75
558.346	614.75
558.559	632.75
558.771	622.75
558.984	595.75
559.196	606.75
559.409	605.75
559.621	592.75
559.833	614.75
560.046	612.75
560.258	596.75
560.47	598.75
560.683	593.75
560.895	605.75
561.107	595.75
561.32	600.75
561.532	599.75
561.744	601.75
561.956	598.75
562.168	616.75
562.381	618.75
562.593	609.75
562.805	619.75
563.017	599.75
563.229	608.75
563.441	632.75
563.653	626.75
563.865	613.75
564.077	646.75
564.289	609.75
564.501	643.75
564.713	638.75
564.925	644.75
565.137	646.75
565.349	666.75
565.561	690.75
565.773	687.75
565.985	767.75
566.197	780.75
566.408	820.75
566.62	928.75
566.832	1018.75
567.044	1022.75
567.255	1030.75
567.467	1002.75
567.679	1091.75
567.891	1196.75
568.102	1262.75
568.314	1226.75
568.526	1071.75
568.737	936.75
568.949	840.75
569.161	792.75
569.372	763.75
569.584	687.75
569.795	664.75
570.007	652.75
570.218	654.75
570.43	622.75
570.641	618.75
570.853	629.75
571.064	640.75
571.276	662.75
571.487	624.75
571.698	587.75
571.91	582.75
572.121	567.75
572.333	567.75
572.544	532.75
572.755	534.75
572.966	503.75
573.178	524.75
573.389	504.75
573.6	511.75
573.811	499.75
574.023	507.75
574.234	497.75
574.445	499.75
574.656	499.75
574.867	502.75
575.078	505.75
575.289	510.75
575.501	496.75
575.712	496.75
575.923	487.75
576.134	489.75
576.345	481.75
576.556	489.75
576.767	491.75
576.978	479.75
577.188	471.75
577.399	457.75
577.61	466.75
577.821	471.75
578.032	465.75
578.243	458.75
578.454	452.75
578.665	455.75
578.875	450.75
579.086	442.75
579.297	454.75
579.508	443.75
579.718	443.75
579.929	428.75
580.14	444.75
580.35	420.75
580.561	424.75
580.772	435.75
580.982	431.75
581.193	430.75
581.403	425.75
581.614	444.75
581.825	439.75
582.035	433.75
582.246	430.75
582.456	419.75
582.667	426.75
582.877	415.75
583.087	411.75
583.298	436.75
583.508	425.75
583.719	407.75
583.929	412.75
584.139	424.75
584.35	382.75
584.56	394.75
584.77	413.75
584.981	418.75
585.191	413.75
585.401	395.75
585.611	405.75
585.821	394.75
586.032	414.75
586.242	394.75
586.452	407.75
586.662	397.75
586.872	408.75
587.082	416.75
587.292	394.75
587.502	402.75
587.713	394.75
587.923	384.75
588.133	397.75
588.343	402.75
588.553	417.75
588.762	407.75
588.972	385.75
589.182	414.75
589.392	407.75
589.602	398.75
589.812	397.75
590.022	396.75
590.232	416.75
590.441	397.75
590.651	406.75
590.861	411.75
591.071	439.75
591.281	417.75
591.49	404.75
591.7	419.75
591.91	448.75
592.119	443.75
592.329	458.75
592.539	457.75
592.748	465.75
592.958	497.75
593.167	524.75
593.377	546.75
593.587	530.75
593.796	534.75
594.006	544.75
594.215	533.75
594.424	527.75
594.634	518.75
594.843	492.75
595.053	456.75
595.262	475.75
595.472	446.75
595.681	426.75
595.89	419.75
596.1	414.75
596.309	396.75
596.518	405.75
596.727	388.75
596.937	384.75
597.146	378.75
597.355	392.75
597.564	386.75
597.774	384.75
597.983	367.75
598.192	344.75
598.401	349.75
598.61	360.75
598.819	353.75
599.028	339.75
599.237	343.75
599.446	344.75
599.655	336.75
599.864	341.75
600.073	331.75
600.282	351.75
600.491	330.75
600.7	333.75
600.909	335.75
601.118	332.75
601.327	336.75
601.536	326.75
601.745	337.75
601.953	337.75
602.162	332.75
602.371	348.75
602.58	320.75
602.789	335.75
602.997	339.75
603.206	334.75
603.415	331.75
603.623	327.75
603.832	316.75
604.041	313.75
604.249	318.75
604.458	313.75
604.666	323.75
604.875	298.75
605.084	314.75
605.292	304.75
605.501	317.75
605.709	321.75
605.918	306.75
606.126	300.75
606.334	309.75
606.543	316.75
606.751	334.75
606.96	322.75
607.168	310.75
607.376	311.75
607.585	314.75
607.793	304.75
608.001	321.75
608.21	312.75
608.418	329.75
608.626	321.75
608.834	306.75
609.043	305.75
609.251	303.75
609.459	298.75
609.667	308.75
609.875	302.75
610.083	294.75
610.291	322.75
610.499	323.75
610.707	294.75
610.916	297.75
611.124	294.75
611.332	318.75
611.54	316.75
611.748	297.75
611.955	323.75
612.163	313.75
612.371	295.75
612.579	299.75
612.787	297.75
612.995	298.75
613.203	309.75
613.411	297.75
613.618	294.75
613.826	287.75
614.034	294.75
614.242	287.75
614.449	310.75
614.657	302.75
614.865	309.75
615.072	308.75
615.28	291.75
615.488	296.75
615.695	291.75
615.903	308.75
616.111	295.75
616.318	296.75
616.526	297.75
616.733	307.75
616.941	277.75
617.148	305.75
617.356	302.75
617.563	292.75
617.771	306.75
617.978	288.75
618.185	281.75
618.393	303.75
618.6	299.75
618.807	296.75
619.015	285.75
619.222	280.75
619.429	290.75
619.637	300.75
619.844	286.75
620.051	272.75
620.258	283.75
620.466	279.75
620.673	278.75
620.88	264.75
621.087	272.75
621.294	251.75
621.501	279.75
621.708	285.75
621.915	285.75
622.122	274.75
622.329	279.75
622.536	284.75
622.743	255.75
622.95	278.75
623.157	263.75
623.364	252.75
623.571	257.75
623.778	273.75
623.985	272.75
624.192	282.75
624.399	244.75
624.606	264.75
624.812	257.75
625.019	269.75
625.226	257.75
625.433	250.75
625.639	248.75
625.846	254.75
626.053	246.75
626.259	262.75
626.466	242.75
626.673	238.75
626.879	249.75
627.086	232.75
627.293	242.75
627.499	232.75
627.706	236.75
627.912	245.75
628.119	242.75
628.325	244.75
628.532	233.75
628.738	234.75
628.945	219.75
629.151	243.75
629.357	233.75
629.564	240.75
629.77	224.75
629.976	229.75
630.183	229.75
630.389	230.75
630.595	228.75
630.802	227.75
631.008	222.75
631.214	206.75
631.42	231.75
631.627	216.75
631.833	228.75
632.039	228.75
632.245	214.75
632.451	222.75
632.657	211.75
632.863	214.75
633.069	230.75
633.275	209.75
633.481	219.75
633.688	217.75
633.893	234.75
634.099	215.75
634.305	212.75
634.511	215.75
634.717	213.75
634.923	214.75
635.129	222.75
635.335	210.75
635.541	206.75
635.747	218.75
635.952	225.75
636.158	204.75
636.364	215.75
636.57	225.75
636.775	217.75
636.981	221.75
637.187	212.75
637.392	205.75
637.598	212.75
637.804	209.75
638.009	195.75
638.215	198.75
638.421	203.75
638.626	209.75
638.832	211.75
639.037	205.75
639.243	196.75
639.448	196.75
639.654	203.75
639.859	197.75
640.065	195.75
640.27	213.75
640.475	212.75
640.681	199.75
640.886	207.75
641.091	186.75
641.297	190.75
641.502	187.75
641.707	203.75
641.913	193.75
642.118	191.75
642.323	202.75
642.528	200.75
642.733	183.75
642.939	188.75
643.144	193.75
643.349	194.75
643.554	185.75
643.759	190.75
643.964	183.75
644.169	185.75
644.374	199.75
644.579	191.75
644.784	185.75
644.989	193.75
645.194	187.75
645.399	206.75
645.604	172.75
645.809	200.75
646.014	200.75
646.219	192.75
646.423	203.75
646.628	186.75
646.833	179.75
647.038	183.75
647.243	207.75
647.447	183.75
647.652	196.75
647.857	201.75
648.062	202.75
648.266	192.75
648.471	201.75
648.676	209.75
648.88	227.75
649.085	199.75
649.289	205.75
649.494	206.75
649.698	202.75
649.903	195.75
650.107	169.75
650.312	186.75
650.516	170.75
650.721	185.75
650.925	162.75
651.13	175.75
651.334	156.75
651.539	166.75
651.743	161.75
651.947	164.75
652.152	161.75
652.356	152.75
652.56	158.75
652.764	158.75
652.969	162.75
653.173	165.75
653.377	139.75
653.581	142.75
653.785	138.75
653.99	156.75
654.194	134.75
654.398	150.75
654.602	143.75
654.806	132.75
655.01	145.75
655.214	124.75
655.418	131.75
655.622	130.75
655.826	130.75
656.03	140.75
656.234	139.75
656.438	139.75
656.642	138.75
656.846	136.75
657.049	133.75
657.253	117.75
657.457	131.75
657.661	126.75
657.865	127.75
658.068	118.75
658.272	112.75
658.476	112.75
658.68	111.75
658.883	103.75
659.087	108.75
659.291	104.75
659.494	105.75
659.698	88.75
659.901	98.75
660.105	103.75
660.309	109.75
660.512	95.75
660.716	91.75
660.919	92.75
661.123	95.75
661.326	99.75
661.53	79.75
661.733	79.75
661.936	79.75
662.14	88.75
662.343	84.75
662.546	97.75
662.75	86.75
662.953	84.75
663.156	81.75
663.36	89.75
663.563	88.75
663.766	74.75
663.969	78.75
664.173	84.75
664.376	97.75
664.579	80.75
664.782	79.75
664.985	81.75
665.188	68.75
665.391	68.75
665.594	82.75
665.797	78.75
666	71.75
666.203	76.75
666.406	91.75
666.609	86.75
666.812	70.75
667.015	73.75
667.218	83.75
667.421	78.75
667.624	87.75
667.827	89.75
668.03	72.75
668.232	77.75
668.435	82.75
668.638	79.75
668.841	88.75
669.043	83.75
669.246	83.75
669.449	82.75
669.651	81.75
669.854	91.75
670.057	77.75
670.259	82.75
670.462	77.75
670.665	72.75
670.867	76.75
671.07	83.75
671.272	72.75
671.475	76.75
671.677	86.75
671.88	89.75
672.082	66.75
672.284	80.75
672.487	72.75
672.689	81.75
672.892	89.75
