Data from Ni(NO3)2@0.125M.TitratingCurve.Agarose3%dH2O.NegLispCup.LampEnergy10.LIBS07252019_HRD10591_18-10-50-568.txt Node
Date: Thu Jul 25 18:10:50 EDT 2019
User: cochatt
Spectrometer: HR+D1059
Trigger mode: 1
Integration Time (sec): 1.000000E-1
Scans to average: 1
Electric dark correction enabled: true
Nonlinearity correction enabled: false
Boxcar width: 0
XAxis mode: Wavelengths
Number of Pixels in Spectrum: 2048
>>>>>Begin Spectral Data<<<<<
223.165	-16.44
223.4	-16.44
223.635	-16.44
223.869	1.56
224.104	-21.44
224.338	-8.44
224.573	-13.44
224.808	-19.44
225.042	-9.44
225.277	-2.44
225.511	-7.44
225.746	-8.44
225.98	23.56
226.215	-7.44
226.449	11.56
226.683	21.56
226.918	25.56
227.152	30.56
227.387	42.56
227.621	33.56
227.856	34.56
228.09	37.56
228.324	61.56
228.559	58.56
228.793	82.56
229.027	85.56
229.262	98.56
229.496	103.56
229.73	99.56
229.964	97.56
230.199	112.56
230.433	120.56
230.667	109.56
230.901	124.56
231.136	119.56
231.37	116.56
231.604	120.56
231.838	117.56
232.072	107.56
232.306	121.56
232.541	130.56
232.775	124.56
233.009	131.56
233.243	119.56
233.477	125.56
233.711	127.56
233.945	132.56
234.179	115.56
234.413	128.56
234.647	129.56
234.881	108.56
235.115	121.56
235.349	131.56
235.583	123.56
235.817	132.56
236.051	136.56
236.285	128.56
236.519	123.56
236.753	127.56
236.987	129.56
237.221	134.56
237.455	139.56
237.689	139.56
237.922	131.56
238.156	128.56
238.39	130.56
238.624	139.56
238.858	138.56
239.091	142.56
239.325	139.56
239.559	133.56
239.793	146.56
240.027	162.56
240.26	131.56
240.494	155.56
240.728	138.56
240.961	141.56
241.195	137.56
241.429	139.56
241.662	152.56
241.896	159.56
242.13	157.56
242.363	159.56
242.597	159.56
242.83	149.56
243.064	151.56
243.298	176.56
243.531	158.56
243.765	159.56
243.998	173.56
244.232	167.56
244.465	149.56
244.699	171.56
244.932	176.56
245.166	190.56
245.399	176.56
245.633	172.56
245.866	179.56
246.099	159.56
246.333	182.56
246.566	165.56
246.8	175.56
247.033	167.56
247.266	184.56
247.5	181.56
247.733	193.56
247.966	192.56
248.2	175.56
248.433	165.56
248.666	186.56
248.899	200.56
249.133	198.56
249.366	196.56
249.599	201.56
249.832	191.56
250.066	206.56
250.299	196.56
250.532	195.56
250.765	187.56
250.998	182.56
251.231	209.56
251.465	217.56
251.698	197.56
251.931	202.56
252.164	220.56
252.397	202.56
252.63	200.56
252.863	210.56
253.096	196.56
253.329	210.56
253.562	198.56
253.795	214.56
254.028	203.56
254.261	216.56
254.494	216.56
254.727	213.56
254.96	221.56
255.193	208.56
255.426	197.56
255.659	208.56
255.892	226.56
256.124	219.56
256.357	230.56
256.59	223.56
256.823	213.56
257.056	212.56
257.289	228.56
257.521	226.56
257.754	236.56
257.987	228.56
258.22	226.56
258.452	233.56
258.685	217.56
258.918	241.56
259.151	222.56
259.383	237.56
259.616	237.56
259.849	242.56
260.081	240.56
260.314	233.56
260.547	255.56
260.779	245.56
261.012	239.56
261.244	264.56
261.477	244.56
261.71	229.56
261.942	240.56
262.175	255.56
262.407	244.56
262.64	240.56
262.872	261.56
263.105	240.56
263.337	249.56
263.57	254.56
263.802	236.56
264.035	257.56
264.267	272.56
264.499	262.56
264.732	274.56
264.964	259.56
265.197	249.56
265.429	265.56
265.661	246.56
265.894	265.56
266.126	272.56
266.358	274.56
266.591	277.56
266.823	267.56
267.055	268.56
267.287	309.56
267.52	277.56
267.752	289.56
267.984	260.56
268.216	292.56
268.448	269.56
268.681	283.56
268.913	277.56
269.145	285.56
269.377	280.56
269.609	277.56
269.841	285.56
270.073	296.56
270.306	283.56
270.538	289.56
270.77	281.56
271.002	275.56
271.234	281.56
271.466	308.56
271.698	271.56
271.93	281.56
272.162	273.56
272.394	303.56
272.626	291.56
272.858	304.56
273.09	287.56
273.322	279.56
273.553	299.56
273.785	303.56
274.017	306.56
274.249	307.56
274.481	310.56
274.713	297.56
274.945	299.56
275.176	301.56
275.408	309.56
275.64	309.56
275.872	299.56
276.104	322.56
276.335	326.56
276.567	310.56
276.799	311.56
277.031	307.56
277.262	327.56
277.494	319.56
277.726	323.56
277.957	308.56
278.189	312.56
278.421	310.56
278.652	332.56
278.884	326.56
279.115	332.56
279.347	327.56
279.579	326.56
279.81	341.56
280.042	346.56
280.273	337.56
280.505	333.56
280.736	333.56
280.968	346.56
281.199	334.56
281.431	332.56
281.662	328.56
281.894	332.56
282.125	336.56
282.356	336.56
282.588	349.56
282.819	341.56
283.051	345.56
283.282	333.56
283.513	349.56
283.745	356.56
283.976	356.56
284.207	343.56
284.439	360.56
284.67	367.56
284.901	362.56
285.132	359.56
285.364	347.56
285.595	355.56
285.826	344.56
286.057	349.56
286.288	353.56
286.52	370.56
286.751	383.56
286.982	368.56
287.213	375.56
287.444	374.56
287.675	383.56
287.906	370.56
288.138	372.56
288.369	373.56
288.6	388.56
288.831	401.56
289.062	369.56
289.293	383.56
289.524	392.56
289.755	390.56
289.986	397.56
290.217	370.56
290.448	381.56
290.679	384.56
290.91	397.56
291.141	378.56
291.371	391.56
291.602	401.56
291.833	391.56
292.064	404.56
292.295	381.56
292.526	392.56
292.757	389.56
292.987	391.56
293.218	379.56
293.449	387.56
293.68	404.56
293.91	409.56
294.141	407.56
294.372	405.56
294.603	393.56
294.833	388.56
295.064	392.56
295.295	409.56
295.525	385.56
295.756	392.56
295.987	394.56
296.217	391.56
296.448	396.56
296.679	423.56
296.909	413.56
297.14	416.56
297.37	410.56
297.601	419.56
297.831	415.56
298.062	415.56
298.292	412.56
298.523	422.56
298.753	447.56
298.984	440.56
299.214	426.56
299.445	421.56
299.675	422.56
299.905	438.56
300.136	427.56
300.366	438.56
300.597	437.56
300.827	427.56
301.057	428.56
301.288	445.56
301.518	439.56
301.748	426.56
301.979	455.56
302.209	458.56
302.439	464.56
302.669	441.56
302.9	451.56
303.13	432.56
303.36	444.56
303.59	454.56
303.82	440.56
304.051	443.56
304.281	433.56
304.511	441.56
304.741	430.56
304.971	428.56
305.201	447.56
305.431	435.56
305.661	452.56
305.891	419.56
306.121	443.56
306.352	429.56
306.582	437.56
306.812	431.56
307.042	410.56
307.272	433.56
307.502	417.56
307.731	422.56
307.961	419.56
308.191	432.56
308.421	426.56
308.651	413.56
308.881	434.56
309.111	433.56
309.341	420.56
309.571	418.56
309.8	423.56
310.03	459.56
310.26	439.56
310.49	450.56
310.72	432.56
310.949	422.56
311.179	447.56
311.409	437.56
311.639	425.56
311.868	434.56
312.098	429.56
312.328	450.56
312.557	445.56
312.787	427.56
313.017	447.56
313.246	456.56
313.476	468.56
313.706	472.56
313.935	446.56
314.165	461.56
314.394	454.56
314.624	464.56
314.853	466.56
315.083	474.56
315.312	460.56
315.542	467.56
315.771	465.56
316.001	469.56
316.23	468.56
316.46	449.56
316.689	456.56
316.919	452.56
317.148	448.56
317.377	450.56
317.607	471.56
317.836	447.56
318.065	445.56
318.295	455.56
318.524	443.56
318.753	441.56
318.983	461.56
319.212	457.56
319.441	440.56
319.67	450.56
319.9	461.56
320.129	444.56
320.358	465.56
320.587	429.56
320.816	472.56
321.046	450.56
321.275	445.56
321.504	447.56
321.733	448.56
321.962	443.56
322.191	468.56
322.42	461.56
322.649	477.56
322.878	457.56
323.108	468.56
323.337	486.56
323.566	467.56
323.795	474.56
324.024	467.56
324.253	460.56
324.482	467.56
324.71	464.56
324.939	495.56
325.168	462.56
325.397	495.56
325.626	488.56
325.855	489.56
326.084	501.56
326.313	492.56
326.542	513.56
326.77	510.56
326.999	488.56
327.228	478.56
327.457	505.56
327.686	502.56
327.914	510.56
328.143	515.56
328.372	517.56
328.6	504.56
328.829	507.56
329.058	531.56
329.287	502.56
329.515	495.56
329.744	513.56
329.972	528.56
330.201	506.56
330.43	516.56
330.658	521.56
330.887	504.56
331.115	535.56
331.344	537.56
331.572	547.56
331.801	555.56
332.03	538.56
332.258	578.56
332.486	598.56
332.715	590.56
332.943	655.56
333.172	661.56
333.4	691.56
333.629	715.56
333.857	681.56
334.085	662.56
334.314	659.56
334.542	664.56
334.771	632.56
334.999	625.56
335.227	623.56
335.455	601.56
335.684	619.56
335.912	629.56
336.14	622.56
336.369	625.56
336.597	609.56
336.825	623.56
337.053	612.56
337.281	609.56
337.51	605.56
337.738	607.56
337.966	555.56
338.194	571.56
338.422	561.56
338.65	564.56
338.878	555.56
339.106	542.56
339.334	548.56
339.562	552.56
339.79	531.56
340.018	514.56
340.246	514.56
340.474	534.56
340.702	565.56
340.93	529.56
341.158	537.56
341.386	544.56
341.614	528.56
341.842	525.56
342.07	532.56
342.298	530.56
342.526	534.56
342.754	527.56
342.981	534.56
343.209	562.56
343.437	589.56
343.665	623.56
343.893	624.56
344.12	656.56
344.348	640.56
344.576	612.56
344.804	599.56
345.031	555.56
345.259	565.56
345.487	535.56
345.714	531.56
345.942	528.56
346.17	526.56
346.397	525.56
346.625	515.56
346.853	531.56
347.08	521.56
347.308	532.56
347.535	539.56
347.763	540.56
347.99	546.56
348.218	539.56
348.445	530.56
348.673	533.56
348.9	531.56
349.128	526.56
349.355	517.56
349.583	518.56
349.81	507.56
350.037	484.56
350.265	500.56
350.492	516.56
350.72	504.56
350.947	497.56
351.174	505.56
351.402	489.56
351.629	523.56
351.856	501.56
352.083	493.56
352.311	489.56
352.538	505.56
352.765	491.56
352.992	493.56
353.22	495.56
353.447	490.56
353.674	477.56
353.901	488.56
354.128	487.56
354.355	509.56
354.583	506.56
354.81	499.56
355.037	505.56
355.264	518.56
355.491	484.56
355.718	515.56
355.945	507.56
356.172	512.56
356.399	526.56
356.626	505.56
356.853	507.56
357.08	472.56
357.307	501.56
357.534	487.56
357.761	489.56
357.988	505.56
358.215	499.56
358.441	503.56
358.668	497.56
358.895	516.56
359.122	506.56
359.349	481.56
359.576	518.56
359.802	509.56
360.029	498.56
360.256	531.56
360.483	502.56
360.709	498.56
360.936	517.56
361.163	487.56
361.39	533.56
361.616	495.56
361.843	513.56
362.07	500.56
362.296	479.56
362.523	496.56
362.749	508.56
362.976	487.56
363.203	489.56
363.429	502.56
363.656	491.56
363.882	489.56
364.109	504.56
364.335	496.56
364.562	497.56
364.788	504.56
365.015	502.56
365.241	486.56
365.468	504.56
365.694	489.56
365.92	495.56
366.147	490.56
366.373	506.56
366.599	495.56
366.826	496.56
367.052	511.56
367.278	504.56
367.505	499.56
367.731	513.56
367.957	514.56
368.184	493.56
368.41	509.56
368.636	480.56
368.862	525.56
369.089	509.56
369.315	521.56
369.541	515.56
369.767	513.56
369.993	529.56
370.219	522.56
370.445	511.56
370.672	541.56
370.898	539.56
371.124	528.56
371.35	537.56
371.576	560.56
371.802	543.56
372.028	535.56
372.254	521.56
372.48	537.56
372.706	556.56
372.932	554.56
373.158	557.56
373.384	545.56
373.61	566.56
373.835	532.56
374.061	563.56
374.287	560.56
374.513	575.56
374.739	592.56
374.965	594.56
375.191	612.56
375.416	596.56
375.642	571.56
375.868	592.56
376.094	567.56
376.319	556.56
376.545	545.56
376.771	560.56
376.997	532.56
377.222	538.56
377.448	545.56
377.674	535.56
377.899	536.56
378.125	540.56
378.35	527.56
378.576	537.56
378.802	546.56
379.027	523.56
379.253	536.56
379.478	530.56
379.704	539.56
379.929	536.56
380.155	535.56
380.38	530.56
380.606	534.56
380.831	533.56
381.057	540.56
381.282	532.56
381.507	525.56
381.733	560.56
381.958	554.56
382.184	559.56
382.409	553.56
382.634	530.56
382.86	578.56
383.085	587.56
383.31	569.56
383.535	614.56
383.761	601.56
383.986	616.56
384.211	641.56
384.436	642.56
384.662	634.56
384.887	664.56
385.112	627.56
385.337	682.56
385.562	674.56
385.787	651.56
386.013	667.56
386.238	665.56
386.463	663.56
386.688	650.56
386.913	655.56
387.138	639.56
387.363	640.56
387.588	640.56
387.813	640.56
388.038	622.56
388.263	641.56
388.488	659.56
388.713	651.56
388.938	638.56
389.163	631.56
389.387	620.56
389.612	621.56
389.837	636.56
390.062	633.56
390.287	637.56
390.512	625.56
390.736	633.56
390.961	649.56
391.186	653.56
391.411	677.56
391.636	682.56
391.86	684.56
392.085	743.56
392.31	744.56
392.534	714.56
392.759	681.56
392.984	703.56
393.208	661.56
393.433	699.56
393.658	667.56
393.882	684.56
394.107	698.56
394.331	696.56
394.556	681.56
394.78	713.56
395.005	715.56
395.229	703.56
395.454	733.56
395.678	729.56
395.903	729.56
396.127	712.56
396.352	683.56
396.576	693.56
396.801	674.56
397.025	696.56
397.249	680.56
397.474	736.56
397.698	711.56
397.922	720.56
398.147	721.56
398.371	738.56
398.595	769.56
398.82	785.56
399.044	843.56
399.268	941.56
399.492	1113.56
399.717	1271.56
399.941	1275.56
400.165	1113.56
400.389	985.56
400.613	854.56
400.837	820.56
401.062	800.56
401.286	802.56
401.51	801.56
401.734	785.56
401.958	833.56
402.182	833.56
402.406	851.56
402.63	865.56
402.854	850.56
403.078	887.56
403.302	907.56
403.526	931.56
403.75	941.56
403.974	945.56
404.198	965.56
404.422	960.56
404.645	947.56
404.869	931.56
405.093	910.56
405.317	921.56
405.541	896.56
405.765	911.56
405.988	897.56
406.212	906.56
406.436	881.56
406.66	890.56
406.883	932.56
407.107	989.56
407.331	1025.56
407.555	1053.56
407.778	1057.56
408.002	1047.56
408.226	992.56
408.449	991.56
408.673	938.56
408.896	908.56
409.12	911.56
409.344	927.56
409.567	960.56
409.791	955.56
410.014	932.56
410.238	921.56
410.461	925.56
410.685	921.56
410.908	913.56
411.132	878.56
411.355	824.56
411.578	832.56
411.802	850.56
412.025	851.56
412.249	872.56
412.472	871.56
412.695	842.56
412.919	781.56
413.142	804.56
413.365	811.56
413.589	804.56
413.812	820.56
414.035	791.56
414.258	811.56
414.482	851.56
414.705	840.56
414.928	827.56
415.151	793.56
415.374	835.56
415.597	817.56
415.821	789.56
416.044	817.56
416.267	787.56
416.49	773.56
416.713	791.56
416.936	788.56
417.159	808.56
417.382	784.56
417.605	787.56
417.828	812.56
418.051	835.56
418.274	831.56
418.497	831.56
418.72	841.56
418.943	855.56
419.166	915.56
419.389	961.56
419.611	920.56
419.834	885.56
420.057	886.56
420.28	812.56
420.503	796.56
420.726	805.56
420.948	813.56
421.171	789.56
421.394	799.56
421.617	816.56
421.839	821.56
422.062	812.56
422.285	833.56
422.507	805.56
422.73	852.56
422.953	825.56
423.175	848.56
423.398	865.56
423.621	875.56
423.843	895.56
424.066	881.56
424.288	867.56
424.511	865.56
424.733	875.56
424.956	845.56
425.178	814.56
425.401	815.56
425.623	810.56
425.846	804.56
426.068	771.56
426.291	764.56
426.513	769.56
426.735	760.56
426.958	757.56
427.18	734.56
427.402	751.56
427.625	727.56
427.847	718.56
428.069	735.56
428.292	739.56
428.514	709.56
428.736	753.56
428.958	722.56
429.181	711.56
429.403	695.56
429.625	705.56
429.847	710.56
430.069	720.56
430.292	721.56
430.514	691.56
430.736	718.56
430.958	706.56
431.18	708.56
431.402	738.56
431.624	694.56
431.846	703.56
432.068	741.56
432.29	727.56
432.512	705.56
432.734	738.56
432.956	707.56
433.178	718.56
433.4	729.56
433.622	736.56
433.844	739.56
434.066	725.56
434.287	730.56
434.509	768.56
434.731	805.56
434.953	826.56
435.175	847.56
435.397	821.56
435.618	781.56
435.84	729.56
436.062	736.56
436.284	713.56
436.505	723.56
436.727	727.56
436.949	728.56
437.17	723.56
437.392	741.56
437.614	720.56
437.835	711.56
438.057	682.56
438.278	675.56
438.5	696.56
438.721	706.56
438.943	706.56
439.165	703.56
439.386	715.56
439.608	724.56
439.829	727.56
440.05	719.56
440.272	737.56
440.493	735.56
440.715	743.56
440.936	763.56
441.158	794.56
441.379	811.56
441.6	841.56
441.822	821.56
442.043	841.56
442.264	807.56
442.486	799.56
442.707	814.56
442.928	833.56
443.149	840.56
443.371	825.56
443.592	835.56
443.813	834.56
444.034	812.56
444.255	865.56
444.476	910.56
444.698	962.56
444.919	1021.56
445.14	1075.56
445.361	915.56
445.582	868.56
445.803	789.56
446.024	768.56
446.245	758.56
446.466	787.56
446.687	760.56
446.908	761.56
447.129	736.56
447.35	726.56
447.571	709.56
447.792	687.56
448.013	707.56
448.234	683.56
448.455	676.56
448.675	691.56
448.896	671.56
449.117	641.56
449.338	640.56
449.559	668.56
449.779	655.56
450	676.56
450.221	684.56
450.442	681.56
450.662	672.56
450.883	696.56
451.104	717.56
451.324	687.56
451.545	708.56
451.766	698.56
451.986	694.56
452.207	690.56
452.428	678.56
452.648	679.56
452.869	659.56
453.089	659.56
453.31	668.56
453.53	680.56
453.751	657.56
453.971	640.56
454.192	649.56
454.412	649.56
454.633	657.56
454.853	636.56
455.073	644.56
455.294	631.56
455.514	635.56
455.734	634.56
455.955	632.56
456.175	619.56
456.395	641.56
456.616	616.56
456.836	641.56
457.056	640.56
457.276	596.56
457.497	599.56
457.717	602.56
457.937	629.56
458.157	633.56
458.377	627.56
458.598	664.56
458.818	679.56
459.038	683.56
459.258	715.56
459.478	701.56
459.698	749.56
459.918	771.56
460.138	819.56
460.358	844.56
460.578	874.56
460.798	885.56
461.018	896.56
461.238	888.56
461.458	869.56
461.678	880.56
461.898	865.56
462.118	882.56
462.338	929.56
462.558	943.56
462.777	992.56
462.997	1093.56
463.217	1219.56
463.437	1204.56
463.657	1107.56
463.876	1004.56
464.096	1002.56
464.316	1026.56
464.536	1044.56
464.755	973.56
464.975	945.56
465.195	890.56
465.414	833.56
465.634	779.56
465.854	781.56
466.073	756.56
466.293	757.56
466.512	735.56
466.732	722.56
466.951	721.56
467.171	719.56
467.391	702.56
467.61	712.56
467.829	696.56
468.049	696.56
468.268	682.56
468.488	688.56
468.707	679.56
468.927	681.56
469.146	671.56
469.365	665.56
469.585	675.56
469.804	715.56
470.023	725.56
470.243	723.56
470.462	742.56
470.681	737.56
470.901	739.56
471.12	723.56
471.339	730.56
471.558	731.56
471.777	699.56
471.997	681.56
472.216	681.56
472.435	660.56
472.654	663.56
472.873	645.56
473.092	670.56
473.311	652.56
473.53	668.56
473.749	653.56
473.968	650.56
474.187	635.56
474.406	636.56
474.625	646.56
474.844	649.56
475.063	665.56
475.282	648.56
475.501	655.56
475.72	660.56
475.939	681.56
476.158	682.56
476.377	641.56
476.596	703.56
476.814	700.56
477.033	705.56
477.252	706.56
477.471	713.56
477.69	754.56
477.908	790.56
478.127	774.56
478.346	759.56
478.564	789.56
478.783	794.56
479.002	812.56
479.22	835.56
479.439	834.56
479.658	795.56
479.876	820.56
480.095	808.56
480.313	872.56
480.532	868.56
480.751	881.56
480.969	849.56
481.188	821.56
481.406	779.56
481.624	728.56
481.843	734.56
482.061	748.56
482.28	753.56
482.498	744.56
482.717	742.56
482.935	726.56
483.153	724.56
483.372	737.56
483.59	747.56
483.808	751.56
484.027	770.56
484.245	744.56
484.463	730.56
484.681	780.56
484.9	764.56
485.118	756.56
485.336	761.56
485.554	785.56
485.772	792.56
485.99	800.56
486.209	811.56
486.427	776.56
486.645	796.56
486.863	795.56
487.081	797.56
487.299	784.56
487.517	800.56
487.735	797.56
487.953	783.56
488.171	772.56
488.389	786.56
488.607	778.56
488.825	780.56
489.043	749.56
489.261	781.56
489.479	780.56
489.696	789.56
489.914	762.56
490.132	770.56
490.35	773.56
490.568	771.56
490.786	761.56
491.003	792.56
491.221	799.56
491.439	781.56
491.657	803.56
491.874	791.56
492.092	779.56
492.31	823.56
492.527	821.56
492.745	805.56
492.963	812.56
493.18	811.56
493.398	820.56
493.615	821.56
493.833	814.56
494.05	842.56
494.268	832.56
494.485	843.56
494.703	829.56
494.92	819.56
495.138	832.56
495.355	835.56
495.573	836.56
495.79	804.56
496.008	856.56
496.225	817.56
496.442	858.56
496.66	858.56
496.877	863.56
497.094	877.56
497.312	908.56
497.529	915.56
497.746	943.56
497.963	948.56
498.181	1000.56
498.398	1044.56
498.615	1087.56
498.832	1175.56
499.049	1268.56
499.267	1371.56
499.484	1539.56
499.701	1751.56
499.918	1873.56
500.135	2141.56
500.352	2557.56
500.569	2680.56
500.786	2583.56
501.003	2386.56
501.22	2101.56
501.437	1833.56
501.654	1597.56
501.871	1435.56
502.088	1308.56
502.305	1229.56
502.522	1188.56
502.739	1149.56
502.956	1085.56
503.172	1036.56
503.389	974.56
503.606	955.56
503.823	943.56
504.04	939.56
504.256	946.56
504.473	967.56
504.69	1011.56
504.907	981.56
505.123	908.56
505.34	864.56
505.557	806.56
505.773	791.56
505.99	799.56
506.207	764.56
506.423	777.56
506.64	765.56
506.856	752.56
507.073	759.56
507.289	757.56
507.506	739.56
507.722	758.56
507.939	728.56
508.155	711.56
508.372	689.56
508.588	707.56
508.805	705.56
509.021	699.56
509.238	697.56
509.454	672.56
509.67	673.56
509.887	698.56
510.103	677.56
510.319	663.56
510.536	669.56
510.752	658.56
510.968	644.56
511.184	641.56
511.401	673.56
511.617	640.56
511.833	661.56
512.049	664.56
512.265	669.56
512.481	668.56
512.698	660.56
512.914	696.56
513.13	655.56
513.346	685.56
513.562	653.56
513.778	652.56
513.994	673.56
514.21	665.56
514.426	668.56
514.642	682.56
514.858	675.56
515.074	692.56
515.29	703.56
515.506	697.56
515.721	691.56
515.937	724.56
516.153	743.56
516.369	766.56
516.585	783.56
516.801	799.56
517.016	829.56
517.232	899.56
517.448	930.56
517.664	963.56
517.879	959.56
518.095	976.56
518.311	957.56
518.527	896.56
518.742	837.56
518.958	803.56
519.173	787.56
519.389	752.56
519.605	709.56
519.82	732.56
520.036	717.56
520.251	698.56
520.467	671.56
520.682	693.56
520.898	657.56
521.113	684.56
521.329	650.56
521.544	632.56
521.76	635.56
521.975	643.56
522.19	631.56
522.406	652.56
522.621	666.56
522.836	636.56
523.052	629.56
523.267	611.56
523.482	634.56
523.698	616.56
523.913	625.56
524.128	645.56
524.343	619.56
524.559	627.56
524.774	609.56
524.989	617.56
525.204	620.56
525.419	609.56
525.634	632.56
525.849	628.56
526.064	616.56
526.28	623.56
526.495	599.56
526.71	627.56
526.925	614.56
527.14	603.56
527.355	613.56
527.57	624.56
527.785	619.56
527.999	603.56
528.214	628.56
528.429	611.56
528.644	598.56
528.859	583.56
529.074	616.56
529.289	608.56
529.503	623.56
529.718	634.56
529.933	618.56
530.148	601.56
530.363	614.56
530.577	600.56
530.792	594.56
531.007	601.56
531.221	623.56
531.436	618.56
531.651	595.56
531.865	605.56
532.08	626.56
532.295	617.56
532.509	610.56
532.724	605.56
532.938	594.56
533.153	618.56
533.367	609.56
533.582	639.56
533.796	612.56
534.011	598.56
534.225	626.56
534.44	600.56
534.654	607.56
534.868	588.56
535.083	586.56
535.297	587.56
535.511	611.56
535.726	591.56
535.94	601.56
536.154	578.56
536.369	575.56
536.583	573.56
536.797	569.56
537.011	575.56
537.225	570.56
537.44	577.56
537.654	550.56
537.868	572.56
538.082	583.56
538.296	539.56
538.51	544.56
538.724	580.56
538.938	571.56
539.153	551.56
539.367	564.56
539.581	565.56
539.795	545.56
540.009	554.56
540.222	573.56
540.436	556.56
540.65	539.56
540.864	541.56
541.078	573.56
541.292	541.56
541.506	544.56
541.72	524.56
541.934	552.56
542.147	574.56
542.361	552.56
542.575	572.56
542.789	545.56
543.002	535.56
543.216	540.56
543.43	538.56
543.644	542.56
543.857	540.56
544.071	544.56
544.285	545.56
544.498	529.56
544.712	560.56
544.925	566.56
545.139	545.56
545.352	584.56
545.566	543.56
545.779	565.56
545.993	563.56
546.206	545.56
546.42	543.56
546.633	573.56
546.847	564.56
547.06	570.56
547.274	580.56
547.487	578.56
547.7	574.56
547.914	570.56
548.127	581.56
548.34	595.56
548.554	589.56
548.767	564.56
548.98	584.56
549.193	556.56
549.407	594.56
549.62	586.56
549.833	594.56
550.046	585.56
550.259	585.56
550.473	551.56
550.686	538.56
550.899	567.56
551.112	544.56
551.325	551.56
551.538	547.56
551.751	522.56
551.964	562.56
552.177	539.56
552.39	580.56
552.603	588.56
552.816	596.56
553.029	616.56
553.242	618.56
553.455	625.56
553.667	615.56
553.88	620.56
554.093	603.56
554.306	587.56
554.519	588.56
554.732	574.56
554.944	548.56
555.157	557.56
555.37	551.56
555.583	517.56
555.795	519.56
556.008	520.56
556.221	501.56
556.433	503.56
556.646	532.56
556.859	465.56
557.071	497.56
557.284	482.56
557.496	503.56
557.709	497.56
557.921	470.56
558.134	458.56
558.346	469.56
558.559	479.56
558.771	482.56
558.984	476.56
559.196	463.56
559.409	468.56
559.621	484.56
559.833	465.56
560.046	465.56
560.258	485.56
560.47	475.56
560.683	467.56
560.895	450.56
561.107	442.56
561.32	468.56
561.532	479.56
561.744	485.56
561.956	481.56
562.168	465.56
562.381	451.56
562.593	481.56
562.805	478.56
563.017	476.56
563.229	456.56
563.441	477.56
563.653	469.56
563.865	461.56
564.077	484.56
564.289	491.56
564.501	470.56
564.713	481.56
564.925	499.56
565.137	490.56
565.349	529.56
565.561	511.56
565.773	566.56
565.985	583.56
566.197	603.56
566.408	660.56
566.62	741.56
566.832	751.56
567.044	773.56
567.255	763.56
567.467	768.56
567.679	873.56
567.891	910.56
568.102	908.56
568.314	884.56
568.526	779.56
568.737	712.56
568.949	650.56
569.161	612.56
569.372	560.56
569.584	520.56
569.795	509.56
570.007	507.56
570.218	477.56
570.43	479.56
570.641	471.56
570.853	501.56
571.064	478.56
571.276	493.56
571.487	477.56
571.698	451.56
571.91	447.56
572.121	426.56
572.333	421.56
572.544	415.56
572.755	418.56
572.966	422.56
573.178	400.56
573.389	381.56
573.6	393.56
573.811	392.56
574.023	402.56
574.234	395.56
574.445	397.56
574.656	389.56
574.867	412.56
575.078	403.56
575.289	373.56
575.501	379.56
575.712	355.56
575.923	357.56
576.134	356.56
576.345	385.56
576.556	374.56
576.767	375.56
576.978	375.56
577.188	354.56
577.399	374.56
577.61	347.56
577.821	359.56
578.032	368.56
578.243	350.56
578.454	339.56
578.665	367.56
578.875	340.56
579.086	353.56
579.297	352.56
579.508	349.56
579.718	341.56
579.929	348.56
580.14	327.56
580.35	354.56
580.561	355.56
580.772	353.56
580.982	344.56
581.193	328.56
581.403	338.56
581.614	347.56
581.825	333.56
582.035	352.56
582.246	314.56
582.456	342.56
582.667	330.56
582.877	341.56
583.087	346.56
583.298	344.56
583.508	324.56
583.719	323.56
583.929	336.56
584.139	328.56
584.35	323.56
584.56	325.56
584.77	332.56
584.981	330.56
585.191	308.56
585.401	322.56
585.611	316.56
585.821	347.56
586.032	326.56
586.242	308.56
586.452	300.56
586.662	318.56
586.872	312.56
587.082	319.56
587.292	322.56
587.502	314.56
587.713	312.56
587.923	304.56
588.133	326.56
588.343	312.56
588.553	317.56
588.762	322.56
588.972	308.56
589.182	310.56
589.392	331.56
589.602	301.56
589.812	326.56
590.022	303.56
590.232	317.56
590.441	313.56
590.651	323.56
590.861	334.56
591.071	325.56
591.281	324.56
591.49	331.56
591.7	329.56
591.91	339.56
592.119	336.56
592.329	345.56
592.539	360.56
592.748	372.56
592.958	392.56
593.167	387.56
593.377	405.56
593.587	441.56
593.796	408.56
594.006	425.56
594.215	418.56
594.424	425.56
594.634	423.56
594.843	383.56
595.053	375.56
595.262	348.56
595.472	346.56
595.681	352.56
595.89	330.56
596.1	331.56
596.309	315.56
596.518	309.56
596.727	320.56
596.937	304.56
597.146	298.56
597.355	301.56
597.564	296.56
597.774	280.56
597.983	285.56
598.192	267.56
598.401	285.56
598.61	296.56
598.819	283.56
599.028	285.56
599.237	283.56
599.446	262.56
599.655	292.56
599.864	257.56
600.073	265.56
600.282	292.56
600.491	267.56
600.7	281.56
600.909	279.56
601.118	267.56
601.327	291.56
601.536	268.56
601.745	281.56
601.953	261.56
602.162	271.56
602.371	263.56
602.58	269.56
602.789	281.56
602.997	278.56
603.206	279.56
603.415	261.56
603.623	263.56
603.832	271.56
604.041	263.56
604.249	254.56
604.458	236.56
604.666	265.56
604.875	266.56
605.084	267.56
605.292	264.56
605.501	254.56
605.709	259.56
605.918	251.56
606.126	252.56
606.334	254.56
606.543	239.56
606.751	240.56
606.96	260.56
607.168	245.56
607.376	239.56
607.585	249.56
607.793	259.56
608.001	256.56
608.21	263.56
608.418	250.56
608.626	241.56
608.834	267.56
609.043	247.56
609.251	244.56
609.459	248.56
609.667	236.56
609.875	240.56
610.083	241.56
610.291	236.56
610.499	247.56
610.707	247.56
610.916	240.56
611.124	255.56
611.332	269.56
611.54	247.56
611.748	248.56
611.955	239.56
612.163	234.56
612.371	230.56
612.579	228.56
612.787	215.56
612.995	245.56
613.203	242.56
613.411	235.56
613.618	231.56
613.826	240.56
614.034	243.56
614.242	253.56
614.449	249.56
614.657	236.56
614.865	234.56
615.072	223.56
615.28	233.56
615.488	244.56
615.695	246.56
615.903	261.56
616.111	256.56
616.318	253.56
616.526	259.56
616.733	260.56
616.941	241.56
617.148	241.56
617.356	245.56
617.563	234.56
617.771	261.56
617.978	249.56
618.185	239.56
618.393	217.56
618.6	238.56
618.807	244.56
619.015	229.56
619.222	233.56
619.429	227.56
619.637	241.56
619.844	232.56
620.051	232.56
620.258	240.56
620.466	210.56
620.673	227.56
620.88	217.56
621.087	223.56
621.294	233.56
621.501	226.56
621.708	219.56
621.915	228.56
622.122	230.56
622.329	217.56
622.536	201.56
622.743	217.56
622.95	213.56
623.157	223.56
623.364	231.56
623.571	212.56
623.778	217.56
623.985	225.56
624.192	196.56
624.399	204.56
624.606	215.56
624.812	215.56
625.019	217.56
625.226	212.56
625.433	198.56
625.639	202.56
625.846	210.56
626.053	206.56
626.259	217.56
626.466	207.56
626.673	200.56
626.879	205.56
627.086	197.56
627.293	204.56
627.499	203.56
627.706	219.56
627.912	201.56
628.119	194.56
628.325	199.56
628.532	193.56
628.738	199.56
628.945	201.56
629.151	211.56
629.357	209.56
629.564	198.56
629.77	189.56
629.976	197.56
630.183	190.56
630.389	183.56
630.595	170.56
630.802	187.56
631.008	182.56
631.214	190.56
631.42	188.56
631.627	186.56
631.833	193.56
632.039	182.56
632.245	180.56
632.451	200.56
632.657	202.56
632.863	182.56
633.069	184.56
633.275	186.56
633.481	185.56
633.688	177.56
633.893	179.56
634.099	177.56
634.305	171.56
634.511	187.56
634.717	172.56
634.923	181.56
635.129	192.56
635.335	175.56
635.541	185.56
635.747	183.56
635.952	176.56
636.158	165.56
636.364	185.56
636.57	177.56
636.775	184.56
636.981	175.56
637.187	183.56
637.392	182.56
637.598	183.56
637.804	170.56
638.009	175.56
638.215	188.56
638.421	179.56
638.626	171.56
638.832	173.56
639.037	165.56
639.243	158.56
639.448	169.56
639.654	170.56
639.859	172.56
640.065	173.56
640.27	172.56
640.475	175.56
640.681	167.56
640.886	181.56
641.091	173.56
641.297	172.56
641.502	162.56
641.707	152.56
641.913	165.56
642.118	164.56
642.323	176.56
642.528	162.56
642.733	169.56
642.939	170.56
643.144	179.56
643.349	173.56
643.554	147.56
643.759	161.56
643.964	163.56
644.169	150.56
644.374	160.56
644.579	162.56
644.784	167.56
644.989	144.56
645.194	169.56
645.399	159.56
645.604	168.56
645.809	174.56
646.014	157.56
646.219	155.56
646.423	154.56
646.628	157.56
646.833	156.56
647.038	157.56
647.243	175.56
647.447	169.56
647.652	161.56
647.857	170.56
648.062	168.56
648.266	164.56
648.471	181.56
648.676	170.56
648.88	184.56
649.085	158.56
649.289	162.56
649.494	168.56
649.698	161.56
649.903	174.56
650.107	174.56
650.312	150.56
650.516	164.56
650.721	153.56
650.925	156.56
651.13	147.56
651.334	136.56
651.539	134.56
651.743	155.56
651.947	165.56
652.152	141.56
652.356	143.56
652.56	132.56
652.764	145.56
652.969	147.56
653.173	142.56
653.377	134.56
653.581	123.56
653.785	125.56
653.99	138.56
654.194	136.56
654.398	136.56
654.602	132.56
654.806	127.56
655.01	122.56
655.214	123.56
655.418	131.56
655.622	131.56
655.826	121.56
656.03	133.56
656.234	135.56
656.438	116.56
656.642	133.56
656.846	116.56
657.049	130.56
657.253	119.56
657.457	111.56
657.661	116.56
657.865	106.56
658.068	118.56
658.272	108.56
658.476	96.56
658.68	100.56
658.883	104.56
659.087	99.56
659.291	79.56
659.494	107.56
659.698	93.56
659.901	101.56
660.105	88.56
660.309	100.56
660.512	96.56
660.716	99.56
660.919	99.56
661.123	100.56
661.326	100.56
661.53	88.56
661.733	87.56
661.936	92.56
662.14	84.56
662.343	71.56
662.546	64.56
662.75	83.56
662.953	82.56
663.156	77.56
663.36	72.56
663.563	90.56
663.766	91.56
663.969	88.56
664.173	90.56
664.376	87.56
664.579	81.56
664.782	79.56
664.985	77.56
665.188	83.56
665.391	85.56
665.594	80.56
665.797	71.56
666	84.56
666.203	77.56
666.406	80.56
666.609	94.56
666.812	80.56
667.015	68.56
667.218	81.56
667.421	93.56
667.624	81.56
667.827	88.56
668.03	100.56
668.232	87.56
668.435	73.56
668.638	87.56
668.841	89.56
669.043	77.56
669.246	74.56
669.449	88.56
669.651	77.56
669.854	85.56
670.057	69.56
670.259	84.56
670.462	75.56
670.665	74.56
670.867	89.56
671.07	70.56
671.272	64.56
671.475	83.56
671.677	76.56
671.88	89.56
672.082	86.56
672.284	74.56
672.487	73.56
672.689	80.56
672.892	90.56
