Data from Ni(NO3)2@0.0625M.TitratingCurve.Agarose3%dH2O.NegLispCup.LampEnergy10.LIBS07252019_HRD10591_18-13-54-569.txt Node
Date: Thu Jul 25 18:13:54 EDT 2019
User: cochatt
Spectrometer: HR+D1059
Trigger mode: 1
Integration Time (sec): 1.000000E-1
Scans to average: 1
Electric dark correction enabled: true
Nonlinearity correction enabled: false
Boxcar width: 0
XAxis mode: Wavelengths
Number of Pixels in Spectrum: 2048
>>>>>Begin Spectral Data<<<<<
223.165	-17.62
223.4	-17.62
223.635	-17.62
223.869	-17.62
224.104	-2.62
224.338	-6.62
224.573	-11.62
224.808	-21.62
225.042	-8.62
225.277	0.38
225.511	-7.62
225.746	10.38
225.98	-12.62
226.215	19.38
226.449	18.38
226.683	11.38
226.918	20.38
227.152	26.38
227.387	46.38
227.621	45.38
227.856	43.38
228.09	52.38
228.324	45.38
228.559	54.38
228.793	71.38
229.027	117.38
229.262	114.38
229.496	105.38
229.73	102.38
229.964	107.38
230.199	144.38
230.433	130.38
230.667	136.38
230.901	142.38
231.136	149.38
231.37	156.38
231.604	155.38
231.838	143.38
232.072	152.38
232.306	150.38
232.541	146.38
232.775	141.38
233.009	167.38
233.243	146.38
233.477	146.38
233.711	134.38
233.945	165.38
234.179	161.38
234.413	164.38
234.647	150.38
234.881	155.38
235.115	155.38
235.349	144.38
235.583	140.38
235.817	162.38
236.051	147.38
236.285	163.38
236.519	170.38
236.753	157.38
236.987	151.38
237.221	151.38
237.455	164.38
237.689	158.38
237.922	159.38
238.156	170.38
238.39	159.38
238.624	162.38
238.858	163.38
239.091	154.38
239.325	177.38
239.559	168.38
239.793	161.38
240.027	176.38
240.26	197.38
240.494	190.38
240.728	183.38
240.961	192.38
241.195	182.38
241.429	184.38
241.662	180.38
241.896	210.38
242.13	180.38
242.363	206.38
242.597	193.38
242.83	206.38
243.064	201.38
243.298	196.38
243.531	190.38
243.765	212.38
243.998	213.38
244.232	192.38
244.465	214.38
244.699	216.38
244.932	213.38
245.166	217.38
245.399	227.38
245.633	219.38
245.866	219.38
246.099	215.38
246.333	224.38
246.566	232.38
246.8	233.38
247.033	234.38
247.266	236.38
247.5	243.38
247.733	227.38
247.966	225.38
248.2	240.38
248.433	250.38
248.666	244.38
248.899	228.38
249.133	251.38
249.366	237.38
249.599	229.38
249.832	255.38
250.066	241.38
250.299	245.38
250.532	258.38
250.765	262.38
250.998	262.38
251.231	279.38
251.465	255.38
251.698	259.38
251.931	258.38
252.164	269.38
252.397	266.38
252.63	286.38
252.863	284.38
253.096	279.38
253.329	284.38
253.562	278.38
253.795	273.38
254.028	264.38
254.261	272.38
254.494	280.38
254.727	272.38
254.96	283.38
255.193	283.38
255.426	275.38
255.659	279.38
255.892	292.38
256.124	284.38
256.357	291.38
256.59	288.38
256.823	295.38
257.056	307.38
257.289	293.38
257.521	287.38
257.754	305.38
257.987	299.38
258.22	308.38
258.452	313.38
258.685	318.38
258.918	302.38
259.151	305.38
259.383	327.38
259.616	296.38
259.849	306.38
260.081	317.38
260.314	308.38
260.547	320.38
260.779	322.38
261.012	328.38
261.244	331.38
261.477	329.38
261.71	337.38
261.942	330.38
262.175	331.38
262.407	332.38
262.64	321.38
262.872	338.38
263.105	346.38
263.337	339.38
263.57	347.38
263.802	349.38
264.035	350.38
264.267	331.38
264.499	340.38
264.732	356.38
264.964	355.38
265.197	368.38
265.429	352.38
265.661	364.38
265.894	378.38
266.126	359.38
266.358	374.38
266.591	382.38
266.823	363.38
267.055	362.38
267.287	368.38
267.52	370.38
267.752	361.38
267.984	364.38
268.216	363.38
268.448	372.38
268.681	393.38
268.913	377.38
269.145	377.38
269.377	373.38
269.609	374.38
269.841	376.38
270.073	400.38
270.306	401.38
270.538	382.38
270.77	388.38
271.002	392.38
271.234	370.38
271.466	384.38
271.698	385.38
271.93	380.38
272.162	371.38
272.394	388.38
272.626	379.38
272.858	374.38
273.09	404.38
273.322	405.38
273.553	408.38
273.785	400.38
274.017	412.38
274.249	414.38
274.481	411.38
274.713	402.38
274.945	428.38
275.176	436.38
275.408	416.38
275.64	427.38
275.872	418.38
276.104	432.38
276.335	414.38
276.567	412.38
276.799	406.38
277.031	439.38
277.262	430.38
277.494	423.38
277.726	434.38
277.957	437.38
278.189	419.38
278.421	417.38
278.652	440.38
278.884	450.38
279.115	440.38
279.347	440.38
279.579	442.38
279.81	445.38
280.042	452.38
280.273	444.38
280.505	438.38
280.736	443.38
280.968	431.38
281.199	485.38
281.431	475.38
281.662	462.38
281.894	472.38
282.125	480.38
282.356	467.38
282.588	480.38
282.819	479.38
283.051	457.38
283.282	468.38
283.513	506.38
283.745	462.38
283.976	478.38
284.207	494.38
284.439	470.38
284.67	455.38
284.901	483.38
285.132	489.38
285.364	494.38
285.595	489.38
285.826	521.38
286.057	500.38
286.288	492.38
286.52	511.38
286.751	512.38
286.982	488.38
287.213	504.38
287.444	508.38
287.675	510.38
287.906	514.38
288.138	517.38
288.369	514.38
288.6	532.38
288.831	517.38
289.062	536.38
289.293	498.38
289.524	510.38
289.755	528.38
289.986	519.38
290.217	528.38
290.448	536.38
290.679	541.38
290.91	516.38
291.141	522.38
291.371	509.38
291.602	519.38
291.833	531.38
292.064	527.38
292.295	540.38
292.526	536.38
292.757	535.38
292.987	538.38
293.218	521.38
293.449	532.38
293.68	555.38
293.91	537.38
294.141	552.38
294.372	531.38
294.603	543.38
294.833	508.38
295.064	522.38
295.295	531.38
295.525	527.38
295.756	514.38
295.987	550.38
296.217	560.38
296.448	563.38
296.679	548.38
296.909	574.38
297.14	574.38
297.37	564.38
297.601	574.38
297.831	581.38
298.062	582.38
298.292	586.38
298.523	595.38
298.753	622.38
298.984	599.38
299.214	580.38
299.445	578.38
299.675	586.38
299.905	585.38
300.136	587.38
300.366	599.38
300.597	592.38
300.827	627.38
301.057	599.38
301.288	611.38
301.518	616.38
301.748	600.38
301.979	618.38
302.209	598.38
302.439	610.38
302.669	609.38
302.9	610.38
303.13	588.38
303.36	599.38
303.59	574.38
303.82	570.38
304.051	559.38
304.281	598.38
304.511	588.38
304.741	610.38
304.971	608.38
305.201	580.38
305.431	605.38
305.661	628.38
305.891	578.38
306.121	592.38
306.352	599.38
306.582	575.38
306.812	554.38
307.042	577.38
307.272	571.38
307.502	570.38
307.731	590.38
307.961	582.38
308.191	568.38
308.421	575.38
308.651	580.38
308.881	544.38
309.111	577.38
309.341	585.38
309.571	587.38
309.8	590.38
310.03	602.38
310.26	560.38
310.49	579.38
310.72	596.38
310.949	592.38
311.179	585.38
311.409	609.38
311.639	578.38
311.868	595.38
312.098	612.38
312.328	586.38
312.557	618.38
312.787	616.38
313.017	603.38
313.246	623.38
313.476	611.38
313.706	620.38
313.935	622.38
314.165	630.38
314.394	608.38
314.624	617.38
314.853	596.38
315.083	638.38
315.312	635.38
315.542	617.38
315.771	611.38
316.001	608.38
316.23	627.38
316.46	613.38
316.689	632.38
316.919	626.38
317.148	618.38
317.377	622.38
317.607	615.38
317.836	584.38
318.065	618.38
318.295	600.38
318.524	612.38
318.753	610.38
318.983	623.38
319.212	601.38
319.441	585.38
319.67	610.38
319.9	587.38
320.129	629.38
320.358	606.38
320.587	624.38
320.816	605.38
321.046	615.38
321.275	599.38
321.504	627.38
321.733	617.38
321.962	614.38
322.191	613.38
322.42	606.38
322.649	629.38
322.878	611.38
323.108	618.38
323.337	634.38
323.566	630.38
323.795	605.38
324.024	615.38
324.253	616.38
324.482	652.38
324.71	636.38
324.939	636.38
325.168	613.38
325.397	624.38
325.626	632.38
325.855	642.38
326.084	660.38
326.313	683.38
326.542	673.38
326.77	675.38
326.999	679.38
327.228	658.38
327.457	657.38
327.686	672.38
327.914	669.38
328.143	665.38
328.372	656.38
328.6	674.38
328.829	652.38
329.058	694.38
329.287	681.38
329.515	671.38
329.744	667.38
329.972	700.38
330.201	695.38
330.43	680.38
330.658	694.38
330.887	704.38
331.115	694.38
331.344	690.38
331.572	707.38
331.801	743.38
332.03	739.38
332.258	748.38
332.486	771.38
332.715	790.38
332.943	854.38
333.172	878.38
333.4	922.38
333.629	929.38
333.857	948.38
334.085	892.38
334.314	891.38
334.542	880.38
334.771	857.38
334.999	860.38
335.227	830.38
335.455	870.38
335.684	854.38
335.912	824.38
336.14	807.38
336.369	827.38
336.597	830.38
336.825	822.38
337.053	803.38
337.281	778.38
337.51	792.38
337.738	760.38
337.966	754.38
338.194	751.38
338.422	743.38
338.65	750.38
338.878	748.38
339.106	734.38
339.334	722.38
339.562	716.38
339.79	702.38
340.018	725.38
340.246	697.38
340.474	666.38
340.702	710.38
340.93	726.38
341.158	718.38
341.386	716.38
341.614	697.38
341.842	683.38
342.07	673.38
342.298	705.38
342.526	684.38
342.754	705.38
342.981	693.38
343.209	688.38
343.437	731.38
343.665	817.38
343.893	897.38
344.12	865.38
344.348	837.38
344.576	792.38
344.804	790.38
345.031	734.38
345.259	746.38
345.487	699.38
345.714	700.38
345.942	724.38
346.17	688.38
346.397	700.38
346.625	702.38
346.853	686.38
347.08	667.38
347.308	678.38
347.535	691.38
347.763	694.38
347.99	694.38
348.218	707.38
348.445	712.38
348.673	682.38
348.9	700.38
349.128	674.38
349.355	687.38
349.583	688.38
349.81	661.38
350.037	658.38
350.265	662.38
350.492	683.38
350.72	658.38
350.947	644.38
351.174	656.38
351.402	654.38
351.629	662.38
351.856	649.38
352.083	662.38
352.311	662.38
352.538	638.38
352.765	649.38
352.992	650.38
353.22	648.38
353.447	643.38
353.674	645.38
353.901	653.38
354.128	643.38
354.355	653.38
354.583	644.38
354.81	643.38
355.037	666.38
355.264	648.38
355.491	651.38
355.718	678.38
355.945	666.38
356.172	665.38
356.399	658.38
356.626	651.38
356.853	688.38
357.08	656.38
357.307	692.38
357.534	655.38
357.761	644.38
357.988	655.38
358.215	656.38
358.441	658.38
358.668	641.38
358.895	662.38
359.122	642.38
359.349	664.38
359.576	678.38
359.802	666.38
360.029	649.38
360.256	652.38
360.483	644.38
360.709	662.38
360.936	673.38
361.163	665.38
361.39	655.38
361.616	653.38
361.843	650.38
362.07	670.38
362.296	650.38
362.523	636.38
362.749	668.38
362.976	657.38
363.203	640.38
363.429	644.38
363.656	662.38
363.882	636.38
364.109	632.38
364.335	646.38
364.562	634.38
364.788	627.38
365.015	647.38
365.241	631.38
365.468	651.38
365.694	642.38
365.92	672.38
366.147	662.38
366.373	663.38
366.599	646.38
366.826	630.38
367.052	646.38
367.278	636.38
367.505	674.38
367.731	662.38
367.957	656.38
368.184	643.38
368.41	674.38
368.636	672.38
368.862	665.38
369.089	674.38
369.315	671.38
369.541	688.38
369.767	692.38
369.993	679.38
370.219	681.38
370.445	708.38
370.672	700.38
370.898	710.38
371.124	703.38
371.35	719.38
371.576	721.38
371.802	739.38
372.028	700.38
372.254	727.38
372.48	724.38
372.706	711.38
372.932	736.38
373.158	751.38
373.384	732.38
373.61	714.38
373.835	726.38
374.061	726.38
374.287	718.38
374.513	705.38
374.739	750.38
374.965	775.38
375.191	801.38
375.416	825.38
375.642	784.38
375.868	754.38
376.094	760.38
376.319	754.38
376.545	724.38
376.771	750.38
376.997	713.38
377.222	738.38
377.448	728.38
377.674	710.38
377.899	712.38
378.125	736.38
378.35	720.38
378.576	711.38
378.802	702.38
379.027	715.38
379.253	708.38
379.478	716.38
379.704	720.38
379.929	709.38
380.155	704.38
380.38	702.38
380.606	697.38
380.831	692.38
381.057	719.38
381.282	732.38
381.507	697.38
381.733	700.38
381.958	718.38
382.184	733.38
382.409	729.38
382.634	752.38
382.86	762.38
383.085	763.38
383.31	769.38
383.535	795.38
383.761	815.38
383.986	836.38
384.211	841.38
384.436	833.38
384.662	857.38
384.887	853.38
385.112	858.38
385.337	883.38
385.562	890.38
385.787	865.38
386.013	856.38
386.238	890.38
386.463	867.38
386.688	868.38
386.913	843.38
387.138	859.38
387.363	838.38
387.588	822.38
387.813	863.38
388.038	850.38
388.263	865.38
388.488	844.38
388.713	828.38
388.938	849.38
389.163	811.38
389.387	838.38
389.612	839.38
389.837	861.38
390.062	822.38
390.287	839.38
390.512	820.38
390.736	830.38
390.961	848.38
391.186	884.38
391.411	915.38
391.636	933.38
391.86	926.38
392.085	993.38
392.31	995.38
392.534	936.38
392.759	931.38
392.984	916.38
393.208	921.38
393.433	921.38
393.658	912.38
393.882	898.38
394.107	915.38
394.331	880.38
394.556	906.38
394.78	942.38
395.005	902.38
395.229	907.38
395.454	961.38
395.678	977.38
395.903	994.38
396.127	971.38
396.352	934.38
396.576	910.38
396.801	888.38
397.025	891.38
397.249	942.38
397.474	930.38
397.698	972.38
397.922	970.38
398.147	921.38
398.371	983.38
398.595	994.38
398.82	1036.38
399.044	1120.38
399.268	1232.38
399.492	1465.38
399.717	1696.38
399.941	1711.38
400.165	1493.38
400.389	1299.38
400.613	1210.38
400.837	1098.38
401.062	1090.38
401.286	1068.38
401.51	1089.38
401.734	1070.38
401.958	1094.38
402.182	1093.38
402.406	1118.38
402.63	1127.38
402.854	1161.38
403.078	1186.38
403.302	1210.38
403.526	1243.38
403.75	1237.38
403.974	1296.38
404.198	1283.38
404.422	1296.38
404.645	1262.38
404.869	1245.38
405.093	1255.38
405.317	1242.38
405.541	1211.38
405.765	1185.38
405.988	1186.38
406.212	1180.38
406.436	1189.38
406.66	1249.38
406.883	1238.38
407.107	1335.38
407.331	1400.38
407.555	1434.38
407.778	1427.38
408.002	1384.38
408.226	1353.38
408.449	1284.38
408.673	1255.38
408.896	1269.38
409.12	1240.38
409.344	1220.38
409.567	1262.38
409.791	1281.38
410.014	1226.38
410.238	1231.38
410.461	1241.38
410.685	1212.38
410.908	1160.38
411.132	1166.38
411.355	1125.38
411.578	1118.38
411.802	1108.38
412.025	1144.38
412.249	1142.38
412.472	1140.38
412.695	1096.38
412.919	1087.38
413.142	1066.38
413.365	1049.38
413.589	1091.38
413.812	1079.38
414.035	1076.38
414.258	1067.38
414.482	1046.38
414.705	1104.38
414.928	1101.38
415.151	1104.38
415.374	1090.38
415.597	1071.38
415.821	1078.38
416.044	1063.38
416.267	1033.38
416.49	1042.38
416.713	1038.38
416.936	1042.38
417.159	1041.38
417.382	1037.38
417.605	1072.38
417.828	1100.38
418.051	1100.38
418.274	1070.38
418.497	1074.38
418.72	1135.38
418.943	1095.38
419.166	1169.38
419.389	1268.38
419.611	1232.38
419.834	1171.38
420.057	1143.38
420.28	1093.38
420.503	1071.38
420.726	1050.38
420.948	1059.38
421.171	1079.38
421.394	1066.38
421.617	1048.38
421.839	1068.38
422.062	1051.38
422.285	1062.38
422.507	1114.38
422.73	1089.38
422.953	1084.38
423.175	1143.38
423.398	1138.38
423.621	1148.38
423.843	1162.38
424.066	1196.38
424.288	1166.38
424.511	1158.38
424.733	1116.38
424.956	1096.38
425.178	1086.38
425.401	1101.38
425.623	1068.38
425.846	1041.38
426.068	1042.38
426.291	1035.38
426.513	994.38
426.735	986.38
426.958	1004.38
427.18	991.38
427.402	974.38
427.625	970.38
427.847	951.38
428.069	965.38
428.292	949.38
428.514	957.38
428.736	961.38
428.958	945.38
429.181	939.38
429.403	932.38
429.625	933.38
429.847	929.38
430.069	918.38
430.292	927.38
430.514	919.38
430.736	928.38
430.958	907.38
431.18	926.38
431.402	950.38
431.624	930.38
431.846	943.38
432.068	962.38
432.29	979.38
432.512	962.38
432.734	979.38
432.956	926.38
433.178	1001.38
433.4	994.38
433.622	960.38
433.844	960.38
434.066	982.38
434.287	967.38
434.509	1027.38
434.731	1065.38
434.953	1088.38
435.175	1120.38
435.397	1114.38
435.618	1016.38
435.84	967.38
436.062	972.38
436.284	953.38
436.505	948.38
436.727	957.38
436.949	971.38
437.17	971.38
437.392	960.38
437.614	921.38
437.835	931.38
438.057	939.38
438.278	917.38
438.5	905.38
438.721	895.38
438.943	922.38
439.165	915.38
439.386	927.38
439.608	958.38
439.829	972.38
440.05	956.38
440.272	960.38
440.493	962.38
440.715	974.38
440.936	982.38
441.158	1005.38
441.379	1032.38
441.6	1113.38
441.822	1118.38
442.043	1105.38
442.264	1062.38
442.486	1070.38
442.707	1048.38
442.928	1074.38
443.149	1067.38
443.371	1080.38
443.592	1098.38
443.813	1116.38
444.034	1082.38
444.255	1124.38
444.476	1212.38
444.698	1271.38
444.919	1335.38
445.14	1371.38
445.361	1220.38
445.582	1125.38
445.803	1057.38
446.024	998.38
446.245	1030.38
446.466	964.38
446.687	971.38
446.908	942.38
447.129	937.38
447.35	938.38
447.571	894.38
447.792	915.38
448.013	882.38
448.234	897.38
448.455	914.38
448.675	851.38
448.896	888.38
449.117	844.38
449.338	892.38
449.559	863.38
449.779	863.38
450	859.38
450.221	879.38
450.442	892.38
450.662	904.38
450.883	928.38
451.104	912.38
451.324	879.38
451.545	934.38
451.766	920.38
451.986	906.38
452.207	880.38
452.428	891.38
452.648	866.38
452.869	864.38
453.089	883.38
453.31	904.38
453.53	855.38
453.751	874.38
453.971	869.38
454.192	820.38
454.412	816.38
454.633	844.38
454.853	843.38
455.073	816.38
455.294	834.38
455.514	839.38
455.734	802.38
455.955	804.38
456.175	836.38
456.395	841.38
456.616	810.38
456.836	831.38
457.056	816.38
457.276	826.38
457.497	840.38
457.717	790.38
457.937	842.38
458.157	839.38
458.377	836.38
458.598	867.38
458.818	880.38
459.038	914.38
459.258	947.38
459.478	968.38
459.698	1004.38
459.918	1012.38
460.138	1062.38
460.358	1134.38
460.578	1154.38
460.798	1148.38
461.018	1180.38
461.238	1141.38
461.458	1124.38
461.678	1140.38
461.898	1145.38
462.118	1156.38
462.338	1246.38
462.558	1258.38
462.777	1310.38
462.997	1408.38
463.217	1635.38
463.437	1603.38
463.657	1455.38
463.876	1366.38
464.096	1354.38
464.316	1366.38
464.536	1415.38
464.755	1318.38
464.975	1231.38
465.195	1186.38
465.414	1121.38
465.634	1038.38
465.854	1034.38
466.073	982.38
466.293	990.38
466.512	936.38
466.732	932.38
466.951	938.38
467.171	972.38
467.391	927.38
467.61	940.38
467.829	936.38
468.049	900.38
468.268	916.38
468.488	881.38
468.707	882.38
468.927	859.38
469.146	850.38
469.365	921.38
469.585	870.38
469.804	907.38
470.023	960.38
470.243	945.38
470.462	979.38
470.681	975.38
470.901	951.38
471.12	930.38
471.339	937.38
471.558	906.38
471.777	914.38
471.997	882.38
472.216	880.38
472.435	889.38
472.654	893.38
472.873	843.38
473.092	874.38
473.311	838.38
473.53	842.38
473.749	879.38
473.968	851.38
474.187	853.38
474.406	848.38
474.625	895.38
474.844	856.38
475.063	875.38
475.282	871.38
475.501	878.38
475.72	890.38
475.939	887.38
476.158	916.38
476.377	875.38
476.596	891.38
476.814	916.38
477.033	893.38
477.252	934.38
477.471	962.38
477.69	959.38
477.908	994.38
478.127	1036.38
478.346	1009.38
478.564	1056.38
478.783	1081.38
479.002	1070.38
479.22	1105.38
479.439	1102.38
479.658	1068.38
479.876	1095.38
480.095	1110.38
480.313	1147.38
480.532	1198.38
480.751	1195.38
480.969	1129.38
481.188	1082.38
481.406	1036.38
481.624	1032.38
481.843	979.38
482.061	1006.38
482.28	973.38
482.498	974.38
482.717	982.38
482.935	980.38
483.153	971.38
483.372	973.38
483.59	1009.38
483.808	974.38
484.027	1007.38
484.245	981.38
484.463	1022.38
484.681	1020.38
484.9	1002.38
485.118	1058.38
485.336	1013.38
485.554	1029.38
485.772	1065.38
485.99	1055.38
486.209	1076.38
486.427	1047.38
486.645	1048.38
486.863	1050.38
487.081	1068.38
487.299	1074.38
487.517	1047.38
487.735	1023.38
487.953	1069.38
488.171	1038.38
488.389	1052.38
488.607	1019.38
488.825	982.38
489.043	1004.38
489.261	1040.38
489.479	1018.38
489.696	1034.38
489.914	1060.38
490.132	1035.38
490.35	1042.38
490.568	1039.38
490.786	1030.38
491.003	1044.38
491.221	1026.38
491.439	1038.38
491.657	1029.38
491.874	1060.38
492.092	1063.38
492.31	1050.38
492.527	1057.38
492.745	1070.38
492.963	1063.38
493.18	1046.38
493.398	1102.38
493.615	1107.38
493.833	1078.38
494.05	1073.38
494.268	1087.38
494.485	1120.38
494.703	1103.38
494.92	1080.38
495.138	1076.38
495.355	1072.38
495.573	1067.38
495.79	1090.38
496.008	1099.38
496.225	1111.38
496.442	1115.38
496.66	1114.38
496.877	1146.38
497.094	1146.38
497.312	1184.38
497.529	1180.38
497.746	1241.38
497.963	1246.38
498.181	1347.38
498.398	1362.38
498.615	1464.38
498.832	1595.38
499.049	1662.38
499.267	1832.38
499.484	2006.38
499.701	2202.38
499.918	2467.38
500.135	2858.38
500.352	3341.38
500.569	3572.38
500.786	3512.38
501.003	3254.38
501.22	2848.38
501.437	2432.38
501.654	2207.38
501.871	1936.38
502.088	1805.38
502.305	1658.38
502.522	1589.38
502.739	1507.38
502.956	1460.38
503.172	1327.38
503.389	1295.38
503.606	1288.38
503.823	1252.38
504.04	1222.38
504.256	1257.38
504.473	1290.38
504.69	1341.38
504.907	1314.38
505.123	1230.38
505.34	1156.38
505.557	1090.38
505.773	1082.38
505.99	1048.38
506.207	1006.38
506.423	1032.38
506.64	999.38
506.856	1005.38
507.073	1001.38
507.289	963.38
507.506	970.38
507.722	988.38
507.939	944.38
508.155	935.38
508.372	924.38
508.588	922.38
508.805	926.38
509.021	953.38
509.238	920.38
509.454	906.38
509.67	904.38
509.887	895.38
510.103	894.38
510.319	884.38
510.536	906.38
510.752	915.38
510.968	886.38
511.184	890.38
511.401	894.38
511.617	873.38
511.833	882.38
512.049	886.38
512.265	895.38
512.481	890.38
512.698	875.38
512.914	906.38
513.13	896.38
513.346	886.38
513.562	894.38
513.778	900.38
513.994	866.38
514.21	901.38
514.426	892.38
514.642	897.38
514.858	943.38
515.074	920.38
515.29	902.38
515.506	914.38
515.721	957.38
515.937	957.38
516.153	975.38
516.369	987.38
516.585	1039.38
516.801	1042.38
517.016	1090.38
517.232	1137.38
517.448	1219.38
517.664	1279.38
517.879	1263.38
518.095	1286.38
518.311	1251.38
518.527	1210.38
518.742	1142.38
518.958	1080.38
519.173	1054.38
519.389	989.38
519.605	977.38
519.82	947.38
520.036	921.38
520.251	918.38
520.467	918.38
520.682	883.38
520.898	916.38
521.113	882.38
521.329	873.38
521.544	885.38
521.76	890.38
521.975	854.38
522.19	826.38
522.406	864.38
522.621	849.38
522.836	816.38
523.052	842.38
523.267	808.38
523.482	832.38
523.698	820.38
523.913	803.38
524.128	834.38
524.343	826.38
524.559	811.38
524.774	833.38
524.989	840.38
525.204	810.38
525.419	809.38
525.634	825.38
525.849	840.38
526.064	809.38
526.28	811.38
526.495	802.38
526.71	796.38
526.925	786.38
527.14	807.38
527.355	814.38
527.57	791.38
527.785	788.38
527.999	788.38
528.214	794.38
528.429	820.38
528.644	819.38
528.859	843.38
529.074	796.38
529.289	798.38
529.503	800.38
529.718	784.38
529.933	822.38
530.148	821.38
530.363	809.38
530.577	797.38
530.792	812.38
531.007	798.38
531.221	814.38
531.436	787.38
531.651	816.38
531.865	815.38
532.08	805.38
532.295	822.38
532.509	784.38
532.724	790.38
532.938	802.38
533.153	805.38
533.367	820.38
533.582	838.38
533.796	792.38
534.011	804.38
534.225	804.38
534.44	803.38
534.654	783.38
534.868	790.38
535.083	784.38
535.297	784.38
535.511	769.38
535.726	779.38
535.94	772.38
536.154	769.38
536.369	764.38
536.583	729.38
536.797	754.38
537.011	760.38
537.225	760.38
537.44	746.38
537.654	746.38
537.868	724.38
538.082	716.38
538.296	721.38
538.51	729.38
538.724	731.38
538.938	721.38
539.153	722.38
539.367	761.38
539.581	712.38
539.795	722.38
540.009	722.38
540.222	699.38
540.436	716.38
540.65	716.38
540.864	709.38
541.078	726.38
541.292	737.38
541.506	698.38
541.72	719.38
541.934	723.38
542.147	693.38
542.361	705.38
542.575	712.38
542.789	694.38
543.002	720.38
543.216	702.38
543.43	728.38
543.644	704.38
543.857	715.38
544.071	719.38
544.285	726.38
544.498	695.38
544.712	706.38
544.925	748.38
545.139	720.38
545.352	739.38
545.566	739.38
545.779	726.38
545.993	758.38
546.206	728.38
546.42	723.38
546.633	731.38
546.847	731.38
547.06	723.38
547.274	737.38
547.487	733.38
547.7	694.38
547.914	727.38
548.127	722.38
548.34	755.38
548.554	729.38
548.767	741.38
548.98	727.38
549.193	706.38
549.407	747.38
549.62	739.38
549.833	753.38
550.046	771.38
550.259	744.38
550.473	731.38
550.686	733.38
550.899	738.38
551.112	716.38
551.325	707.38
551.538	706.38
551.751	723.38
551.964	718.38
552.177	726.38
552.39	743.38
552.603	738.38
552.816	779.38
553.029	788.38
553.242	790.38
553.455	824.38
553.667	842.38
553.88	812.38
554.093	766.38
554.306	745.38
554.519	744.38
554.732	737.38
554.944	722.38
555.157	712.38
555.37	692.38
555.583	666.38
555.795	663.38
556.008	674.38
556.221	654.38
556.433	643.38
556.646	645.38
556.859	642.38
557.071	652.38
557.284	640.38
557.496	662.38
557.709	668.38
557.921	637.38
558.134	623.38
558.346	635.38
558.559	617.38
558.771	638.38
558.984	634.38
559.196	597.38
559.409	585.38
559.621	629.38
559.833	597.38
560.046	605.38
560.258	603.38
560.47	592.38
560.683	610.38
560.895	580.38
561.107	607.38
561.32	602.38
561.532	620.38
561.744	605.38
561.956	610.38
562.168	610.38
562.381	635.38
562.593	632.38
562.805	603.38
563.017	616.38
563.229	587.38
563.441	607.38
563.653	629.38
563.865	608.38
564.077	634.38
564.289	630.38
564.501	638.38
564.713	663.38
564.925	648.38
565.137	664.38
565.349	667.38
565.561	681.38
565.773	723.38
565.985	746.38
566.197	790.38
566.408	809.38
566.62	898.38
566.832	1002.38
567.044	1039.38
567.255	1044.38
567.467	1048.38
567.679	1090.38
567.891	1240.38
568.102	1282.38
568.314	1184.38
568.526	1052.38
568.737	961.38
568.949	890.38
569.161	794.38
569.372	734.38
569.584	708.38
569.795	673.38
570.007	648.38
570.218	635.38
570.43	630.38
570.641	628.38
570.853	616.38
571.064	661.38
571.276	662.38
571.487	610.38
571.698	611.38
571.91	595.38
572.121	561.38
572.333	531.38
572.544	549.38
572.755	514.38
572.966	528.38
573.178	520.38
573.389	533.38
573.6	542.38
573.811	512.38
574.023	544.38
574.234	532.38
574.445	489.38
574.656	504.38
574.867	506.38
575.078	513.38
575.289	487.38
575.501	491.38
575.712	478.38
575.923	470.38
576.134	480.38
576.345	483.38
576.556	475.38
576.767	497.38
576.978	479.38
577.188	451.38
577.399	468.38
577.61	458.38
577.821	474.38
578.032	470.38
578.243	423.38
578.454	450.38
578.665	454.38
578.875	423.38
579.086	459.38
579.297	449.38
579.508	449.38
579.718	440.38
579.929	465.38
580.14	450.38
580.35	432.38
580.561	463.38
580.772	452.38
580.982	467.38
581.193	444.38
581.403	447.38
581.614	434.38
581.825	438.38
582.035	441.38
582.246	419.38
582.456	397.38
582.667	422.38
582.877	432.38
583.087	408.38
583.298	412.38
583.508	418.38
583.719	421.38
583.929	430.38
584.139	436.38
584.35	416.38
584.56	418.38
584.77	418.38
584.981	400.38
585.191	421.38
585.401	430.38
585.611	390.38
585.821	418.38
586.032	420.38
586.242	417.38
586.452	403.38
586.662	401.38
586.872	399.38
587.082	406.38
587.292	401.38
587.502	397.38
587.713	402.38
587.923	405.38
588.133	418.38
588.343	389.38
588.553	412.38
588.762	400.38
588.972	390.38
589.182	416.38
589.392	425.38
589.602	400.38
589.812	404.38
590.022	412.38
590.232	404.38
590.441	408.38
590.651	407.38
590.861	413.38
591.071	425.38
591.281	418.38
591.49	423.38
591.7	427.38
591.91	455.38
592.119	438.38
592.329	441.38
592.539	478.38
592.748	493.38
592.958	496.38
593.167	510.38
593.377	515.38
593.587	550.38
593.796	534.38
594.006	532.38
594.215	562.38
594.424	529.38
594.634	530.38
594.843	489.38
595.053	460.38
595.262	466.38
595.472	441.38
595.681	428.38
595.89	427.38
596.1	412.38
596.309	418.38
596.518	390.38
596.727	395.38
596.937	384.38
597.146	380.38
597.355	359.38
597.564	359.38
597.774	383.38
597.983	360.38
598.192	370.38
598.401	373.38
598.61	354.38
598.819	362.38
599.028	361.38
599.237	370.38
599.446	355.38
599.655	335.38
599.864	361.38
600.073	339.38
600.282	331.38
600.491	359.38
600.7	347.38
600.909	349.38
601.118	344.38
601.327	339.38
601.536	339.38
601.745	339.38
601.953	337.38
602.162	327.38
602.371	334.38
602.58	314.38
602.789	331.38
602.997	326.38
603.206	332.38
603.415	339.38
603.623	318.38
603.832	323.38
604.041	325.38
604.249	324.38
604.458	352.38
604.666	324.38
604.875	307.38
605.084	326.38
605.292	327.38
605.501	312.38
605.709	327.38
605.918	311.38
606.126	307.38
606.334	298.38
606.543	302.38
606.751	305.38
606.96	306.38
607.168	308.38
607.376	308.38
607.585	313.38
607.793	313.38
608.001	302.38
608.21	315.38
608.418	324.38
608.626	312.38
608.834	322.38
609.043	314.38
609.251	306.38
609.459	302.38
609.667	299.38
609.875	302.38
610.083	306.38
610.291	310.38
610.499	304.38
610.707	314.38
610.916	314.38
611.124	303.38
611.332	299.38
611.54	297.38
611.748	304.38
611.955	292.38
612.163	311.38
612.371	300.38
612.579	298.38
612.787	296.38
612.995	311.38
613.203	302.38
613.411	282.38
613.618	284.38
613.826	294.38
614.034	309.38
614.242	304.38
614.449	298.38
614.657	286.38
614.865	286.38
615.072	279.38
615.28	281.38
615.488	290.38
615.695	301.38
615.903	306.38
616.111	304.38
616.318	302.38
616.526	298.38
616.733	323.38
616.941	295.38
617.148	299.38
617.356	306.38
617.563	303.38
617.771	308.38
617.978	295.38
618.185	307.38
618.393	280.38
618.6	267.38
618.807	294.38
619.015	300.38
619.222	288.38
619.429	291.38
619.637	292.38
619.844	283.38
620.051	277.38
620.258	289.38
620.466	276.38
620.673	279.38
620.88	276.38
621.087	270.38
621.294	270.38
621.501	265.38
621.708	287.38
621.915	270.38
622.122	259.38
622.329	275.38
622.536	275.38
622.743	285.38
622.95	281.38
623.157	269.38
623.364	254.38
623.571	248.38
623.778	264.38
623.985	259.38
624.192	247.38
624.399	275.38
624.606	267.38
624.812	249.38
625.019	242.38
625.226	250.38
625.433	259.38
625.639	258.38
625.846	234.38
626.053	241.38
626.259	256.38
626.466	246.38
626.673	238.38
626.879	241.38
627.086	232.38
627.293	270.38
627.499	262.38
627.706	250.38
627.912	236.38
628.119	243.38
628.325	242.38
628.532	248.38
628.738	234.38
628.945	239.38
629.151	267.38
629.357	237.38
629.564	248.38
629.77	243.38
629.976	251.38
630.183	231.38
630.389	225.38
630.595	220.38
630.802	239.38
631.008	218.38
631.214	233.38
631.42	238.38
631.627	230.38
631.833	231.38
632.039	230.38
632.245	237.38
632.451	222.38
632.657	228.38
632.863	222.38
633.069	207.38
633.275	211.38
633.481	217.38
633.688	229.38
633.893	218.38
634.099	214.38
634.305	212.38
634.511	211.38
634.717	226.38
634.923	229.38
635.129	228.38
635.335	236.38
635.541	213.38
635.747	216.38
635.952	204.38
636.158	197.38
636.364	198.38
636.57	205.38
636.775	199.38
636.981	198.38
637.187	211.38
637.392	199.38
637.598	210.38
637.804	191.38
638.009	206.38
638.215	213.38
638.421	201.38
638.626	191.38
638.832	204.38
639.037	194.38
639.243	195.38
639.448	205.38
639.654	213.38
639.859	202.38
640.065	199.38
640.27	195.38
640.475	194.38
640.681	201.38
640.886	186.38
641.091	194.38
641.297	188.38
641.502	208.38
641.707	210.38
641.913	197.38
642.118	181.38
642.323	177.38
642.528	189.38
642.733	187.38
642.939	194.38
643.144	191.38
643.349	188.38
643.554	205.38
643.759	182.38
643.964	182.38
644.169	184.38
644.374	195.38
644.579	187.38
644.784	179.38
644.989	190.38
645.194	186.38
645.399	194.38
645.604	190.38
645.809	183.38
646.014	200.38
646.219	207.38
646.423	182.38
646.628	195.38
646.833	200.38
647.038	202.38
647.243	194.38
647.447	185.38
647.652	210.38
647.857	218.38
648.062	202.38
648.266	207.38
648.471	208.38
648.676	217.38
648.88	206.38
649.085	210.38
649.289	182.38
649.494	212.38
649.698	190.38
649.903	193.38
650.107	192.38
650.312	186.38
650.516	189.38
650.721	188.38
650.925	178.38
651.13	171.38
651.334	177.38
651.539	171.38
651.743	194.38
651.947	169.38
652.152	174.38
652.356	174.38
652.56	169.38
652.764	155.38
652.969	175.38
653.173	167.38
653.377	148.38
653.581	155.38
653.785	147.38
653.99	152.38
654.194	156.38
654.398	151.38
654.602	149.38
654.806	132.38
655.01	137.38
655.214	152.38
655.418	150.38
655.622	139.38
655.826	144.38
656.03	152.38
656.234	141.38
656.438	164.38
656.642	150.38
656.846	141.38
657.049	138.38
657.253	135.38
657.457	125.38
657.661	140.38
657.865	123.38
658.068	126.38
658.272	101.38
658.476	107.38
658.68	106.38
658.883	102.38
659.087	104.38
659.291	115.38
659.494	110.38
659.698	103.38
659.901	85.38
660.105	102.38
660.309	105.38
660.512	88.38
660.716	83.38
660.919	78.38
661.123	91.38
661.326	82.38
661.53	96.38
661.733	87.38
661.936	87.38
662.14	90.38
662.343	94.38
662.546	93.38
662.75	76.38
662.953	88.38
663.156	84.38
663.36	84.38
663.563	90.38
663.766	80.38
663.969	74.38
664.173	88.38
664.376	99.38
664.579	62.38
664.782	88.38
664.985	73.38
665.188	88.38
665.391	78.38
665.594	81.38
665.797	80.38
666	81.38
666.203	92.38
666.406	83.38
666.609	80.38
666.812	86.38
667.015	73.38
667.218	73.38
667.421	80.38
667.624	78.38
667.827	67.38
668.03	69.38
668.232	60.38
668.435	84.38
668.638	87.38
668.841	91.38
669.043	83.38
669.246	78.38
669.449	64.38
669.651	79.38
669.854	86.38
670.057	79.38
670.259	100.38
670.462	75.38
670.665	79.38
670.867	89.38
671.07	87.38
671.272	69.38
671.475	87.38
671.677	78.38
671.88	92.38
672.082	77.38
672.284	59.38
672.487	66.38
672.689	87.38
672.892	85.38
