Data from Ni(NO3)2@0.5M.TitratingCurve.Agarose3%dH2O.NegLispCup.LampEnergy10.LIBS07252019_HRD10591_17-58-40-564.txt Node
Date: Thu Jul 25 17:58:40 EDT 2019
User: cochatt
Spectrometer: HR+D1059
Trigger mode: 1
Integration Time (sec): 1.000000E-1
Scans to average: 1
Electric dark correction enabled: true
Nonlinearity correction enabled: false
Boxcar width: 0
XAxis mode: Wavelengths
Number of Pixels in Spectrum: 2048
>>>>>Begin Spectral Data<<<<<
223.165	-13.31
223.4	-13.31
223.635	-13.31
223.869	-4.31
224.104	-20.31
224.338	-22.31
224.573	-31.31
224.808	-12.31
225.042	-11.31
225.277	-1.31
225.511	9.69
225.746	9.69
225.98	1.69
226.215	8.69
226.449	20.69
226.683	18.69
226.918	23.69
227.152	23.69
227.387	23.69
227.621	45.69
227.856	48.69
228.09	62.69
228.324	43.69
228.559	44.69
228.793	64.69
229.027	94.69
229.262	118.69
229.496	111.69
229.73	128.69
229.964	143.69
230.199	142.69
230.433	146.69
230.667	152.69
230.901	149.69
231.136	146.69
231.37	134.69
231.604	149.69
231.838	156.69
232.072	148.69
232.306	168.69
232.541	151.69
232.775	133.69
233.009	131.69
233.243	143.69
233.477	132.69
233.711	132.69
233.945	130.69
234.179	134.69
234.413	147.69
234.647	146.69
234.881	134.69
235.115	134.69
235.349	137.69
235.583	126.69
235.817	130.69
236.051	125.69
236.285	136.69
236.519	128.69
236.753	145.69
236.987	126.69
237.221	140.69
237.455	142.69
237.689	150.69
237.922	159.69
238.156	134.69
238.39	126.69
238.624	123.69
238.858	139.69
239.091	150.69
239.325	158.69
239.559	172.69
239.793	178.69
240.027	175.69
240.26	143.69
240.494	154.69
240.728	150.69
240.961	152.69
241.195	151.69
241.429	173.69
241.662	146.69
241.896	179.69
242.13	168.69
242.363	168.69
242.597	175.69
242.83	173.69
243.064	152.69
243.298	164.69
243.531	161.69
243.765	179.69
243.998	175.69
244.232	193.69
244.465	176.69
244.699	170.69
244.932	178.69
245.166	177.69
245.399	166.69
245.633	169.69
245.866	184.69
246.099	190.69
246.333	180.69
246.566	191.69
246.8	181.69
247.033	191.69
247.266	195.69
247.5	192.69
247.733	209.69
247.966	194.69
248.2	195.69
248.433	190.69
248.666	204.69
248.899	193.69
249.133	197.69
249.366	211.69
249.599	207.69
249.832	208.69
250.066	219.69
250.299	218.69
250.532	219.69
250.765	217.69
250.998	211.69
251.231	234.69
251.465	230.69
251.698	239.69
251.931	242.69
252.164	222.69
252.397	239.69
252.63	240.69
252.863	223.69
253.096	215.69
253.329	231.69
253.562	223.69
253.795	235.69
254.028	251.69
254.261	243.69
254.494	223.69
254.727	244.69
254.96	253.69
255.193	254.69
255.426	256.69
255.659	246.69
255.892	266.69
256.124	232.69
256.357	256.69
256.59	247.69
256.823	238.69
257.056	245.69
257.289	267.69
257.521	263.69
257.754	259.69
257.987	264.69
258.22	268.69
258.452	261.69
258.685	268.69
258.918	275.69
259.151	260.69
259.383	260.69
259.616	265.69
259.849	286.69
260.081	265.69
260.314	283.69
260.547	269.69
260.779	285.69
261.012	299.69
261.244	309.69
261.477	303.69
261.71	292.69
261.942	306.69
262.175	288.69
262.407	287.69
262.64	299.69
262.872	299.69
263.105	295.69
263.337	289.69
263.57	306.69
263.802	310.69
264.035	299.69
264.267	288.69
264.499	324.69
264.732	308.69
264.964	304.69
265.197	317.69
265.429	304.69
265.661	302.69
265.894	321.69
266.126	304.69
266.358	307.69
266.591	308.69
266.823	314.69
267.055	299.69
267.287	342.69
267.52	312.69
267.752	334.69
267.984	327.69
268.216	326.69
268.448	339.69
268.681	336.69
268.913	324.69
269.145	337.69
269.377	324.69
269.609	337.69
269.841	350.69
270.073	330.69
270.306	313.69
270.538	331.69
270.77	340.69
271.002	323.69
271.234	334.69
271.466	343.69
271.698	339.69
271.93	336.69
272.162	348.69
272.394	363.69
272.626	345.69
272.858	341.69
273.09	341.69
273.322	360.69
273.553	352.69
273.785	342.69
274.017	354.69
274.249	374.69
274.481	347.69
274.713	355.69
274.945	366.69
275.176	369.69
275.408	366.69
275.64	365.69
275.872	360.69
276.104	354.69
276.335	352.69
276.567	354.69
276.799	353.69
277.031	377.69
277.262	372.69
277.494	378.69
277.726	384.69
277.957	374.69
278.189	402.69
278.421	386.69
278.652	361.69
278.884	366.69
279.115	404.69
279.347	392.69
279.579	376.69
279.81	400.69
280.042	389.69
280.273	387.69
280.505	402.69
280.736	409.69
280.968	411.69
281.199	398.69
281.431	408.69
281.662	415.69
281.894	400.69
282.125	403.69
282.356	405.69
282.588	397.69
282.819	409.69
283.051	395.69
283.282	405.69
283.513	392.69
283.745	402.69
283.976	415.69
284.207	420.69
284.439	404.69
284.67	407.69
284.901	429.69
285.132	420.69
285.364	440.69
285.595	404.69
285.826	404.69
286.057	422.69
286.288	414.69
286.52	411.69
286.751	426.69
286.982	432.69
287.213	427.69
287.444	432.69
287.675	438.69
287.906	427.69
288.138	415.69
288.369	443.69
288.6	393.69
288.831	426.69
289.062	423.69
289.293	441.69
289.524	434.69
289.755	439.69
289.986	439.69
290.217	453.69
290.448	438.69
290.679	446.69
290.91	446.69
291.141	421.69
291.371	420.69
291.602	456.69
291.833	442.69
292.064	439.69
292.295	434.69
292.526	434.69
292.757	425.69
292.987	419.69
293.218	419.69
293.449	464.69
293.68	442.69
293.91	440.69
294.141	443.69
294.372	440.69
294.603	470.69
294.833	441.69
295.064	463.69
295.295	427.69
295.525	427.69
295.756	456.69
295.987	457.69
296.217	450.69
296.448	455.69
296.679	451.69
296.909	454.69
297.14	464.69
297.37	477.69
297.601	464.69
297.831	466.69
298.062	499.69
298.292	464.69
298.523	481.69
298.753	477.69
298.984	470.69
299.214	493.69
299.445	490.69
299.675	467.69
299.905	476.69
300.136	488.69
300.366	500.69
300.597	513.69
300.827	475.69
301.057	483.69
301.288	518.69
301.518	506.69
301.748	498.69
301.979	490.69
302.209	510.69
302.439	516.69
302.669	498.69
302.9	502.69
303.13	499.69
303.36	486.69
303.59	524.69
303.82	506.69
304.051	522.69
304.281	496.69
304.511	498.69
304.741	496.69
304.971	515.69
305.201	515.69
305.431	530.69
305.661	523.69
305.891	534.69
306.121	498.69
306.352	500.69
306.582	521.69
306.812	522.69
307.042	506.69
307.272	517.69
307.502	516.69
307.731	518.69
307.961	515.69
308.191	520.69
308.421	514.69
308.651	520.69
308.881	518.69
309.111	510.69
309.341	531.69
309.571	528.69
309.8	516.69
310.03	548.69
310.26	555.69
310.49	546.69
310.72	554.69
310.949	535.69
311.179	531.69
311.409	519.69
311.639	534.69
311.868	550.69
312.098	562.69
312.328	541.69
312.557	540.69
312.787	534.69
313.017	553.69
313.246	547.69
313.476	554.69
313.706	584.69
313.935	570.69
314.165	568.69
314.394	562.69
314.624	566.69
314.853	571.69
315.083	564.69
315.312	583.69
315.542	563.69
315.771	560.69
316.001	578.69
316.23	594.69
316.46	579.69
316.689	602.69
316.919	568.69
317.148	592.69
317.377	578.69
317.607	576.69
317.836	603.69
318.065	588.69
318.295	571.69
318.524	600.69
318.753	594.69
318.983	578.69
319.212	590.69
319.441	578.69
319.67	602.69
319.9	600.69
320.129	597.69
320.358	610.69
320.587	609.69
320.816	607.69
321.046	595.69
321.275	597.69
321.504	604.69
321.733	623.69
321.962	638.69
322.191	623.69
322.42	630.69
322.649	628.69
322.878	588.69
323.108	614.69
323.337	644.69
323.566	608.69
323.795	627.69
324.024	634.69
324.253	640.69
324.482	631.69
324.71	633.69
324.939	646.69
325.168	632.69
325.397	658.69
325.626	618.69
325.855	656.69
326.084	661.69
326.313	651.69
326.542	663.69
326.77	662.69
326.999	659.69
327.228	636.69
327.457	655.69
327.686	701.69
327.914	692.69
328.143	662.69
328.372	658.69
328.6	671.69
328.829	679.69
329.058	680.69
329.287	673.69
329.515	680.69
329.744	650.69
329.972	668.69
330.201	694.69
330.43	698.69
330.658	696.69
330.887	700.69
331.115	693.69
331.344	675.69
331.572	694.69
331.801	730.69
332.03	729.69
332.258	696.69
332.486	736.69
332.715	721.69
332.943	734.69
333.172	735.69
333.4	739.69
333.629	740.69
333.857	759.69
334.085	763.69
334.314	756.69
334.542	764.69
334.771	756.69
334.999	768.69
335.227	768.69
335.455	776.69
335.684	762.69
335.912	778.69
336.14	778.69
336.369	791.69
336.597	782.69
336.825	784.69
337.053	778.69
337.281	775.69
337.51	804.69
337.738	793.69
337.966	786.69
338.194	799.69
338.422	759.69
338.65	731.69
338.878	752.69
339.106	759.69
339.334	776.69
339.562	777.69
339.79	748.69
340.018	752.69
340.246	734.69
340.474	760.69
340.702	740.69
340.93	744.69
341.158	787.69
341.386	766.69
341.614	804.69
341.842	759.69
342.07	735.69
342.298	744.69
342.526	745.69
342.754	764.69
342.981	742.69
343.209	731.69
343.437	758.69
343.665	776.69
343.893	771.69
344.12	779.69
344.348	770.69
344.576	783.69
344.804	799.69
345.031	786.69
345.259	760.69
345.487	757.69
345.714	764.69
345.942	763.69
346.17	758.69
346.397	775.69
346.625	739.69
346.853	739.69
347.08	699.69
347.308	731.69
347.535	728.69
347.763	741.69
347.99	700.69
348.218	732.69
348.445	705.69
348.673	717.69
348.9	728.69
349.128	745.69
349.355	722.69
349.583	744.69
349.81	737.69
350.037	716.69
350.265	713.69
350.492	710.69
350.72	699.69
350.947	713.69
351.174	748.69
351.402	726.69
351.629	756.69
351.856	703.69
352.083	686.69
352.311	726.69
352.538	735.69
352.765	754.69
352.992	686.69
353.22	679.69
353.447	707.69
353.674	711.69
353.901	711.69
354.128	705.69
354.355	676.69
354.583	700.69
354.81	724.69
355.037	704.69
355.264	669.69
355.491	692.69
355.718	679.69
355.945	694.69
356.172	694.69
356.399	704.69
356.626	708.69
356.853	721.69
357.08	720.69
357.307	713.69
357.534	712.69
357.761	690.69
357.988	689.69
358.215	705.69
358.441	687.69
358.668	700.69
358.895	704.69
359.122	716.69
359.349	699.69
359.576	713.69
359.802	714.69
360.029	689.69
360.256	709.69
360.483	708.69
360.709	700.69
360.936	721.69
361.163	739.69
361.39	739.69
361.616	721.69
361.843	712.69
362.07	767.69
362.296	709.69
362.523	715.69
362.749	702.69
362.976	703.69
363.203	690.69
363.429	715.69
363.656	704.69
363.882	692.69
364.109	730.69
364.335	726.69
364.562	723.69
364.788	709.69
365.015	714.69
365.241	712.69
365.468	706.69
365.694	719.69
365.92	722.69
366.147	707.69
366.373	714.69
366.599	734.69
366.826	714.69
367.052	714.69
367.278	708.69
367.505	716.69
367.731	724.69
367.957	726.69
368.184	703.69
368.41	739.69
368.636	703.69
368.862	729.69
369.089	727.69
369.315	734.69
369.541	734.69
369.767	716.69
369.993	727.69
370.219	748.69
370.445	745.69
370.672	754.69
370.898	730.69
371.124	756.69
371.35	785.69
371.576	720.69
371.802	763.69
372.028	731.69
372.254	730.69
372.48	747.69
372.706	745.69
372.932	761.69
373.158	775.69
373.384	752.69
373.61	748.69
373.835	770.69
374.061	735.69
374.287	777.69
374.513	742.69
374.739	778.69
374.965	762.69
375.191	758.69
375.416	804.69
375.642	756.69
375.868	778.69
376.094	776.69
376.319	766.69
376.545	743.69
376.771	732.69
376.997	751.69
377.222	759.69
377.448	753.69
377.674	733.69
377.899	757.69
378.125	759.69
378.35	748.69
378.576	730.69
378.802	729.69
379.027	727.69
379.253	725.69
379.478	738.69
379.704	739.69
379.929	725.69
380.155	745.69
380.38	713.69
380.606	715.69
380.831	755.69
381.057	744.69
381.282	765.69
381.507	744.69
381.733	746.69
381.958	739.69
382.184	759.69
382.409	784.69
382.634	775.69
382.86	753.69
383.085	737.69
383.31	771.69
383.535	782.69
383.761	761.69
383.986	778.69
384.211	769.69
384.436	778.69
384.662	795.69
384.887	802.69
385.112	817.69
385.337	800.69
385.562	799.69
385.787	840.69
386.013	847.69
386.238	839.69
386.463	821.69
386.688	826.69
386.913	798.69
387.138	814.69
387.363	808.69
387.588	800.69
387.813	819.69
388.038	801.69
388.263	849.69
388.488	815.69
388.713	835.69
388.938	838.69
389.163	840.69
389.387	823.69
389.612	839.69
389.837	837.69
390.062	834.69
390.287	830.69
390.512	819.69
390.736	836.69
390.961	831.69
391.186	849.69
391.411	861.69
391.636	876.69
391.86	848.69
392.085	865.69
392.31	857.69
392.534	878.69
392.759	869.69
392.984	867.69
393.208	883.69
393.433	898.69
393.658	869.69
393.882	866.69
394.107	840.69
394.331	857.69
394.556	848.69
394.78	848.69
395.005	891.69
395.229	894.69
395.454	875.69
395.678	900.69
395.903	904.69
396.127	868.69
396.352	898.69
396.576	867.69
396.801	869.69
397.025	888.69
397.249	904.69
397.474	957.69
397.698	891.69
397.922	918.69
398.147	916.69
398.371	921.69
398.595	945.69
398.82	980.69
399.044	990.69
399.268	1022.69
399.492	1057.69
399.717	1040.69
399.941	1077.69
400.165	1020.69
400.389	1065.69
400.613	1028.69
400.837	1023.69
401.062	999.69
401.286	1010.69
401.51	983.69
401.734	1000.69
401.958	981.69
402.182	974.69
402.406	949.69
402.63	957.69
402.854	982.69
403.078	969.69
403.302	978.69
403.526	979.69
403.75	970.69
403.974	990.69
404.198	971.69
404.422	965.69
404.645	983.69
404.869	989.69
405.093	968.69
405.317	994.69
405.541	998.69
405.765	1023.69
405.988	1017.69
406.212	1040.69
406.436	1038.69
406.66	1075.69
406.883	1046.69
407.107	1066.69
407.331	1086.69
407.555	1065.69
407.778	1075.69
408.002	1097.69
408.226	1064.69
408.449	1098.69
408.673	1070.69
408.896	1062.69
409.12	1032.69
409.344	1088.69
409.567	999.69
409.791	1045.69
410.014	1033.69
410.238	1031.69
410.461	1044.69
410.685	1031.69
410.908	1010.69
411.132	1008.69
411.355	982.69
411.578	1018.69
411.802	1024.69
412.025	1001.69
412.249	1008.69
412.472	984.69
412.695	992.69
412.919	1012.69
413.142	1022.69
413.365	1007.69
413.589	997.69
413.812	986.69
414.035	962.69
414.258	975.69
414.482	994.69
414.705	994.69
414.928	982.69
415.151	997.69
415.374	959.69
415.597	988.69
415.821	973.69
416.044	966.69
416.267	975.69
416.49	956.69
416.713	937.69
416.936	944.69
417.159	939.69
417.382	956.69
417.605	937.69
417.828	944.69
418.051	926.69
418.274	944.69
418.497	940.69
418.72	958.69
418.943	920.69
419.166	980.69
419.389	1058.69
419.611	1034.69
419.834	988.69
420.057	980.69
420.28	939.69
420.503	916.69
420.726	937.69
420.948	919.69
421.171	946.69
421.394	938.69
421.617	959.69
421.839	952.69
422.062	957.69
422.285	936.69
422.507	952.69
422.73	954.69
422.953	934.69
423.175	954.69
423.398	945.69
423.621	923.69
423.843	943.69
424.066	942.69
424.288	923.69
424.511	966.69
424.733	950.69
424.956	912.69
425.178	934.69
425.401	953.69
425.623	955.69
425.846	929.69
426.068	930.69
426.291	941.69
426.513	914.69
426.735	939.69
426.958	946.69
427.18	952.69
427.402	929.69
427.625	924.69
427.847	891.69
428.069	895.69
428.292	941.69
428.514	914.69
428.736	942.69
428.958	949.69
429.181	890.69
429.403	907.69
429.625	914.69
429.847	878.69
430.069	883.69
430.292	928.69
430.514	914.69
430.736	930.69
430.958	936.69
431.18	910.69
431.402	917.69
431.624	916.69
431.846	910.69
432.068	908.69
432.29	919.69
432.512	923.69
432.734	922.69
432.956	934.69
433.178	944.69
433.4	935.69
433.622	966.69
433.844	953.69
434.066	957.69
434.287	952.69
434.509	973.69
434.731	958.69
434.953	954.69
435.175	975.69
435.397	998.69
435.618	929.69
435.84	945.69
436.062	931.69
436.284	931.69
436.505	921.69
436.727	915.69
436.949	898.69
437.17	919.69
437.392	934.69
437.614	930.69
437.835	904.69
438.057	919.69
438.278	896.69
438.5	912.69
438.721	930.69
438.943	916.69
439.165	890.69
439.386	888.69
439.608	948.69
439.829	895.69
440.05	938.69
440.272	929.69
440.493	916.69
440.715	936.69
440.936	934.69
441.158	920.69
441.379	914.69
441.6	967.69
441.822	971.69
442.043	990.69
442.264	932.69
442.486	936.69
442.707	969.69
442.928	952.69
443.149	935.69
443.371	985.69
443.592	1007.69
443.813	992.69
444.034	956.69
444.255	982.69
444.476	995.69
444.698	993.69
444.919	1017.69
445.14	1122.69
445.361	1081.69
445.582	998.69
445.803	965.69
446.024	922.69
446.245	933.69
446.466	939.69
446.687	889.69
446.908	929.69
447.129	914.69
447.35	908.69
447.571	900.69
447.792	887.69
448.013	922.69
448.234	882.69
448.455	914.69
448.675	858.69
448.896	886.69
449.117	873.69
449.338	842.69
449.559	840.69
449.779	845.69
450	876.69
450.221	867.69
450.442	864.69
450.662	881.69
450.883	882.69
451.104	878.69
451.324	848.69
451.545	858.69
451.766	846.69
451.986	862.69
452.207	841.69
452.428	875.69
452.648	865.69
452.869	838.69
453.089	848.69
453.31	840.69
453.53	860.69
453.751	839.69
453.971	849.69
454.192	838.69
454.412	830.69
454.633	810.69
454.853	812.69
455.073	811.69
455.294	830.69
455.514	843.69
455.734	835.69
455.955	848.69
456.175	846.69
456.395	838.69
456.616	823.69
456.836	804.69
457.056	839.69
457.276	821.69
457.497	843.69
457.717	858.69
457.937	847.69
458.157	837.69
458.377	839.69
458.598	887.69
458.818	888.69
459.038	880.69
459.258	912.69
459.478	925.69
459.698	988.69
459.918	986.69
460.138	980.69
460.358	958.69
460.578	984.69
460.798	1035.69
461.018	1018.69
461.238	983.69
461.458	971.69
461.678	985.69
461.898	995.69
462.118	963.69
462.338	1006.69
462.558	1046.69
462.777	1068.69
462.997	1100.69
463.217	1111.69
463.437	1162.69
463.657	1092.69
463.876	1062.69
464.096	1054.69
464.316	1038.69
464.536	1043.69
464.755	1041.69
464.975	1022.69
465.195	987.69
465.414	984.69
465.634	979.69
465.854	946.69
466.073	920.69
466.293	943.69
466.512	890.69
466.732	902.69
466.951	898.69
467.171	911.69
467.391	918.69
467.61	919.69
467.829	907.69
468.049	891.69
468.268	878.69
468.488	907.69
468.707	891.69
468.927	907.69
469.146	883.69
469.365	902.69
469.585	881.69
469.804	903.69
470.023	889.69
470.243	871.69
470.462	924.69
470.681	922.69
470.901	897.69
471.12	916.69
471.339	893.69
471.558	891.69
471.777	892.69
471.997	901.69
472.216	889.69
472.435	881.69
472.654	883.69
472.873	884.69
473.092	909.69
473.311	904.69
473.53	880.69
473.749	893.69
473.968	905.69
474.187	918.69
474.406	916.69
474.625	891.69
474.844	925.69
475.063	909.69
475.282	905.69
475.501	917.69
475.72	914.69
475.939	923.69
476.158	922.69
476.377	931.69
476.596	946.69
476.814	948.69
477.033	929.69
477.252	918.69
477.471	972.69
477.69	979.69
477.908	970.69
478.127	987.69
478.346	1002.69
478.564	996.69
478.783	1036.69
479.002	1051.69
479.22	1070.69
479.439	1050.69
479.658	1030.69
479.876	1048.69
480.095	1018.69
480.313	1063.69
480.532	1047.69
480.751	1049.69
480.969	1022.69
481.188	1012.69
481.406	1020.69
481.624	1013.69
481.843	998.69
482.061	983.69
482.28	1024.69
482.498	1011.69
482.717	1023.69
482.935	1023.69
483.153	1043.69
483.372	1064.69
483.59	1087.69
483.808	1062.69
484.027	1055.69
484.245	1074.69
484.463	1040.69
484.681	1050.69
484.9	1060.69
485.118	1079.69
485.336	1033.69
485.554	1072.69
485.772	1060.69
485.99	1060.69
486.209	1006.69
486.427	1035.69
486.645	1064.69
486.863	1088.69
487.081	1071.69
487.299	1056.69
487.517	1072.69
487.735	1099.69
487.953	1106.69
488.171	1079.69
488.389	1079.69
488.607	1074.69
488.825	1077.69
489.043	1060.69
489.261	1070.69
489.479	1071.69
489.696	1056.69
489.914	1086.69
490.132	1087.69
490.35	1062.69
490.568	1067.69
490.786	1070.69
491.003	1084.69
491.221	1113.69
491.439	1095.69
491.657	1107.69
491.874	1122.69
492.092	1147.69
492.31	1134.69
492.527	1125.69
492.745	1095.69
492.963	1142.69
493.18	1127.69
493.398	1106.69
493.615	1134.69
493.833	1148.69
494.05	1116.69
494.268	1128.69
494.485	1121.69
494.703	1146.69
494.92	1166.69
495.138	1178.69
495.355	1150.69
495.573	1180.69
495.79	1156.69
496.008	1221.69
496.225	1178.69
496.442	1190.69
496.66	1179.69
496.877	1207.69
497.094	1223.69
497.312	1224.69
497.529	1256.69
497.746	1235.69
497.963	1286.69
498.181	1326.69
498.398	1316.69
498.615	1384.69
498.832	1397.69
499.049	1420.69
499.267	1466.69
499.484	1530.69
499.701	1537.69
499.918	1625.69
500.135	1683.69
500.352	1741.69
500.569	1764.69
500.786	1724.69
501.003	1713.69
501.22	1688.69
501.437	1630.69
501.654	1542.69
501.871	1514.69
502.088	1446.69
502.305	1472.69
502.522	1426.69
502.739	1344.69
502.956	1336.69
503.172	1314.69
503.389	1275.69
503.606	1268.69
503.823	1241.69
504.04	1247.69
504.256	1221.69
504.473	1202.69
504.69	1190.69
504.907	1193.69
505.123	1162.69
505.34	1156.69
505.557	1130.69
505.773	1112.69
505.99	1123.69
506.207	1084.69
506.423	1073.69
506.64	1061.69
506.856	1068.69
507.073	1044.69
507.289	1019.69
507.506	1050.69
507.722	1032.69
507.939	990.69
508.155	1013.69
508.372	1010.69
508.588	1012.69
508.805	990.69
509.021	978.69
509.238	977.69
509.454	978.69
509.67	947.69
509.887	947.69
510.103	978.69
510.319	944.69
510.536	954.69
510.752	938.69
510.968	914.69
511.184	947.69
511.401	927.69
511.617	922.69
511.833	920.69
512.049	920.69
512.265	945.69
512.481	953.69
512.698	929.69
512.914	950.69
513.13	938.69
513.346	924.69
513.562	912.69
513.778	926.69
513.994	932.69
514.21	947.69
514.426	942.69
514.642	911.69
514.858	950.69
515.074	928.69
515.29	958.69
515.506	934.69
515.721	942.69
515.937	975.69
516.153	947.69
516.369	958.69
516.585	968.69
516.801	971.69
517.016	979.69
517.232	975.69
517.448	1026.69
517.664	1003.69
517.879	997.69
518.095	1003.69
518.311	999.69
518.527	983.69
518.742	997.69
518.958	959.69
519.173	956.69
519.389	942.69
519.605	942.69
519.82	940.69
520.036	922.69
520.251	919.69
520.467	924.69
520.682	895.69
520.898	894.69
521.113	886.69
521.329	896.69
521.544	892.69
521.76	889.69
521.975	879.69
522.19	879.69
522.406	864.69
522.621	878.69
522.836	876.69
523.052	866.69
523.267	880.69
523.482	868.69
523.698	852.69
523.913	863.69
524.128	850.69
524.343	861.69
524.559	853.69
524.774	860.69
524.989	848.69
525.204	869.69
525.419	843.69
525.634	852.69
525.849	848.69
526.064	831.69
526.28	842.69
526.495	843.69
526.71	826.69
526.925	820.69
527.14	816.69
527.355	806.69
527.57	823.69
527.785	836.69
527.999	818.69
528.214	835.69
528.429	830.69
528.644	844.69
528.859	815.69
529.074	814.69
529.289	834.69
529.503	809.69
529.718	804.69
529.933	820.69
530.148	817.69
530.363	838.69
530.577	797.69
530.792	784.69
531.007	808.69
531.221	790.69
531.436	794.69
531.651	817.69
531.865	795.69
532.08	796.69
532.295	788.69
532.509	804.69
532.724	799.69
532.938	779.69
533.153	814.69
533.367	790.69
533.582	813.69
533.796	798.69
534.011	783.69
534.225	785.69
534.44	759.69
534.654	774.69
534.868	784.69
535.083	778.69
535.297	754.69
535.511	782.69
535.726	784.69
535.94	758.69
536.154	782.69
536.369	769.69
536.583	757.69
536.797	770.69
537.011	772.69
537.225	755.69
537.44	761.69
537.654	762.69
537.868	757.69
538.082	734.69
538.296	745.69
538.51	743.69
538.724	747.69
538.938	724.69
539.153	756.69
539.367	761.69
539.581	732.69
539.795	748.69
540.009	739.69
540.222	747.69
540.436	724.69
540.65	730.69
540.864	756.69
541.078	739.69
541.292	738.69
541.506	739.69
541.72	734.69
541.934	760.69
542.147	753.69
542.361	745.69
542.575	745.69
542.789	723.69
543.002	739.69
543.216	719.69
543.43	708.69
543.644	712.69
543.857	734.69
544.071	712.69
544.285	741.69
544.498	739.69
544.712	742.69
544.925	734.69
545.139	725.69
545.352	726.69
545.566	738.69
545.779	727.69
545.993	737.69
546.206	736.69
546.42	747.69
546.633	739.69
546.847	726.69
547.06	729.69
547.274	740.69
547.487	731.69
547.7	728.69
547.914	734.69
548.127	763.69
548.34	753.69
548.554	728.69
548.767	714.69
548.98	715.69
549.193	720.69
549.407	717.69
549.62	747.69
549.833	723.69
550.046	725.69
550.259	712.69
550.473	734.69
550.686	715.69
550.899	712.69
551.112	705.69
551.325	682.69
551.538	682.69
551.751	672.69
551.964	696.69
552.177	698.69
552.39	738.69
552.603	699.69
552.816	710.69
553.029	724.69
553.242	742.69
553.455	734.69
553.667	719.69
553.88	701.69
554.093	702.69
554.306	706.69
554.519	710.69
554.732	688.69
554.944	675.69
555.157	692.69
555.37	661.69
555.583	688.69
555.795	677.69
556.008	660.69
556.221	659.69
556.433	650.69
556.646	645.69
556.859	648.69
557.071	637.69
557.284	633.69
557.496	646.69
557.709	632.69
557.921	652.69
558.134	648.69
558.346	643.69
558.559	659.69
558.771	644.69
558.984	627.69
559.196	623.69
559.409	596.69
559.621	630.69
559.833	648.69
560.046	657.69
560.258	627.69
560.47	595.69
560.683	607.69
560.895	614.69
561.107	609.69
561.32	613.69
561.532	609.69
561.744	619.69
561.956	626.69
562.168	614.69
562.381	651.69
562.593	617.69
562.805	616.69
563.017	608.69
563.229	605.69
563.441	612.69
563.653	625.69
563.865	642.69
564.077	625.69
564.289	610.69
564.501	636.69
564.713	638.69
564.925	619.69
565.137	648.69
565.349	642.69
565.561	638.69
565.773	640.69
565.985	673.69
566.197	661.69
566.408	700.69
566.62	696.69
566.832	718.69
567.044	734.69
567.255	702.69
567.467	710.69
567.679	714.69
567.891	739.69
568.102	724.69
568.314	700.69
568.526	707.69
568.737	675.69
568.949	663.69
569.161	631.69
569.372	632.69
569.584	620.69
569.795	624.69
570.007	594.69
570.218	585.69
570.43	569.69
570.641	575.69
570.853	587.69
571.064	574.69
571.276	579.69
571.487	556.69
571.698	567.69
571.91	577.69
572.121	554.69
572.333	536.69
572.544	537.69
572.755	521.69
572.966	535.69
573.178	530.69
573.389	519.69
573.6	500.69
573.811	509.69
574.023	503.69
574.234	509.69
574.445	494.69
574.656	505.69
574.867	466.69
575.078	465.69
575.289	494.69
575.501	489.69
575.712	499.69
575.923	476.69
576.134	474.69
576.345	483.69
576.556	475.69
576.767	473.69
576.978	472.69
577.188	469.69
577.399	455.69
577.61	467.69
577.821	458.69
578.032	456.69
578.243	442.69
578.454	443.69
578.665	450.69
578.875	415.69
579.086	460.69
579.297	431.69
579.508	414.69
579.718	447.69
579.929	429.69
580.14	433.69
580.35	456.69
580.561	428.69
580.772	463.69
580.982	453.69
581.193	437.69
581.403	415.69
581.614	435.69
581.825	414.69
582.035	440.69
582.246	422.69
582.456	427.69
582.667	429.69
582.877	423.69
583.087	426.69
583.298	421.69
583.508	416.69
583.719	416.69
583.929	420.69
584.139	414.69
584.35	427.69
584.56	411.69
584.77	402.69
584.981	389.69
585.191	421.69
585.401	412.69
585.611	420.69
585.821	395.69
586.032	408.69
586.242	399.69
586.452	409.69
586.662	397.69
586.872	403.69
587.082	395.69
587.292	396.69
587.502	400.69
587.713	402.69
587.923	416.69
588.133	383.69
588.343	419.69
588.553	399.69
588.762	400.69
588.972	388.69
589.182	441.69
589.392	423.69
589.602	409.69
589.812	430.69
590.022	392.69
590.232	374.69
590.441	399.69
590.651	410.69
590.861	380.69
591.071	403.69
591.281	393.69
591.49	402.69
591.7	394.69
591.91	399.69
592.119	416.69
592.329	407.69
592.539	400.69
592.748	406.69
592.958	394.69
593.167	416.69
593.377	406.69
593.587	416.69
593.796	398.69
594.006	401.69
594.215	402.69
594.424	402.69
594.634	399.69
594.843	395.69
595.053	412.69
595.262	392.69
595.472	395.69
595.681	386.69
595.89	385.69
596.1	367.69
596.309	380.69
596.518	386.69
596.727	376.69
596.937	376.69
597.146	374.69
597.355	356.69
597.564	354.69
597.774	370.69
597.983	359.69
598.192	347.69
598.401	346.69
598.61	348.69
598.819	371.69
599.028	342.69
599.237	344.69
599.446	353.69
599.655	327.69
599.864	347.69
600.073	342.69
600.282	332.69
600.491	321.69
600.7	347.69
600.909	331.69
601.118	336.69
601.327	336.69
601.536	324.69
601.745	334.69
601.953	334.69
602.162	323.69
602.371	333.69
602.58	335.69
602.789	327.69
602.997	334.69
603.206	322.69
603.415	322.69
603.623	286.69
603.832	327.69
604.041	319.69
604.249	310.69
604.458	312.69
604.666	308.69
604.875	302.69
605.084	307.69
605.292	306.69
605.501	323.69
605.709	322.69
605.918	327.69
606.126	298.69
606.334	316.69
606.543	335.69
606.751	300.69
606.96	294.69
607.168	325.69
607.376	302.69
607.585	313.69
607.793	322.69
608.001	320.69
608.21	318.69
608.418	318.69
608.626	281.69
608.834	286.69
609.043	283.69
609.251	307.69
609.459	302.69
609.667	296.69
609.875	286.69
610.083	304.69
610.291	296.69
610.499	306.69
610.707	294.69
610.916	291.69
611.124	308.69
611.332	304.69
611.54	293.69
611.748	282.69
611.955	294.69
612.163	298.69
612.371	276.69
612.579	274.69
612.787	295.69
612.995	306.69
613.203	299.69
613.411	292.69
613.618	285.69
613.826	271.69
614.034	305.69
614.242	289.69
614.449	279.69
614.657	276.69
614.865	278.69
615.072	302.69
615.28	280.69
615.488	270.69
615.695	288.69
615.903	278.69
616.111	302.69
616.318	293.69
616.526	282.69
616.733	279.69
616.941	300.69
617.148	275.69
617.356	274.69
617.563	266.69
617.771	276.69
617.978	267.69
618.185	272.69
618.393	288.69
618.6	258.69
618.807	274.69
619.015	274.69
619.222	275.69
619.429	288.69
619.637	291.69
619.844	283.69
620.051	268.69
620.258	282.69
620.466	268.69
620.673	250.69
620.88	248.69
621.087	256.69
621.294	252.69
621.501	270.69
621.708	256.69
621.915	270.69
622.122	272.69
622.329	254.69
622.536	251.69
622.743	262.69
622.95	273.69
623.157	263.69
623.364	252.69
623.571	272.69
623.778	264.69
623.985	266.69
624.192	252.69
624.399	254.69
624.606	242.69
624.812	257.69
625.019	251.69
625.226	269.69
625.433	276.69
625.639	252.69
625.846	253.69
626.053	244.69
626.259	247.69
626.466	264.69
626.673	242.69
626.879	238.69
627.086	244.69
627.293	242.69
627.499	230.69
627.706	249.69
627.912	254.69
628.119	252.69
628.325	232.69
628.532	240.69
628.738	236.69
628.945	242.69
629.151	251.69
629.357	218.69
629.564	256.69
629.77	235.69
629.976	225.69
630.183	240.69
630.389	234.69
630.595	232.69
630.802	228.69
631.008	222.69
631.214	224.69
631.42	218.69
631.627	246.69
631.833	226.69
632.039	242.69
632.245	235.69
632.451	227.69
632.657	235.69
632.863	223.69
633.069	227.69
633.275	226.69
633.481	212.69
633.688	230.69
633.893	224.69
634.099	231.69
634.305	219.69
634.511	229.69
634.717	220.69
634.923	188.69
635.129	201.69
635.335	210.69
635.541	203.69
635.747	218.69
635.952	227.69
636.158	214.69
636.364	208.69
636.57	207.69
636.775	207.69
636.981	211.69
637.187	202.69
637.392	209.69
637.598	219.69
637.804	212.69
638.009	206.69
638.215	224.69
638.421	227.69
638.626	212.69
638.832	201.69
639.037	208.69
639.243	197.69
639.448	216.69
639.654	223.69
639.859	224.69
640.065	223.69
640.27	208.69
640.475	192.69
640.681	197.69
640.886	209.69
641.091	205.69
641.297	219.69
641.502	209.69
641.707	197.69
641.913	213.69
642.118	219.69
642.323	212.69
642.528	202.69
642.733	217.69
642.939	203.69
643.144	200.69
643.349	214.69
643.554	208.69
643.759	207.69
643.964	211.69
644.169	191.69
644.374	196.69
644.579	208.69
644.784	215.69
644.989	203.69
645.194	202.69
645.399	190.69
645.604	202.69
645.809	205.69
646.014	193.69
646.219	196.69
646.423	205.69
646.628	192.69
646.833	208.69
647.038	212.69
647.243	195.69
647.447	198.69
647.652	216.69
647.857	217.69
648.062	208.69
648.266	226.69
648.471	213.69
648.676	194.69
648.88	210.69
649.085	213.69
649.289	204.69
649.494	206.69
649.698	196.69
649.903	179.69
650.107	195.69
650.312	207.69
650.516	200.69
650.721	213.69
650.925	180.69
651.13	182.69
651.334	188.69
651.539	178.69
651.743	185.69
651.947	190.69
652.152	176.69
652.356	172.69
652.56	170.69
652.764	175.69
652.969	182.69
653.173	193.69
653.377	196.69
653.581	191.69
653.785	172.69
653.99	187.69
654.194	175.69
654.398	154.69
654.602	162.69
654.806	167.69
655.01	170.69
655.214	156.69
655.418	168.69
655.622	143.69
655.826	157.69
656.03	142.69
656.234	154.69
656.438	164.69
656.642	150.69
656.846	150.69
657.049	159.69
657.253	134.69
657.457	142.69
657.661	144.69
657.865	138.69
658.068	136.69
658.272	130.69
658.476	135.69
658.68	123.69
658.883	120.69
659.087	114.69
659.291	115.69
659.494	95.69
659.698	117.69
659.901	112.69
660.105	113.69
660.309	102.69
660.512	105.69
660.716	89.69
660.919	85.69
661.123	111.69
661.326	100.69
661.53	93.69
661.733	94.69
661.936	105.69
662.14	91.69
662.343	92.69
662.546	90.69
662.75	80.69
662.953	90.69
663.156	79.69
663.36	76.69
663.563	77.69
663.766	87.69
663.969	80.69
664.173	85.69
664.376	73.69
664.579	76.69
664.782	85.69
664.985	92.69
665.188	84.69
665.391	85.69
665.594	78.69
665.797	73.69
666	88.69
666.203	87.69
666.406	78.69
666.609	86.69
666.812	83.69
667.015	80.69
667.218	78.69
667.421	84.69
667.624	85.69
667.827	86.69
668.03	88.69
668.232	74.69
668.435	93.69
668.638	86.69
668.841	87.69
669.043	91.69
669.246	74.69
669.449	74.69
669.651	80.69
669.854	69.69
670.057	74.69
670.259	99.69
670.462	84.69
670.665	79.69
670.867	68.69
671.07	75.69
671.272	95.69
671.475	81.69
671.677	74.69
671.88	74.69
672.082	79.69
672.284	86.69
672.487	86.69
672.689	72.69
672.892	84.69
