Data from Ni(NO3)2@0.125M.TitratingCurve.Agarose3%dH2O.NegLispCup.LampEnergy10.LIBS07252019_HRD10591_18-10-03-567.txt Node
Date: Thu Jul 25 18:10:03 EDT 2019
User: cochatt
Spectrometer: HR+D1059
Trigger mode: 1
Integration Time (sec): 1.000000E-1
Scans to average: 1
Electric dark correction enabled: true
Nonlinearity correction enabled: false
Boxcar width: 0
XAxis mode: Wavelengths
Number of Pixels in Spectrum: 2048
>>>>>Begin Spectral Data<<<<<
223.165	-10.5
223.4	-10.5
223.635	-10.5
223.869	-3.5
224.104	-24.5
224.338	-25.5
224.573	-13.5
224.808	-1.5
225.042	-9.5
225.277	-4.5
225.511	-14.5
225.746	-8.5
225.98	16.5
226.215	12.5
226.449	11.5
226.683	16.5
226.918	27.5
227.152	31.5
227.387	26.5
227.621	19.5
227.856	37.5
228.09	43.5
228.324	52.5
228.559	54.5
228.793	84.5
229.027	116.5
229.262	102.5
229.496	120.5
229.73	140.5
229.964	130.5
230.199	139.5
230.433	134.5
230.667	136.5
230.901	143.5
231.136	154.5
231.37	158.5
231.604	146.5
231.838	161.5
232.072	138.5
232.306	140.5
232.541	156.5
232.775	146.5
233.009	153.5
233.243	168.5
233.477	166.5
233.711	162.5
233.945	159.5
234.179	142.5
234.413	170.5
234.647	162.5
234.881	171.5
235.115	156.5
235.349	155.5
235.583	158.5
235.817	170.5
236.051	166.5
236.285	178.5
236.519	166.5
236.753	170.5
236.987	171.5
237.221	172.5
237.455	176.5
237.689	164.5
237.922	182.5
238.156	161.5
238.39	171.5
238.624	178.5
238.858	184.5
239.091	169.5
239.325	197.5
239.559	185.5
239.793	203.5
240.027	203.5
240.26	206.5
240.494	196.5
240.728	189.5
240.961	199.5
241.195	205.5
241.429	206.5
241.662	204.5
241.896	194.5
242.13	206.5
242.363	211.5
242.597	218.5
242.83	218.5
243.064	212.5
243.298	220.5
243.531	223.5
243.765	233.5
243.998	231.5
244.232	226.5
244.465	223.5
244.699	238.5
244.932	225.5
245.166	213.5
245.399	236.5
245.633	243.5
245.866	248.5
246.099	258.5
246.333	240.5
246.566	239.5
246.8	243.5
247.033	226.5
247.266	248.5
247.5	248.5
247.733	255.5
247.966	265.5
248.2	266.5
248.433	258.5
248.666	247.5
248.899	268.5
249.133	274.5
249.366	282.5
249.599	289.5
249.832	279.5
250.066	284.5
250.299	278.5
250.532	273.5
250.765	302.5
250.998	287.5
251.231	288.5
251.465	285.5
251.698	310.5
251.931	296.5
252.164	298.5
252.397	285.5
252.63	308.5
252.863	295.5
253.096	308.5
253.329	329.5
253.562	292.5
253.795	328.5
254.028	308.5
254.261	320.5
254.494	311.5
254.727	336.5
254.96	321.5
255.193	312.5
255.426	302.5
255.659	328.5
255.892	329.5
256.124	322.5
256.357	338.5
256.59	343.5
256.823	338.5
257.056	337.5
257.289	354.5
257.521	332.5
257.754	336.5
257.987	357.5
258.22	361.5
258.452	332.5
258.685	338.5
258.918	350.5
259.151	366.5
259.383	338.5
259.616	360.5
259.849	359.5
260.081	348.5
260.314	373.5
260.547	359.5
260.779	350.5
261.012	380.5
261.244	368.5
261.477	378.5
261.71	377.5
261.942	375.5
262.175	373.5
262.407	375.5
262.64	377.5
262.872	361.5
263.105	386.5
263.337	384.5
263.57	382.5
263.802	375.5
264.035	375.5
264.267	393.5
264.499	372.5
264.732	394.5
264.964	393.5
265.197	419.5
265.429	413.5
265.661	407.5
265.894	388.5
266.126	395.5
266.358	437.5
266.591	408.5
266.823	419.5
267.055	416.5
267.287	437.5
267.52	421.5
267.752	436.5
267.984	411.5
268.216	414.5
268.448	423.5
268.681	417.5
268.913	439.5
269.145	426.5
269.377	440.5
269.609	428.5
269.841	464.5
270.073	429.5
270.306	435.5
270.538	443.5
270.77	432.5
271.002	452.5
271.234	437.5
271.466	447.5
271.698	460.5
271.93	456.5
272.162	457.5
272.394	451.5
272.626	435.5
272.858	469.5
273.09	466.5
273.322	485.5
273.553	466.5
273.785	475.5
274.017	454.5
274.249	497.5
274.481	474.5
274.713	469.5
274.945	474.5
275.176	496.5
275.408	500.5
275.64	467.5
275.872	475.5
276.104	495.5
276.335	475.5
276.567	498.5
276.799	500.5
277.031	511.5
277.262	507.5
277.494	484.5
277.726	489.5
277.957	510.5
278.189	509.5
278.421	510.5
278.652	521.5
278.884	528.5
279.115	530.5
279.347	517.5
279.579	501.5
279.81	536.5
280.042	536.5
280.273	518.5
280.505	540.5
280.736	516.5
280.968	518.5
281.199	523.5
281.431	556.5
281.662	546.5
281.894	552.5
282.125	555.5
282.356	544.5
282.588	562.5
282.819	554.5
283.051	558.5
283.282	560.5
283.513	557.5
283.745	557.5
283.976	565.5
284.207	592.5
284.439	552.5
284.67	576.5
284.901	557.5
285.132	574.5
285.364	563.5
285.595	581.5
285.826	587.5
286.057	585.5
286.288	589.5
286.52	594.5
286.751	597.5
286.982	582.5
287.213	610.5
287.444	608.5
287.675	593.5
287.906	613.5
288.138	607.5
288.369	607.5
288.6	622.5
288.831	593.5
289.062	603.5
289.293	588.5
289.524	622.5
289.755	589.5
289.986	611.5
290.217	622.5
290.448	612.5
290.679	632.5
290.91	612.5
291.141	601.5
291.371	614.5
291.602	634.5
291.833	626.5
292.064	633.5
292.295	631.5
292.526	629.5
292.757	620.5
292.987	599.5
293.218	592.5
293.449	642.5
293.68	622.5
293.91	633.5
294.141	639.5
294.372	634.5
294.603	622.5
294.833	623.5
295.064	609.5
295.295	612.5
295.525	615.5
295.756	637.5
295.987	634.5
296.217	631.5
296.448	665.5
296.679	662.5
296.909	653.5
297.14	656.5
297.37	680.5
297.601	674.5
297.831	662.5
298.062	672.5
298.292	683.5
298.523	683.5
298.753	695.5
298.984	707.5
299.214	674.5
299.445	679.5
299.675	685.5
299.905	672.5
300.136	680.5
300.366	668.5
300.597	689.5
300.827	728.5
301.057	706.5
301.288	705.5
301.518	695.5
301.748	730.5
301.979	735.5
302.209	753.5
302.439	708.5
302.669	714.5
302.9	692.5
303.13	702.5
303.36	716.5
303.59	721.5
303.82	691.5
304.051	704.5
304.281	683.5
304.511	722.5
304.741	706.5
304.971	708.5
305.201	693.5
305.431	691.5
305.661	698.5
305.891	714.5
306.121	687.5
306.352	706.5
306.582	683.5
306.812	674.5
307.042	698.5
307.272	713.5
307.502	668.5
307.731	703.5
307.961	691.5
308.191	696.5
308.421	698.5
308.651	702.5
308.881	691.5
309.111	700.5
309.341	663.5
309.571	699.5
309.8	706.5
310.03	682.5
310.26	706.5
310.49	696.5
310.72	698.5
310.949	703.5
311.179	722.5
311.409	716.5
311.639	714.5
311.868	710.5
312.098	724.5
312.328	743.5
312.557	717.5
312.787	727.5
313.017	727.5
313.246	737.5
313.476	763.5
313.706	732.5
313.935	756.5
314.165	784.5
314.394	754.5
314.624	787.5
314.853	761.5
315.083	737.5
315.312	754.5
315.542	766.5
315.771	751.5
316.001	724.5
316.23	741.5
316.46	749.5
316.689	717.5
316.919	724.5
317.148	712.5
317.377	746.5
317.607	735.5
317.836	766.5
318.065	720.5
318.295	765.5
318.524	752.5
318.753	730.5
318.983	745.5
319.212	732.5
319.441	737.5
319.67	727.5
319.9	743.5
320.129	746.5
320.358	747.5
320.587	740.5
320.816	754.5
321.046	738.5
321.275	761.5
321.504	740.5
321.733	752.5
321.962	743.5
322.191	746.5
322.42	758.5
322.649	761.5
322.878	757.5
323.108	737.5
323.337	758.5
323.566	781.5
323.795	793.5
324.024	766.5
324.253	791.5
324.482	761.5
324.71	787.5
324.939	779.5
325.168	788.5
325.397	790.5
325.626	791.5
325.855	785.5
326.084	807.5
326.313	843.5
326.542	822.5
326.77	831.5
326.999	830.5
327.228	832.5
327.457	817.5
327.686	819.5
327.914	822.5
328.143	835.5
328.372	822.5
328.6	836.5
328.829	836.5
329.058	821.5
329.287	817.5
329.515	817.5
329.744	839.5
329.972	821.5
330.201	844.5
330.43	844.5
330.658	859.5
330.887	859.5
331.115	852.5
331.344	882.5
331.572	891.5
331.801	909.5
332.03	918.5
332.258	959.5
332.486	993.5
332.715	984.5
332.943	1073.5
333.172	1082.5
333.4	1141.5
333.629	1134.5
333.857	1149.5
334.085	1144.5
334.314	1119.5
334.542	1086.5
334.771	1065.5
334.999	1060.5
335.227	1050.5
335.455	1052.5
335.684	1050.5
335.912	1026.5
336.14	1002.5
336.369	1018.5
336.597	991.5
336.825	1007.5
337.053	1015.5
337.281	993.5
337.51	952.5
337.738	952.5
337.966	965.5
338.194	931.5
338.422	927.5
338.65	916.5
338.878	908.5
339.106	928.5
339.334	927.5
339.562	874.5
339.79	853.5
340.018	891.5
340.246	830.5
340.474	855.5
340.702	863.5
340.93	872.5
341.158	889.5
341.386	898.5
341.614	860.5
341.842	848.5
342.07	865.5
342.298	862.5
342.526	874.5
342.754	851.5
342.981	873.5
343.209	891.5
343.437	948.5
343.665	971.5
343.893	1070.5
344.12	1106.5
344.348	1061.5
344.576	976.5
344.804	966.5
345.031	940.5
345.259	909.5
345.487	872.5
345.714	871.5
345.942	860.5
346.17	866.5
346.397	851.5
346.625	862.5
346.853	816.5
347.08	846.5
347.308	859.5
347.535	859.5
347.763	863.5
347.99	870.5
348.218	869.5
348.445	859.5
348.673	852.5
348.9	841.5
349.128	869.5
349.355	841.5
349.583	798.5
349.81	819.5
350.037	835.5
350.265	816.5
350.492	822.5
350.72	799.5
350.947	791.5
351.174	822.5
351.402	818.5
351.629	797.5
351.856	817.5
352.083	787.5
352.311	806.5
352.538	824.5
352.765	806.5
352.992	791.5
353.22	824.5
353.447	803.5
353.674	805.5
353.901	795.5
354.128	822.5
354.355	797.5
354.583	814.5
354.81	822.5
355.037	834.5
355.264	814.5
355.491	831.5
355.718	804.5
355.945	823.5
356.172	839.5
356.399	814.5
356.626	814.5
356.853	803.5
357.08	788.5
357.307	815.5
357.534	811.5
357.761	830.5
357.988	836.5
358.215	825.5
358.441	825.5
358.668	830.5
358.895	829.5
359.122	828.5
359.349	830.5
359.576	814.5
359.802	838.5
360.029	803.5
360.256	809.5
360.483	824.5
360.709	830.5
360.936	836.5
361.163	835.5
361.39	824.5
361.616	798.5
361.843	802.5
362.07	819.5
362.296	838.5
362.523	809.5
362.749	806.5
362.976	817.5
363.203	806.5
363.429	804.5
363.656	807.5
363.882	798.5
364.109	810.5
364.335	803.5
364.562	806.5
364.788	822.5
365.015	810.5
365.241	772.5
365.468	793.5
365.694	823.5
365.92	770.5
366.147	792.5
366.373	805.5
366.599	802.5
366.826	802.5
367.052	793.5
367.278	801.5
367.505	807.5
367.731	816.5
367.957	812.5
368.184	793.5
368.41	826.5
368.636	842.5
368.862	850.5
369.089	850.5
369.315	800.5
369.541	858.5
369.767	845.5
369.993	841.5
370.219	831.5
370.445	844.5
370.672	859.5
370.898	871.5
371.124	875.5
371.35	881.5
371.576	905.5
371.802	864.5
372.028	900.5
372.254	896.5
372.48	912.5
372.706	901.5
372.932	924.5
373.158	905.5
373.384	898.5
373.61	899.5
373.835	872.5
374.061	873.5
374.287	898.5
374.513	911.5
374.739	952.5
374.965	957.5
375.191	1011.5
375.416	974.5
375.642	950.5
375.868	976.5
376.094	903.5
376.319	900.5
376.545	919.5
376.771	900.5
376.997	876.5
377.222	900.5
377.448	879.5
377.674	886.5
377.899	894.5
378.125	889.5
378.35	884.5
378.576	875.5
378.802	850.5
379.027	857.5
379.253	860.5
379.478	850.5
379.704	878.5
379.929	857.5
380.155	890.5
380.38	918.5
380.606	885.5
380.831	896.5
381.057	900.5
381.282	882.5
381.507	890.5
381.733	897.5
381.958	888.5
382.184	888.5
382.409	928.5
382.634	902.5
382.86	930.5
383.085	914.5
383.31	957.5
383.535	985.5
383.761	976.5
383.986	998.5
384.211	1024.5
384.436	1042.5
384.662	1040.5
384.887	1095.5
385.112	1072.5
385.337	1102.5
385.562	1099.5
385.787	1068.5
386.013	1060.5
386.238	1097.5
386.463	1101.5
386.688	1080.5
386.913	1070.5
387.138	1060.5
387.363	1051.5
387.588	1032.5
387.813	1027.5
388.038	1071.5
388.263	1092.5
388.488	1057.5
388.713	1044.5
388.938	1077.5
389.163	1079.5
389.387	1056.5
389.612	1044.5
389.837	1050.5
390.062	1029.5
390.287	1052.5
390.512	1046.5
390.736	1028.5
390.961	1050.5
391.186	1091.5
391.411	1132.5
391.636	1177.5
391.86	1179.5
392.085	1240.5
392.31	1203.5
392.534	1173.5
392.759	1156.5
392.984	1142.5
393.208	1150.5
393.433	1152.5
393.658	1116.5
393.882	1107.5
394.107	1101.5
394.331	1151.5
394.556	1164.5
394.78	1178.5
395.005	1163.5
395.229	1146.5
395.454	1187.5
395.678	1204.5
395.903	1214.5
396.127	1194.5
396.352	1162.5
396.576	1134.5
396.801	1172.5
397.025	1158.5
397.249	1176.5
397.474	1203.5
397.698	1188.5
397.922	1224.5
398.147	1224.5
398.371	1274.5
398.595	1273.5
398.82	1365.5
399.044	1416.5
399.268	1608.5
399.492	1878.5
399.717	2127.5
399.941	2104.5
400.165	1808.5
400.389	1620.5
400.613	1478.5
400.837	1419.5
401.062	1371.5
401.286	1349.5
401.51	1372.5
401.734	1338.5
401.958	1378.5
402.182	1393.5
402.406	1379.5
402.63	1387.5
402.854	1422.5
403.078	1480.5
403.302	1476.5
403.526	1549.5
403.75	1570.5
403.974	1595.5
404.198	1614.5
404.422	1607.5
404.645	1538.5
404.869	1518.5
405.093	1562.5
405.317	1514.5
405.541	1501.5
405.765	1490.5
405.988	1463.5
406.212	1476.5
406.436	1471.5
406.66	1528.5
406.883	1538.5
407.107	1639.5
407.331	1731.5
407.555	1782.5
407.778	1742.5
408.002	1731.5
408.226	1668.5
408.449	1619.5
408.673	1560.5
408.896	1502.5
409.12	1550.5
409.344	1530.5
409.567	1525.5
409.791	1540.5
410.014	1536.5
410.238	1500.5
410.461	1507.5
410.685	1504.5
410.908	1490.5
411.132	1412.5
411.355	1404.5
411.578	1378.5
411.802	1410.5
412.025	1458.5
412.249	1438.5
412.472	1440.5
412.695	1347.5
412.919	1326.5
413.142	1342.5
413.365	1386.5
413.589	1364.5
413.812	1359.5
414.035	1337.5
414.258	1356.5
414.482	1346.5
414.705	1378.5
414.928	1398.5
415.151	1346.5
415.374	1362.5
415.597	1360.5
415.821	1362.5
416.044	1321.5
416.267	1318.5
416.49	1342.5
416.713	1330.5
416.936	1316.5
417.159	1315.5
417.382	1307.5
417.605	1303.5
417.828	1310.5
418.051	1341.5
418.274	1353.5
418.497	1323.5
418.72	1365.5
418.943	1375.5
419.166	1491.5
419.389	1576.5
419.611	1498.5
419.834	1422.5
420.057	1402.5
420.28	1376.5
420.503	1322.5
420.726	1320.5
420.948	1307.5
421.171	1316.5
421.394	1345.5
421.617	1316.5
421.839	1358.5
422.062	1353.5
422.285	1307.5
422.507	1383.5
422.73	1370.5
422.953	1398.5
423.175	1413.5
423.398	1427.5
423.621	1436.5
423.843	1442.5
424.066	1448.5
424.288	1442.5
424.511	1421.5
424.733	1370.5
424.956	1358.5
425.178	1362.5
425.401	1364.5
425.623	1339.5
425.846	1284.5
426.068	1287.5
426.291	1276.5
426.513	1260.5
426.735	1255.5
426.958	1264.5
427.18	1211.5
427.402	1201.5
427.625	1204.5
427.847	1187.5
428.069	1174.5
428.292	1172.5
428.514	1171.5
428.736	1191.5
428.958	1166.5
429.181	1146.5
429.403	1127.5
429.625	1128.5
429.847	1164.5
430.069	1137.5
430.292	1146.5
430.514	1118.5
430.736	1120.5
430.958	1164.5
431.18	1138.5
431.402	1159.5
431.624	1145.5
431.846	1182.5
432.068	1204.5
432.29	1214.5
432.512	1162.5
432.734	1169.5
432.956	1186.5
433.178	1187.5
433.4	1176.5
433.622	1164.5
433.844	1192.5
434.066	1222.5
434.287	1219.5
434.509	1276.5
434.731	1261.5
434.953	1310.5
435.175	1330.5
435.397	1345.5
435.618	1285.5
435.84	1263.5
436.062	1213.5
436.284	1204.5
436.505	1163.5
436.727	1174.5
436.949	1187.5
437.17	1191.5
437.392	1167.5
437.614	1161.5
437.835	1115.5
438.057	1125.5
438.278	1092.5
438.5	1137.5
438.721	1101.5
438.943	1139.5
439.165	1132.5
439.386	1142.5
439.608	1170.5
439.829	1173.5
440.05	1162.5
440.272	1146.5
440.493	1192.5
440.715	1184.5
440.936	1218.5
441.158	1241.5
441.379	1275.5
441.6	1355.5
441.822	1359.5
442.043	1378.5
442.264	1342.5
442.486	1286.5
442.707	1284.5
442.928	1323.5
443.149	1321.5
443.371	1313.5
443.592	1336.5
443.813	1339.5
444.034	1332.5
444.255	1408.5
444.476	1422.5
444.698	1572.5
444.919	1649.5
445.14	1650.5
445.361	1479.5
445.582	1364.5
445.803	1294.5
446.024	1272.5
446.245	1231.5
446.466	1197.5
446.687	1199.5
446.908	1201.5
447.129	1168.5
447.35	1147.5
447.571	1126.5
447.792	1124.5
448.013	1106.5
448.234	1088.5
448.455	1104.5
448.675	1073.5
448.896	1082.5
449.117	1055.5
449.338	1062.5
449.559	1084.5
449.779	1066.5
450	1046.5
450.221	1081.5
450.442	1097.5
450.662	1081.5
450.883	1085.5
451.104	1119.5
451.324	1096.5
451.545	1094.5
451.766	1080.5
451.986	1084.5
452.207	1078.5
452.428	1063.5
452.648	1072.5
452.869	1040.5
453.089	1023.5
453.31	1070.5
453.53	1038.5
453.751	1029.5
453.971	1059.5
454.192	1046.5
454.412	985.5
454.633	993.5
454.853	1036.5
455.073	1008.5
455.294	1027.5
455.514	995.5
455.734	1004.5
455.955	966.5
456.175	1001.5
456.395	978.5
456.616	1002.5
456.836	998.5
457.056	1002.5
457.276	982.5
457.497	1009.5
457.717	1006.5
457.937	986.5
458.157	1040.5
458.377	1036.5
458.598	1059.5
458.818	1046.5
459.038	1112.5
459.258	1146.5
459.478	1143.5
459.698	1222.5
459.918	1241.5
460.138	1306.5
460.358	1389.5
460.578	1411.5
460.798	1445.5
461.018	1424.5
461.238	1414.5
461.458	1396.5
461.678	1386.5
461.898	1424.5
462.118	1418.5
462.338	1462.5
462.558	1552.5
462.777	1611.5
462.997	1747.5
463.217	1882.5
463.437	1926.5
463.657	1752.5
463.876	1651.5
464.096	1616.5
464.316	1662.5
464.536	1671.5
464.755	1600.5
464.975	1521.5
465.195	1464.5
465.414	1352.5
465.634	1274.5
465.854	1234.5
466.073	1158.5
466.293	1200.5
466.512	1172.5
466.732	1138.5
466.951	1136.5
467.171	1139.5
467.391	1142.5
467.61	1112.5
467.829	1154.5
468.049	1095.5
468.268	1067.5
468.488	1093.5
468.707	1082.5
468.927	1057.5
469.146	1070.5
469.365	1119.5
469.585	1080.5
469.804	1143.5
470.023	1133.5
470.243	1145.5
470.462	1168.5
470.681	1174.5
470.901	1174.5
471.12	1110.5
471.339	1129.5
471.558	1113.5
471.777	1115.5
471.997	1061.5
472.216	1067.5
472.435	1091.5
472.654	1053.5
472.873	1034.5
473.092	1056.5
473.311	1032.5
473.53	1013.5
473.749	1035.5
473.968	1049.5
474.187	1043.5
474.406	1026.5
474.625	1052.5
474.844	1028.5
475.063	1074.5
475.282	1060.5
475.501	1065.5
475.72	1019.5
475.939	1054.5
476.158	1058.5
476.377	1062.5
476.596	1109.5
476.814	1088.5
477.033	1098.5
477.252	1107.5
477.471	1126.5
477.69	1161.5
477.908	1238.5
478.127	1256.5
478.346	1259.5
478.564	1291.5
478.783	1305.5
479.002	1321.5
479.22	1337.5
479.439	1311.5
479.658	1320.5
479.876	1306.5
480.095	1315.5
480.313	1323.5
480.532	1434.5
480.751	1430.5
480.969	1361.5
481.188	1311.5
481.406	1257.5
481.624	1230.5
481.843	1212.5
482.061	1206.5
482.28	1217.5
482.498	1185.5
482.717	1168.5
482.935	1169.5
483.153	1160.5
483.372	1168.5
483.59	1189.5
483.808	1209.5
484.027	1187.5
484.245	1211.5
484.463	1206.5
484.681	1225.5
484.9	1243.5
485.118	1246.5
485.336	1259.5
485.554	1272.5
485.772	1298.5
485.99	1254.5
486.209	1272.5
486.427	1284.5
486.645	1242.5
486.863	1280.5
487.081	1276.5
487.299	1286.5
487.517	1261.5
487.735	1242.5
487.953	1241.5
488.171	1284.5
488.389	1232.5
488.607	1239.5
488.825	1236.5
489.043	1259.5
489.261	1241.5
489.479	1254.5
489.696	1221.5
489.914	1272.5
490.132	1254.5
490.35	1266.5
490.568	1217.5
490.786	1238.5
491.003	1276.5
491.221	1279.5
491.439	1270.5
491.657	1241.5
491.874	1286.5
492.092	1256.5
492.31	1304.5
492.527	1313.5
492.745	1293.5
492.963	1289.5
493.18	1289.5
493.398	1332.5
493.615	1328.5
493.833	1326.5
494.05	1285.5
494.268	1324.5
494.485	1307.5
494.703	1319.5
494.92	1332.5
495.138	1336.5
495.355	1348.5
495.573	1341.5
495.79	1360.5
496.008	1375.5
496.225	1355.5
496.442	1395.5
496.66	1406.5
496.877	1408.5
497.094	1417.5
497.312	1440.5
497.529	1455.5
497.746	1541.5
497.963	1576.5
498.181	1658.5
498.398	1694.5
498.615	1822.5
498.832	1957.5
499.049	2132.5
499.267	2272.5
499.484	2505.5
499.701	2815.5
499.918	3074.5
500.135	3568.5
500.352	4092.5
500.569	4334.5
500.786	4287.5
501.003	3945.5
501.22	3414.5
501.437	3012.5
501.654	2657.5
501.871	2372.5
502.088	2184.5
502.305	2011.5
502.522	1938.5
502.739	1881.5
502.956	1746.5
503.172	1698.5
503.389	1589.5
503.606	1558.5
503.823	1528.5
504.04	1554.5
504.256	1554.5
504.473	1615.5
504.69	1628.5
504.907	1618.5
505.123	1495.5
505.34	1369.5
505.557	1331.5
505.773	1269.5
505.99	1288.5
506.207	1277.5
506.423	1238.5
506.64	1216.5
506.856	1195.5
507.073	1206.5
507.289	1180.5
507.506	1174.5
507.722	1174.5
507.939	1096.5
508.155	1138.5
508.372	1135.5
508.588	1129.5
508.805	1076.5
509.021	1112.5
509.238	1107.5
509.454	1094.5
509.67	1095.5
509.887	1060.5
510.103	1070.5
510.319	1068.5
510.536	1083.5
510.752	1059.5
510.968	1059.5
511.184	1059.5
511.401	1075.5
511.617	1047.5
511.833	1080.5
512.049	1065.5
512.265	1074.5
512.481	1058.5
512.698	1050.5
512.914	1070.5
513.13	1067.5
513.346	1093.5
513.562	1044.5
513.778	1039.5
513.994	1076.5
514.21	1057.5
514.426	1081.5
514.642	1093.5
514.858	1114.5
515.074	1094.5
515.29	1106.5
515.506	1126.5
515.721	1137.5
515.937	1123.5
516.153	1170.5
516.369	1206.5
516.585	1232.5
516.801	1265.5
517.016	1308.5
517.232	1413.5
517.448	1515.5
517.664	1507.5
517.879	1507.5
518.095	1549.5
518.311	1523.5
518.527	1407.5
518.742	1342.5
518.958	1286.5
519.173	1247.5
519.389	1202.5
519.605	1164.5
519.82	1136.5
520.036	1127.5
520.251	1086.5
520.467	1076.5
520.682	1094.5
520.898	1075.5
521.113	1050.5
521.329	1042.5
521.544	1037.5
521.76	1002.5
521.975	994.5
522.19	1012.5
522.406	988.5
522.621	1001.5
522.836	947.5
523.052	1000.5
523.267	984.5
523.482	996.5
523.698	999.5
523.913	960.5
524.128	983.5
524.343	984.5
524.559	970.5
524.774	956.5
524.989	982.5
525.204	940.5
525.419	947.5
525.634	965.5
525.849	960.5
526.064	956.5
526.28	948.5
526.495	937.5
526.71	952.5
526.925	927.5
527.14	938.5
527.355	935.5
527.57	959.5
527.785	957.5
527.999	938.5
528.214	957.5
528.429	997.5
528.644	963.5
528.859	974.5
529.074	938.5
529.289	949.5
529.503	970.5
529.718	959.5
529.933	982.5
530.148	962.5
530.363	938.5
530.577	912.5
530.792	937.5
531.007	937.5
531.221	948.5
531.436	969.5
531.651	962.5
531.865	945.5
532.08	956.5
532.295	968.5
532.509	959.5
532.724	957.5
532.938	958.5
533.153	955.5
533.367	959.5
533.582	980.5
533.796	968.5
534.011	934.5
534.225	960.5
534.44	930.5
534.654	905.5
534.868	927.5
535.083	931.5
535.297	957.5
535.511	942.5
535.726	934.5
535.94	918.5
536.154	920.5
536.369	915.5
536.583	886.5
536.797	886.5
537.011	887.5
537.225	869.5
537.44	869.5
537.654	875.5
537.868	879.5
538.082	872.5
538.296	840.5
538.51	874.5
538.724	871.5
538.938	850.5
539.153	841.5
539.367	878.5
539.581	858.5
539.795	862.5
540.009	882.5
540.222	872.5
540.436	842.5
540.65	858.5
540.864	842.5
541.078	889.5
541.292	854.5
541.506	863.5
541.72	863.5
541.934	858.5
542.147	858.5
542.361	831.5
542.575	854.5
542.789	856.5
543.002	848.5
543.216	826.5
543.43	858.5
543.644	822.5
543.857	832.5
544.071	837.5
544.285	863.5
544.498	857.5
544.712	855.5
544.925	878.5
545.139	843.5
545.352	847.5
545.566	868.5
545.779	877.5
545.993	869.5
546.206	860.5
546.42	892.5
546.633	864.5
546.847	869.5
547.06	882.5
547.274	867.5
547.487	867.5
547.7	849.5
547.914	854.5
548.127	863.5
548.34	904.5
548.554	891.5
548.767	866.5
548.98	843.5
549.193	878.5
549.407	882.5
549.62	898.5
549.833	914.5
550.046	944.5
550.259	898.5
550.473	882.5
550.686	870.5
550.899	850.5
551.112	863.5
551.325	863.5
551.538	863.5
551.751	843.5
551.964	835.5
552.177	856.5
552.39	864.5
552.603	933.5
552.816	934.5
553.029	960.5
553.242	956.5
553.455	1003.5
553.667	961.5
553.88	971.5
554.093	910.5
554.306	902.5
554.519	904.5
554.732	876.5
554.944	872.5
555.157	842.5
555.37	828.5
555.583	832.5
555.795	804.5
556.008	801.5
556.221	776.5
556.433	769.5
556.646	752.5
556.859	766.5
557.071	785.5
557.284	745.5
557.496	746.5
557.709	738.5
557.921	752.5
558.134	728.5
558.346	693.5
558.559	730.5
558.771	774.5
558.984	733.5
559.196	714.5
559.409	729.5
559.621	691.5
559.833	728.5
560.046	718.5
560.258	721.5
560.47	707.5
560.683	714.5
560.895	695.5
561.107	716.5
561.32	702.5
561.532	698.5
561.744	688.5
561.956	704.5
562.168	716.5
562.381	703.5
562.593	729.5
562.805	725.5
563.017	722.5
563.229	683.5
563.441	715.5
563.653	734.5
563.865	730.5
564.077	728.5
564.289	728.5
564.501	751.5
564.713	791.5
564.925	765.5
565.137	793.5
565.349	792.5
565.561	842.5
565.773	885.5
565.985	882.5
566.197	935.5
566.408	1028.5
566.62	1127.5
566.832	1216.5
567.044	1208.5
567.255	1206.5
567.467	1266.5
567.679	1315.5
567.891	1465.5
568.102	1494.5
568.314	1421.5
568.526	1264.5
568.737	1109.5
568.949	1031.5
569.161	901.5
569.372	865.5
569.584	842.5
569.795	812.5
570.007	752.5
570.218	740.5
570.43	730.5
570.641	741.5
570.853	736.5
571.064	770.5
571.276	741.5
571.487	725.5
571.698	691.5
571.91	660.5
572.121	654.5
572.333	626.5
572.544	594.5
572.755	612.5
572.966	627.5
573.178	610.5
573.389	620.5
573.6	593.5
573.811	596.5
574.023	592.5
574.234	583.5
574.445	602.5
574.656	592.5
574.867	593.5
575.078	589.5
575.289	567.5
575.501	582.5
575.712	571.5
575.923	534.5
576.134	537.5
576.345	569.5
576.556	570.5
576.767	586.5
576.978	556.5
577.188	537.5
577.399	573.5
577.61	530.5
577.821	535.5
578.032	524.5
578.243	554.5
578.454	528.5
578.665	523.5
578.875	510.5
579.086	507.5
579.297	529.5
579.508	500.5
579.718	522.5
579.929	505.5
580.14	496.5
580.35	510.5
580.561	506.5
580.772	483.5
580.982	496.5
581.193	511.5
581.403	540.5
581.614	504.5
581.825	504.5
582.035	513.5
582.246	489.5
582.456	487.5
582.667	488.5
582.877	478.5
583.087	461.5
583.298	489.5
583.508	500.5
583.719	468.5
583.929	499.5
584.139	495.5
584.35	470.5
584.56	476.5
584.77	470.5
584.981	463.5
585.191	467.5
585.401	487.5
585.611	470.5
585.821	464.5
586.032	472.5
586.242	468.5
586.452	448.5
586.662	471.5
586.872	466.5
587.082	457.5
587.292	470.5
587.502	458.5
587.713	476.5
587.923	441.5
588.133	464.5
588.343	472.5
588.553	484.5
588.762	463.5
588.972	455.5
589.182	471.5
589.392	473.5
589.602	458.5
589.812	461.5
590.022	466.5
590.232	466.5
590.441	460.5
590.651	460.5
590.861	472.5
591.071	481.5
591.281	490.5
591.49	496.5
591.7	478.5
591.91	492.5
592.119	473.5
592.329	515.5
592.539	518.5
592.748	556.5
592.958	587.5
593.167	605.5
593.377	610.5
593.587	612.5
593.796	601.5
594.006	613.5
594.215	630.5
594.424	624.5
594.634	594.5
594.843	575.5
595.053	572.5
595.262	535.5
595.472	512.5
595.681	484.5
595.89	460.5
596.1	477.5
596.309	469.5
596.518	427.5
596.727	440.5
596.937	442.5
597.146	453.5
597.355	441.5
597.564	429.5
597.774	419.5
597.983	426.5
598.192	408.5
598.401	410.5
598.61	408.5
598.819	399.5
599.028	383.5
599.237	405.5
599.446	393.5
599.655	382.5
599.864	406.5
600.073	403.5
600.282	394.5
600.491	377.5
600.7	387.5
600.909	378.5
601.118	386.5
601.327	388.5
601.536	386.5
601.745	390.5
601.953	383.5
602.162	383.5
602.371	399.5
602.58	384.5
602.789	383.5
602.997	377.5
603.206	378.5
603.415	377.5
603.623	346.5
603.832	392.5
604.041	366.5
604.249	384.5
604.458	344.5
604.666	357.5
604.875	350.5
605.084	350.5
605.292	363.5
605.501	353.5
605.709	366.5
605.918	348.5
606.126	350.5
606.334	343.5
606.543	351.5
606.751	359.5
606.96	350.5
607.168	344.5
607.376	355.5
607.585	346.5
607.793	346.5
608.001	347.5
608.21	350.5
608.418	337.5
608.626	338.5
608.834	341.5
609.043	352.5
609.251	348.5
609.459	332.5
609.667	344.5
609.875	348.5
610.083	342.5
610.291	334.5
610.499	354.5
610.707	351.5
610.916	357.5
611.124	351.5
611.332	358.5
611.54	337.5
611.748	347.5
611.955	335.5
612.163	326.5
612.371	338.5
612.579	346.5
612.787	330.5
612.995	337.5
613.203	339.5
613.411	344.5
613.618	335.5
613.826	326.5
614.034	316.5
614.242	327.5
614.449	333.5
614.657	343.5
614.865	326.5
615.072	337.5
615.28	332.5
615.488	322.5
615.695	336.5
615.903	332.5
616.111	349.5
616.318	352.5
616.526	334.5
616.733	345.5
616.941	337.5
617.148	319.5
617.356	312.5
617.563	330.5
617.771	343.5
617.978	335.5
618.185	325.5
618.393	325.5
618.6	353.5
618.807	337.5
619.015	319.5
619.222	335.5
619.429	318.5
619.637	332.5
619.844	328.5
620.051	327.5
620.258	325.5
620.466	316.5
620.673	295.5
620.88	315.5
621.087	300.5
621.294	312.5
621.501	323.5
621.708	319.5
621.915	310.5
622.122	319.5
622.329	305.5
622.536	320.5
622.743	307.5
622.95	296.5
623.157	305.5
623.364	291.5
623.571	294.5
623.778	294.5
623.985	291.5
624.192	266.5
624.399	296.5
624.606	309.5
624.812	276.5
625.019	289.5
625.226	290.5
625.433	268.5
625.639	269.5
625.846	288.5
626.053	290.5
626.259	286.5
626.466	277.5
626.673	279.5
626.879	255.5
627.086	283.5
627.293	270.5
627.499	278.5
627.706	282.5
627.912	290.5
628.119	272.5
628.325	268.5
628.532	275.5
628.738	260.5
628.945	247.5
629.151	269.5
629.357	278.5
629.564	262.5
629.77	272.5
629.976	258.5
630.183	276.5
630.389	238.5
630.595	272.5
630.802	266.5
631.008	270.5
631.214	266.5
631.42	258.5
631.627	253.5
631.833	245.5
632.039	252.5
632.245	258.5
632.451	235.5
632.657	234.5
632.863	240.5
633.069	264.5
633.275	259.5
633.481	233.5
633.688	257.5
633.893	253.5
634.099	241.5
634.305	233.5
634.511	242.5
634.717	239.5
634.923	244.5
635.129	249.5
635.335	231.5
635.541	242.5
635.747	224.5
635.952	230.5
636.158	243.5
636.364	243.5
636.57	243.5
636.775	242.5
636.981	250.5
637.187	248.5
637.392	254.5
637.598	249.5
637.804	215.5
638.009	230.5
638.215	228.5
638.421	221.5
638.626	229.5
638.832	237.5
639.037	218.5
639.243	231.5
639.448	230.5
639.654	223.5
639.859	242.5
640.065	233.5
640.27	220.5
640.475	219.5
640.681	221.5
640.886	219.5
641.091	217.5
641.297	221.5
641.502	202.5
641.707	217.5
641.913	210.5
642.118	210.5
642.323	221.5
642.528	212.5
642.733	212.5
642.939	220.5
643.144	217.5
643.349	216.5
643.554	226.5
643.759	222.5
643.964	226.5
644.169	222.5
644.374	232.5
644.579	235.5
644.784	204.5
644.989	223.5
645.194	207.5
645.399	212.5
645.604	203.5
645.809	223.5
646.014	214.5
646.219	211.5
646.423	216.5
646.628	213.5
646.833	242.5
647.038	227.5
647.243	206.5
647.447	219.5
647.652	217.5
647.857	212.5
648.062	233.5
648.266	234.5
648.471	230.5
648.676	256.5
648.88	220.5
649.085	223.5
649.289	228.5
649.494	222.5
649.698	224.5
649.903	207.5
650.107	212.5
650.312	211.5
650.516	204.5
650.721	194.5
650.925	198.5
651.13	183.5
651.334	199.5
651.539	194.5
651.743	204.5
651.947	198.5
652.152	164.5
652.356	184.5
652.56	185.5
652.764	167.5
652.969	163.5
653.173	174.5
653.377	162.5
653.581	158.5
653.785	170.5
653.99	160.5
654.194	144.5
654.398	168.5
654.602	168.5
654.806	157.5
655.01	158.5
655.214	157.5
655.418	160.5
655.622	145.5
655.826	153.5
656.03	156.5
656.234	156.5
656.438	163.5
656.642	159.5
656.846	172.5
657.049	152.5
657.253	136.5
657.457	142.5
657.661	132.5
657.865	128.5
658.068	124.5
658.272	116.5
658.476	118.5
658.68	128.5
658.883	110.5
659.087	107.5
659.291	117.5
659.494	91.5
659.698	107.5
659.901	104.5
660.105	108.5
660.309	105.5
660.512	97.5
660.716	107.5
660.919	105.5
661.123	90.5
661.326	92.5
661.53	99.5
661.733	92.5
661.936	98.5
662.14	85.5
662.343	74.5
662.546	80.5
662.75	73.5
662.953	106.5
663.156	89.5
663.36	96.5
663.563	96.5
663.766	89.5
663.969	106.5
664.173	82.5
664.376	73.5
664.579	75.5
664.782	90.5
664.985	67.5
665.188	75.5
665.391	76.5
665.594	78.5
665.797	86.5
666	79.5
666.203	78.5
666.406	89.5
666.609	78.5
666.812	92.5
667.015	82.5
667.218	90.5
667.421	69.5
667.624	82.5
667.827	75.5
668.03	66.5
668.232	84.5
668.435	80.5
668.638	81.5
668.841	94.5
669.043	83.5
669.246	71.5
669.449	81.5
669.651	86.5
669.854	86.5
670.057	71.5
670.259	76.5
670.462	87.5
670.665	69.5
670.867	76.5
671.07	84.5
671.272	94.5
671.475	89.5
671.677	81.5
671.88	78.5
672.082	98.5
672.284	74.5
672.487	79.5
672.689	74.5
672.892	85.5
