Data from Ni(NO3)2@0.125M.TitratingCurve.Agarose3%dH2O.NegLispCup.LampEnergy10.LIBS07252019_HRD10591_18-08-42-567.txt Node
Date: Thu Jul 25 18:08:42 EDT 2019
User: cochatt
Spectrometer: HR+D1059
Trigger mode: 1
Integration Time (sec): 1.000000E-1
Scans to average: 1
Electric dark correction enabled: true
Nonlinearity correction enabled: false
Boxcar width: 0
XAxis mode: Wavelengths
Number of Pixels in Spectrum: 2048
>>>>>Begin Spectral Data<<<<<
223.165	1.75
223.4	1.75
223.635	1.75
223.869	-9.25
224.104	-29.25
224.338	-19.25
224.573	-7.25
224.808	-18.25
225.042	-4.25
225.277	-4.25
225.511	-0.25
225.746	-4.25
225.98	7.75
226.215	12.75
226.449	12.75
226.683	8.75
226.918	27.75
227.152	24.75
227.387	47.75
227.621	44.75
227.856	45.75
228.09	53.75
228.324	52.75
228.559	61.75
228.793	64.75
229.027	95.75
229.262	113.75
229.496	97.75
229.73	123.75
229.964	129.75
230.199	104.75
230.433	143.75
230.667	139.75
230.901	125.75
231.136	127.75
231.37	136.75
231.604	131.75
231.838	142.75
232.072	144.75
232.306	142.75
232.541	139.75
232.775	137.75
233.009	146.75
233.243	144.75
233.477	150.75
233.711	159.75
233.945	149.75
234.179	125.75
234.413	132.75
234.647	135.75
234.881	138.75
235.115	152.75
235.349	155.75
235.583	144.75
235.817	163.75
236.051	135.75
236.285	130.75
236.519	138.75
236.753	142.75
236.987	142.75
237.221	144.75
237.455	146.75
237.689	154.75
237.922	142.75
238.156	149.75
238.39	153.75
238.624	153.75
238.858	166.75
239.091	157.75
239.325	165.75
239.559	155.75
239.793	149.75
240.027	155.75
240.26	149.75
240.494	164.75
240.728	164.75
240.961	179.75
241.195	181.75
241.429	177.75
241.662	160.75
241.896	173.75
242.13	171.75
242.363	163.75
242.597	170.75
242.83	179.75
243.064	172.75
243.298	186.75
243.531	187.75
243.765	206.75
243.998	185.75
244.232	181.75
244.465	198.75
244.699	204.75
244.932	205.75
245.166	206.75
245.399	193.75
245.633	202.75
245.866	194.75
246.099	188.75
246.333	201.75
246.566	200.75
246.8	201.75
247.033	209.75
247.266	214.75
247.5	217.75
247.733	211.75
247.966	215.75
248.2	220.75
248.433	222.75
248.666	217.75
248.899	213.75
249.133	209.75
249.366	243.75
249.599	228.75
249.832	251.75
250.066	214.75
250.299	233.75
250.532	231.75
250.765	226.75
250.998	218.75
251.231	218.75
251.465	233.75
251.698	231.75
251.931	240.75
252.164	259.75
252.397	259.75
252.63	249.75
252.863	257.75
253.096	257.75
253.329	251.75
253.562	254.75
253.795	260.75
254.028	256.75
254.261	275.75
254.494	265.75
254.727	271.75
254.96	277.75
255.193	256.75
255.426	263.75
255.659	271.75
255.892	278.75
256.124	271.75
256.357	273.75
256.59	282.75
256.823	282.75
257.056	275.75
257.289	293.75
257.521	282.75
257.754	302.75
257.987	286.75
258.22	274.75
258.452	268.75
258.685	278.75
258.918	281.75
259.151	306.75
259.383	299.75
259.616	276.75
259.849	300.75
260.081	280.75
260.314	276.75
260.547	311.75
260.779	302.75
261.012	291.75
261.244	313.75
261.477	298.75
261.71	300.75
261.942	308.75
262.175	302.75
262.407	307.75
262.64	306.75
262.872	305.75
263.105	293.75
263.337	315.75
263.57	316.75
263.802	335.75
264.035	318.75
264.267	324.75
264.499	314.75
264.732	318.75
264.964	326.75
265.197	328.75
265.429	330.75
265.661	319.75
265.894	336.75
266.126	318.75
266.358	330.75
266.591	326.75
266.823	335.75
267.055	324.75
267.287	331.75
267.52	356.75
267.752	352.75
267.984	351.75
268.216	359.75
268.448	341.75
268.681	338.75
268.913	358.75
269.145	350.75
269.377	354.75
269.609	350.75
269.841	355.75
270.073	354.75
270.306	349.75
270.538	358.75
270.77	354.75
271.002	358.75
271.234	347.75
271.466	357.75
271.698	362.75
271.93	357.75
272.162	362.75
272.394	356.75
272.626	348.75
272.858	358.75
273.09	371.75
273.322	377.75
273.553	364.75
273.785	377.75
274.017	385.75
274.249	361.75
274.481	385.75
274.713	366.75
274.945	387.75
275.176	396.75
275.408	382.75
275.64	377.75
275.872	392.75
276.104	387.75
276.335	393.75
276.567	396.75
276.799	389.75
277.031	385.75
277.262	397.75
277.494	409.75
277.726	391.75
277.957	406.75
278.189	399.75
278.421	389.75
278.652	389.75
278.884	403.75
279.115	403.75
279.347	409.75
279.579	412.75
279.81	423.75
280.042	409.75
280.273	424.75
280.505	422.75
280.736	405.75
280.968	447.75
281.199	429.75
281.431	425.75
281.662	421.75
281.894	427.75
282.125	424.75
282.356	450.75
282.588	423.75
282.819	441.75
283.051	471.75
283.282	447.75
283.513	448.75
283.745	449.75
283.976	438.75
284.207	441.75
284.439	428.75
284.67	441.75
284.901	455.75
285.132	443.75
285.364	445.75
285.595	454.75
285.826	468.75
286.057	484.75
286.288	457.75
286.52	469.75
286.751	476.75
286.982	470.75
287.213	461.75
287.444	471.75
287.675	489.75
287.906	471.75
288.138	470.75
288.369	472.75
288.6	460.75
288.831	479.75
289.062	469.75
289.293	478.75
289.524	473.75
289.755	516.75
289.986	453.75
290.217	470.75
290.448	486.75
290.679	488.75
290.91	480.75
291.141	475.75
291.371	490.75
291.602	489.75
291.833	485.75
292.064	483.75
292.295	475.75
292.526	495.75
292.757	495.75
292.987	488.75
293.218	487.75
293.449	489.75
293.68	492.75
293.91	464.75
294.141	478.75
294.372	516.75
294.603	517.75
294.833	495.75
295.064	485.75
295.295	483.75
295.525	486.75
295.756	507.75
295.987	485.75
296.217	507.75
296.448	531.75
296.679	517.75
296.909	500.75
297.14	494.75
297.37	490.75
297.601	523.75
297.831	514.75
298.062	512.75
298.292	509.75
298.523	542.75
298.753	564.75
298.984	538.75
299.214	536.75
299.445	534.75
299.675	520.75
299.905	531.75
300.136	531.75
300.366	532.75
300.597	548.75
300.827	559.75
301.057	552.75
301.288	557.75
301.518	570.75
301.748	555.75
301.979	561.75
302.209	558.75
302.439	557.75
302.669	553.75
302.9	548.75
303.13	542.75
303.36	553.75
303.59	550.75
303.82	557.75
304.051	560.75
304.281	548.75
304.511	554.75
304.741	536.75
304.971	553.75
305.201	567.75
305.431	557.75
305.661	558.75
305.891	557.75
306.121	548.75
306.352	544.75
306.582	528.75
306.812	540.75
307.042	549.75
307.272	532.75
307.502	541.75
307.731	550.75
307.961	534.75
308.191	547.75
308.421	507.75
308.651	543.75
308.881	559.75
309.111	540.75
309.341	525.75
309.571	543.75
309.8	559.75
310.03	532.75
310.26	552.75
310.49	554.75
310.72	558.75
310.949	534.75
311.179	547.75
311.409	560.75
311.639	563.75
311.868	566.75
312.098	570.75
312.328	579.75
312.557	557.75
312.787	581.75
313.017	589.75
313.246	587.75
313.476	577.75
313.706	596.75
313.935	602.75
314.165	590.75
314.394	594.75
314.624	605.75
314.853	583.75
315.083	569.75
315.312	574.75
315.542	565.75
315.771	565.75
316.001	570.75
316.23	597.75
316.46	581.75
316.689	591.75
316.919	588.75
317.148	561.75
317.377	574.75
317.607	585.75
317.836	571.75
318.065	595.75
318.295	591.75
318.524	591.75
318.753	596.75
318.983	580.75
319.212	588.75
319.441	580.75
319.67	589.75
319.9	585.75
320.129	588.75
320.358	589.75
320.587	582.75
320.816	594.75
321.046	595.75
321.275	610.75
321.504	606.75
321.733	586.75
321.962	613.75
322.191	615.75
322.42	618.75
322.649	594.75
322.878	612.75
323.108	602.75
323.337	598.75
323.566	610.75
323.795	604.75
324.024	612.75
324.253	637.75
324.482	616.75
324.71	629.75
324.939	628.75
325.168	644.75
325.397	630.75
325.626	629.75
325.855	634.75
326.084	653.75
326.313	653.75
326.542	638.75
326.77	657.75
326.999	632.75
327.228	653.75
327.457	653.75
327.686	638.75
327.914	657.75
328.143	663.75
328.372	673.75
328.6	662.75
328.829	673.75
329.058	675.75
329.287	669.75
329.515	663.75
329.744	669.75
329.972	646.75
330.201	662.75
330.43	684.75
330.658	707.75
330.887	691.75
331.115	716.75
331.344	698.75
331.572	701.75
331.801	742.75
332.03	745.75
332.258	753.75
332.486	791.75
332.715	813.75
332.943	845.75
333.172	883.75
333.4	879.75
333.629	925.75
333.857	885.75
334.085	914.75
334.314	905.75
334.542	868.75
334.771	875.75
334.999	847.75
335.227	822.75
335.455	876.75
335.684	827.75
335.912	836.75
336.14	825.75
336.369	798.75
336.597	808.75
336.825	796.75
337.053	806.75
337.281	787.75
337.51	789.75
337.738	764.75
337.966	748.75
338.194	759.75
338.422	750.75
338.65	742.75
338.878	743.75
339.106	715.75
339.334	730.75
339.562	708.75
339.79	702.75
340.018	722.75
340.246	699.75
340.474	717.75
340.702	685.75
340.93	700.75
341.158	710.75
341.386	746.75
341.614	713.75
341.842	700.75
342.07	692.75
342.298	703.75
342.526	693.75
342.754	725.75
342.981	705.75
343.209	729.75
343.437	774.75
343.665	829.75
343.893	877.75
344.12	893.75
344.348	830.75
344.576	797.75
344.804	784.75
345.031	755.75
345.259	732.75
345.487	733.75
345.714	706.75
345.942	702.75
346.17	692.75
346.397	713.75
346.625	697.75
346.853	709.75
347.08	656.75
347.308	689.75
347.535	689.75
347.763	691.75
347.99	690.75
348.218	683.75
348.445	700.75
348.673	700.75
348.9	658.75
349.128	655.75
349.355	657.75
349.583	683.75
349.81	695.75
350.037	659.75
350.265	666.75
350.492	653.75
350.72	673.75
350.947	668.75
351.174	659.75
351.402	647.75
351.629	650.75
351.856	672.75
352.083	646.75
352.311	671.75
352.538	653.75
352.765	641.75
352.992	653.75
353.22	655.75
353.447	655.75
353.674	645.75
353.901	660.75
354.128	668.75
354.355	651.75
354.583	658.75
354.81	666.75
355.037	670.75
355.264	667.75
355.491	642.75
355.718	667.75
355.945	675.75
356.172	683.75
356.399	673.75
356.626	677.75
356.853	679.75
357.08	649.75
357.307	677.75
357.534	660.75
357.761	668.75
357.988	673.75
358.215	675.75
358.441	646.75
358.668	665.75
358.895	681.75
359.122	669.75
359.349	665.75
359.576	653.75
359.802	666.75
360.029	669.75
360.256	648.75
360.483	656.75
360.709	660.75
360.936	665.75
361.163	651.75
361.39	648.75
361.616	644.75
361.843	654.75
362.07	672.75
362.296	651.75
362.523	648.75
362.749	650.75
362.976	654.75
363.203	645.75
363.429	652.75
363.656	645.75
363.882	673.75
364.109	630.75
364.335	662.75
364.562	625.75
364.788	648.75
365.015	629.75
365.241	651.75
365.468	637.75
365.694	639.75
365.92	628.75
366.147	627.75
366.373	649.75
366.599	646.75
366.826	659.75
367.052	657.75
367.278	636.75
367.505	648.75
367.731	684.75
367.957	663.75
368.184	653.75
368.41	674.75
368.636	670.75
368.862	698.75
369.089	670.75
369.315	662.75
369.541	655.75
369.767	685.75
369.993	657.75
370.219	691.75
370.445	678.75
370.672	699.75
370.898	711.75
371.124	708.75
371.35	696.75
371.576	691.75
371.802	735.75
372.028	701.75
372.254	719.75
372.48	701.75
372.706	729.75
372.932	747.75
373.158	719.75
373.384	745.75
373.61	705.75
373.835	696.75
374.061	701.75
374.287	728.75
374.513	747.75
374.739	764.75
374.965	775.75
375.191	790.75
375.416	784.75
375.642	748.75
375.868	750.75
376.094	712.75
376.319	729.75
376.545	738.75
376.771	722.75
376.997	702.75
377.222	703.75
377.448	694.75
377.674	709.75
377.899	716.75
378.125	671.75
378.35	701.75
378.576	719.75
378.802	699.75
379.027	709.75
379.253	708.75
379.478	707.75
379.704	720.75
379.929	702.75
380.155	702.75
380.38	693.75
380.606	703.75
380.831	694.75
381.057	723.75
381.282	723.75
381.507	705.75
381.733	698.75
381.958	693.75
382.184	747.75
382.409	739.75
382.634	734.75
382.86	744.75
383.085	724.75
383.31	746.75
383.535	787.75
383.761	780.75
383.986	819.75
384.211	819.75
384.436	842.75
384.662	833.75
384.887	859.75
385.112	845.75
385.337	855.75
385.562	834.75
385.787	835.75
386.013	860.75
386.238	883.75
386.463	845.75
386.688	868.75
386.913	830.75
387.138	835.75
387.363	821.75
387.588	805.75
387.813	865.75
388.038	859.75
388.263	856.75
388.488	850.75
388.713	830.75
388.938	824.75
389.163	817.75
389.387	847.75
389.612	812.75
389.837	811.75
390.062	838.75
390.287	853.75
390.512	835.75
390.736	834.75
390.961	862.75
391.186	872.75
391.411	892.75
391.636	905.75
391.86	917.75
392.085	969.75
392.31	964.75
392.534	927.75
392.759	908.75
392.984	881.75
393.208	891.75
393.433	889.75
393.658	906.75
393.882	873.75
394.107	892.75
394.331	878.75
394.556	915.75
394.78	921.75
395.005	930.75
395.229	925.75
395.454	947.75
395.678	964.75
395.903	927.75
396.127	938.75
396.352	899.75
396.576	878.75
396.801	927.75
397.025	927.75
397.249	930.75
397.474	968.75
397.698	934.75
397.922	956.75
398.147	951.75
398.371	964.75
398.595	989.75
398.82	1030.75
399.044	1144.75
399.268	1251.75
399.492	1457.75
399.717	1650.75
399.941	1609.75
400.165	1383.75
400.389	1272.75
400.613	1180.75
400.837	1106.75
401.062	1057.75
401.286	1070.75
401.51	1054.75
401.734	1058.75
401.958	1075.75
402.182	1085.75
402.406	1097.75
402.63	1147.75
402.854	1130.75
403.078	1149.75
403.302	1175.75
403.526	1217.75
403.75	1221.75
403.974	1261.75
404.198	1243.75
404.422	1238.75
404.645	1223.75
404.869	1227.75
405.093	1227.75
405.317	1153.75
405.541	1201.75
405.765	1176.75
405.988	1179.75
406.212	1177.75
406.436	1160.75
406.66	1193.75
406.883	1225.75
407.107	1257.75
407.331	1355.75
407.555	1395.75
407.778	1402.75
408.002	1354.75
408.226	1291.75
408.449	1276.75
408.673	1234.75
408.896	1219.75
409.12	1191.75
409.344	1174.75
409.567	1215.75
409.791	1219.75
410.014	1194.75
410.238	1193.75
410.461	1189.75
410.685	1124.75
410.908	1176.75
411.132	1132.75
411.355	1096.75
411.578	1100.75
411.802	1117.75
412.025	1101.75
412.249	1138.75
412.472	1121.75
412.695	1092.75
412.919	1076.75
413.142	1054.75
413.365	1056.75
413.589	1062.75
413.812	1045.75
414.035	1047.75
414.258	1031.75
414.482	1053.75
414.705	1085.75
414.928	1101.75
415.151	1073.75
415.374	1081.75
415.597	1069.75
415.821	1038.75
416.044	1035.75
416.267	1039.75
416.49	1022.75
416.713	1081.75
416.936	1053.75
417.159	1045.75
417.382	1078.75
417.605	1040.75
417.828	1052.75
418.051	1104.75
418.274	1075.75
418.497	1084.75
418.72	1085.75
418.943	1102.75
419.166	1153.75
419.389	1219.75
419.611	1211.75
419.834	1153.75
420.057	1108.75
420.28	1063.75
420.503	1051.75
420.726	1078.75
420.948	1067.75
421.171	1047.75
421.394	1052.75
421.617	1066.75
421.839	1069.75
422.062	1089.75
422.285	1055.75
422.507	1089.75
422.73	1099.75
422.953	1100.75
423.175	1121.75
423.398	1115.75
423.621	1165.75
423.843	1157.75
424.066	1183.75
424.288	1132.75
424.511	1139.75
424.733	1125.75
424.956	1106.75
425.178	1097.75
425.401	1061.75
425.623	1083.75
425.846	1021.75
426.068	1023.75
426.291	1017.75
426.513	1018.75
426.735	979.75
426.958	1005.75
427.18	957.75
427.402	947.75
427.625	957.75
427.847	937.75
428.069	944.75
428.292	957.75
428.514	949.75
428.736	944.75
428.958	959.75
429.181	917.75
429.403	914.75
429.625	942.75
429.847	909.75
430.069	935.75
430.292	934.75
430.514	918.75
430.736	936.75
430.958	917.75
431.18	919.75
431.402	950.75
431.624	925.75
431.846	945.75
432.068	963.75
432.29	957.75
432.512	922.75
432.734	962.75
432.956	954.75
433.178	952.75
433.4	947.75
433.622	936.75
433.844	966.75
434.066	963.75
434.287	982.75
434.509	985.75
434.731	1050.75
434.953	1068.75
435.175	1101.75
435.397	1077.75
435.618	1010.75
435.84	976.75
436.062	953.75
436.284	954.75
436.505	956.75
436.727	942.75
436.949	964.75
437.17	949.75
437.392	895.75
437.614	902.75
437.835	930.75
438.057	915.75
438.278	898.75
438.5	906.75
438.721	911.75
438.943	949.75
439.165	915.75
439.386	916.75
439.608	969.75
439.829	943.75
440.05	931.75
440.272	953.75
440.493	942.75
440.715	971.75
440.936	1005.75
441.158	1027.75
441.379	1046.75
441.6	1077.75
441.822	1114.75
442.043	1077.75
442.264	1073.75
442.486	1025.75
442.707	1089.75
442.928	1067.75
443.149	1086.75
443.371	1048.75
443.592	1070.75
443.813	1095.75
444.034	1098.75
444.255	1131.75
444.476	1192.75
444.698	1283.75
444.919	1307.75
445.14	1387.75
445.361	1228.75
445.582	1095.75
445.803	1080.75
446.024	1004.75
446.245	997.75
446.466	982.75
446.687	969.75
446.908	969.75
447.129	921.75
447.35	936.75
447.571	912.75
447.792	889.75
448.013	888.75
448.234	871.75
448.455	910.75
448.675	890.75
448.896	885.75
449.117	873.75
449.338	872.75
449.559	866.75
449.779	876.75
450	866.75
450.221	881.75
450.442	890.75
450.662	867.75
450.883	907.75
451.104	901.75
451.324	909.75
451.545	903.75
451.766	909.75
451.986	898.75
452.207	883.75
452.428	877.75
452.648	856.75
452.869	851.75
453.089	887.75
453.31	858.75
453.53	848.75
453.751	829.75
453.971	849.75
454.192	856.75
454.412	831.75
454.633	812.75
454.853	848.75
455.073	814.75
455.294	829.75
455.514	826.75
455.734	798.75
455.955	806.75
456.175	825.75
456.395	798.75
456.616	809.75
456.836	810.75
457.056	799.75
457.276	796.75
457.497	821.75
457.717	783.75
457.937	800.75
458.157	827.75
458.377	833.75
458.598	844.75
458.818	879.75
459.038	853.75
459.258	921.75
459.478	965.75
459.698	990.75
459.918	1009.75
460.138	1051.75
460.358	1117.75
460.578	1133.75
460.798	1151.75
461.018	1139.75
461.238	1101.75
461.458	1142.75
461.678	1134.75
461.898	1139.75
462.118	1100.75
462.338	1189.75
462.558	1213.75
462.777	1281.75
462.997	1403.75
463.217	1540.75
463.437	1533.75
463.657	1369.75
463.876	1281.75
464.096	1318.75
464.316	1301.75
464.536	1335.75
464.755	1299.75
464.975	1206.75
465.195	1166.75
465.414	1087.75
465.634	1048.75
465.854	979.75
466.073	958.75
466.293	965.75
466.512	931.75
466.732	888.75
466.951	913.75
467.171	894.75
467.391	917.75
467.61	917.75
467.829	915.75
468.049	893.75
468.268	871.75
468.488	869.75
468.707	862.75
468.927	862.75
469.146	860.75
469.365	863.75
469.585	896.75
469.804	913.75
470.023	943.75
470.243	937.75
470.462	965.75
470.681	942.75
470.901	967.75
471.12	946.75
471.339	931.75
471.558	915.75
471.777	905.75
471.997	913.75
472.216	874.75
472.435	869.75
472.654	858.75
472.873	865.75
473.092	859.75
473.311	870.75
473.53	835.75
473.749	842.75
473.968	850.75
474.187	837.75
474.406	828.75
474.625	854.75
474.844	853.75
475.063	846.75
475.282	830.75
475.501	852.75
475.72	886.75
475.939	873.75
476.158	876.75
476.377	883.75
476.596	873.75
476.814	871.75
477.033	905.75
477.252	906.75
477.471	924.75
477.69	963.75
477.908	976.75
478.127	1035.75
478.346	1037.75
478.564	1065.75
478.783	1029.75
479.002	1081.75
479.22	1073.75
479.439	1054.75
479.658	1061.75
479.876	1077.75
480.095	1069.75
480.313	1113.75
480.532	1161.75
480.751	1162.75
480.969	1101.75
481.188	1038.75
481.406	1009.75
481.624	990.75
481.843	967.75
482.061	948.75
482.28	964.75
482.498	976.75
482.717	950.75
482.935	964.75
483.153	955.75
483.372	969.75
483.59	996.75
483.808	958.75
484.027	964.75
484.245	987.75
484.463	966.75
484.681	1010.75
484.9	1002.75
485.118	980.75
485.336	1009.75
485.554	1031.75
485.772	1047.75
485.99	1013.75
486.209	1013.75
486.427	1038.75
486.645	1020.75
486.863	1010.75
487.081	1043.75
487.299	1015.75
487.517	1030.75
487.735	1010.75
487.953	1016.75
488.171	1005.75
488.389	980.75
488.607	1009.75
488.825	1003.75
489.043	996.75
489.261	994.75
489.479	984.75
489.696	990.75
489.914	1011.75
490.132	990.75
490.35	1035.75
490.568	1017.75
490.786	1031.75
491.003	1019.75
491.221	1016.75
491.439	1048.75
491.657	1033.75
491.874	1010.75
492.092	1042.75
492.31	1071.75
492.527	1061.75
492.745	1069.75
492.963	1035.75
493.18	1047.75
493.398	1077.75
493.615	1053.75
493.833	1099.75
494.05	1102.75
494.268	1095.75
494.485	1082.75
494.703	1116.75
494.92	1127.75
495.138	1069.75
495.355	1093.75
495.573	1121.75
495.79	1093.75
496.008	1118.75
496.225	1110.75
496.442	1114.75
496.66	1128.75
496.877	1138.75
497.094	1153.75
497.312	1196.75
497.529	1228.75
497.746	1254.75
497.963	1253.75
498.181	1312.75
498.398	1365.75
498.615	1445.75
498.832	1574.75
499.049	1678.75
499.267	1801.75
499.484	1989.75
499.701	2225.75
499.918	2502.75
500.135	2847.75
500.352	3273.75
500.569	3443.75
500.786	3355.75
501.003	3083.75
501.22	2749.75
501.437	2388.75
501.654	2080.75
501.871	1897.75
502.088	1760.75
502.305	1650.75
502.522	1591.75
502.739	1492.75
502.956	1405.75
503.172	1345.75
503.389	1238.75
503.606	1274.75
503.823	1256.75
504.04	1223.75
504.256	1246.75
504.473	1329.75
504.69	1323.75
504.907	1290.75
505.123	1175.75
505.34	1117.75
505.557	1061.75
505.773	1028.75
505.99	1060.75
506.207	1004.75
506.423	998.75
506.64	1009.75
506.856	1007.75
507.073	973.75
507.289	976.75
507.506	965.75
507.722	968.75
507.939	959.75
508.155	920.75
508.372	905.75
508.588	919.75
508.805	910.75
509.021	886.75
509.238	892.75
509.454	885.75
509.67	915.75
509.887	901.75
510.103	871.75
510.319	851.75
510.536	862.75
510.752	857.75
510.968	846.75
511.184	872.75
511.401	846.75
511.617	854.75
511.833	870.75
512.049	868.75
512.265	869.75
512.481	859.75
512.698	881.75
512.914	842.75
513.13	863.75
513.346	875.75
513.562	838.75
513.778	878.75
513.994	905.75
514.21	884.75
514.426	896.75
514.642	869.75
514.858	889.75
515.074	891.75
515.29	927.75
515.506	889.75
515.721	951.75
515.937	933.75
516.153	949.75
516.369	980.75
516.585	1028.75
516.801	1061.75
517.016	1085.75
517.232	1156.75
517.448	1192.75
517.664	1237.75
517.879	1252.75
518.095	1261.75
518.311	1217.75
518.527	1178.75
518.742	1105.75
518.958	1049.75
519.173	1020.75
519.389	993.75
519.605	972.75
519.82	935.75
520.036	931.75
520.251	907.75
520.467	897.75
520.682	890.75
520.898	874.75
521.113	867.75
521.329	837.75
521.544	844.75
521.76	831.75
521.975	808.75
522.19	822.75
522.406	820.75
522.621	819.75
522.836	783.75
523.052	824.75
523.267	817.75
523.482	821.75
523.698	804.75
523.913	809.75
524.128	797.75
524.343	812.75
524.559	819.75
524.774	804.75
524.989	804.75
525.204	826.75
525.419	789.75
525.634	773.75
525.849	759.75
526.064	803.75
526.28	771.75
526.495	761.75
526.71	788.75
526.925	800.75
527.14	797.75
527.355	772.75
527.57	773.75
527.785	791.75
527.999	773.75
528.214	803.75
528.429	775.75
528.644	797.75
528.859	780.75
529.074	781.75
529.289	806.75
529.503	782.75
529.718	796.75
529.933	787.75
530.148	773.75
530.363	793.75
530.577	771.75
530.792	764.75
531.007	760.75
531.221	756.75
531.436	773.75
531.651	811.75
531.865	793.75
532.08	791.75
532.295	784.75
532.509	758.75
532.724	783.75
532.938	797.75
533.153	754.75
533.367	781.75
533.582	792.75
533.796	787.75
534.011	785.75
534.225	799.75
534.44	770.75
534.654	758.75
534.868	764.75
535.083	764.75
535.297	741.75
535.511	761.75
535.726	733.75
535.94	737.75
536.154	739.75
536.369	761.75
536.583	726.75
536.797	707.75
537.011	717.75
537.225	727.75
537.44	710.75
537.654	732.75
537.868	759.75
538.082	701.75
538.296	707.75
538.51	711.75
538.724	731.75
538.938	706.75
539.153	701.75
539.367	699.75
539.581	696.75
539.795	721.75
540.009	703.75
540.222	676.75
540.436	691.75
540.65	685.75
540.864	684.75
541.078	714.75
541.292	718.75
541.506	709.75
541.72	721.75
541.934	710.75
542.147	728.75
542.361	717.75
542.575	695.75
542.789	705.75
543.002	697.75
543.216	710.75
543.43	692.75
543.644	703.75
543.857	704.75
544.071	718.75
544.285	707.75
544.498	724.75
544.712	730.75
544.925	686.75
545.139	739.75
545.352	730.75
545.566	726.75
545.779	740.75
545.993	738.75
546.206	739.75
546.42	743.75
546.633	746.75
546.847	726.75
547.06	751.75
547.274	737.75
547.487	738.75
547.7	747.75
547.914	742.75
548.127	743.75
548.34	748.75
548.554	749.75
548.767	733.75
548.98	740.75
549.193	714.75
549.407	713.75
549.62	756.75
549.833	779.75
550.046	753.75
550.259	741.75
550.473	721.75
550.686	699.75
550.899	722.75
551.112	695.75
551.325	713.75
551.538	694.75
551.751	713.75
551.964	687.75
552.177	707.75
552.39	730.75
552.603	757.75
552.816	764.75
553.029	787.75
553.242	770.75
553.455	795.75
553.667	801.75
553.88	789.75
554.093	753.75
554.306	753.75
554.519	748.75
554.732	729.75
554.944	707.75
555.157	690.75
555.37	673.75
555.583	666.75
555.795	644.75
556.008	647.75
556.221	640.75
556.433	634.75
556.646	633.75
556.859	612.75
557.071	619.75
557.284	621.75
557.496	623.75
557.709	642.75
557.921	613.75
558.134	617.75
558.346	595.75
558.559	604.75
558.771	609.75
558.984	607.75
559.196	620.75
559.409	591.75
559.621	608.75
559.833	583.75
560.046	601.75
560.258	606.75
560.47	582.75
560.683	597.75
560.895	578.75
561.107	599.75
561.32	592.75
561.532	609.75
561.744	586.75
561.956	582.75
562.168	583.75
562.381	586.75
562.593	599.75
562.805	582.75
563.017	606.75
563.229	578.75
563.441	599.75
563.653	590.75
563.865	618.75
564.077	622.75
564.289	631.75
564.501	625.75
564.713	626.75
564.925	629.75
565.137	633.75
565.349	678.75
565.561	683.75
565.773	712.75
565.985	725.75
566.197	791.75
566.408	829.75
566.62	907.75
566.832	995.75
567.044	1015.75
567.255	997.75
567.467	1005.75
567.679	1065.75
567.891	1165.75
568.102	1214.75
568.314	1129.75
568.526	1035.75
568.737	917.75
568.949	821.75
569.161	743.75
569.372	685.75
569.584	673.75
569.795	651.75
570.007	603.75
570.218	600.75
570.43	632.75
570.641	599.75
570.853	603.75
571.064	623.75
571.276	627.75
571.487	576.75
571.698	558.75
571.91	567.75
572.121	551.75
572.333	537.75
572.544	538.75
572.755	519.75
572.966	513.75
573.178	504.75
573.389	500.75
573.6	493.75
573.811	482.75
574.023	507.75
574.234	490.75
574.445	501.75
574.656	508.75
574.867	492.75
575.078	498.75
575.289	483.75
575.501	478.75
575.712	485.75
575.923	469.75
576.134	465.75
576.345	482.75
576.556	457.75
576.767	473.75
576.978	451.75
577.188	453.75
577.399	436.75
577.61	433.75
577.821	442.75
578.032	437.75
578.243	435.75
578.454	438.75
578.665	444.75
578.875	446.75
579.086	427.75
579.297	430.75
579.508	418.75
579.718	431.75
579.929	426.75
580.14	435.75
580.35	439.75
580.561	438.75
580.772	417.75
580.982	425.75
581.193	405.75
581.403	418.75
581.614	421.75
581.825	414.75
582.035	405.75
582.246	397.75
582.456	394.75
582.667	434.75
582.877	411.75
583.087	413.75
583.298	412.75
583.508	417.75
583.719	411.75
583.929	414.75
584.139	405.75
584.35	389.75
584.56	410.75
584.77	417.75
584.981	387.75
585.191	401.75
585.401	400.75
585.611	396.75
585.821	411.75
586.032	397.75
586.242	397.75
586.452	405.75
586.662	409.75
586.872	395.75
587.082	390.75
587.292	382.75
587.502	378.75
587.713	388.75
587.923	386.75
588.133	388.75
588.343	380.75
588.553	364.75
588.762	381.75
588.972	396.75
589.182	403.75
589.392	397.75
589.602	391.75
589.812	401.75
590.022	412.75
590.232	383.75
590.441	404.75
590.651	389.75
590.861	401.75
591.071	430.75
591.281	412.75
591.49	397.75
591.7	378.75
591.91	434.75
592.119	432.75
592.329	425.75
592.539	448.75
592.748	462.75
592.958	480.75
593.167	462.75
593.377	500.75
593.587	497.75
593.796	507.75
594.006	507.75
594.215	537.75
594.424	509.75
594.634	521.75
594.843	490.75
595.053	455.75
595.262	451.75
595.472	418.75
595.681	410.75
595.89	398.75
596.1	380.75
596.309	410.75
596.518	373.75
596.727	373.75
596.937	362.75
597.146	383.75
597.355	383.75
597.564	377.75
597.774	354.75
597.983	348.75
598.192	338.75
598.401	354.75
598.61	354.75
598.819	365.75
599.028	337.75
599.237	319.75
599.446	342.75
599.655	322.75
599.864	326.75
600.073	331.75
600.282	319.75
600.491	349.75
600.7	320.75
600.909	317.75
601.118	320.75
601.327	324.75
601.536	333.75
601.745	342.75
601.953	330.75
602.162	314.75
602.371	311.75
602.58	311.75
602.789	321.75
602.997	316.75
603.206	317.75
603.415	327.75
603.623	317.75
603.832	315.75
604.041	309.75
604.249	286.75
604.458	309.75
604.666	325.75
604.875	318.75
605.084	322.75
605.292	302.75
605.501	318.75
605.709	308.75
605.918	314.75
606.126	319.75
606.334	311.75
606.543	314.75
606.751	318.75
606.96	313.75
607.168	314.75
607.376	310.75
607.585	305.75
607.793	305.75
608.001	296.75
608.21	300.75
608.418	303.75
608.626	293.75
608.834	294.75
609.043	303.75
609.251	314.75
609.459	310.75
609.667	282.75
609.875	284.75
610.083	290.75
610.291	300.75
610.499	308.75
610.707	284.75
610.916	297.75
611.124	300.75
611.332	280.75
611.54	294.75
611.748	291.75
611.955	308.75
612.163	295.75
612.371	275.75
612.579	289.75
612.787	281.75
612.995	269.75
613.203	287.75
613.411	294.75
613.618	296.75
613.826	306.75
614.034	288.75
614.242	302.75
614.449	283.75
614.657	283.75
614.865	289.75
615.072	308.75
615.28	302.75
615.488	290.75
615.695	286.75
615.903	279.75
616.111	300.75
616.318	298.75
616.526	298.75
616.733	288.75
616.941	285.75
617.148	294.75
617.356	303.75
617.563	301.75
617.771	306.75
617.978	300.75
618.185	285.75
618.393	267.75
618.6	279.75
618.807	277.75
619.015	289.75
619.222	286.75
619.429	285.75
619.637	274.75
619.844	270.75
620.051	270.75
620.258	292.75
620.466	244.75
620.673	275.75
620.88	286.75
621.087	247.75
621.294	274.75
621.501	277.75
621.708	267.75
621.915	270.75
622.122	261.75
622.329	279.75
622.536	282.75
622.743	246.75
622.95	264.75
623.157	256.75
623.364	238.75
623.571	253.75
623.778	257.75
623.985	265.75
624.192	271.75
624.399	238.75
624.606	269.75
624.812	268.75
625.019	250.75
625.226	262.75
625.433	257.75
625.639	243.75
625.846	247.75
626.053	225.75
626.259	257.75
626.466	247.75
626.673	239.75
626.879	230.75
627.086	241.75
627.293	250.75
627.499	235.75
627.706	244.75
627.912	234.75
628.119	241.75
628.325	244.75
628.532	238.75
628.738	240.75
628.945	234.75
629.151	228.75
629.357	216.75
629.564	227.75
629.77	219.75
629.976	230.75
630.183	211.75
630.389	232.75
630.595	238.75
630.802	207.75
631.008	198.75
631.214	222.75
631.42	232.75
631.627	224.75
631.833	217.75
632.039	222.75
632.245	219.75
632.451	218.75
632.657	237.75
632.863	229.75
633.069	215.75
633.275	229.75
633.481	222.75
633.688	231.75
633.893	215.75
634.099	220.75
634.305	227.75
634.511	221.75
634.717	212.75
634.923	209.75
635.129	211.75
635.335	215.75
635.541	197.75
635.747	205.75
635.952	205.75
636.158	214.75
636.364	199.75
636.57	181.75
636.775	232.75
636.981	219.75
637.187	202.75
637.392	206.75
637.598	212.75
637.804	203.75
638.009	202.75
638.215	198.75
638.421	203.75
638.626	214.75
638.832	210.75
639.037	197.75
639.243	187.75
639.448	205.75
639.654	198.75
639.859	181.75
640.065	200.75
640.27	201.75
640.475	206.75
640.681	181.75
640.886	197.75
641.091	182.75
641.297	190.75
641.502	181.75
641.707	192.75
641.913	185.75
642.118	197.75
642.323	200.75
642.528	174.75
642.733	189.75
642.939	193.75
643.144	191.75
643.349	207.75
643.554	191.75
643.759	186.75
643.964	197.75
644.169	197.75
644.374	189.75
644.579	211.75
644.784	199.75
644.989	193.75
645.194	189.75
645.399	189.75
645.604	193.75
645.809	203.75
646.014	183.75
646.219	204.75
646.423	196.75
646.628	191.75
646.833	195.75
647.038	216.75
647.243	183.75
647.447	183.75
647.652	206.75
647.857	195.75
648.062	179.75
648.266	207.75
648.471	197.75
648.676	197.75
648.88	190.75
649.085	189.75
649.289	193.75
649.494	178.75
649.698	193.75
649.903	169.75
650.107	185.75
650.312	198.75
650.516	193.75
650.721	169.75
650.925	181.75
651.13	165.75
651.334	181.75
651.539	185.75
651.743	165.75
651.947	164.75
652.152	167.75
652.356	164.75
652.56	161.75
652.764	157.75
652.969	165.75
653.173	155.75
653.377	166.75
653.581	174.75
653.785	154.75
653.99	163.75
654.194	153.75
654.398	157.75
654.602	152.75
654.806	151.75
655.01	142.75
655.214	149.75
655.418	142.75
655.622	139.75
655.826	149.75
656.03	139.75
656.234	151.75
656.438	155.75
656.642	150.75
656.846	139.75
657.049	133.75
657.253	118.75
657.457	134.75
657.661	116.75
657.865	135.75
658.068	119.75
658.272	125.75
658.476	117.75
658.68	105.75
658.883	114.75
659.087	104.75
659.291	100.75
659.494	98.75
659.698	103.75
659.901	107.75
660.105	118.75
660.309	92.75
660.512	106.75
660.716	110.75
660.919	111.75
661.123	105.75
661.326	105.75
661.53	112.75
661.733	101.75
661.936	94.75
662.14	91.75
662.343	93.75
662.546	80.75
662.75	103.75
662.953	87.75
663.156	105.75
663.36	89.75
663.563	79.75
663.766	97.75
663.969	75.75
664.173	83.75
664.376	89.75
664.579	77.75
664.782	86.75
664.985	98.75
665.188	89.75
665.391	77.75
665.594	86.75
665.797	82.75
666	80.75
666.203	84.75
666.406	89.75
666.609	77.75
666.812	85.75
667.015	92.75
667.218	86.75
667.421	86.75
667.624	89.75
667.827	83.75
668.03	80.75
668.232	87.75
668.435	88.75
668.638	77.75
668.841	76.75
669.043	57.75
669.246	79.75
669.449	89.75
669.651	79.75
669.854	74.75
670.057	79.75
670.259	90.75
670.462	84.75
670.665	97.75
670.867	88.75
671.07	83.75
671.272	86.75
671.475	82.75
671.677	92.75
671.88	86.75
672.082	88.75
672.284	85.75
672.487	85.75
672.689	69.75
672.892	80.75
