Data from Ni(NO3)2Standard.Agarose3%.GreenCap.LampEnergy5.5.E.O_HRD10591_14-40-43-188.txt Node
Date: Mon Jul 22 14:40:43 EDT 2019
User: cochatt
Spectrometer: HR+D1059
Trigger mode: 1
Integration Time (sec): 1.000000E-1
Scans to average: 1
Electric dark correction enabled: true
Nonlinearity correction enabled: false
Boxcar width: 0
XAxis mode: Wavelengths
Number of Pixels in Spectrum: 2048
>>>>>Begin Spectral Data<<<<<
223.165	-12.31
223.4	-12.31
223.635	-12.31
223.869	-14.31
224.104	-13.31
224.338	-6.31
224.573	-23.31
224.808	-23.31
225.042	-11.31
225.277	-0.31
225.511	0.69
225.746	-4.31
225.98	9.69
226.215	10.69
226.449	13.69
226.683	14.69
226.918	24.69
227.152	34.69
227.387	27.69
227.621	37.69
227.856	36.69
228.09	33.69
228.324	66.69
228.559	47.69
228.793	56.69
229.027	53.69
229.262	74.69
229.496	53.69
229.73	61.69
229.964	58.69
230.199	69.69
230.433	67.69
230.667	79.69
230.901	77.69
231.136	82.69
231.37	89.69
231.604	83.69
231.838	81.69
232.072	83.69
232.306	86.69
232.541	77.69
232.775	73.69
233.009	89.69
233.243	85.69
233.477	64.69
233.711	85.69
233.945	71.69
234.179	73.69
234.413	76.69
234.647	93.69
234.881	81.69
235.115	86.69
235.349	76.69
235.583	78.69
235.817	88.69
236.051	65.69
236.285	84.69
236.519	87.69
236.753	78.69
236.987	71.69
237.221	65.69
237.455	70.69
237.689	77.69
237.922	75.69
238.156	78.69
238.39	56.69
238.624	74.69
238.858	73.69
239.091	83.69
239.325	87.69
239.559	84.69
239.793	58.69
240.027	76.69
240.26	84.69
240.494	81.69
240.728	68.69
240.961	66.69
241.195	82.69
241.429	76.69
241.662	80.69
241.896	69.69
242.13	75.69
242.363	70.69
242.597	85.69
242.83	66.69
243.064	68.69
243.298	83.69
243.531	78.69
243.765	84.69
243.998	71.69
244.232	79.69
244.465	57.69
244.699	69.69
244.932	72.69
245.166	78.69
245.399	75.69
245.633	78.69
245.866	76.69
246.099	70.69
246.333	77.69
246.566	78.69
246.8	82.69
247.033	78.69
247.266	72.69
247.5	82.69
247.733	78.69
247.966	72.69
248.2	69.69
248.433	89.69
248.666	76.69
248.899	85.69
249.133	74.69
249.366	81.69
249.599	84.69
249.832	87.69
250.066	73.69
250.299	73.69
250.532	65.69
250.765	75.69
250.998	73.69
251.231	72.69
251.465	66.69
251.698	67.69
251.931	79.69
252.164	70.69
252.397	69.69
252.63	83.69
252.863	68.69
253.096	71.69
253.329	79.69
253.562	79.69
253.795	75.69
254.028	92.69
254.261	64.69
254.494	59.69
254.727	75.69
254.96	76.69
255.193	81.69
255.426	83.69
255.659	73.69
255.892	95.69
256.124	82.69
256.357	80.69
256.59	87.69
256.823	64.69
257.056	75.69
257.289	73.69
257.521	87.69
257.754	82.69
257.987	66.69
258.22	80.69
258.452	75.69
258.685	79.69
258.918	68.69
259.151	74.69
259.383	86.69
259.616	82.69
259.849	83.69
260.081	85.69
260.314	88.69
260.547	78.69
260.779	77.69
261.012	73.69
261.244	77.69
261.477	78.69
261.71	73.69
261.942	74.69
262.175	74.69
262.407	77.69
262.64	85.69
262.872	72.69
263.105	67.69
263.337	77.69
263.57	76.69
263.802	74.69
264.035	79.69
264.267	87.69
264.499	84.69
264.732	84.69
264.964	71.69
265.197	82.69
265.429	72.69
265.661	79.69
265.894	90.69
266.126	84.69
266.358	80.69
266.591	84.69
266.823	83.69
267.055	74.69
267.287	69.69
267.52	73.69
267.752	79.69
267.984	74.69
268.216	82.69
268.448	65.69
268.681	72.69
268.913	86.69
269.145	64.69
269.377	69.69
269.609	87.69
269.841	85.69
270.073	68.69
270.306	79.69
270.538	82.69
270.77	74.69
271.002	91.69
271.234	85.69
271.466	74.69
271.698	83.69
271.93	74.69
272.162	89.69
272.394	87.69
272.626	82.69
272.858	77.69
273.09	96.69
273.322	81.69
273.553	90.69
273.785	69.69
274.017	71.69
274.249	79.69
274.481	86.69
274.713	83.69
274.945	63.69
275.176	91.69
275.408	85.69
275.64	95.69
275.872	87.69
276.104	77.69
276.335	74.69
276.567	77.69
276.799	72.69
277.031	81.69
277.262	82.69
277.494	80.69
277.726	91.69
277.957	84.69
278.189	90.69
278.421	88.69
278.652	79.69
278.884	76.69
279.115	91.69
279.347	79.69
279.579	90.69
279.81	94.69
280.042	74.69
280.273	87.69
280.505	73.69
280.736	86.69
280.968	88.69
281.199	91.69
281.431	93.69
281.662	80.69
281.894	93.69
282.125	79.69
282.356	76.69
282.588	81.69
282.819	73.69
283.051	84.69
283.282	84.69
283.513	89.69
283.745	84.69
283.976	76.69
284.207	67.69
284.439	71.69
284.67	91.69
284.901	90.69
285.132	75.69
285.364	82.69
285.595	77.69
285.826	81.69
286.057	86.69
286.288	77.69
286.52	81.69
286.751	79.69
286.982	100.69
287.213	81.69
287.444	76.69
287.675	68.69
287.906	83.69
288.138	80.69
288.369	83.69
288.6	79.69
288.831	81.69
289.062	71.69
289.293	79.69
289.524	85.69
289.755	96.69
289.986	81.69
290.217	97.69
290.448	100.69
290.679	90.69
290.91	95.69
291.141	85.69
291.371	103.69
291.602	73.69
291.833	92.69
292.064	98.69
292.295	97.69
292.526	91.69
292.757	89.69
292.987	76.69
293.218	81.69
293.449	85.69
293.68	86.69
293.91	100.69
294.141	73.69
294.372	91.69
294.603	76.69
294.833	76.69
295.064	76.69
295.295	80.69
295.525	83.69
295.756	92.69
295.987	72.69
296.217	96.69
296.448	85.69
296.679	89.69
296.909	93.69
297.14	75.69
297.37	78.69
297.601	84.69
297.831	89.69
298.062	93.69
298.292	84.69
298.523	82.69
298.753	98.69
298.984	83.69
299.214	90.69
299.445	105.69
299.675	84.69
299.905	80.69
300.136	90.69
300.366	77.69
300.597	97.69
300.827	93.69
301.057	95.69
301.288	81.69
301.518	94.69
301.748	89.69
301.979	84.69
302.209	103.69
302.439	85.69
302.669	82.69
302.9	77.69
303.13	81.69
303.36	80.69
303.59	86.69
303.82	75.69
304.051	84.69
304.281	92.69
304.511	90.69
304.741	87.69
304.971	73.69
305.201	95.69
305.431	78.69
305.661	74.69
305.891	84.69
306.121	87.69
306.352	82.69
306.582	69.69
306.812	91.69
307.042	92.69
307.272	89.69
307.502	77.69
307.731	92.69
307.961	92.69
308.191	90.69
308.421	81.69
308.651	74.69
308.881	90.69
309.111	81.69
309.341	79.69
309.571	83.69
309.8	76.69
310.03	82.69
310.26	85.69
310.49	85.69
310.72	77.69
310.949	77.69
311.179	93.69
311.409	82.69
311.639	94.69
311.868	84.69
312.098	96.69
312.328	73.69
312.557	84.69
312.787	86.69
313.017	93.69
313.246	93.69
313.476	68.69
313.706	92.69
313.935	94.69
314.165	82.69
314.394	87.69
314.624	85.69
314.853	91.69
315.083	99.69
315.312	91.69
315.542	81.69
315.771	91.69
316.001	87.69
316.23	96.69
316.46	87.69
316.689	74.69
316.919	83.69
317.148	93.69
317.377	91.69
317.607	83.69
317.836	89.69
318.065	98.69
318.295	84.69
318.524	99.69
318.753	103.69
318.983	86.69
319.212	85.69
319.441	95.69
319.67	91.69
319.9	80.69
320.129	88.69
320.358	92.69
320.587	96.69
320.816	79.69
321.046	89.69
321.275	90.69
321.504	80.69
321.733	91.69
321.962	76.69
322.191	84.69
322.42	89.69
322.649	74.69
322.878	97.69
323.108	89.69
323.337	57.69
323.566	91.69
323.795	90.69
324.024	80.69
324.253	81.69
324.482	75.69
324.71	95.69
324.939	70.69
325.168	91.69
325.397	83.69
325.626	97.69
325.855	73.69
326.084	83.69
326.313	86.69
326.542	84.69
326.77	92.69
326.999	89.69
327.228	92.69
327.457	83.69
327.686	85.69
327.914	80.69
328.143	83.69
328.372	84.69
328.6	86.69
328.829	90.69
329.058	91.69
329.287	95.69
329.515	81.69
329.744	96.69
329.972	98.69
330.201	95.69
330.43	85.69
330.658	92.69
330.887	75.69
331.115	97.69
331.344	88.69
331.572	90.69
331.801	79.69
332.03	97.69
332.258	104.69
332.486	84.69
332.715	82.69
332.943	91.69
333.172	80.69
333.4	86.69
333.629	85.69
333.857	83.69
334.085	82.69
334.314	95.69
334.542	64.69
334.771	84.69
334.999	85.69
335.227	89.69
335.455	83.69
335.684	93.69
335.912	84.69
336.14	84.69
336.369	80.69
336.597	88.69
336.825	89.69
337.053	82.69
337.281	97.69
337.51	99.69
337.738	85.69
337.966	82.69
338.194	94.69
338.422	91.69
338.65	76.69
338.878	91.69
339.106	83.69
339.334	99.69
339.562	88.69
339.79	85.69
340.018	88.69
340.246	86.69
340.474	90.69
340.702	94.69
340.93	73.69
341.158	101.69
341.386	85.69
341.614	93.69
341.842	84.69
342.07	79.69
342.298	73.69
342.526	97.69
342.754	77.69
342.981	86.69
343.209	98.69
343.437	84.69
343.665	83.69
343.893	83.69
344.12	92.69
344.348	97.69
344.576	75.69
344.804	76.69
345.031	83.69
345.259	76.69
345.487	85.69
345.714	80.69
345.942	92.69
346.17	89.69
346.397	82.69
346.625	79.69
346.853	81.69
347.08	76.69
347.308	96.69
347.535	85.69
347.763	84.69
347.99	78.69
348.218	103.69
348.445	85.69
348.673	79.69
348.9	84.69
349.128	86.69
349.355	89.69
349.583	90.69
349.81	87.69
350.037	90.69
350.265	86.69
350.492	71.69
350.72	77.69
350.947	92.69
351.174	96.69
351.402	78.69
351.629	88.69
351.856	87.69
352.083	81.69
352.311	89.69
352.538	82.69
352.765	90.69
352.992	88.69
353.22	86.69
353.447	88.69
353.674	76.69
353.901	75.69
354.128	88.69
354.355	95.69
354.583	75.69
354.81	102.69
355.037	84.69
355.264	72.69
355.491	87.69
355.718	94.69
355.945	104.69
356.172	81.69
356.399	81.69
356.626	81.69
356.853	93.69
357.08	75.69
357.307	75.69
357.534	84.69
357.761	81.69
357.988	84.69
358.215	100.69
358.441	94.69
358.668	76.69
358.895	80.69
359.122	75.69
359.349	73.69
359.576	82.69
359.802	96.69
360.029	73.69
360.256	90.69
360.483	81.69
360.709	82.69
360.936	86.69
361.163	80.69
361.39	78.69
361.616	81.69
361.843	100.69
362.07	93.69
362.296	89.69
362.523	91.69
362.749	87.69
362.976	77.69
363.203	91.69
363.429	75.69
363.656	90.69
363.882	98.69
364.109	91.69
364.335	95.69
364.562	91.69
364.788	72.69
365.015	85.69
365.241	89.69
365.468	83.69
365.694	82.69
365.92	92.69
366.147	100.69
366.373	91.69
366.599	77.69
366.826	98.69
367.052	90.69
367.278	78.69
367.505	90.69
367.731	81.69
367.957	105.69
368.184	96.69
368.41	77.69
368.636	93.69
368.862	88.69
369.089	83.69
369.315	90.69
369.541	90.69
369.767	81.69
369.993	101.69
370.219	76.69
370.445	75.69
370.672	88.69
370.898	87.69
371.124	92.69
371.35	87.69
371.576	91.69
371.802	90.69
372.028	87.69
372.254	97.69
372.48	77.69
372.706	77.69
372.932	88.69
373.158	72.69
373.384	85.69
373.61	98.69
373.835	72.69
374.061	83.69
374.287	79.69
374.513	93.69
374.739	83.69
374.965	86.69
375.191	69.69
375.416	76.69
375.642	86.69
375.868	90.69
376.094	82.69
376.319	71.69
376.545	88.69
376.771	89.69
376.997	64.69
377.222	85.69
377.448	95.69
377.674	72.69
377.899	84.69
378.125	84.69
378.35	91.69
378.576	78.69
378.802	72.69
379.027	92.69
379.253	85.69
379.478	89.69
379.704	99.69
379.929	94.69
380.155	76.69
380.38	75.69
380.606	72.69
380.831	90.69
381.057	88.69
381.282	81.69
381.507	95.69
381.733	100.69
381.958	97.69
382.184	77.69
382.409	88.69
382.634	83.69
382.86	88.69
383.085	75.69
383.31	74.69
383.535	81.69
383.761	84.69
383.986	81.69
384.211	84.69
384.436	82.69
384.662	84.69
384.887	85.69
385.112	87.69
385.337	85.69
385.562	84.69
385.787	77.69
386.013	76.69
386.238	82.69
386.463	79.69
386.688	81.69
386.913	77.69
387.138	73.69
387.363	89.69
387.588	99.69
387.813	92.69
388.038	91.69
388.263	85.69
388.488	89.69
388.713	74.69
388.938	81.69
389.163	83.69
389.387	92.69
389.612	81.69
389.837	73.69
390.062	89.69
390.287	99.69
390.512	74.69
390.736	78.69
390.961	76.69
391.186	69.69
391.411	75.69
391.636	90.69
391.86	91.69
392.085	77.69
392.31	72.69
392.534	81.69
392.759	78.69
392.984	77.69
393.208	63.69
393.433	77.69
393.658	85.69
393.882	90.69
394.107	76.69
394.331	95.69
394.556	80.69
394.78	82.69
395.005	84.69
395.229	108.69
395.454	84.69
395.678	87.69
395.903	76.69
396.127	88.69
396.352	80.69
396.576	78.69
396.801	81.69
397.025	89.69
397.249	76.69
397.474	89.69
397.698	81.69
397.922	71.69
398.147	88.69
398.371	87.69
398.595	92.69
398.82	71.69
399.044	74.69
399.268	82.69
399.492	89.69
399.717	93.69
399.941	89.69
400.165	85.69
400.389	84.69
400.613	112.69
400.837	84.69
401.062	95.69
401.286	88.69
401.51	81.69
401.734	86.69
401.958	101.69
402.182	79.69
402.406	90.69
402.63	88.69
402.854	70.69
403.078	88.69
403.302	79.69
403.526	77.69
403.75	85.69
403.974	93.69
404.198	87.69
404.422	82.69
404.645	73.69
404.869	88.69
405.093	87.69
405.317	88.69
405.541	92.69
405.765	94.69
405.988	95.69
406.212	89.69
406.436	89.69
406.66	100.69
406.883	83.69
407.107	99.69
407.331	68.69
407.555	90.69
407.778	80.69
408.002	71.69
408.226	99.69
408.449	83.69
408.673	81.69
408.896	83.69
409.12	85.69
409.344	89.69
409.567	80.69
409.791	94.69
410.014	84.69
410.238	84.69
410.461	82.69
410.685	72.69
410.908	71.69
411.132	90.69
411.355	87.69
411.578	72.69
411.802	80.69
412.025	75.69
412.249	81.69
412.472	72.69
412.695	88.69
412.919	97.69
413.142	91.69
413.365	74.69
413.589	85.69
413.812	85.69
414.035	96.69
414.258	94.69
414.482	86.69
414.705	81.69
414.928	71.69
415.151	87.69
415.374	84.69
415.597	95.69
415.821	97.69
416.044	84.69
416.267	70.69
416.49	85.69
416.713	83.69
416.936	83.69
417.159	85.69
417.382	90.69
417.605	75.69
417.828	80.69
418.051	87.69
418.274	87.69
418.497	75.69
418.72	85.69
418.943	95.69
419.166	87.69
419.389	100.69
419.611	95.69
419.834	83.69
420.057	88.69
420.28	84.69
420.503	84.69
420.726	93.69
420.948	62.69
421.171	80.69
421.394	90.69
421.617	78.69
421.839	95.69
422.062	82.69
422.285	66.69
422.507	84.69
422.73	84.69
422.953	90.69
423.175	93.69
423.398	80.69
423.621	86.69
423.843	75.69
424.066	94.69
424.288	67.69
424.511	96.69
424.733	100.69
424.956	86.69
425.178	90.69
425.401	81.69
425.623	73.69
425.846	88.69
426.068	77.69
426.291	78.69
426.513	75.69
426.735	84.69
426.958	84.69
427.18	81.69
427.402	91.69
427.625	102.69
427.847	89.69
428.069	92.69
428.292	80.69
428.514	98.69
428.736	98.69
428.958	83.69
429.181	72.69
429.403	81.69
429.625	84.69
429.847	77.69
430.069	81.69
430.292	85.69
430.514	86.69
430.736	91.69
430.958	90.69
431.18	75.69
431.402	85.69
431.624	86.69
431.846	85.69
432.068	86.69
432.29	80.69
432.512	95.69
432.734	81.69
432.956	82.69
433.178	80.69
433.4	67.69
433.622	82.69
433.844	102.69
434.066	80.69
434.287	89.69
434.509	80.69
434.731	83.69
434.953	87.69
435.175	88.69
435.397	93.69
435.618	74.69
435.84	89.69
436.062	79.69
436.284	94.69
436.505	84.69
436.727	88.69
436.949	71.69
437.17	75.69
437.392	94.69
437.614	69.69
437.835	77.69
438.057	87.69
438.278	92.69
438.5	80.69
438.721	94.69
438.943	99.69
439.165	66.69
439.386	89.69
439.608	82.69
439.829	77.69
440.05	85.69
440.272	83.69
440.493	95.69
440.715	94.69
440.936	87.69
441.158	88.69
441.379	92.69
441.6	91.69
441.822	80.69
442.043	73.69
442.264	77.69
442.486	84.69
442.707	98.69
442.928	68.69
443.149	80.69
443.371	100.69
443.592	77.69
443.813	95.69
444.034	83.69
444.255	93.69
444.476	74.69
444.698	73.69
444.919	80.69
445.14	195.69
445.361	129.69
445.582	94.69
445.803	77.69
446.024	89.69
446.245	85.69
446.466	85.69
446.687	92.69
446.908	87.69
447.129	72.69
447.35	88.69
447.571	91.69
447.792	86.69
448.013	80.69
448.234	93.69
448.455	80.69
448.675	85.69
448.896	85.69
449.117	99.69
449.338	83.69
449.559	83.69
449.779	84.69
450	94.69
450.221	77.69
450.442	74.69
450.662	81.69
450.883	90.69
451.104	73.69
451.324	81.69
451.545	81.69
451.766	76.69
451.986	75.69
452.207	71.69
452.428	71.69
452.648	89.69
452.869	85.69
453.089	98.69
453.31	81.69
453.53	99.69
453.751	78.69
453.971	85.69
454.192	85.69
454.412	75.69
454.633	98.69
454.853	81.69
455.073	94.69
455.294	89.69
455.514	87.69
455.734	94.69
455.955	77.69
456.175	68.69
456.395	75.69
456.616	88.69
456.836	81.69
457.056	91.69
457.276	91.69
457.497	80.69
457.717	75.69
457.937	77.69
458.157	87.69
458.377	84.69
458.598	76.69
458.818	83.69
459.038	88.69
459.258	85.69
459.478	84.69
459.698	72.69
459.918	84.69
460.138	89.69
460.358	101.69
460.578	75.69
460.798	84.69
461.018	88.69
461.238	86.69
461.458	93.69
461.678	98.69
461.898	89.69
462.118	86.69
462.338	93.69
462.558	93.69
462.777	86.69
462.997	88.69
463.217	88.69
463.437	84.69
463.657	86.69
463.876	92.69
464.096	96.69
464.316	74.69
464.536	90.69
464.755	92.69
464.975	103.69
465.195	96.69
465.414	83.69
465.634	81.69
465.854	82.69
466.073	83.69
466.293	93.69
466.512	83.69
466.732	95.69
466.951	70.69
467.171	84.69
467.391	88.69
467.61	85.69
467.829	94.69
468.049	83.69
468.268	92.69
468.488	86.69
468.707	89.69
468.927	80.69
469.146	93.69
469.365	91.69
469.585	89.69
469.804	74.69
470.023	84.69
470.243	87.69
470.462	95.69
470.681	87.69
470.901	86.69
471.12	75.69
471.339	86.69
471.558	87.69
471.777	90.69
471.997	93.69
472.216	100.69
472.435	89.69
472.654	96.69
472.873	76.69
473.092	92.69
473.311	92.69
473.53	81.69
473.749	84.69
473.968	99.69
474.187	90.69
474.406	81.69
474.625	71.69
474.844	98.69
475.063	84.69
475.282	93.69
475.501	87.69
475.72	91.69
475.939	91.69
476.158	92.69
476.377	88.69
476.596	92.69
476.814	84.69
477.033	88.69
477.252	86.69
477.471	72.69
477.69	93.69
477.908	94.69
478.127	89.69
478.346	101.69
478.564	75.69
478.783	83.69
479.002	87.69
479.22	79.69
479.439	91.69
479.658	87.69
479.876	96.69
480.095	100.69
480.313	87.69
480.532	92.69
480.751	93.69
480.969	91.69
481.188	82.69
481.406	83.69
481.624	80.69
481.843	88.69
482.061	84.69
482.28	88.69
482.498	82.69
482.717	93.69
482.935	78.69
483.153	81.69
483.372	93.69
483.59	93.69
483.808	88.69
484.027	77.69
484.245	77.69
484.463	97.69
484.681	104.69
484.9	88.69
485.118	90.69
485.336	77.69
485.554	95.69
485.772	95.69
485.99	91.69
486.209	100.69
486.427	70.69
486.645	85.69
486.863	84.69
487.081	91.69
487.299	82.69
487.517	90.69
487.735	95.69
487.953	88.69
488.171	95.69
488.389	90.69
488.607	83.69
488.825	89.69
489.043	99.69
489.261	89.69
489.479	83.69
489.696	87.69
489.914	97.69
490.132	99.69
490.35	100.69
490.568	78.69
490.786	78.69
491.003	82.69
491.221	83.69
491.439	83.69
491.657	87.69
491.874	100.69
492.092	105.69
492.31	103.69
492.527	92.69
492.745	90.69
492.963	85.69
493.18	97.69
493.398	93.69
493.615	103.69
493.833	92.69
494.05	94.69
494.268	105.69
494.485	87.69
494.703	97.69
494.92	79.69
495.138	91.69
495.355	97.69
495.573	93.69
495.79	108.69
496.008	94.69
496.225	91.69
496.442	117.69
496.66	98.69
496.877	87.69
497.094	97.69
497.312	111.69
497.529	91.69
497.746	82.69
497.963	101.69
498.181	95.69
498.398	93.69
498.615	100.69
498.832	75.69
499.049	91.69
499.267	88.69
499.484	104.69
499.701	102.69
499.918	99.69
500.135	96.69
500.352	119.69
500.569	104.69
500.786	119.69
501.003	103.69
501.22	107.69
501.437	113.69
501.654	101.69
501.871	111.69
502.088	106.69
502.305	81.69
502.522	89.69
502.739	96.69
502.956	104.69
503.172	83.69
503.389	96.69
503.606	95.69
503.823	96.69
504.04	87.69
504.256	99.69
504.473	100.69
504.69	86.69
504.907	115.69
505.123	104.69
505.34	85.69
505.557	105.69
505.773	95.69
505.99	91.69
506.207	87.69
506.423	80.69
506.64	95.69
506.856	101.69
507.073	89.69
507.289	88.69
507.506	96.69
507.722	96.69
507.939	97.69
508.155	86.69
508.372	98.69
508.588	88.69
508.805	94.69
509.021	82.69
509.238	96.69
509.454	100.69
509.67	92.69
509.887	91.69
510.103	98.69
510.319	96.69
510.536	69.69
510.752	89.69
510.968	100.69
511.184	107.69
511.401	98.69
511.617	106.69
511.833	101.69
512.049	99.69
512.265	86.69
512.481	98.69
512.698	99.69
512.914	96.69
513.13	95.69
513.346	80.69
513.562	86.69
513.778	87.69
513.994	74.69
514.21	104.69
514.426	73.69
514.642	98.69
514.858	79.69
515.074	73.69
515.29	82.69
515.506	91.69
515.721	104.69
515.937	86.69
516.153	93.69
516.369	80.69
516.585	93.69
516.801	105.69
517.016	95.69
517.232	84.69
517.448	111.69
517.664	84.69
517.879	83.69
518.095	100.69
518.311	93.69
518.527	102.69
518.742	89.69
518.958	83.69
519.173	77.69
519.389	103.69
519.605	85.69
519.82	96.69
520.036	98.69
520.251	84.69
520.467	83.69
520.682	81.69
520.898	86.69
521.113	84.69
521.329	102.69
521.544	87.69
521.76	84.69
521.975	86.69
522.19	91.69
522.406	80.69
522.621	84.69
522.836	81.69
523.052	89.69
523.267	97.69
523.482	91.69
523.698	86.69
523.913	87.69
524.128	92.69
524.343	80.69
524.559	92.69
524.774	88.69
524.989	101.69
525.204	89.69
525.419	100.69
525.634	86.69
525.849	104.69
526.064	72.69
526.28	96.69
526.495	103.69
526.71	81.69
526.925	82.69
527.14	89.69
527.355	79.69
527.57	91.69
527.785	91.69
527.999	102.69
528.214	85.69
528.429	96.69
528.644	91.69
528.859	86.69
529.074	74.69
529.289	73.69
529.503	112.69
529.718	87.69
529.933	87.69
530.148	77.69
530.363	89.69
530.577	105.69
530.792	95.69
531.007	92.69
531.221	85.69
531.436	86.69
531.651	100.69
531.865	68.69
532.08	92.69
532.295	77.69
532.509	100.69
532.724	73.69
532.938	88.69
533.153	85.69
533.367	85.69
533.582	99.69
533.796	81.69
534.011	88.69
534.225	75.69
534.44	93.69
534.654	87.69
534.868	90.69
535.083	85.69
535.297	88.69
535.511	92.69
535.726	93.69
535.94	82.69
536.154	77.69
536.369	88.69
536.583	84.69
536.797	94.69
537.011	87.69
537.225	79.69
537.44	98.69
537.654	80.69
537.868	84.69
538.082	83.69
538.296	77.69
538.51	88.69
538.724	97.69
538.938	92.69
539.153	87.69
539.367	96.69
539.581	87.69
539.795	83.69
540.009	92.69
540.222	85.69
540.436	80.69
540.65	90.69
540.864	76.69
541.078	89.69
541.292	99.69
541.506	98.69
541.72	93.69
541.934	87.69
542.147	97.69
542.361	93.69
542.575	92.69
542.789	93.69
543.002	92.69
543.216	98.69
543.43	83.69
543.644	104.69
543.857	91.69
544.071	86.69
544.285	91.69
544.498	83.69
544.712	81.69
544.925	80.69
545.139	101.69
545.352	106.69
545.566	97.69
545.779	92.69
545.993	86.69
546.206	85.69
546.42	83.69
546.633	86.69
546.847	78.69
547.06	84.69
547.274	86.69
547.487	103.69
547.7	96.69
547.914	102.69
548.127	95.69
548.34	84.69
548.554	82.69
548.767	88.69
548.98	75.69
549.193	107.69
549.407	84.69
549.62	87.69
549.833	85.69
550.046	87.69
550.259	91.69
550.473	82.69
550.686	89.69
550.899	85.69
551.112	84.69
551.325	81.69
551.538	82.69
551.751	87.69
551.964	92.69
552.177	108.69
552.39	91.69
552.603	88.69
552.816	86.69
553.029	93.69
553.242	94.69
553.455	93.69
553.667	101.69
553.88	107.69
554.093	104.69
554.306	92.69
554.519	103.69
554.732	97.69
554.944	88.69
555.157	87.69
555.37	87.69
555.583	80.69
555.795	84.69
556.008	107.69
556.221	88.69
556.433	90.69
556.646	83.69
556.859	94.69
557.071	82.69
557.284	72.69
557.496	97.69
557.709	91.69
557.921	90.69
558.134	86.69
558.346	90.69
558.559	85.69
558.771	87.69
558.984	91.69
559.196	97.69
559.409	90.69
559.621	91.69
559.833	85.69
560.046	83.69
560.258	80.69
560.47	85.69
560.683	83.69
560.895	87.69
561.107	93.69
561.32	84.69
561.532	95.69
561.744	92.69
561.956	96.69
562.168	84.69
562.381	96.69
562.593	79.69
562.805	87.69
563.017	82.69
563.229	84.69
563.441	100.69
563.653	81.69
563.865	83.69
564.077	84.69
564.289	84.69
564.501	81.69
564.713	97.69
564.925	80.69
565.137	79.69
565.349	88.69
565.561	94.69
565.773	77.69
565.985	78.69
566.197	100.69
566.408	90.69
566.62	87.69
566.832	87.69
567.044	89.69
567.255	79.69
567.467	84.69
567.679	84.69
567.891	83.69
568.102	97.69
568.314	99.69
568.526	87.69
568.737	97.69
568.949	94.69
569.161	88.69
569.372	77.69
569.584	82.69
569.795	91.69
570.007	95.69
570.218	94.69
570.43	81.69
570.641	87.69
570.853	92.69
571.064	79.69
571.276	78.69
571.487	81.69
571.698	89.69
571.91	84.69
572.121	88.69
572.333	92.69
572.544	87.69
572.755	79.69
572.966	81.69
573.178	76.69
573.389	89.69
573.6	87.69
573.811	94.69
574.023	88.69
574.234	83.69
574.445	97.69
574.656	97.69
574.867	90.69
575.078	78.69
575.289	79.69
575.501	88.69
575.712	96.69
575.923	86.69
576.134	80.69
576.345	91.69
576.556	102.69
576.767	78.69
576.978	81.69
577.188	91.69
577.399	87.69
577.61	84.69
577.821	78.69
578.032	81.69
578.243	98.69
578.454	86.69
578.665	98.69
578.875	75.69
579.086	70.69
579.297	89.69
579.508	78.69
579.718	83.69
579.929	95.69
580.14	83.69
580.35	89.69
580.561	90.69
580.772	78.69
580.982	93.69
581.193	88.69
581.403	71.69
581.614	86.69
581.825	84.69
582.035	86.69
582.246	81.69
582.456	73.69
582.667	87.69
582.877	93.69
583.087	92.69
583.298	82.69
583.508	89.69
583.719	93.69
583.929	83.69
584.139	90.69
584.35	82.69
584.56	77.69
584.77	84.69
584.981	92.69
585.191	79.69
585.401	80.69
585.611	89.69
585.821	87.69
586.032	91.69
586.242	70.69
586.452	81.69
586.662	82.69
586.872	89.69
587.082	84.69
587.292	77.69
587.502	84.69
587.713	69.69
587.923	82.69
588.133	85.69
588.343	79.69
588.553	85.69
588.762	93.69
588.972	82.69
589.182	77.69
589.392	83.69
589.602	83.69
589.812	77.69
590.022	82.69
590.232	84.69
590.441	90.69
590.651	81.69
590.861	87.69
591.071	74.69
591.281	87.69
591.49	94.69
591.7	74.69
591.91	81.69
592.119	80.69
592.329	96.69
592.539	90.69
592.748	87.69
592.958	83.69
593.167	81.69
593.377	76.69
593.587	95.69
593.796	91.69
594.006	87.69
594.215	93.69
594.424	67.69
594.634	79.69
594.843	75.69
595.053	90.69
595.262	88.69
595.472	104.69
595.681	81.69
595.89	92.69
596.1	91.69
596.309	91.69
596.518	94.69
596.727	85.69
596.937	76.69
597.146	83.69
597.355	81.69
597.564	100.69
597.774	92.69
597.983	70.69
598.192	87.69
598.401	82.69
598.61	73.69
598.819	89.69
599.028	92.69
599.237	75.69
599.446	74.69
599.655	84.69
599.864	91.69
600.073	88.69
600.282	71.69
600.491	88.69
600.7	101.69
600.909	93.69
601.118	76.69
601.327	89.69
601.536	88.69
601.745	79.69
601.953	83.69
602.162	87.69
602.371	89.69
602.58	76.69
602.789	86.69
602.997	79.69
603.206	94.69
603.415	84.69
603.623	78.69
603.832	78.69
604.041	84.69
604.249	80.69
604.458	69.69
604.666	68.69
604.875	83.69
605.084	77.69
605.292	79.69
605.501	84.69
605.709	91.69
605.918	86.69
606.126	90.69
606.334	81.69
606.543	82.69
606.751	65.69
606.96	81.69
607.168	75.69
607.376	91.69
607.585	91.69
607.793	72.69
608.001	60.69
608.21	88.69
608.418	100.69
608.626	82.69
608.834	76.69
609.043	66.69
609.251	83.69
609.459	82.69
609.667	80.69
609.875	77.69
610.083	85.69
610.291	79.69
610.499	68.69
610.707	84.69
610.916	79.69
611.124	92.69
611.332	84.69
611.54	67.69
611.748	74.69
611.955	88.69
612.163	78.69
612.371	89.69
612.579	83.69
612.787	88.69
612.995	83.69
613.203	77.69
613.411	81.69
613.618	84.69
613.826	76.69
614.034	85.69
614.242	82.69
614.449	74.69
614.657	81.69
614.865	91.69
615.072	89.69
615.28	83.69
615.488	82.69
615.695	88.69
615.903	81.69
616.111	80.69
616.318	83.69
616.526	84.69
616.733	81.69
616.941	88.69
617.148	84.69
617.356	79.69
617.563	78.69
617.771	73.69
617.978	72.69
618.185	79.69
618.393	80.69
618.6	83.69
618.807	83.69
619.015	87.69
619.222	75.69
619.429	79.69
619.637	77.69
619.844	78.69
620.051	82.69
620.258	100.69
620.466	91.69
620.673	80.69
620.88	74.69
621.087	76.69
621.294	81.69
621.501	83.69
621.708	82.69
621.915	81.69
622.122	91.69
622.329	82.69
622.536	90.69
622.743	76.69
622.95	82.69
623.157	65.69
623.364	83.69
623.571	87.69
623.778	88.69
623.985	74.69
624.192	74.69
624.399	79.69
624.606	77.69
624.812	80.69
625.019	71.69
625.226	80.69
625.433	82.69
625.639	84.69
625.846	88.69
626.053	86.69
626.259	85.69
626.466	106.69
626.673	80.69
626.879	83.69
627.086	91.69
627.293	96.69
627.499	73.69
627.706	91.69
627.912	83.69
628.119	82.69
628.325	84.69
628.532	90.69
628.738	86.69
628.945	83.69
629.151	82.69
629.357	88.69
629.564	81.69
629.77	87.69
629.976	84.69
630.183	85.69
630.389	85.69
630.595	74.69
630.802	89.69
631.008	77.69
631.214	87.69
631.42	75.69
631.627	78.69
631.833	82.69
632.039	83.69
632.245	79.69
632.451	65.69
632.657	88.69
632.863	84.69
633.069	83.69
633.275	82.69
633.481	80.69
633.688	79.69
633.893	95.69
634.099	91.69
634.305	79.69
634.511	91.69
634.717	74.69
634.923	72.69
635.129	74.69
635.335	77.69
635.541	72.69
635.747	65.69
635.952	85.69
636.158	95.69
636.364	79.69
636.57	85.69
636.775	100.69
636.981	74.69
637.187	79.69
637.392	78.69
637.598	84.69
637.804	86.69
638.009	72.69
638.215	75.69
638.421	76.69
638.626	86.69
638.832	78.69
639.037	90.69
639.243	67.69
639.448	73.69
639.654	93.69
639.859	92.69
640.065	80.69
640.27	87.69
640.475	77.69
640.681	74.69
640.886	82.69
641.091	94.69
641.297	101.69
641.502	80.69
641.707	70.69
641.913	84.69
642.118	69.69
642.323	90.69
642.528	75.69
642.733	90.69
642.939	80.69
643.144	86.69
643.349	82.69
643.554	84.69
643.759	77.69
643.964	73.69
644.169	95.69
644.374	83.69
644.579	73.69
644.784	77.69
644.989	81.69
645.194	80.69
645.399	92.69
645.604	93.69
645.809	68.69
646.014	85.69
646.219	79.69
646.423	72.69
646.628	87.69
646.833	91.69
647.038	77.69
647.243	79.69
647.447	81.69
647.652	91.69
647.857	85.69
648.062	88.69
648.266	96.69
648.471	84.69
648.676	79.69
648.88	78.69
649.085	75.69
649.289	77.69
649.494	79.69
649.698	85.69
649.903	81.69
650.107	89.69
650.312	101.69
650.516	81.69
650.721	79.69
650.925	86.69
651.13	90.69
651.334	71.69
651.539	72.69
651.743	84.69
651.947	97.69
652.152	85.69
652.356	86.69
652.56	74.69
652.764	94.69
652.969	69.69
653.173	88.69
653.377	85.69
653.581	90.69
653.785	81.69
653.99	84.69
654.194	89.69
654.398	79.69
654.602	89.69
654.806	84.69
655.01	78.69
655.214	80.69
655.418	79.69
655.622	94.69
655.826	70.69
656.03	69.69
656.234	95.69
656.438	74.69
656.642	91.69
656.846	71.69
657.049	81.69
657.253	78.69
657.457	86.69
657.661	93.69
657.865	85.69
658.068	75.69
658.272	74.69
658.476	76.69
658.68	90.69
658.883	90.69
659.087	91.69
659.291	87.69
659.494	96.69
659.698	85.69
659.901	86.69
660.105	75.69
660.309	66.69
660.512	90.69
660.716	88.69
660.919	78.69
661.123	87.69
661.326	84.69
661.53	78.69
661.733	83.69
661.936	76.69
662.14	77.69
662.343	80.69
662.546	84.69
662.75	69.69
662.953	70.69
663.156	75.69
663.36	89.69
663.563	72.69
663.766	63.69
663.969	81.69
664.173	91.69
664.376	83.69
664.579	80.69
664.782	95.69
664.985	77.69
665.188	81.69
665.391	88.69
665.594	83.69
665.797	72.69
666	67.69
666.203	90.69
666.406	81.69
666.609	82.69
666.812	83.69
667.015	91.69
667.218	93.69
667.421	81.69
667.624	90.69
667.827	66.69
668.03	88.69
668.232	76.69
668.435	78.69
668.638	69.69
668.841	86.69
669.043	73.69
669.246	73.69
669.449	70.69
669.651	87.69
669.854	72.69
670.057	74.69
670.259	89.69
670.462	79.69
670.665	74.69
670.867	85.69
671.07	79.69
671.272	84.69
671.475	83.69
671.677	88.69
671.88	92.69
672.082	91.69
672.284	84.69
672.487	81.69
672.689	86.69
672.892	82.69
