Data from Ni(NO3)2@0.5M.TitratingCurve.Agarose3%dH2O.NegLispCup.LampEnergy10.LIBS07252019_HRD10591_17-57-21-564.txt Node
Date: Thu Jul 25 17:57:21 EDT 2019
User: cochatt
Spectrometer: HR+D1059
Trigger mode: 1
Integration Time (sec): 1.000000E-1
Scans to average: 1
Electric dark correction enabled: true
Nonlinearity correction enabled: false
Boxcar width: 0
XAxis mode: Wavelengths
Number of Pixels in Spectrum: 2048
>>>>>Begin Spectral Data<<<<<
223.165	-28.06
223.4	-28.06
223.635	-28.06
223.869	-16.06
224.104	-20.06
224.338	0.94
224.573	-8.06
224.808	-4.06
225.042	-17.06
225.277	-16.06
225.511	10.94
225.746	0.94
225.98	20.94
226.215	15.94
226.449	12.94
226.683	8.94
226.918	13.94
227.152	23.94
227.387	28.94
227.621	33.94
227.856	46.94
228.09	46.94
228.324	59.94
228.559	54.94
228.793	70.94
229.027	152.94
229.262	144.94
229.496	159.94
229.73	166.94
229.964	181.94
230.199	227.94
230.433	211.94
230.667	211.94
230.901	206.94
231.136	182.94
231.37	196.94
231.604	224.94
231.838	228.94
232.072	230.94
232.306	230.94
232.541	201.94
232.775	216.94
233.009	184.94
233.243	205.94
233.477	185.94
233.711	199.94
233.945	206.94
234.179	221.94
234.413	196.94
234.647	222.94
234.881	203.94
235.115	226.94
235.349	208.94
235.583	214.94
235.817	201.94
236.051	213.94
236.285	215.94
236.519	206.94
236.753	208.94
236.987	218.94
237.221	201.94
237.455	207.94
237.689	203.94
237.922	214.94
238.156	210.94
238.39	224.94
238.624	205.94
238.858	216.94
239.091	234.94
239.325	239.94
239.559	240.94
239.793	271.94
240.027	266.94
240.26	242.94
240.494	239.94
240.728	248.94
240.961	255.94
241.195	250.94
241.429	265.94
241.662	278.94
241.896	288.94
242.13	290.94
242.363	282.94
242.597	269.94
242.83	278.94
243.064	276.94
243.298	272.94
243.531	290.94
243.765	270.94
243.998	301.94
244.232	290.94
244.465	302.94
244.699	278.94
244.932	302.94
245.166	284.94
245.399	295.94
245.633	319.94
245.866	309.94
246.099	306.94
246.333	308.94
246.566	321.94
246.8	311.94
247.033	314.94
247.266	320.94
247.5	331.94
247.733	321.94
247.966	320.94
248.2	346.94
248.433	364.94
248.666	339.94
248.899	335.94
249.133	348.94
249.366	351.94
249.599	347.94
249.832	354.94
250.066	376.94
250.299	365.94
250.532	380.94
250.765	392.94
250.998	378.94
251.231	391.94
251.465	416.94
251.698	417.94
251.931	374.94
252.164	394.94
252.397	409.94
252.63	413.94
252.863	387.94
253.096	363.94
253.329	393.94
253.562	406.94
253.795	418.94
254.028	400.94
254.261	424.94
254.494	422.94
254.727	413.94
254.96	452.94
255.193	437.94
255.426	453.94
255.659	423.94
255.892	450.94
256.124	450.94
256.357	445.94
256.59	462.94
256.823	482.94
257.056	456.94
257.289	452.94
257.521	464.94
257.754	454.94
257.987	475.94
258.22	481.94
258.452	494.94
258.685	490.94
258.918	486.94
259.151	483.94
259.383	506.94
259.616	483.94
259.849	507.94
260.081	495.94
260.314	504.94
260.547	519.94
260.779	513.94
261.012	530.94
261.244	535.94
261.477	536.94
261.71	512.94
261.942	531.94
262.175	534.94
262.407	543.94
262.64	537.94
262.872	546.94
263.105	546.94
263.337	538.94
263.57	531.94
263.802	547.94
264.035	559.94
264.267	560.94
264.499	562.94
264.732	570.94
264.964	568.94
265.197	579.94
265.429	593.94
265.661	585.94
265.894	570.94
266.126	575.94
266.358	574.94
266.591	554.94
266.823	581.94
267.055	599.94
267.287	582.94
267.52	576.94
267.752	573.94
267.984	608.94
268.216	577.94
268.448	585.94
268.681	592.94
268.913	590.94
269.145	605.94
269.377	618.94
269.609	603.94
269.841	586.94
270.073	614.94
270.306	631.94
270.538	614.94
270.77	621.94
271.002	597.94
271.234	631.94
271.466	644.94
271.698	623.94
271.93	620.94
272.162	654.94
272.394	628.94
272.626	633.94
272.858	644.94
273.09	639.94
273.322	666.94
273.553	683.94
273.785	651.94
274.017	655.94
274.249	668.94
274.481	657.94
274.713	662.94
274.945	653.94
275.176	673.94
275.408	666.94
275.64	681.94
275.872	685.94
276.104	686.94
276.335	669.94
276.567	678.94
276.799	675.94
277.031	711.94
277.262	705.94
277.494	723.94
277.726	699.94
277.957	715.94
278.189	706.94
278.421	697.94
278.652	675.94
278.884	713.94
279.115	717.94
279.347	706.94
279.579	715.94
279.81	713.94
280.042	712.94
280.273	720.94
280.505	742.94
280.736	714.94
280.968	734.94
281.199	755.94
281.431	740.94
281.662	732.94
281.894	739.94
282.125	730.94
282.356	731.94
282.588	735.94
282.819	736.94
283.051	736.94
283.282	742.94
283.513	758.94
283.745	726.94
283.976	735.94
284.207	758.94
284.439	768.94
284.67	757.94
284.901	766.94
285.132	778.94
285.364	757.94
285.595	790.94
285.826	779.94
286.057	764.94
286.288	771.94
286.52	753.94
286.751	793.94
286.982	795.94
287.213	771.94
287.444	773.94
287.675	819.94
287.906	776.94
288.138	808.94
288.369	781.94
288.6	815.94
288.831	796.94
289.062	788.94
289.293	802.94
289.524	806.94
289.755	784.94
289.986	811.94
290.217	819.94
290.448	807.94
290.679	796.94
290.91	788.94
291.141	791.94
291.371	791.94
291.602	806.94
291.833	809.94
292.064	821.94
292.295	840.94
292.526	809.94
292.757	807.94
292.987	798.94
293.218	854.94
293.449	835.94
293.68	852.94
293.91	790.94
294.141	808.94
294.372	825.94
294.603	831.94
294.833	821.94
295.064	838.94
295.295	847.94
295.525	826.94
295.756	845.94
295.987	819.94
296.217	844.94
296.448	859.94
296.679	823.94
296.909	846.94
297.14	832.94
297.37	820.94
297.601	874.94
297.831	838.94
298.062	848.94
298.292	867.94
298.523	860.94
298.753	893.94
298.984	838.94
299.214	848.94
299.445	870.94
299.675	872.94
299.905	903.94
300.136	886.94
300.366	928.94
300.597	928.94
300.827	919.94
301.057	899.94
301.288	894.94
301.518	893.94
301.748	891.94
301.979	887.94
302.209	918.94
302.439	912.94
302.669	915.94
302.9	898.94
303.13	916.94
303.36	934.94
303.59	917.94
303.82	930.94
304.051	960.94
304.281	942.94
304.511	926.94
304.741	932.94
304.971	935.94
305.201	956.94
305.431	974.94
305.661	935.94
305.891	956.94
306.121	981.94
306.352	953.94
306.582	934.94
306.812	919.94
307.042	951.94
307.272	927.94
307.502	959.94
307.731	954.94
307.961	934.94
308.191	943.94
308.421	958.94
308.651	952.94
308.881	981.94
309.111	949.94
309.341	951.94
309.571	975.94
309.8	994.94
310.03	976.94
310.26	988.94
310.49	1036.94
310.72	968.94
310.949	990.94
311.179	1017.94
311.409	1008.94
311.639	1006.94
311.868	991.94
312.098	1010.94
312.328	999.94
312.557	1007.94
312.787	1011.94
313.017	1024.94
313.246	1046.94
313.476	1043.94
313.706	1069.94
313.935	1061.94
314.165	1032.94
314.394	1032.94
314.624	1063.94
314.853	1020.94
315.083	1047.94
315.312	1062.94
315.542	1058.94
315.771	1050.94
316.001	1057.94
316.23	1059.94
316.46	1072.94
316.689	1098.94
316.919	1076.94
317.148	1059.94
317.377	1082.94
317.607	1102.94
317.836	1105.94
318.065	1131.94
318.295	1104.94
318.524	1076.94
318.753	1098.94
318.983	1076.94
319.212	1049.94
319.441	1125.94
319.67	1120.94
319.9	1112.94
320.129	1120.94
320.358	1108.94
320.587	1130.94
320.816	1115.94
321.046	1151.94
321.275	1124.94
321.504	1160.94
321.733	1140.94
321.962	1177.94
322.191	1172.94
322.42	1179.94
322.649	1170.94
322.878	1188.94
323.108	1187.94
323.337	1186.94
323.566	1172.94
323.795	1204.94
324.024	1190.94
324.253	1202.94
324.482	1189.94
324.71	1175.94
324.939	1194.94
325.168	1176.94
325.397	1221.94
325.626	1204.94
325.855	1235.94
326.084	1218.94
326.313	1213.94
326.542	1210.94
326.77	1253.94
326.999	1251.94
327.228	1248.94
327.457	1215.94
327.686	1236.94
327.914	1235.94
328.143	1260.94
328.372	1274.94
328.6	1268.94
328.829	1254.94
329.058	1270.94
329.287	1278.94
329.515	1300.94
329.744	1236.94
329.972	1255.94
330.201	1268.94
330.43	1287.94
330.658	1276.94
330.887	1285.94
331.115	1307.94
331.344	1293.94
331.572	1286.94
331.801	1342.94
332.03	1334.94
332.258	1287.94
332.486	1260.94
332.715	1314.94
332.943	1335.94
333.172	1362.94
333.4	1320.94
333.629	1336.94
333.857	1371.94
334.085	1351.94
334.314	1374.94
334.542	1381.94
334.771	1389.94
334.999	1338.94
335.227	1368.94
335.455	1376.94
335.684	1339.94
335.912	1387.94
336.14	1366.94
336.369	1366.94
336.597	1441.94
336.825	1388.94
337.053	1420.94
337.281	1423.94
337.51	1374.94
337.738	1394.94
337.966	1414.94
338.194	1408.94
338.422	1391.94
338.65	1382.94
338.878	1365.94
339.106	1368.94
339.334	1416.94
339.562	1394.94
339.79	1381.94
340.018	1350.94
340.246	1408.94
340.474	1370.94
340.702	1369.94
340.93	1374.94
341.158	1396.94
341.386	1408.94
341.614	1495.94
341.842	1391.94
342.07	1316.94
342.298	1359.94
342.526	1390.94
342.754	1352.94
342.981	1383.94
343.209	1337.94
343.437	1406.94
343.665	1406.94
343.893	1402.94
344.12	1386.94
344.348	1383.94
344.576	1404.94
344.804	1414.94
345.031	1368.94
345.259	1360.94
345.487	1354.94
345.714	1398.94
345.942	1415.94
346.17	1432.94
346.397	1395.94
346.625	1412.94
346.853	1354.94
347.08	1355.94
347.308	1355.94
347.535	1336.94
347.763	1321.94
347.99	1309.94
348.218	1326.94
348.445	1322.94
348.673	1316.94
348.9	1332.94
349.128	1320.94
349.355	1366.94
349.583	1338.94
349.81	1332.94
350.037	1290.94
350.265	1290.94
350.492	1305.94
350.72	1304.94
350.947	1293.94
351.174	1350.94
351.402	1332.94
351.629	1368.94
351.856	1338.94
352.083	1320.94
352.311	1358.94
352.538	1382.94
352.765	1394.94
352.992	1321.94
353.22	1276.94
353.447	1299.94
353.674	1278.94
353.901	1278.94
354.128	1288.94
354.355	1306.94
354.583	1300.94
354.81	1279.94
355.037	1273.94
355.264	1285.94
355.491	1310.94
355.718	1295.94
355.945	1291.94
356.172	1286.94
356.399	1274.94
356.626	1335.94
356.853	1343.94
357.08	1283.94
357.307	1302.94
357.534	1285.94
357.761	1289.94
357.988	1296.94
358.215	1296.94
358.441	1285.94
358.668	1277.94
358.895	1290.94
359.122	1282.94
359.349	1282.94
359.576	1278.94
359.802	1323.94
360.029	1306.94
360.256	1314.94
360.483	1307.94
360.709	1242.94
360.936	1297.94
361.163	1333.94
361.39	1331.94
361.616	1309.94
361.843	1343.94
362.07	1372.94
362.296	1350.94
362.523	1307.94
362.749	1322.94
362.976	1292.94
363.203	1283.94
363.429	1277.94
363.656	1290.94
363.882	1310.94
364.109	1268.94
364.335	1286.94
364.562	1303.94
364.788	1286.94
365.015	1295.94
365.241	1311.94
365.468	1280.94
365.694	1308.94
365.92	1296.94
366.147	1308.94
366.373	1296.94
366.599	1318.94
366.826	1314.94
367.052	1313.94
367.278	1307.94
367.505	1271.94
367.731	1305.94
367.957	1308.94
368.184	1304.94
368.41	1348.94
368.636	1276.94
368.862	1316.94
369.089	1302.94
369.315	1316.94
369.541	1369.94
369.767	1314.94
369.993	1332.94
370.219	1289.94
370.445	1307.94
370.672	1349.94
370.898	1306.94
371.124	1353.94
371.35	1326.94
371.576	1315.94
371.802	1346.94
372.028	1375.94
372.254	1354.94
372.48	1346.94
372.706	1302.94
372.932	1325.94
373.158	1338.94
373.384	1334.94
373.61	1345.94
373.835	1346.94
374.061	1332.94
374.287	1341.94
374.513	1313.94
374.739	1336.94
374.965	1336.94
375.191	1399.94
375.416	1339.94
375.642	1330.94
375.868	1329.94
376.094	1323.94
376.319	1298.94
376.545	1314.94
376.771	1277.94
376.997	1317.94
377.222	1306.94
377.448	1304.94
377.674	1338.94
377.899	1322.94
378.125	1308.94
378.35	1283.94
378.576	1314.94
378.802	1273.94
379.027	1305.94
379.253	1316.94
379.478	1264.94
379.704	1293.94
379.929	1305.94
380.155	1312.94
380.38	1294.94
380.606	1278.94
380.831	1299.94
381.057	1261.94
381.282	1282.94
381.507	1295.94
381.733	1311.94
381.958	1333.94
382.184	1319.94
382.409	1296.94
382.634	1300.94
382.86	1300.94
383.085	1327.94
383.31	1308.94
383.535	1335.94
383.761	1323.94
383.986	1347.94
384.211	1315.94
384.436	1346.94
384.662	1368.94
384.887	1345.94
385.112	1354.94
385.337	1345.94
385.562	1362.94
385.787	1349.94
386.013	1372.94
386.238	1387.94
386.463	1366.94
386.688	1355.94
386.913	1345.94
387.138	1377.94
387.363	1380.94
387.588	1404.94
387.813	1374.94
388.038	1363.94
388.263	1366.94
388.488	1383.94
388.713	1410.94
388.938	1378.94
389.163	1405.94
389.387	1392.94
389.612	1346.94
389.837	1360.94
390.062	1392.94
390.287	1394.94
390.512	1378.94
390.736	1388.94
390.961	1410.94
391.186	1408.94
391.411	1414.94
391.636	1408.94
391.86	1406.94
392.085	1398.94
392.31	1405.94
392.534	1383.94
392.759	1404.94
392.984	1378.94
393.208	1381.94
393.433	1359.94
393.658	1378.94
393.882	1409.94
394.107	1386.94
394.331	1416.94
394.556	1389.94
394.78	1389.94
395.005	1411.94
395.229	1406.94
395.454	1396.94
395.678	1428.94
395.903	1408.94
396.127	1399.94
396.352	1407.94
396.576	1440.94
396.801	1404.94
397.025	1428.94
397.249	1382.94
397.474	1436.94
397.698	1479.94
397.922	1439.94
398.147	1462.94
398.371	1476.94
398.595	1478.94
398.82	1485.94
399.044	1520.94
399.268	1535.94
399.492	1558.94
399.717	1509.94
399.941	1543.94
400.165	1523.94
400.389	1564.94
400.613	1558.94
400.837	1540.94
401.062	1534.94
401.286	1499.94
401.51	1461.94
401.734	1505.94
401.958	1507.94
402.182	1485.94
402.406	1506.94
402.63	1472.94
402.854	1502.94
403.078	1511.94
403.302	1496.94
403.526	1507.94
403.75	1486.94
403.974	1526.94
404.198	1516.94
404.422	1487.94
404.645	1517.94
404.869	1473.94
405.093	1502.94
405.317	1535.94
405.541	1540.94
405.765	1477.94
405.988	1535.94
406.212	1557.94
406.436	1565.94
406.66	1576.94
406.883	1556.94
407.107	1631.94
407.331	1598.94
407.555	1602.94
407.778	1620.94
408.002	1579.94
408.226	1594.94
408.449	1624.94
408.673	1591.94
408.896	1588.94
409.12	1614.94
409.344	1601.94
409.567	1548.94
409.791	1585.94
410.014	1574.94
410.238	1552.94
410.461	1571.94
410.685	1573.94
410.908	1538.94
411.132	1554.94
411.355	1531.94
411.578	1523.94
411.802	1520.94
412.025	1547.94
412.249	1561.94
412.472	1526.94
412.695	1525.94
412.919	1510.94
413.142	1501.94
413.365	1478.94
413.589	1524.94
413.812	1493.94
414.035	1534.94
414.258	1526.94
414.482	1483.94
414.705	1532.94
414.928	1498.94
415.151	1468.94
415.374	1524.94
415.597	1447.94
415.821	1440.94
416.044	1475.94
416.267	1461.94
416.49	1474.94
416.713	1486.94
416.936	1471.94
417.159	1482.94
417.382	1480.94
417.605	1461.94
417.828	1471.94
418.051	1460.94
418.274	1439.94
418.497	1403.94
418.72	1464.94
418.943	1423.94
419.166	1445.94
419.389	1582.94
419.611	1549.94
419.834	1502.94
420.057	1491.94
420.28	1454.94
420.503	1413.94
420.726	1424.94
420.948	1409.94
421.171	1407.94
421.394	1456.94
421.617	1423.94
421.839	1448.94
422.062	1450.94
422.285	1437.94
422.507	1449.94
422.73	1467.94
422.953	1458.94
423.175	1448.94
423.398	1461.94
423.621	1407.94
423.843	1408.94
424.066	1411.94
424.288	1428.94
424.511	1445.94
424.733	1482.94
424.956	1426.94
425.178	1416.94
425.401	1454.94
425.623	1445.94
425.846	1440.94
426.068	1452.94
426.291	1434.94
426.513	1450.94
426.735	1445.94
426.958	1419.94
427.18	1416.94
427.402	1462.94
427.625	1451.94
427.847	1414.94
428.069	1427.94
428.292	1424.94
428.514	1413.94
428.736	1433.94
428.958	1410.94
429.181	1434.94
429.403	1416.94
429.625	1421.94
429.847	1438.94
430.069	1443.94
430.292	1413.94
430.514	1432.94
430.736	1455.94
430.958	1462.94
431.18	1430.94
431.402	1469.94
431.624	1391.94
431.846	1420.94
432.068	1401.94
432.29	1431.94
432.512	1440.94
432.734	1426.94
432.956	1476.94
433.178	1472.94
433.4	1482.94
433.622	1461.94
433.844	1492.94
434.066	1471.94
434.287	1419.94
434.509	1445.94
434.731	1447.94
434.953	1438.94
435.175	1498.94
435.397	1500.94
435.618	1472.94
435.84	1443.94
436.062	1436.94
436.284	1414.94
436.505	1419.94
436.727	1435.94
436.949	1430.94
437.17	1432.94
437.392	1435.94
437.614	1428.94
437.835	1361.94
438.057	1410.94
438.278	1348.94
438.5	1412.94
438.721	1395.94
438.943	1420.94
439.165	1382.94
439.386	1397.94
439.608	1414.94
439.829	1435.94
440.05	1430.94
440.272	1429.94
440.493	1442.94
440.715	1426.94
440.936	1437.94
441.158	1443.94
441.379	1447.94
441.6	1448.94
441.822	1455.94
442.043	1513.94
442.264	1454.94
442.486	1418.94
442.707	1429.94
442.928	1451.94
443.149	1436.94
443.371	1477.94
443.592	1505.94
443.813	1476.94
444.034	1427.94
444.255	1455.94
444.476	1445.94
444.698	1485.94
444.919	1463.94
445.14	1587.94
445.361	1535.94
445.582	1481.94
445.803	1416.94
446.024	1420.94
446.245	1431.94
446.466	1418.94
446.687	1377.94
446.908	1421.94
447.129	1362.94
447.35	1340.94
447.571	1385.94
447.792	1363.94
448.013	1363.94
448.234	1357.94
448.455	1338.94
448.675	1356.94
448.896	1299.94
449.117	1337.94
449.338	1318.94
449.559	1321.94
449.779	1304.94
450	1314.94
450.221	1327.94
450.442	1314.94
450.662	1333.94
450.883	1341.94
451.104	1323.94
451.324	1356.94
451.545	1286.94
451.766	1338.94
451.986	1283.94
452.207	1310.94
452.428	1296.94
452.648	1271.94
452.869	1295.94
453.089	1267.94
453.31	1311.94
453.53	1325.94
453.751	1310.94
453.971	1292.94
454.192	1301.94
454.412	1294.94
454.633	1290.94
454.853	1303.94
455.073	1255.94
455.294	1316.94
455.514	1296.94
455.734	1334.94
455.955	1324.94
456.175	1325.94
456.395	1282.94
456.616	1254.94
456.836	1272.94
457.056	1300.94
457.276	1276.94
457.497	1294.94
457.717	1318.94
457.937	1282.94
458.157	1291.94
458.377	1285.94
458.598	1283.94
458.818	1314.94
459.038	1320.94
459.258	1355.94
459.478	1378.94
459.698	1478.94
459.918	1470.94
460.138	1411.94
460.358	1444.94
460.578	1413.94
460.798	1451.94
461.018	1494.94
461.238	1412.94
461.458	1397.94
461.678	1416.94
461.898	1424.94
462.118	1412.94
462.338	1420.94
462.558	1459.94
462.777	1466.94
462.997	1497.94
463.217	1507.94
463.437	1535.94
463.657	1540.94
463.876	1493.94
464.096	1524.94
464.316	1476.94
464.536	1526.94
464.755	1462.94
464.975	1440.94
465.195	1438.94
465.414	1419.94
465.634	1439.94
465.854	1382.94
466.073	1380.94
466.293	1388.94
466.512	1346.94
466.732	1352.94
466.951	1374.94
467.171	1371.94
467.391	1395.94
467.61	1379.94
467.829	1364.94
468.049	1371.94
468.268	1355.94
468.488	1369.94
468.707	1409.94
468.927	1408.94
469.146	1388.94
469.365	1404.94
469.585	1383.94
469.804	1361.94
470.023	1370.94
470.243	1368.94
470.462	1382.94
470.681	1358.94
470.901	1395.94
471.12	1391.94
471.339	1394.94
471.558	1380.94
471.777	1404.94
471.997	1399.94
472.216	1378.94
472.435	1372.94
472.654	1406.94
472.873	1385.94
473.092	1406.94
473.311	1366.94
473.53	1426.94
473.749	1402.94
473.968	1404.94
474.187	1424.94
474.406	1394.94
474.625	1452.94
474.844	1471.94
475.063	1430.94
475.282	1460.94
475.501	1443.94
475.72	1476.94
475.939	1481.94
476.158	1480.94
476.377	1513.94
476.596	1486.94
476.814	1523.94
477.033	1564.94
477.252	1516.94
477.471	1521.94
477.69	1562.94
477.908	1552.94
478.127	1540.94
478.346	1536.94
478.564	1611.94
478.783	1576.94
479.002	1672.94
479.22	1699.94
479.439	1667.94
479.658	1624.94
479.876	1620.94
480.095	1626.94
480.313	1627.94
480.532	1617.94
480.751	1650.94
480.969	1620.94
481.188	1682.94
481.406	1642.94
481.624	1643.94
481.843	1636.94
482.061	1647.94
482.28	1690.94
482.498	1692.94
482.717	1688.94
482.935	1682.94
483.153	1762.94
483.372	1744.94
483.59	1808.94
483.808	1734.94
484.027	1710.94
484.245	1725.94
484.463	1709.94
484.681	1772.94
484.9	1739.94
485.118	1752.94
485.336	1760.94
485.554	1733.94
485.772	1730.94
485.99	1750.94
486.209	1731.94
486.427	1744.94
486.645	1768.94
486.863	1751.94
487.081	1764.94
487.299	1762.94
487.517	1758.94
487.735	1788.94
487.953	1810.94
488.171	1833.94
488.389	1782.94
488.607	1808.94
488.825	1788.94
489.043	1756.94
489.261	1770.94
489.479	1779.94
489.696	1768.94
489.914	1756.94
490.132	1769.94
490.35	1740.94
490.568	1777.94
490.786	1813.94
491.003	1816.94
491.221	1792.94
491.439	1853.94
491.657	1786.94
491.874	1792.94
492.092	1837.94
492.31	1826.94
492.527	1851.94
492.745	1805.94
492.963	1811.94
493.18	1791.94
493.398	1828.94
493.615	1791.94
493.833	1808.94
494.05	1818.94
494.268	1820.94
494.485	1783.94
494.703	1784.94
494.92	1869.94
495.138	1807.94
495.355	1797.94
495.573	1828.94
495.79	1807.94
496.008	1841.94
496.225	1835.94
496.442	1861.94
496.66	1868.94
496.877	1867.94
497.094	1851.94
497.312	1851.94
497.529	1876.94
497.746	1898.94
497.963	1932.94
498.181	1940.94
498.398	1917.94
498.615	2002.94
498.832	2004.94
499.049	1988.94
499.267	1991.94
499.484	2057.94
499.701	2138.94
499.918	2092.94
500.135	2197.94
500.352	2226.94
500.569	2184.94
500.786	2154.94
501.003	2162.94
501.22	2194.94
501.437	2155.94
501.654	2078.94
501.871	2083.94
502.088	2064.94
502.305	2016.94
502.522	2039.94
502.739	1952.94
502.956	1928.94
503.172	1902.94
503.389	1885.94
503.606	1854.94
503.823	1838.94
504.04	1809.94
504.256	1802.94
504.473	1780.94
504.69	1773.94
504.907	1743.94
505.123	1749.94
505.34	1715.94
505.557	1754.94
505.773	1688.94
505.99	1694.94
506.207	1644.94
506.423	1641.94
506.64	1646.94
506.856	1604.94
507.073	1583.94
507.289	1582.94
507.506	1602.94
507.722	1569.94
507.939	1561.94
508.155	1646.94
508.372	1530.94
508.588	1562.94
508.805	1551.94
509.021	1532.94
509.238	1542.94
509.454	1534.94
509.67	1493.94
509.887	1517.94
510.103	1482.94
510.319	1476.94
510.536	1442.94
510.752	1474.94
510.968	1475.94
511.184	1469.94
511.401	1484.94
511.617	1438.94
511.833	1495.94
512.049	1451.94
512.265	1482.94
512.481	1443.94
512.698	1442.94
512.914	1480.94
513.13	1464.94
513.346	1476.94
513.562	1495.94
513.778	1416.94
513.994	1463.94
514.21	1443.94
514.426	1465.94
514.642	1449.94
514.858	1448.94
515.074	1460.94
515.29	1459.94
515.506	1464.94
515.721	1522.94
515.937	1441.94
516.153	1496.94
516.369	1497.94
516.585	1475.94
516.801	1478.94
517.016	1511.94
517.232	1435.94
517.448	1474.94
517.664	1469.94
517.879	1429.94
518.095	1480.94
518.311	1495.94
518.527	1487.94
518.742	1474.94
518.958	1440.94
519.173	1458.94
519.389	1441.94
519.605	1428.94
519.82	1425.94
520.036	1434.94
520.251	1367.94
520.467	1350.94
520.682	1410.94
520.898	1403.94
521.113	1364.94
521.329	1368.94
521.544	1403.94
521.76	1372.94
521.975	1345.94
522.19	1384.94
522.406	1401.94
522.621	1364.94
522.836	1372.94
523.052	1380.94
523.267	1352.94
523.482	1330.94
523.698	1312.94
523.913	1340.94
524.128	1326.94
524.343	1358.94
524.559	1319.94
524.774	1352.94
524.989	1326.94
525.204	1336.94
525.419	1334.94
525.634	1307.94
525.849	1306.94
526.064	1338.94
526.28	1310.94
526.495	1307.94
526.71	1304.94
526.925	1251.94
527.14	1276.94
527.355	1292.94
527.57	1269.94
527.785	1282.94
527.999	1239.94
528.214	1292.94
528.429	1290.94
528.644	1300.94
528.859	1282.94
529.074	1298.94
529.289	1281.94
529.503	1275.94
529.718	1275.94
529.933	1257.94
530.148	1238.94
530.363	1250.94
530.577	1259.94
530.792	1223.94
531.007	1203.94
531.221	1246.94
531.436	1257.94
531.651	1234.94
531.865	1199.94
532.08	1239.94
532.295	1261.94
532.509	1212.94
532.724	1220.94
532.938	1236.94
533.153	1248.94
533.367	1225.94
533.582	1228.94
533.796	1203.94
534.011	1215.94
534.225	1177.94
534.44	1198.94
534.654	1205.94
534.868	1226.94
535.083	1198.94
535.297	1211.94
535.511	1214.94
535.726	1190.94
535.94	1204.94
536.154	1206.94
536.369	1182.94
536.583	1162.94
536.797	1146.94
537.011	1136.94
537.225	1151.94
537.44	1197.94
537.654	1134.94
537.868	1166.94
538.082	1140.94
538.296	1117.94
538.51	1133.94
538.724	1179.94
538.938	1149.94
539.153	1150.94
539.367	1149.94
539.581	1149.94
539.795	1092.94
540.009	1129.94
540.222	1130.94
540.436	1151.94
540.65	1140.94
540.864	1174.94
541.078	1160.94
541.292	1142.94
541.506	1169.94
541.72	1152.94
541.934	1149.94
542.147	1164.94
542.361	1150.94
542.575	1140.94
542.789	1119.94
543.002	1121.94
543.216	1104.94
543.43	1084.94
543.644	1097.94
543.857	1123.94
544.071	1104.94
544.285	1123.94
544.498	1122.94
544.712	1097.94
544.925	1119.94
545.139	1110.94
545.352	1108.94
545.566	1100.94
545.779	1140.94
545.993	1117.94
546.206	1110.94
546.42	1116.94
546.633	1091.94
546.847	1119.94
547.06	1095.94
547.274	1116.94
547.487	1083.94
547.7	1113.94
547.914	1099.94
548.127	1090.94
548.34	1082.94
548.554	1068.94
548.767	1078.94
548.98	1080.94
549.193	1068.94
549.407	1070.94
549.62	1052.94
549.833	1090.94
550.046	1054.94
550.259	1074.94
550.473	1060.94
550.686	1068.94
550.899	1106.94
551.112	1086.94
551.325	1070.94
551.538	1072.94
551.751	1082.94
551.964	1064.94
552.177	1055.94
552.39	1063.94
552.603	1075.94
552.816	1048.94
553.029	1063.94
553.242	1048.94
553.455	1066.94
553.667	1058.94
553.88	1077.94
554.093	1028.94
554.306	1003.94
554.519	1026.94
554.732	1005.94
554.944	1026.94
555.157	999.94
555.37	1015.94
555.583	992.94
555.795	973.94
556.008	958.94
556.221	951.94
556.433	987.94
556.646	965.94
556.859	981.94
557.071	943.94
557.284	977.94
557.496	964.94
557.709	956.94
557.921	943.94
558.134	953.94
558.346	956.94
558.559	963.94
558.771	932.94
558.984	948.94
559.196	901.94
559.409	930.94
559.621	918.94
559.833	921.94
560.046	918.94
560.258	897.94
560.47	916.94
560.683	903.94
560.895	900.94
561.107	902.94
561.32	919.94
561.532	883.94
561.744	906.94
561.956	894.94
562.168	904.94
562.381	902.94
562.593	882.94
562.805	893.94
563.017	896.94
563.229	927.94
563.441	920.94
563.653	932.94
563.865	913.94
564.077	892.94
564.289	890.94
564.501	923.94
564.713	879.94
564.925	893.94
565.137	916.94
565.349	888.94
565.561	914.94
565.773	911.94
565.985	921.94
566.197	910.94
566.408	929.94
566.62	920.94
566.832	954.94
567.044	945.94
567.255	922.94
567.467	922.94
567.679	911.94
567.891	970.94
568.102	924.94
568.314	887.94
568.526	929.94
568.737	900.94
568.949	892.94
569.161	856.94
569.372	840.94
569.584	819.94
569.795	852.94
570.007	843.94
570.218	802.94
570.43	812.94
570.641	822.94
570.853	800.94
571.064	783.94
571.276	813.94
571.487	775.94
571.698	780.94
571.91	772.94
572.121	771.94
572.333	748.94
572.544	739.94
572.755	756.94
572.966	740.94
573.178	732.94
573.389	728.94
573.6	736.94
573.811	708.94
574.023	730.94
574.234	720.94
574.445	708.94
574.656	693.94
574.867	692.94
575.078	682.94
575.289	710.94
575.501	717.94
575.712	708.94
575.923	684.94
576.134	701.94
576.345	672.94
576.556	706.94
576.767	678.94
576.978	705.94
577.188	698.94
577.399	681.94
577.61	668.94
577.821	659.94
578.032	663.94
578.243	654.94
578.454	670.94
578.665	671.94
578.875	663.94
579.086	667.94
579.297	644.94
579.508	619.94
579.718	642.94
579.929	634.94
580.14	639.94
580.35	626.94
580.561	634.94
580.772	638.94
580.982	621.94
581.193	603.94
581.403	630.94
581.614	640.94
581.825	645.94
582.035	615.94
582.246	594.94
582.456	624.94
582.667	593.94
582.877	603.94
583.087	616.94
583.298	594.94
583.508	614.94
583.719	593.94
583.929	626.94
584.139	597.94
584.35	583.94
584.56	566.94
584.77	601.94
584.981	582.94
585.191	604.94
585.401	582.94
585.611	595.94
585.821	579.94
586.032	587.94
586.242	576.94
586.452	570.94
586.662	583.94
586.872	584.94
587.082	573.94
587.292	560.94
587.502	568.94
587.713	579.94
587.923	585.94
588.133	572.94
588.343	567.94
588.553	575.94
588.762	599.94
588.972	601.94
589.182	651.94
589.392	613.94
589.602	584.94
589.812	639.94
590.022	589.94
590.232	570.94
590.441	575.94
590.651	551.94
590.861	552.94
591.071	548.94
591.281	560.94
591.49	571.94
591.7	540.94
591.91	558.94
592.119	552.94
592.329	559.94
592.539	570.94
592.748	576.94
592.958	556.94
593.167	530.94
593.377	536.94
593.587	553.94
593.796	535.94
594.006	564.94
594.215	551.94
594.424	536.94
594.634	541.94
594.843	533.94
595.053	526.94
595.262	536.94
595.472	527.94
595.681	505.94
595.89	519.94
596.1	524.94
596.309	540.94
596.518	515.94
596.727	528.94
596.937	514.94
597.146	521.94
597.355	518.94
597.564	511.94
597.774	517.94
597.983	499.94
598.192	489.94
598.401	485.94
598.61	480.94
598.819	479.94
599.028	455.94
599.237	482.94
599.446	475.94
599.655	460.94
599.864	461.94
600.073	452.94
600.282	464.94
600.491	472.94
600.7	476.94
600.909	469.94
601.118	478.94
601.327	467.94
601.536	442.94
601.745	442.94
601.953	462.94
602.162	454.94
602.371	451.94
602.58	464.94
602.789	451.94
602.997	463.94
603.206	460.94
603.415	449.94
603.623	431.94
603.832	448.94
604.041	440.94
604.249	456.94
604.458	456.94
604.666	441.94
604.875	452.94
605.084	446.94
605.292	442.94
605.501	423.94
605.709	454.94
605.918	418.94
606.126	430.94
606.334	434.94
606.543	442.94
606.751	450.94
606.96	458.94
607.168	419.94
607.376	431.94
607.585	434.94
607.793	426.94
608.001	425.94
608.21	442.94
608.418	431.94
608.626	430.94
608.834	422.94
609.043	399.94
609.251	415.94
609.459	414.94
609.667	423.94
609.875	431.94
610.083	414.94
610.291	445.94
610.499	418.94
610.707	410.94
610.916	420.94
611.124	408.94
611.332	397.94
611.54	423.94
611.748	410.94
611.955	411.94
612.163	410.94
612.371	407.94
612.579	396.94
612.787	391.94
612.995	408.94
613.203	413.94
613.411	393.94
613.618	399.94
613.826	412.94
614.034	400.94
614.242	397.94
614.449	408.94
614.657	396.94
614.865	398.94
615.072	402.94
615.28	426.94
615.488	387.94
615.695	398.94
615.903	396.94
616.111	397.94
616.318	399.94
616.526	393.94
616.733	402.94
616.941	386.94
617.148	387.94
617.356	397.94
617.563	386.94
617.771	384.94
617.978	383.94
618.185	377.94
618.393	387.94
618.6	394.94
618.807	388.94
619.015	389.94
619.222	366.94
619.429	391.94
619.637	377.94
619.844	365.94
620.051	388.94
620.258	354.94
620.466	366.94
620.673	360.94
620.88	361.94
621.087	370.94
621.294	357.94
621.501	376.94
621.708	374.94
621.915	362.94
622.122	354.94
622.329	365.94
622.536	377.94
622.743	352.94
622.95	363.94
623.157	354.94
623.364	370.94
623.571	359.94
623.778	349.94
623.985	375.94
624.192	340.94
624.399	342.94
624.606	343.94
624.812	358.94
625.019	342.94
625.226	360.94
625.433	350.94
625.639	348.94
625.846	344.94
626.053	328.94
626.259	342.94
626.466	327.94
626.673	332.94
626.879	324.94
627.086	342.94
627.293	331.94
627.499	336.94
627.706	356.94
627.912	348.94
628.119	353.94
628.325	338.94
628.532	315.94
628.738	313.94
628.945	330.94
629.151	321.94
629.357	322.94
629.564	333.94
629.77	329.94
629.976	320.94
630.183	307.94
630.389	317.94
630.595	319.94
630.802	296.94
631.008	315.94
631.214	292.94
631.42	318.94
631.627	319.94
631.833	307.94
632.039	318.94
632.245	290.94
632.451	310.94
632.657	318.94
632.863	297.94
633.069	299.94
633.275	310.94
633.481	288.94
633.688	296.94
633.893	307.94
634.099	298.94
634.305	289.94
634.511	319.94
634.717	298.94
634.923	282.94
635.129	312.94
635.335	298.94
635.541	298.94
635.747	299.94
635.952	306.94
636.158	290.94
636.364	296.94
636.57	298.94
636.775	314.94
636.981	291.94
637.187	278.94
637.392	257.94
637.598	291.94
637.804	288.94
638.009	296.94
638.215	284.94
638.421	297.94
638.626	298.94
638.832	275.94
639.037	282.94
639.243	257.94
639.448	272.94
639.654	293.94
639.859	286.94
640.065	272.94
640.27	299.94
640.475	287.94
640.681	281.94
640.886	276.94
641.091	271.94
641.297	282.94
641.502	274.94
641.707	283.94
641.913	290.94
642.118	282.94
642.323	284.94
642.528	287.94
642.733	284.94
642.939	290.94
643.144	267.94
643.349	291.94
643.554	301.94
643.759	278.94
643.964	258.94
644.169	275.94
644.374	265.94
644.579	270.94
644.784	267.94
644.989	280.94
645.194	290.94
645.399	280.94
645.604	270.94
645.809	262.94
646.014	268.94
646.219	280.94
646.423	282.94
646.628	270.94
646.833	289.94
647.038	280.94
647.243	286.94
647.447	275.94
647.652	278.94
647.857	284.94
648.062	276.94
648.266	291.94
648.471	275.94
648.676	295.94
648.88	277.94
649.085	302.94
649.289	295.94
649.494	279.94
649.698	293.94
649.903	274.94
650.107	284.94
650.312	294.94
650.516	307.94
650.721	275.94
650.925	275.94
651.13	280.94
651.334	279.94
651.539	269.94
651.743	286.94
651.947	280.94
652.152	284.94
652.356	274.94
652.56	275.94
652.764	264.94
652.969	292.94
653.173	264.94
653.377	267.94
653.581	270.94
653.785	272.94
653.99	269.94
654.194	278.94
654.398	260.94
654.602	257.94
654.806	267.94
655.01	259.94
655.214	277.94
655.418	258.94
655.622	277.94
655.826	272.94
656.03	282.94
656.234	291.94
656.438	293.94
656.642	307.94
656.846	271.94
657.049	264.94
657.253	248.94
657.457	234.94
657.661	229.94
657.865	204.94
658.068	205.94
658.272	195.94
658.476	175.94
658.68	187.94
658.883	178.94
659.087	182.94
659.291	168.94
659.494	156.94
659.698	144.94
659.901	139.94
660.105	136.94
660.309	144.94
660.512	125.94
660.716	142.94
660.919	107.94
661.123	123.94
661.326	114.94
661.53	117.94
661.733	111.94
661.936	119.94
662.14	110.94
662.343	103.94
662.546	102.94
662.75	93.94
662.953	101.94
663.156	102.94
663.36	79.94
663.563	90.94
663.766	89.94
663.969	94.94
664.173	90.94
664.376	94.94
664.579	96.94
664.782	103.94
664.985	85.94
665.188	98.94
665.391	91.94
665.594	75.94
665.797	86.94
666	84.94
666.203	92.94
666.406	69.94
666.609	80.94
666.812	84.94
667.015	79.94
667.218	78.94
667.421	86.94
667.624	81.94
667.827	92.94
668.03	79.94
668.232	73.94
668.435	79.94
668.638	94.94
668.841	87.94
669.043	76.94
669.246	92.94
669.449	89.94
669.651	78.94
669.854	71.94
670.057	77.94
670.259	90.94
670.462	70.94
670.665	88.94
670.867	80.94
671.07	88.94
671.272	82.94
671.475	84.94
671.677	81.94
671.88	79.94
672.082	85.94
672.284	75.94
672.487	89.94
672.689	88.94
672.892	87.94
