Data from Ni(NO3)2@0.25M.TitratingCurve.Agarose3%dH2O.NegLispCup.LampEnergy10.LIBS07252019_HRD10591_18-05-29-566.txt Node
Date: Thu Jul 25 18:05:29 EDT 2019
User: cochatt
Spectrometer: HR+D1059
Trigger mode: 1
Integration Time (sec): 1.000000E-1
Scans to average: 1
Electric dark correction enabled: true
Nonlinearity correction enabled: false
Boxcar width: 0
XAxis mode: Wavelengths
Number of Pixels in Spectrum: 2048
>>>>>Begin Spectral Data<<<<<
223.165	-14.75
223.4	-14.75
223.635	-14.75
223.869	-17.75
224.104	-22.75
224.338	-2.75
224.573	-3.75
224.808	-5.75
225.042	-29.75
225.277	-14.75
225.511	-12.75
225.746	4.25
225.98	6.25
226.215	21.25
226.449	11.25
226.683	18.25
226.918	25.25
227.152	38.25
227.387	27.25
227.621	33.25
227.856	38.25
228.09	49.25
228.324	38.25
228.559	43.25
228.793	73.25
229.027	83.25
229.262	106.25
229.496	101.25
229.73	108.25
229.964	105.25
230.199	113.25
230.433	123.25
230.667	122.25
230.901	127.25
231.136	125.25
231.37	109.25
231.604	120.25
231.838	122.25
232.072	126.25
232.306	111.25
232.541	137.25
232.775	133.25
233.009	123.25
233.243	130.25
233.477	122.25
233.711	139.25
233.945	121.25
234.179	131.25
234.413	124.25
234.647	121.25
234.881	141.25
235.115	138.25
235.349	133.25
235.583	115.25
235.817	128.25
236.051	135.25
236.285	137.25
236.519	139.25
236.753	118.25
236.987	142.25
237.221	138.25
237.455	133.25
237.689	134.25
237.922	136.25
238.156	149.25
238.39	135.25
238.624	126.25
238.858	130.25
239.091	142.25
239.325	146.25
239.559	152.25
239.793	144.25
240.027	148.25
240.26	139.25
240.494	155.25
240.728	156.25
240.961	139.25
241.195	153.25
241.429	148.25
241.662	148.25
241.896	150.25
242.13	147.25
242.363	149.25
242.597	153.25
242.83	169.25
243.064	152.25
243.298	163.25
243.531	155.25
243.765	163.25
243.998	169.25
244.232	169.25
244.465	170.25
244.699	170.25
244.932	165.25
245.166	179.25
245.399	170.25
245.633	168.25
245.866	162.25
246.099	181.25
246.333	187.25
246.566	173.25
246.8	171.25
247.033	183.25
247.266	175.25
247.5	196.25
247.733	192.25
247.966	178.25
248.2	188.25
248.433	193.25
248.666	191.25
248.899	199.25
249.133	180.25
249.366	182.25
249.599	210.25
249.832	203.25
250.066	202.25
250.299	185.25
250.532	204.25
250.765	199.25
250.998	190.25
251.231	195.25
251.465	206.25
251.698	196.25
251.931	204.25
252.164	195.25
252.397	228.25
252.63	213.25
252.863	228.25
253.096	226.25
253.329	225.25
253.562	232.25
253.795	212.25
254.028	218.25
254.261	222.25
254.494	236.25
254.727	227.25
254.96	211.25
255.193	214.25
255.426	232.25
255.659	211.25
255.892	238.25
256.124	236.25
256.357	229.25
256.59	226.25
256.823	237.25
257.056	253.25
257.289	244.25
257.521	247.25
257.754	254.25
257.987	255.25
258.22	242.25
258.452	234.25
258.685	246.25
258.918	233.25
259.151	248.25
259.383	250.25
259.616	260.25
259.849	251.25
260.081	249.25
260.314	242.25
260.547	248.25
260.779	258.25
261.012	251.25
261.244	260.25
261.477	265.25
261.71	265.25
261.942	271.25
262.175	258.25
262.407	259.25
262.64	261.25
262.872	256.25
263.105	282.25
263.337	285.25
263.57	286.25
263.802	270.25
264.035	270.25
264.267	281.25
264.499	271.25
264.732	272.25
264.964	300.25
265.197	293.25
265.429	298.25
265.661	283.25
265.894	277.25
266.126	291.25
266.358	288.25
266.591	286.25
266.823	298.25
267.055	282.25
267.287	298.25
267.52	287.25
267.752	303.25
267.984	284.25
268.216	306.25
268.448	293.25
268.681	322.25
268.913	289.25
269.145	309.25
269.377	320.25
269.609	292.25
269.841	289.25
270.073	300.25
270.306	312.25
270.538	290.25
270.77	309.25
271.002	314.25
271.234	303.25
271.466	313.25
271.698	300.25
271.93	301.25
272.162	306.25
272.394	321.25
272.626	328.25
272.858	332.25
273.09	324.25
273.322	325.25
273.553	330.25
273.785	302.25
274.017	314.25
274.249	309.25
274.481	315.25
274.713	310.25
274.945	320.25
275.176	321.25
275.408	343.25
275.64	338.25
275.872	340.25
276.104	345.25
276.335	341.25
276.567	335.25
276.799	333.25
277.031	330.25
277.262	355.25
277.494	347.25
277.726	339.25
277.957	338.25
278.189	349.25
278.421	332.25
278.652	335.25
278.884	352.25
279.115	337.25
279.347	346.25
279.579	343.25
279.81	351.25
280.042	347.25
280.273	355.25
280.505	359.25
280.736	362.25
280.968	364.25
281.199	352.25
281.431	354.25
281.662	346.25
281.894	369.25
282.125	370.25
282.356	355.25
282.588	376.25
282.819	371.25
283.051	361.25
283.282	369.25
283.513	372.25
283.745	355.25
283.976	375.25
284.207	379.25
284.439	389.25
284.67	380.25
284.901	377.25
285.132	353.25
285.364	374.25
285.595	387.25
285.826	369.25
286.057	387.25
286.288	392.25
286.52	389.25
286.751	384.25
286.982	389.25
287.213	392.25
287.444	380.25
287.675	395.25
287.906	415.25
288.138	399.25
288.369	387.25
288.6	402.25
288.831	397.25
289.062	391.25
289.293	393.25
289.524	409.25
289.755	385.25
289.986	384.25
290.217	425.25
290.448	416.25
290.679	374.25
290.91	396.25
291.141	406.25
291.371	403.25
291.602	402.25
291.833	382.25
292.064	403.25
292.295	416.25
292.526	404.25
292.757	420.25
292.987	390.25
293.218	384.25
293.449	407.25
293.68	391.25
293.91	420.25
294.141	405.25
294.372	387.25
294.603	403.25
294.833	400.25
295.064	408.25
295.295	422.25
295.525	412.25
295.756	410.25
295.987	415.25
296.217	408.25
296.448	407.25
296.679	428.25
296.909	441.25
297.14	413.25
297.37	419.25
297.601	432.25
297.831	424.25
298.062	440.25
298.292	436.25
298.523	439.25
298.753	441.25
298.984	428.25
299.214	424.25
299.445	435.25
299.675	430.25
299.905	421.25
300.136	449.25
300.366	445.25
300.597	459.25
300.827	441.25
301.057	450.25
301.288	447.25
301.518	478.25
301.748	461.25
301.979	465.25
302.209	474.25
302.439	449.25
302.669	462.25
302.9	453.25
303.13	458.25
303.36	462.25
303.59	452.25
303.82	475.25
304.051	479.25
304.281	475.25
304.511	438.25
304.741	461.25
304.971	457.25
305.201	464.25
305.431	463.25
305.661	457.25
305.891	462.25
306.121	448.25
306.352	475.25
306.582	468.25
306.812	447.25
307.042	450.25
307.272	438.25
307.502	473.25
307.731	461.25
307.961	443.25
308.191	431.25
308.421	444.25
308.651	467.25
308.881	453.25
309.111	438.25
309.341	445.25
309.571	469.25
309.8	451.25
310.03	456.25
310.26	467.25
310.49	463.25
310.72	438.25
310.949	444.25
311.179	453.25
311.409	477.25
311.639	439.25
311.868	481.25
312.098	473.25
312.328	460.25
312.557	453.25
312.787	476.25
313.017	469.25
313.246	489.25
313.476	504.25
313.706	479.25
313.935	503.25
314.165	487.25
314.394	497.25
314.624	507.25
314.853	508.25
315.083	480.25
315.312	497.25
315.542	497.25
315.771	488.25
316.001	500.25
316.23	480.25
316.46	485.25
316.689	487.25
316.919	481.25
317.148	490.25
317.377	475.25
317.607	501.25
317.836	504.25
318.065	497.25
318.295	511.25
318.524	500.25
318.753	499.25
318.983	492.25
319.212	489.25
319.441	469.25
319.67	483.25
319.9	487.25
320.129	503.25
320.358	492.25
320.587	476.25
320.816	492.25
321.046	515.25
321.275	501.25
321.504	511.25
321.733	505.25
321.962	530.25
322.191	528.25
322.42	520.25
322.649	528.25
322.878	521.25
323.108	503.25
323.337	527.25
323.566	512.25
323.795	526.25
324.024	528.25
324.253	553.25
324.482	521.25
324.71	524.25
324.939	543.25
325.168	532.25
325.397	555.25
325.626	545.25
325.855	552.25
326.084	554.25
326.313	580.25
326.542	558.25
326.77	594.25
326.999	565.25
327.228	565.25
327.457	572.25
327.686	570.25
327.914	548.25
328.143	557.25
328.372	569.25
328.6	572.25
328.829	565.25
329.058	561.25
329.287	569.25
329.515	589.25
329.744	582.25
329.972	584.25
330.201	590.25
330.43	592.25
330.658	609.25
330.887	606.25
331.115	585.25
331.344	607.25
331.572	630.25
331.801	631.25
332.03	651.25
332.258	654.25
332.486	644.25
332.715	675.25
332.943	694.25
333.172	695.25
333.4	700.25
333.629	710.25
333.857	738.25
334.085	708.25
334.314	741.25
334.542	727.25
334.771	722.25
334.999	733.25
335.227	725.25
335.455	707.25
335.684	698.25
335.912	721.25
336.14	695.25
336.369	716.25
336.597	720.25
336.825	699.25
337.053	718.25
337.281	691.25
337.51	670.25
337.738	674.25
337.966	633.25
338.194	656.25
338.422	649.25
338.65	631.25
338.878	653.25
339.106	652.25
339.334	631.25
339.562	653.25
339.79	599.25
340.018	611.25
340.246	605.25
340.474	590.25
340.702	605.25
340.93	623.25
341.158	627.25
341.386	607.25
341.614	633.25
341.842	636.25
342.07	611.25
342.298	629.25
342.526	594.25
342.754	613.25
342.981	622.25
343.209	636.25
343.437	678.25
343.665	690.25
343.893	727.25
344.12	745.25
344.348	719.25
344.576	703.25
344.804	707.25
345.031	663.25
345.259	645.25
345.487	627.25
345.714	635.25
345.942	605.25
346.17	641.25
346.397	622.25
346.625	600.25
346.853	618.25
347.08	597.25
347.308	597.25
347.535	598.25
347.763	590.25
347.99	594.25
348.218	598.25
348.445	593.25
348.673	594.25
348.9	599.25
349.128	616.25
349.355	607.25
349.583	588.25
349.81	572.25
350.037	589.25
350.265	570.25
350.492	580.25
350.72	569.25
350.947	581.25
351.174	594.25
351.402	593.25
351.629	588.25
351.856	601.25
352.083	584.25
352.311	574.25
352.538	579.25
352.765	589.25
352.992	563.25
353.22	580.25
353.447	586.25
353.674	550.25
353.901	574.25
354.128	579.25
354.355	582.25
354.583	596.25
354.81	558.25
355.037	575.25
355.264	552.25
355.491	569.25
355.718	582.25
355.945	587.25
356.172	562.25
356.399	595.25
356.626	589.25
356.853	585.25
357.08	602.25
357.307	600.25
357.534	583.25
357.761	586.25
357.988	579.25
358.215	563.25
358.441	585.25
358.668	576.25
358.895	585.25
359.122	574.25
359.349	576.25
359.576	595.25
359.802	596.25
360.029	572.25
360.256	552.25
360.483	585.25
360.709	590.25
360.936	592.25
361.163	587.25
361.39	590.25
361.616	617.25
361.843	582.25
362.07	595.25
362.296	609.25
362.523	580.25
362.749	581.25
362.976	581.25
363.203	570.25
363.429	586.25
363.656	565.25
363.882	574.25
364.109	555.25
364.335	569.25
364.562	572.25
364.788	587.25
365.015	572.25
365.241	570.25
365.468	549.25
365.694	556.25
365.92	581.25
366.147	568.25
366.373	565.25
366.599	597.25
366.826	597.25
367.052	565.25
367.278	562.25
367.505	577.25
367.731	577.25
367.957	562.25
368.184	561.25
368.41	588.25
368.636	603.25
368.862	577.25
369.089	583.25
369.315	593.25
369.541	600.25
369.767	596.25
369.993	607.25
370.219	583.25
370.445	591.25
370.672	614.25
370.898	590.25
371.124	619.25
371.35	601.25
371.576	633.25
371.802	631.25
372.028	615.25
372.254	626.25
372.48	638.25
372.706	646.25
372.932	639.25
373.158	599.25
373.384	621.25
373.61	609.25
373.835	630.25
374.061	598.25
374.287	633.25
374.513	649.25
374.739	677.25
374.965	671.25
375.191	676.25
375.416	659.25
375.642	653.25
375.868	647.25
376.094	642.25
376.319	644.25
376.545	616.25
376.771	618.25
376.997	614.25
377.222	614.25
377.448	613.25
377.674	609.25
377.899	599.25
378.125	607.25
378.35	615.25
378.576	604.25
378.802	625.25
379.027	613.25
379.253	601.25
379.478	598.25
379.704	627.25
379.929	602.25
380.155	607.25
380.38	600.25
380.606	617.25
380.831	614.25
381.057	614.25
381.282	614.25
381.507	590.25
381.733	621.25
381.958	606.25
382.184	616.25
382.409	631.25
382.634	633.25
382.86	645.25
383.085	629.25
383.31	650.25
383.535	640.25
383.761	643.25
383.986	695.25
384.211	667.25
384.436	653.25
384.662	674.25
384.887	705.25
385.112	700.25
385.337	731.25
385.562	707.25
385.787	707.25
386.013	741.25
386.238	702.25
386.463	724.25
386.688	743.25
386.913	739.25
387.138	716.25
387.363	733.25
387.588	716.25
387.813	726.25
388.038	745.25
388.263	717.25
388.488	732.25
388.713	736.25
388.938	714.25
389.163	690.25
389.387	708.25
389.612	709.25
389.837	700.25
390.062	701.25
390.287	710.25
390.512	728.25
390.736	719.25
390.961	738.25
391.186	747.25
391.411	743.25
391.636	760.25
391.86	807.25
392.085	798.25
392.31	787.25
392.534	780.25
392.759	791.25
392.984	787.25
393.208	790.25
393.433	762.25
393.658	742.25
393.882	755.25
394.107	747.25
394.331	760.25
394.556	750.25
394.78	805.25
395.005	767.25
395.229	755.25
395.454	792.25
395.678	809.25
395.903	794.25
396.127	779.25
396.352	786.25
396.576	766.25
396.801	789.25
397.025	803.25
397.249	776.25
397.474	821.25
397.698	777.25
397.922	824.25
398.147	827.25
398.371	835.25
398.595	850.25
398.82	891.25
399.044	945.25
399.268	1047.25
399.492	1141.25
399.717	1231.25
399.941	1252.25
400.165	1169.25
400.389	1082.25
400.613	1025.25
400.837	957.25
401.062	937.25
401.286	944.25
401.51	935.25
401.734	915.25
401.958	897.25
402.182	920.25
402.406	932.25
402.63	911.25
402.854	930.25
403.078	933.25
403.302	933.25
403.526	992.25
403.75	980.25
403.974	981.25
404.198	1024.25
404.422	1011.25
404.645	994.25
404.869	971.25
405.093	973.25
405.317	987.25
405.541	983.25
405.765	977.25
405.988	975.25
406.212	1010.25
406.436	989.25
406.66	1016.25
406.883	1036.25
407.107	1046.25
407.331	1094.25
407.555	1158.25
407.778	1164.25
408.002	1107.25
408.226	1080.25
408.449	1073.25
408.673	1054.25
408.896	1052.25
409.12	1041.25
409.344	1048.25
409.567	1040.25
409.791	1035.25
410.014	1027.25
410.238	1011.25
410.461	992.25
410.685	978.25
410.908	992.25
411.132	957.25
411.355	955.25
411.578	983.25
411.802	957.25
412.025	954.25
412.249	982.25
412.472	966.25
412.695	926.25
412.919	906.25
413.142	950.25
413.365	906.25
413.589	952.25
413.812	897.25
414.035	901.25
414.258	917.25
414.482	935.25
414.705	927.25
414.928	939.25
415.151	919.25
415.374	910.25
415.597	902.25
415.821	906.25
416.044	908.25
416.267	906.25
416.49	887.25
416.713	895.25
416.936	903.25
417.159	910.25
417.382	860.25
417.605	877.25
417.828	887.25
418.051	886.25
418.274	934.25
418.497	916.25
418.72	919.25
418.943	918.25
419.166	992.25
419.389	1037.25
419.611	1003.25
419.834	988.25
420.057	933.25
420.28	954.25
420.503	907.25
420.726	915.25
420.948	913.25
421.171	901.25
421.394	899.25
421.617	907.25
421.839	911.25
422.062	947.25
422.285	932.25
422.507	929.25
422.73	920.25
422.953	926.25
423.175	908.25
423.398	955.25
423.621	930.25
423.843	930.25
424.066	930.25
424.288	938.25
424.511	942.25
424.733	924.25
424.956	897.25
425.178	930.25
425.401	924.25
425.623	908.25
425.846	916.25
426.068	893.25
426.291	894.25
426.513	883.25
426.735	869.25
426.958	866.25
427.18	871.25
427.402	838.25
427.625	863.25
427.847	847.25
428.069	853.25
428.292	873.25
428.514	814.25
428.736	813.25
428.958	841.25
429.181	840.25
429.403	812.25
429.625	827.25
429.847	830.25
430.069	830.25
430.292	824.25
430.514	818.25
430.736	843.25
430.958	828.25
431.18	795.25
431.402	810.25
431.624	834.25
431.846	822.25
432.068	838.25
432.29	869.25
432.512	835.25
432.734	845.25
432.956	844.25
433.178	846.25
433.4	830.25
433.622	859.25
433.844	859.25
434.066	854.25
434.287	857.25
434.509	894.25
434.731	883.25
434.953	916.25
435.175	952.25
435.397	933.25
435.618	907.25
435.84	863.25
436.062	853.25
436.284	824.25
436.505	829.25
436.727	845.25
436.949	838.25
437.17	824.25
437.392	830.25
437.614	825.25
437.835	801.25
438.057	799.25
438.278	789.25
438.5	797.25
438.721	830.25
438.943	824.25
439.165	809.25
439.386	811.25
439.608	814.25
439.829	831.25
440.05	845.25
440.272	839.25
440.493	827.25
440.715	876.25
440.936	881.25
441.158	881.25
441.379	898.25
441.6	912.25
441.822	914.25
442.043	921.25
442.264	902.25
442.486	898.25
442.707	890.25
442.928	904.25
443.149	946.25
443.371	897.25
443.592	917.25
443.813	906.25
444.034	919.25
444.255	961.25
444.476	998.25
444.698	992.25
444.919	1050.25
445.14	1149.25
445.361	1055.25
445.582	966.25
445.803	933.25
446.024	912.25
446.245	904.25
446.466	865.25
446.687	860.25
446.908	835.25
447.129	830.25
447.35	853.25
447.571	838.25
447.792	814.25
448.013	818.25
448.234	776.25
448.455	771.25
448.675	777.25
448.896	764.25
449.117	769.25
449.338	783.25
449.559	778.25
449.779	778.25
450	780.25
450.221	774.25
450.442	784.25
450.662	788.25
450.883	796.25
451.104	818.25
451.324	820.25
451.545	801.25
451.766	801.25
451.986	781.25
452.207	761.25
452.428	762.25
452.648	783.25
452.869	734.25
453.089	755.25
453.31	765.25
453.53	753.25
453.751	753.25
453.971	736.25
454.192	719.25
454.412	733.25
454.633	732.25
454.853	745.25
455.073	740.25
455.294	740.25
455.514	728.25
455.734	740.25
455.955	719.25
456.175	723.25
456.395	718.25
456.616	716.25
456.836	727.25
457.056	723.25
457.276	686.25
457.497	742.25
457.717	739.25
457.937	716.25
458.157	740.25
458.377	733.25
458.598	757.25
458.818	780.25
459.038	805.25
459.258	818.25
459.478	833.25
459.698	845.25
459.918	895.25
460.138	900.25
460.358	934.25
460.578	929.25
460.798	937.25
461.018	979.25
461.238	951.25
461.458	967.25
461.678	968.25
461.898	977.25
462.118	1002.25
462.338	1041.25
462.558	1057.25
462.777	1109.25
462.997	1171.25
463.217	1229.25
463.437	1176.25
463.657	1179.25
463.876	1157.25
464.096	1164.25
464.316	1122.25
464.536	1102.25
464.755	1077.25
464.975	1033.25
465.195	1008.25
465.414	921.25
465.634	919.25
465.854	893.25
466.073	879.25
466.293	850.25
466.512	830.25
466.732	824.25
466.951	808.25
467.171	793.25
467.391	795.25
467.61	803.25
467.829	814.25
468.049	813.25
468.268	787.25
468.488	792.25
468.707	783.25
468.927	775.25
469.146	773.25
469.365	779.25
469.585	808.25
469.804	791.25
470.023	812.25
470.243	827.25
470.462	826.25
470.681	830.25
470.901	837.25
471.12	824.25
471.339	808.25
471.558	784.25
471.777	797.25
471.997	799.25
472.216	777.25
472.435	779.25
472.654	779.25
472.873	741.25
473.092	784.25
473.311	731.25
473.53	742.25
473.749	747.25
473.968	764.25
474.187	755.25
474.406	747.25
474.625	790.25
474.844	771.25
475.063	774.25
475.282	746.25
475.501	756.25
475.72	753.25
475.939	775.25
476.158	810.25
476.377	787.25
476.596	801.25
476.814	826.25
477.033	852.25
477.252	823.25
477.471	835.25
477.69	861.25
477.908	884.25
478.127	913.25
478.346	907.25
478.564	937.25
478.783	934.25
479.002	939.25
479.22	918.25
479.439	921.25
479.658	934.25
479.876	927.25
480.095	921.25
480.313	956.25
480.532	955.25
480.751	980.25
480.969	959.25
481.188	920.25
481.406	885.25
481.624	881.25
481.843	853.25
482.061	883.25
482.28	888.25
482.498	876.25
482.717	831.25
482.935	860.25
483.153	877.25
483.372	891.25
483.59	881.25
483.808	886.25
484.027	876.25
484.245	866.25
484.463	871.25
484.681	878.25
484.9	887.25
485.118	915.25
485.336	900.25
485.554	912.25
485.772	892.25
485.99	870.25
486.209	901.25
486.427	898.25
486.645	897.25
486.863	920.25
487.081	910.25
487.299	939.25
487.517	915.25
487.735	907.25
487.953	896.25
488.171	921.25
488.389	900.25
488.607	885.25
488.825	891.25
489.043	866.25
489.261	873.25
489.479	860.25
489.696	905.25
489.914	894.25
490.132	912.25
490.35	926.25
490.568	919.25
490.786	922.25
491.003	929.25
491.221	937.25
491.439	922.25
491.657	922.25
491.874	966.25
492.092	960.25
492.31	927.25
492.527	968.25
492.745	949.25
492.963	974.25
493.18	955.25
493.398	961.25
493.615	961.25
493.833	968.25
494.05	972.25
494.268	992.25
494.485	976.25
494.703	981.25
494.92	966.25
495.138	986.25
495.355	956.25
495.573	959.25
495.79	985.25
496.008	1025.25
496.225	1006.25
496.442	1045.25
496.66	1022.25
496.877	1023.25
497.094	1043.25
497.312	1076.25
497.529	1092.25
497.746	1130.25
497.963	1124.25
498.181	1184.25
498.398	1247.25
498.615	1290.25
498.832	1393.25
499.049	1443.25
499.267	1569.25
499.484	1741.25
499.701	1862.25
499.918	2050.25
500.135	2217.25
500.352	2413.25
500.569	2540.25
500.786	2523.25
501.003	2367.25
501.22	2182.25
501.437	1979.25
501.654	1831.25
501.871	1673.25
502.088	1564.25
502.305	1513.25
502.522	1405.25
502.739	1313.25
502.956	1289.25
503.172	1221.25
503.389	1178.25
503.606	1137.25
503.823	1146.25
504.04	1106.25
504.256	1101.25
504.473	1125.25
504.69	1103.25
504.907	1108.25
505.123	1036.25
505.34	993.25
505.557	991.25
505.773	940.25
505.99	933.25
506.207	912.25
506.423	909.25
506.64	920.25
506.856	905.25
507.073	885.25
507.289	893.25
507.506	861.25
507.722	851.25
507.939	874.25
508.155	858.25
508.372	854.25
508.588	825.25
508.805	810.25
509.021	821.25
509.238	814.25
509.454	809.25
509.67	815.25
509.887	802.25
510.103	774.25
510.319	788.25
510.536	797.25
510.752	789.25
510.968	770.25
511.184	769.25
511.401	781.25
511.617	797.25
511.833	770.25
512.049	793.25
512.265	756.25
512.481	796.25
512.698	785.25
512.914	794.25
513.13	760.25
513.346	763.25
513.562	779.25
513.778	748.25
513.994	779.25
514.21	798.25
514.426	787.25
514.642	796.25
514.858	806.25
515.074	829.25
515.29	817.25
515.506	839.25
515.721	837.25
515.937	834.25
516.153	839.25
516.369	853.25
516.585	891.25
516.801	934.25
517.016	927.25
517.232	993.25
517.448	1009.25
517.664	1033.25
517.879	1046.25
518.095	1011.25
518.311	1014.25
518.527	978.25
518.742	942.25
518.958	923.25
519.173	896.25
519.389	876.25
519.605	853.25
519.82	821.25
520.036	830.25
520.251	811.25
520.467	814.25
520.682	794.25
520.898	811.25
521.113	778.25
521.329	780.25
521.544	753.25
521.76	762.25
521.975	738.25
522.19	743.25
522.406	746.25
522.621	737.25
522.836	757.25
523.052	738.25
523.267	743.25
523.482	733.25
523.698	733.25
523.913	722.25
524.128	712.25
524.343	724.25
524.559	714.25
524.774	743.25
524.989	707.25
525.204	709.25
525.419	714.25
525.634	711.25
525.849	731.25
526.064	702.25
526.28	710.25
526.495	703.25
526.71	708.25
526.925	695.25
527.14	683.25
527.355	714.25
527.57	699.25
527.785	700.25
527.999	702.25
528.214	693.25
528.429	691.25
528.644	700.25
528.859	702.25
529.074	735.25
529.289	713.25
529.503	715.25
529.718	737.25
529.933	695.25
530.148	699.25
530.363	685.25
530.577	686.25
530.792	686.25
531.007	720.25
531.221	697.25
531.436	675.25
531.651	716.25
531.865	720.25
532.08	706.25
532.295	715.25
532.509	707.25
532.724	682.25
532.938	691.25
533.153	675.25
533.367	714.25
533.582	690.25
533.796	685.25
534.011	710.25
534.225	697.25
534.44	686.25
534.654	687.25
534.868	710.25
535.083	679.25
535.297	698.25
535.511	695.25
535.726	696.25
535.94	692.25
536.154	669.25
536.369	659.25
536.583	663.25
536.797	655.25
537.011	642.25
537.225	653.25
537.44	635.25
537.654	655.25
537.868	666.25
538.082	654.25
538.296	659.25
538.51	657.25
538.724	645.25
538.938	650.25
539.153	646.25
539.367	660.25
539.581	649.25
539.795	634.25
540.009	636.25
540.222	640.25
540.436	642.25
540.65	629.25
540.864	636.25
541.078	630.25
541.292	668.25
541.506	644.25
541.72	661.25
541.934	661.25
542.147	668.25
542.361	630.25
542.575	642.25
542.789	615.25
543.002	628.25
543.216	649.25
543.43	647.25
543.644	646.25
543.857	659.25
544.071	627.25
544.285	627.25
544.498	654.25
544.712	646.25
544.925	660.25
545.139	629.25
545.352	646.25
545.566	669.25
545.779	669.25
545.993	684.25
546.206	676.25
546.42	647.25
546.633	676.25
546.847	660.25
547.06	645.25
547.274	648.25
547.487	668.25
547.7	685.25
547.914	692.25
548.127	659.25
548.34	658.25
548.554	666.25
548.767	681.25
548.98	663.25
549.193	672.25
549.407	693.25
549.62	668.25
549.833	678.25
550.046	655.25
550.259	654.25
550.473	646.25
550.686	670.25
550.899	645.25
551.112	657.25
551.325	653.25
551.538	645.25
551.751	648.25
551.964	666.25
552.177	638.25
552.39	643.25
552.603	671.25
552.816	700.25
553.029	695.25
553.242	673.25
553.455	706.25
553.667	712.25
553.88	717.25
554.093	681.25
554.306	678.25
554.519	673.25
554.732	645.25
554.944	632.25
555.157	627.25
555.37	633.25
555.583	581.25
555.795	595.25
556.008	603.25
556.221	599.25
556.433	610.25
556.646	571.25
556.859	585.25
557.071	570.25
557.284	555.25
557.496	564.25
557.709	569.25
557.921	581.25
558.134	555.25
558.346	589.25
558.559	555.25
558.771	562.25
558.984	540.25
559.196	549.25
559.409	558.25
559.621	551.25
559.833	552.25
560.046	554.25
560.258	534.25
560.47	530.25
560.683	546.25
560.895	532.25
561.107	524.25
561.32	551.25
561.532	531.25
561.744	536.25
561.956	547.25
562.168	535.25
562.381	567.25
562.593	551.25
562.805	519.25
563.017	545.25
563.229	547.25
563.441	578.25
563.653	564.25
563.865	577.25
564.077	546.25
564.289	574.25
564.501	566.25
564.713	590.25
564.925	586.25
565.137	582.25
565.349	580.25
565.561	624.25
565.773	649.25
565.985	679.25
566.197	700.25
566.408	746.25
566.62	783.25
566.832	812.25
567.044	841.25
567.255	849.25
567.467	857.25
567.679	866.25
567.891	915.25
568.102	870.25
568.314	862.25
568.526	802.25
568.737	733.25
568.949	715.25
569.161	679.25
569.372	619.25
569.584	607.25
569.795	579.25
570.007	577.25
570.218	580.25
570.43	575.25
570.641	549.25
570.853	540.25
571.064	555.25
571.276	560.25
571.487	544.25
571.698	506.25
571.91	518.25
572.121	515.25
572.333	485.25
572.544	477.25
572.755	478.25
572.966	491.25
573.178	469.25
573.389	443.25
573.6	446.25
573.811	475.25
574.023	456.25
574.234	439.25
574.445	420.25
574.656	443.25
574.867	440.25
575.078	436.25
575.289	423.25
575.501	424.25
575.712	415.25
575.923	419.25
576.134	409.25
576.345	422.25
576.556	427.25
576.767	414.25
576.978	411.25
577.188	414.25
577.399	409.25
577.61	427.25
577.821	423.25
578.032	403.25
578.243	396.25
578.454	422.25
578.665	392.25
578.875	386.25
579.086	398.25
579.297	413.25
579.508	392.25
579.718	393.25
579.929	392.25
580.14	386.25
580.35	388.25
580.561	405.25
580.772	395.25
580.982	377.25
581.193	373.25
581.403	359.25
581.614	383.25
581.825	376.25
582.035	379.25
582.246	371.25
582.456	351.25
582.667	371.25
582.877	375.25
583.087	373.25
583.298	366.25
583.508	373.25
583.719	374.25
583.929	364.25
584.139	375.25
584.35	363.25
584.56	356.25
584.77	370.25
584.981	382.25
585.191	355.25
585.401	362.25
585.611	344.25
585.821	373.25
586.032	356.25
586.242	363.25
586.452	364.25
586.662	354.25
586.872	366.25
587.082	353.25
587.292	367.25
587.502	359.25
587.713	369.25
587.923	331.25
588.133	353.25
588.343	353.25
588.553	365.25
588.762	367.25
588.972	373.25
589.182	378.25
589.392	373.25
589.602	360.25
589.812	351.25
590.022	361.25
590.232	352.25
590.441	386.25
590.651	383.25
590.861	366.25
591.071	378.25
591.281	387.25
591.49	383.25
591.7	403.25
591.91	395.25
592.119	366.25
592.329	387.25
592.539	399.25
592.748	402.25
592.958	424.25
593.167	436.25
593.377	443.25
593.587	452.25
593.796	424.25
594.006	426.25
594.215	446.25
594.424	420.25
594.634	430.25
594.843	421.25
595.053	402.25
595.262	390.25
595.472	381.25
595.681	369.25
595.89	361.25
596.1	379.25
596.309	357.25
596.518	351.25
596.727	347.25
596.937	352.25
597.146	325.25
597.355	316.25
597.564	341.25
597.774	351.25
597.983	339.25
598.192	339.25
598.401	349.25
598.61	316.25
598.819	323.25
599.028	317.25
599.237	305.25
599.446	313.25
599.655	317.25
599.864	301.25
600.073	299.25
600.282	320.25
600.491	303.25
600.7	314.25
600.909	291.25
601.118	303.25
601.327	294.25
601.536	311.25
601.745	309.25
601.953	308.25
602.162	307.25
602.371	284.25
602.58	290.25
602.789	294.25
602.997	309.25
603.206	300.25
603.415	293.25
603.623	305.25
603.832	290.25
604.041	293.25
604.249	271.25
604.458	292.25
604.666	292.25
604.875	260.25
605.084	297.25
605.292	308.25
605.501	280.25
605.709	292.25
605.918	284.25
606.126	288.25
606.334	275.25
606.543	284.25
606.751	267.25
606.96	284.25
607.168	277.25
607.376	280.25
607.585	274.25
607.793	294.25
608.001	277.25
608.21	286.25
608.418	281.25
608.626	275.25
608.834	278.25
609.043	277.25
609.251	284.25
609.459	276.25
609.667	266.25
609.875	270.25
610.083	278.25
610.291	258.25
610.499	266.25
610.707	274.25
610.916	265.25
611.124	274.25
611.332	285.25
611.54	269.25
611.748	267.25
611.955	255.25
612.163	265.25
612.371	273.25
612.579	252.25
612.787	268.25
612.995	276.25
613.203	261.25
613.411	279.25
613.618	270.25
613.826	271.25
614.034	258.25
614.242	266.25
614.449	268.25
614.657	266.25
614.865	266.25
615.072	274.25
615.28	271.25
615.488	267.25
615.695	244.25
615.903	275.25
616.111	259.25
616.318	278.25
616.526	278.25
616.733	282.25
616.941	259.25
617.148	241.25
617.356	247.25
617.563	254.25
617.771	264.25
617.978	247.25
618.185	260.25
618.393	260.25
618.6	277.25
618.807	267.25
619.015	261.25
619.222	257.25
619.429	250.25
619.637	242.25
619.844	266.25
620.051	249.25
620.258	276.25
620.466	265.25
620.673	260.25
620.88	229.25
621.087	252.25
621.294	226.25
621.501	237.25
621.708	246.25
621.915	263.25
622.122	245.25
622.329	246.25
622.536	230.25
622.743	235.25
622.95	219.25
623.157	225.25
623.364	245.25
623.571	256.25
623.778	241.25
623.985	233.25
624.192	222.25
624.399	225.25
624.606	236.25
624.812	231.25
625.019	220.25
625.226	236.25
625.433	221.25
625.639	234.25
625.846	221.25
626.053	223.25
626.259	230.25
626.466	236.25
626.673	235.25
626.879	226.25
627.086	235.25
627.293	230.25
627.499	231.25
627.706	221.25
627.912	228.25
628.119	229.25
628.325	223.25
628.532	217.25
628.738	234.25
628.945	222.25
629.151	212.25
629.357	227.25
629.564	219.25
629.77	234.25
629.976	201.25
630.183	207.25
630.389	215.25
630.595	211.25
630.802	217.25
631.008	221.25
631.214	192.25
631.42	202.25
631.627	215.25
631.833	205.25
632.039	209.25
632.245	217.25
632.451	214.25
632.657	206.25
632.863	221.25
633.069	198.25
633.275	194.25
633.481	207.25
633.688	177.25
633.893	195.25
634.099	193.25
634.305	206.25
634.511	187.25
634.717	203.25
634.923	195.25
635.129	194.25
635.335	201.25
635.541	194.25
635.747	185.25
635.952	204.25
636.158	195.25
636.364	206.25
636.57	204.25
636.775	209.25
636.981	181.25
637.187	186.25
637.392	199.25
637.598	201.25
637.804	196.25
638.009	203.25
638.215	193.25
638.421	193.25
638.626	196.25
638.832	198.25
639.037	195.25
639.243	182.25
639.448	187.25
639.654	182.25
639.859	189.25
640.065	179.25
640.27	191.25
640.475	188.25
640.681	200.25
640.886	175.25
641.091	194.25
641.297	171.25
641.502	191.25
641.707	170.25
641.913	189.25
642.118	197.25
642.323	197.25
642.528	174.25
642.733	192.25
642.939	157.25
643.144	177.25
643.349	173.25
643.554	177.25
643.759	179.25
643.964	183.25
644.169	183.25
644.374	166.25
644.579	173.25
644.784	182.25
644.989	183.25
645.194	179.25
645.399	169.25
645.604	174.25
645.809	190.25
646.014	187.25
646.219	175.25
646.423	172.25
646.628	179.25
646.833	183.25
647.038	168.25
647.243	199.25
647.447	167.25
647.652	180.25
647.857	178.25
648.062	185.25
648.266	180.25
648.471	194.25
648.676	194.25
648.88	171.25
649.085	190.25
649.289	181.25
649.494	170.25
649.698	177.25
649.903	160.25
650.107	162.25
650.312	169.25
650.516	177.25
650.721	168.25
650.925	169.25
651.13	160.25
651.334	164.25
651.539	169.25
651.743	161.25
651.947	166.25
652.152	162.25
652.356	158.25
652.56	162.25
652.764	167.25
652.969	134.25
653.173	127.25
653.377	153.25
653.581	161.25
653.785	150.25
653.99	156.25
654.194	146.25
654.398	156.25
654.602	150.25
654.806	127.25
655.01	141.25
655.214	153.25
655.418	136.25
655.622	135.25
655.826	136.25
656.03	122.25
656.234	131.25
656.438	137.25
656.642	141.25
656.846	141.25
657.049	149.25
657.253	135.25
657.457	98.25
657.661	125.25
657.865	113.25
658.068	117.25
658.272	129.25
658.476	120.25
658.68	131.25
658.883	107.25
659.087	118.25
659.291	99.25
659.494	108.25
659.698	103.25
659.901	113.25
660.105	115.25
660.309	109.25
660.512	102.25
660.716	95.25
660.919	98.25
661.123	86.25
661.326	83.25
661.53	100.25
661.733	84.25
661.936	81.25
662.14	81.25
662.343	99.25
662.546	93.25
662.75	85.25
662.953	86.25
663.156	84.25
663.36	88.25
663.563	97.25
663.766	92.25
663.969	87.25
664.173	78.25
664.376	89.25
664.579	93.25
664.782	71.25
664.985	82.25
665.188	87.25
665.391	101.25
665.594	91.25
665.797	73.25
666	75.25
666.203	76.25
666.406	82.25
666.609	82.25
666.812	78.25
667.015	77.25
667.218	91.25
667.421	77.25
667.624	73.25
667.827	79.25
668.03	85.25
668.232	82.25
668.435	77.25
668.638	68.25
668.841	78.25
669.043	86.25
669.246	85.25
669.449	71.25
669.651	89.25
669.854	66.25
670.057	82.25
670.259	69.25
670.462	81.25
670.665	90.25
670.867	86.25
671.07	84.25
671.272	88.25
671.475	92.25
671.677	97.25
671.88	85.25
672.082	79.25
672.284	82.25
672.487	81.25
672.689	78.25
672.892	82.25
