Data from Ni(NO3)2@0.25M.TitratingCurve.Agarose3%dH2O.NegLispCup.LampEnergy10.LIBS07252019_HRD10591_18-05-33-566.txt Node
Date: Thu Jul 25 18:05:33 EDT 2019
User: cochatt
Spectrometer: HR+D1059
Trigger mode: 1
Integration Time (sec): 1.000000E-1
Scans to average: 1
Electric dark correction enabled: true
Nonlinearity correction enabled: false
Boxcar width: 0
XAxis mode: Wavelengths
Number of Pixels in Spectrum: 2048
>>>>>Begin Spectral Data<<<<<
223.165	-17.94
223.4	-17.94
223.635	-17.94
223.869	-18.94
224.104	-20.94
224.338	-17.94
224.573	-6.94
224.808	-4.94
225.042	-4.94
225.277	-4.94
225.511	-6.94
225.746	1.06
225.98	7.06
226.215	-8.94
226.449	34.06
226.683	15.06
226.918	27.06
227.152	29.06
227.387	26.06
227.621	21.06
227.856	42.06
228.09	48.06
228.324	45.06
228.559	61.06
228.793	77.06
229.027	84.06
229.262	119.06
229.496	91.06
229.73	118.06
229.964	94.06
230.199	113.06
230.433	119.06
230.667	121.06
230.901	122.06
231.136	110.06
231.37	108.06
231.604	125.06
231.838	130.06
232.072	125.06
232.306	120.06
232.541	110.06
232.775	138.06
233.009	137.06
233.243	129.06
233.477	118.06
233.711	125.06
233.945	129.06
234.179	125.06
234.413	123.06
234.647	122.06
234.881	129.06
235.115	121.06
235.349	138.06
235.583	145.06
235.817	129.06
236.051	130.06
236.285	140.06
236.519	142.06
236.753	131.06
236.987	128.06
237.221	136.06
237.455	135.06
237.689	143.06
237.922	137.06
238.156	154.06
238.39	130.06
238.624	141.06
238.858	142.06
239.091	145.06
239.325	129.06
239.559	140.06
239.793	145.06
240.027	153.06
240.26	127.06
240.494	148.06
240.728	143.06
240.961	141.06
241.195	146.06
241.429	142.06
241.662	127.06
241.896	147.06
242.13	163.06
242.363	170.06
242.597	162.06
242.83	162.06
243.064	154.06
243.298	153.06
243.531	173.06
243.765	162.06
243.998	149.06
244.232	169.06
244.465	167.06
244.699	168.06
244.932	173.06
245.166	171.06
245.399	180.06
245.633	174.06
245.866	178.06
246.099	178.06
246.333	180.06
246.566	168.06
246.8	191.06
247.033	172.06
247.266	168.06
247.5	162.06
247.733	185.06
247.966	174.06
248.2	192.06
248.433	186.06
248.666	174.06
248.899	195.06
249.133	187.06
249.366	175.06
249.599	195.06
249.832	199.06
250.066	206.06
250.299	174.06
250.532	197.06
250.765	211.06
250.998	202.06
251.231	194.06
251.465	205.06
251.698	215.06
251.931	217.06
252.164	228.06
252.397	201.06
252.63	212.06
252.863	205.06
253.096	214.06
253.329	219.06
253.562	230.06
253.795	228.06
254.028	224.06
254.261	231.06
254.494	211.06
254.727	209.06
254.96	215.06
255.193	224.06
255.426	221.06
255.659	228.06
255.892	225.06
256.124	214.06
256.357	212.06
256.59	223.06
256.823	230.06
257.056	230.06
257.289	230.06
257.521	228.06
257.754	243.06
257.987	244.06
258.22	241.06
258.452	246.06
258.685	256.06
258.918	245.06
259.151	238.06
259.383	245.06
259.616	246.06
259.849	255.06
260.081	243.06
260.314	249.06
260.547	252.06
260.779	246.06
261.012	252.06
261.244	257.06
261.477	265.06
261.71	262.06
261.942	250.06
262.175	238.06
262.407	251.06
262.64	245.06
262.872	262.06
263.105	247.06
263.337	267.06
263.57	258.06
263.802	268.06
264.035	282.06
264.267	266.06
264.499	275.06
264.732	281.06
264.964	262.06
265.197	267.06
265.429	274.06
265.661	283.06
265.894	282.06
266.126	279.06
266.358	292.06
266.591	254.06
266.823	271.06
267.055	279.06
267.287	277.06
267.52	282.06
267.752	291.06
267.984	291.06
268.216	310.06
268.448	284.06
268.681	272.06
268.913	281.06
269.145	281.06
269.377	274.06
269.609	294.06
269.841	302.06
270.073	285.06
270.306	294.06
270.538	303.06
270.77	261.06
271.002	299.06
271.234	282.06
271.466	306.06
271.698	307.06
271.93	305.06
272.162	302.06
272.394	315.06
272.626	307.06
272.858	302.06
273.09	307.06
273.322	308.06
273.553	307.06
273.785	308.06
274.017	312.06
274.249	322.06
274.481	322.06
274.713	326.06
274.945	317.06
275.176	316.06
275.408	309.06
275.64	326.06
275.872	332.06
276.104	335.06
276.335	329.06
276.567	309.06
276.799	324.06
277.031	325.06
277.262	329.06
277.494	340.06
277.726	316.06
277.957	323.06
278.189	314.06
278.421	322.06
278.652	334.06
278.884	309.06
279.115	340.06
279.347	350.06
279.579	351.06
279.81	331.06
280.042	334.06
280.273	350.06
280.505	363.06
280.736	335.06
280.968	347.06
281.199	339.06
281.431	369.06
281.662	345.06
281.894	351.06
282.125	340.06
282.356	355.06
282.588	353.06
282.819	356.06
283.051	365.06
283.282	359.06
283.513	377.06
283.745	385.06
283.976	347.06
284.207	365.06
284.439	366.06
284.67	381.06
284.901	357.06
285.132	370.06
285.364	361.06
285.595	386.06
285.826	378.06
286.057	361.06
286.288	389.06
286.52	385.06
286.751	372.06
286.982	367.06
287.213	361.06
287.444	394.06
287.675	389.06
287.906	403.06
288.138	379.06
288.369	381.06
288.6	391.06
288.831	383.06
289.062	388.06
289.293	385.06
289.524	389.06
289.755	386.06
289.986	387.06
290.217	387.06
290.448	384.06
290.679	405.06
290.91	403.06
291.141	385.06
291.371	402.06
291.602	396.06
291.833	396.06
292.064	398.06
292.295	388.06
292.526	401.06
292.757	406.06
292.987	392.06
293.218	395.06
293.449	389.06
293.68	396.06
293.91	397.06
294.141	402.06
294.372	397.06
294.603	416.06
294.833	389.06
295.064	392.06
295.295	406.06
295.525	383.06
295.756	389.06
295.987	411.06
296.217	407.06
296.448	419.06
296.679	395.06
296.909	433.06
297.14	438.06
297.37	423.06
297.601	426.06
297.831	439.06
298.062	432.06
298.292	441.06
298.523	437.06
298.753	434.06
298.984	431.06
299.214	441.06
299.445	426.06
299.675	446.06
299.905	435.06
300.136	446.06
300.366	447.06
300.597	446.06
300.827	456.06
301.057	476.06
301.288	461.06
301.518	459.06
301.748	459.06
301.979	454.06
302.209	455.06
302.439	428.06
302.669	461.06
302.9	438.06
303.13	445.06
303.36	443.06
303.59	441.06
303.82	441.06
304.051	455.06
304.281	478.06
304.511	471.06
304.741	457.06
304.971	447.06
305.201	451.06
305.431	438.06
305.661	459.06
305.891	450.06
306.121	462.06
306.352	466.06
306.582	454.06
306.812	420.06
307.042	450.06
307.272	431.06
307.502	462.06
307.731	449.06
307.961	442.06
308.191	431.06
308.421	465.06
308.651	429.06
308.881	444.06
309.111	436.06
309.341	435.06
309.571	447.06
309.8	468.06
310.03	467.06
310.26	478.06
310.49	470.06
310.72	449.06
310.949	477.06
311.179	467.06
311.409	450.06
311.639	457.06
311.868	469.06
312.098	469.06
312.328	470.06
312.557	474.06
312.787	465.06
313.017	466.06
313.246	492.06
313.476	487.06
313.706	493.06
313.935	501.06
314.165	491.06
314.394	495.06
314.624	481.06
314.853	498.06
315.083	495.06
315.312	492.06
315.542	483.06
315.771	486.06
316.001	490.06
316.23	499.06
316.46	490.06
316.689	479.06
316.919	497.06
317.148	494.06
317.377	496.06
317.607	485.06
317.836	482.06
318.065	486.06
318.295	494.06
318.524	500.06
318.753	499.06
318.983	491.06
319.212	489.06
319.441	466.06
319.67	488.06
319.9	509.06
320.129	503.06
320.358	480.06
320.587	502.06
320.816	501.06
321.046	494.06
321.275	498.06
321.504	501.06
321.733	494.06
321.962	513.06
322.191	516.06
322.42	495.06
322.649	513.06
322.878	486.06
323.108	490.06
323.337	514.06
323.566	519.06
323.795	497.06
324.024	529.06
324.253	510.06
324.482	515.06
324.71	541.06
324.939	522.06
325.168	519.06
325.397	520.06
325.626	513.06
325.855	521.06
326.084	554.06
326.313	533.06
326.542	557.06
326.77	584.06
326.999	569.06
327.228	542.06
327.457	538.06
327.686	583.06
327.914	553.06
328.143	549.06
328.372	566.06
328.6	554.06
328.829	565.06
329.058	566.06
329.287	552.06
329.515	568.06
329.744	554.06
329.972	565.06
330.201	563.06
330.43	552.06
330.658	567.06
330.887	555.06
331.115	585.06
331.344	588.06
331.572	592.06
331.801	616.06
332.03	634.06
332.258	615.06
332.486	652.06
332.715	660.06
332.943	684.06
333.172	715.06
333.4	759.06
333.629	748.06
333.857	756.06
334.085	740.06
334.314	736.06
334.542	720.06
334.771	727.06
334.999	717.06
335.227	737.06
335.455	711.06
335.684	733.06
335.912	687.06
336.14	670.06
336.369	678.06
336.597	700.06
336.825	682.06
337.053	673.06
337.281	696.06
337.51	671.06
337.738	665.06
337.966	635.06
338.194	627.06
338.422	618.06
338.65	645.06
338.878	622.06
339.106	631.06
339.334	636.06
339.562	611.06
339.79	606.06
340.018	601.06
340.246	595.06
340.474	583.06
340.702	603.06
340.93	611.06
341.158	616.06
341.386	618.06
341.614	626.06
341.842	599.06
342.07	589.06
342.298	559.06
342.526	600.06
342.754	597.06
342.981	621.06
343.209	614.06
343.437	641.06
343.665	704.06
343.893	714.06
344.12	722.06
344.348	691.06
344.576	673.06
344.804	666.06
345.031	630.06
345.259	623.06
345.487	632.06
345.714	593.06
345.942	611.06
346.17	635.06
346.397	629.06
346.625	594.06
346.853	590.06
347.08	583.06
347.308	619.06
347.535	592.06
347.763	571.06
347.99	599.06
348.218	603.06
348.445	589.06
348.673	602.06
348.9	575.06
349.128	589.06
349.355	590.06
349.583	582.06
349.81	599.06
350.037	574.06
350.265	544.06
350.492	579.06
350.72	571.06
350.947	588.06
351.174	574.06
351.402	571.06
351.629	586.06
351.856	574.06
352.083	594.06
352.311	589.06
352.538	567.06
352.765	573.06
352.992	537.06
353.22	555.06
353.447	583.06
353.674	537.06
353.901	565.06
354.128	574.06
354.355	564.06
354.583	573.06
354.81	572.06
355.037	557.06
355.264	582.06
355.491	561.06
355.718	543.06
355.945	563.06
356.172	545.06
356.399	584.06
356.626	569.06
356.853	583.06
357.08	566.06
357.307	579.06
357.534	582.06
357.761	551.06
357.988	587.06
358.215	579.06
358.441	571.06
358.668	552.06
358.895	579.06
359.122	552.06
359.349	577.06
359.576	575.06
359.802	553.06
360.029	557.06
360.256	548.06
360.483	565.06
360.709	551.06
360.936	571.06
361.163	565.06
361.39	569.06
361.616	581.06
361.843	592.06
362.07	578.06
362.296	563.06
362.523	582.06
362.749	566.06
362.976	584.06
363.203	563.06
363.429	561.06
363.656	575.06
363.882	569.06
364.109	552.06
364.335	550.06
364.562	549.06
364.788	561.06
365.015	563.06
365.241	561.06
365.468	552.06
365.694	555.06
365.92	559.06
366.147	563.06
366.373	560.06
366.599	562.06
366.826	554.06
367.052	577.06
367.278	554.06
367.505	538.06
367.731	586.06
367.957	579.06
368.184	567.06
368.41	576.06
368.636	556.06
368.862	571.06
369.089	567.06
369.315	559.06
369.541	542.06
369.767	580.06
369.993	568.06
370.219	583.06
370.445	587.06
370.672	613.06
370.898	593.06
371.124	617.06
371.35	609.06
371.576	611.06
371.802	610.06
372.028	611.06
372.254	596.06
372.48	587.06
372.706	589.06
372.932	630.06
373.158	614.06
373.384	625.06
373.61	621.06
373.835	624.06
374.061	609.06
374.287	609.06
374.513	613.06
374.739	649.06
374.965	680.06
375.191	668.06
375.416	662.06
375.642	635.06
375.868	628.06
376.094	633.06
376.319	609.06
376.545	599.06
376.771	604.06
376.997	631.06
377.222	595.06
377.448	606.06
377.674	612.06
377.899	599.06
378.125	574.06
378.35	612.06
378.576	569.06
378.802	603.06
379.027	598.06
379.253	595.06
379.478	584.06
379.704	605.06
379.929	613.06
380.155	591.06
380.38	576.06
380.606	584.06
380.831	567.06
381.057	605.06
381.282	600.06
381.507	604.06
381.733	619.06
381.958	631.06
382.184	628.06
382.409	629.06
382.634	630.06
382.86	616.06
383.085	611.06
383.31	663.06
383.535	659.06
383.761	668.06
383.986	675.06
384.211	674.06
384.436	705.06
384.662	701.06
384.887	722.06
385.112	709.06
385.337	732.06
385.562	714.06
385.787	723.06
386.013	749.06
386.238	718.06
386.463	727.06
386.688	718.06
386.913	695.06
387.138	725.06
387.363	701.06
387.588	705.06
387.813	706.06
388.038	726.06
388.263	715.06
388.488	729.06
388.713	738.06
388.938	683.06
389.163	687.06
389.387	679.06
389.612	675.06
389.837	694.06
390.062	693.06
390.287	700.06
390.512	698.06
390.736	708.06
390.961	718.06
391.186	719.06
391.411	755.06
391.636	773.06
391.86	801.06
392.085	827.06
392.31	813.06
392.534	782.06
392.759	767.06
392.984	743.06
393.208	750.06
393.433	777.06
393.658	755.06
393.882	770.06
394.107	743.06
394.331	771.06
394.556	771.06
394.78	779.06
395.005	784.06
395.229	801.06
395.454	782.06
395.678	809.06
395.903	805.06
396.127	793.06
396.352	787.06
396.576	747.06
396.801	769.06
397.025	791.06
397.249	782.06
397.474	819.06
397.698	793.06
397.922	806.06
398.147	775.06
398.371	792.06
398.595	838.06
398.82	895.06
399.044	963.06
399.268	1068.06
399.492	1190.06
399.717	1306.06
399.941	1318.06
400.165	1171.06
400.389	1079.06
400.613	979.06
400.837	930.06
401.062	938.06
401.286	911.06
401.51	904.06
401.734	909.06
401.958	942.06
402.182	909.06
402.406	933.06
402.63	937.06
402.854	957.06
403.078	972.06
403.302	988.06
403.526	996.06
403.75	1007.06
403.974	1028.06
404.198	1029.06
404.422	1032.06
404.645	1022.06
404.869	993.06
405.093	1031.06
405.317	987.06
405.541	985.06
405.765	991.06
405.988	982.06
406.212	1012.06
406.436	1001.06
406.66	1004.06
406.883	1021.06
407.107	1089.06
407.331	1124.06
407.555	1187.06
407.778	1158.06
408.002	1098.06
408.226	1107.06
408.449	1073.06
408.673	1021.06
408.896	1039.06
409.12	1002.06
409.344	1029.06
409.567	1043.06
409.791	1021.06
410.014	1004.06
410.238	1016.06
410.461	996.06
410.685	1001.06
410.908	963.06
411.132	976.06
411.355	940.06
411.578	964.06
411.802	940.06
412.025	972.06
412.249	983.06
412.472	979.06
412.695	955.06
412.919	906.06
413.142	912.06
413.365	927.06
413.589	934.06
413.812	907.06
414.035	909.06
414.258	925.06
414.482	910.06
414.705	945.06
414.928	930.06
415.151	941.06
415.374	918.06
415.597	938.06
415.821	892.06
416.044	904.06
416.267	905.06
416.49	908.06
416.713	883.06
416.936	907.06
417.159	876.06
417.382	905.06
417.605	913.06
417.828	881.06
418.051	914.06
418.274	916.06
418.497	904.06
418.72	939.06
418.943	949.06
419.166	954.06
419.389	1022.06
419.611	1001.06
419.834	983.06
420.057	967.06
420.28	934.06
420.503	888.06
420.726	888.06
420.948	906.06
421.171	897.06
421.394	906.06
421.617	886.06
421.839	936.06
422.062	945.06
422.285	908.06
422.507	926.06
422.73	919.06
422.953	972.06
423.175	953.06
423.398	958.06
423.621	966.06
423.843	957.06
424.066	966.06
424.288	978.06
424.511	925.06
424.733	963.06
424.956	916.06
425.178	947.06
425.401	951.06
425.623	915.06
425.846	908.06
426.068	905.06
426.291	881.06
426.513	877.06
426.735	872.06
426.958	899.06
427.18	863.06
427.402	845.06
427.625	862.06
427.847	851.06
428.069	806.06
428.292	824.06
428.514	839.06
428.736	798.06
428.958	820.06
429.181	801.06
429.403	803.06
429.625	811.06
429.847	806.06
430.069	837.06
430.292	831.06
430.514	806.06
430.736	817.06
430.958	813.06
431.18	812.06
431.402	835.06
431.624	814.06
431.846	813.06
432.068	807.06
432.29	858.06
432.512	817.06
432.734	854.06
432.956	845.06
433.178	854.06
433.4	838.06
433.622	866.06
433.844	845.06
434.066	852.06
434.287	847.06
434.509	866.06
434.731	876.06
434.953	926.06
435.175	937.06
435.397	941.06
435.618	878.06
435.84	861.06
436.062	844.06
436.284	834.06
436.505	834.06
436.727	820.06
436.949	847.06
437.17	844.06
437.392	829.06
437.614	811.06
437.835	787.06
438.057	787.06
438.278	818.06
438.5	823.06
438.721	830.06
438.943	843.06
439.165	811.06
439.386	831.06
439.608	815.06
439.829	837.06
440.05	833.06
440.272	858.06
440.493	843.06
440.715	858.06
440.936	881.06
441.158	878.06
441.379	890.06
441.6	961.06
441.822	937.06
442.043	941.06
442.264	939.06
442.486	930.06
442.707	923.06
442.928	953.06
443.149	938.06
443.371	905.06
443.592	920.06
443.813	938.06
444.034	940.06
444.255	983.06
444.476	1033.06
444.698	1092.06
444.919	1118.06
445.14	1176.06
445.361	1043.06
445.582	956.06
445.803	923.06
446.024	872.06
446.245	858.06
446.466	861.06
446.687	855.06
446.908	851.06
447.129	862.06
447.35	810.06
447.571	825.06
447.792	810.06
448.013	819.06
448.234	787.06
448.455	790.06
448.675	784.06
448.896	783.06
449.117	767.06
449.338	751.06
449.559	758.06
449.779	759.06
450	773.06
450.221	781.06
450.442	769.06
450.662	801.06
450.883	782.06
451.104	821.06
451.324	791.06
451.545	791.06
451.766	802.06
451.986	782.06
452.207	765.06
452.428	764.06
452.648	781.06
452.869	736.06
453.089	721.06
453.31	762.06
453.53	716.06
453.751	710.06
453.971	742.06
454.192	729.06
454.412	724.06
454.633	725.06
454.853	724.06
455.073	743.06
455.294	711.06
455.514	711.06
455.734	729.06
455.955	729.06
456.175	732.06
456.395	707.06
456.616	708.06
456.836	714.06
457.056	726.06
457.276	721.06
457.497	705.06
457.717	720.06
457.937	701.06
458.157	761.06
458.377	724.06
458.598	742.06
458.818	748.06
459.038	771.06
459.258	834.06
459.478	845.06
459.698	858.06
459.918	899.06
460.138	925.06
460.358	958.06
460.578	969.06
460.798	971.06
461.018	1017.06
461.238	961.06
461.458	971.06
461.678	989.06
461.898	989.06
462.118	1006.06
462.338	1030.06
462.558	1098.06
462.777	1134.06
462.997	1215.06
463.217	1295.06
463.437	1265.06
463.657	1189.06
463.876	1150.06
464.096	1123.06
464.316	1154.06
464.536	1117.06
464.755	1101.06
464.975	1039.06
465.195	976.06
465.414	959.06
465.634	912.06
465.854	869.06
466.073	829.06
466.293	860.06
466.512	802.06
466.732	815.06
466.951	804.06
467.171	804.06
467.391	786.06
467.61	779.06
467.829	799.06
468.049	778.06
468.268	777.06
468.488	770.06
468.707	777.06
468.927	774.06
469.146	769.06
469.365	773.06
469.585	775.06
469.804	807.06
470.023	831.06
470.243	803.06
470.462	832.06
470.681	837.06
470.901	836.06
471.12	825.06
471.339	806.06
471.558	775.06
471.777	793.06
471.997	782.06
472.216	782.06
472.435	767.06
472.654	748.06
472.873	739.06
473.092	773.06
473.311	766.06
473.53	755.06
473.749	732.06
473.968	760.06
474.187	741.06
474.406	718.06
474.625	759.06
474.844	753.06
475.063	752.06
475.282	761.06
475.501	768.06
475.72	786.06
475.939	791.06
476.158	790.06
476.377	792.06
476.596	782.06
476.814	789.06
477.033	795.06
477.252	803.06
477.471	837.06
477.69	832.06
477.908	869.06
478.127	894.06
478.346	891.06
478.564	905.06
478.783	896.06
479.002	933.06
479.22	950.06
479.439	915.06
479.658	937.06
479.876	930.06
480.095	957.06
480.313	951.06
480.532	1000.06
480.751	974.06
480.969	929.06
481.188	903.06
481.406	904.06
481.624	879.06
481.843	863.06
482.061	842.06
482.28	874.06
482.498	850.06
482.717	807.06
482.935	858.06
483.153	858.06
483.372	876.06
483.59	899.06
483.808	863.06
484.027	862.06
484.245	849.06
484.463	844.06
484.681	883.06
484.9	877.06
485.118	875.06
485.336	854.06
485.554	883.06
485.772	883.06
485.99	872.06
486.209	899.06
486.427	891.06
486.645	878.06
486.863	894.06
487.081	883.06
487.299	872.06
487.517	910.06
487.735	919.06
487.953	918.06
488.171	898.06
488.389	909.06
488.607	874.06
488.825	901.06
489.043	862.06
489.261	846.06
489.479	902.06
489.696	894.06
489.914	882.06
490.132	889.06
490.35	884.06
490.568	882.06
490.786	906.06
491.003	918.06
491.221	921.06
491.439	903.06
491.657	902.06
491.874	919.06
492.092	934.06
492.31	924.06
492.527	916.06
492.745	935.06
492.963	965.06
493.18	959.06
493.398	941.06
493.615	942.06
493.833	945.06
494.05	949.06
494.268	951.06
494.485	969.06
494.703	950.06
494.92	938.06
495.138	977.06
495.355	934.06
495.573	982.06
495.79	970.06
496.008	988.06
496.225	1010.06
496.442	1009.06
496.66	1011.06
496.877	1024.06
497.094	1069.06
497.312	1065.06
497.529	1037.06
497.746	1102.06
497.963	1130.06
498.181	1190.06
498.398	1234.06
498.615	1306.06
498.832	1386.06
499.049	1473.06
499.267	1579.06
499.484	1746.06
499.701	1885.06
499.918	2094.06
500.135	2379.06
500.352	2618.06
500.569	2742.06
500.786	2662.06
501.003	2501.06
501.22	2257.06
501.437	2018.06
501.654	1823.06
501.871	1697.06
502.088	1516.06
502.305	1437.06
502.522	1355.06
502.739	1325.06
502.956	1248.06
503.172	1156.06
503.389	1151.06
503.606	1113.06
503.823	1101.06
504.04	1100.06
504.256	1101.06
504.473	1090.06
504.69	1124.06
504.907	1103.06
505.123	1057.06
505.34	990.06
505.557	949.06
505.773	923.06
505.99	941.06
506.207	886.06
506.423	869.06
506.64	864.06
506.856	854.06
507.073	867.06
507.289	836.06
507.506	862.06
507.722	842.06
507.939	812.06
508.155	819.06
508.372	811.06
508.588	817.06
508.805	800.06
509.021	814.06
509.238	811.06
509.454	796.06
509.67	783.06
509.887	764.06
510.103	791.06
510.319	766.06
510.536	758.06
510.752	759.06
510.968	771.06
511.184	773.06
511.401	769.06
511.617	749.06
511.833	761.06
512.049	742.06
512.265	774.06
512.481	797.06
512.698	787.06
512.914	756.06
513.13	762.06
513.346	781.06
513.562	780.06
513.778	758.06
513.994	780.06
514.21	779.06
514.426	738.06
514.642	754.06
514.858	811.06
515.074	765.06
515.29	833.06
515.506	780.06
515.721	826.06
515.937	815.06
516.153	840.06
516.369	875.06
516.585	885.06
516.801	895.06
517.016	933.06
517.232	948.06
517.448	1012.06
517.664	1031.06
517.879	1049.06
518.095	1038.06
518.311	1014.06
518.527	992.06
518.742	949.06
518.958	912.06
519.173	882.06
519.389	845.06
519.605	835.06
519.82	855.06
520.036	792.06
520.251	790.06
520.467	799.06
520.682	783.06
520.898	759.06
521.113	762.06
521.329	733.06
521.544	754.06
521.76	765.06
521.975	722.06
522.19	718.06
522.406	741.06
522.621	726.06
522.836	732.06
523.052	740.06
523.267	718.06
523.482	733.06
523.698	711.06
523.913	708.06
524.128	680.06
524.343	725.06
524.559	711.06
524.774	719.06
524.989	707.06
525.204	690.06
525.419	698.06
525.634	725.06
525.849	714.06
526.064	697.06
526.28	694.06
526.495	694.06
526.71	686.06
526.925	680.06
527.14	692.06
527.355	693.06
527.57	685.06
527.785	683.06
527.999	681.06
528.214	668.06
528.429	681.06
528.644	703.06
528.859	713.06
529.074	708.06
529.289	685.06
529.503	691.06
529.718	709.06
529.933	665.06
530.148	683.06
530.363	704.06
530.577	687.06
530.792	690.06
531.007	655.06
531.221	669.06
531.436	697.06
531.651	694.06
531.865	663.06
532.08	676.06
532.295	701.06
532.509	683.06
532.724	680.06
532.938	679.06
533.153	673.06
533.367	710.06
533.582	680.06
533.796	675.06
534.011	683.06
534.225	670.06
534.44	670.06
534.654	662.06
534.868	667.06
535.083	674.06
535.297	681.06
535.511	667.06
535.726	643.06
535.94	669.06
536.154	664.06
536.369	654.06
536.583	647.06
536.797	684.06
537.011	643.06
537.225	630.06
537.44	618.06
537.654	643.06
537.868	629.06
538.082	626.06
538.296	633.06
538.51	630.06
538.724	654.06
538.938	646.06
539.153	629.06
539.367	645.06
539.581	634.06
539.795	633.06
540.009	607.06
540.222	629.06
540.436	614.06
540.65	607.06
540.864	649.06
541.078	618.06
541.292	634.06
541.506	640.06
541.72	626.06
541.934	650.06
542.147	622.06
542.361	620.06
542.575	622.06
542.789	628.06
543.002	609.06
543.216	630.06
543.43	624.06
543.644	600.06
543.857	623.06
544.071	613.06
544.285	639.06
544.498	652.06
544.712	624.06
544.925	647.06
545.139	652.06
545.352	633.06
545.566	639.06
545.779	650.06
545.993	641.06
546.206	663.06
546.42	658.06
546.633	649.06
546.847	660.06
547.06	638.06
547.274	657.06
547.487	658.06
547.7	646.06
547.914	659.06
548.127	643.06
548.34	693.06
548.554	661.06
548.767	633.06
548.98	661.06
549.193	633.06
549.407	675.06
549.62	671.06
549.833	674.06
550.046	653.06
550.259	637.06
550.473	635.06
550.686	627.06
550.899	627.06
551.112	630.06
551.325	620.06
551.538	673.06
551.751	632.06
551.964	637.06
552.177	648.06
552.39	637.06
552.603	668.06
552.816	683.06
553.029	694.06
553.242	676.06
553.455	695.06
553.667	701.06
553.88	699.06
554.093	666.06
554.306	677.06
554.519	635.06
554.732	647.06
554.944	639.06
555.157	616.06
555.37	619.06
555.583	633.06
555.795	609.06
556.008	579.06
556.221	590.06
556.433	575.06
556.646	567.06
556.859	552.06
557.071	557.06
557.284	547.06
557.496	559.06
557.709	537.06
557.921	551.06
558.134	545.06
558.346	561.06
558.559	555.06
558.771	535.06
558.984	517.06
559.196	535.06
559.409	543.06
559.621	540.06
559.833	527.06
560.046	550.06
560.258	548.06
560.47	533.06
560.683	531.06
560.895	523.06
561.107	534.06
561.32	534.06
561.532	525.06
561.744	527.06
561.956	521.06
562.168	545.06
562.381	530.06
562.593	533.06
562.805	519.06
563.017	513.06
563.229	539.06
563.441	523.06
563.653	545.06
563.865	538.06
564.077	551.06
564.289	556.06
564.501	556.06
564.713	553.06
564.925	571.06
565.137	571.06
565.349	586.06
565.561	599.06
565.773	634.06
565.985	676.06
566.197	681.06
566.408	711.06
566.62	762.06
566.832	821.06
567.044	851.06
567.255	853.06
567.467	871.06
567.679	898.06
567.891	957.06
568.102	977.06
568.314	906.06
568.526	832.06
568.737	759.06
568.949	717.06
569.161	669.06
569.372	633.06
569.584	624.06
569.795	577.06
570.007	573.06
570.218	542.06
570.43	528.06
570.641	535.06
570.853	542.06
571.064	549.06
571.276	561.06
571.487	519.06
571.698	502.06
571.91	498.06
572.121	502.06
572.333	469.06
572.544	471.06
572.755	495.06
572.966	456.06
573.178	439.06
573.389	473.06
573.6	435.06
573.811	433.06
574.023	417.06
574.234	457.06
574.445	428.06
574.656	428.06
574.867	438.06
575.078	438.06
575.289	428.06
575.501	429.06
575.712	414.06
575.923	415.06
576.134	437.06
576.345	413.06
576.556	426.06
576.767	414.06
576.978	402.06
577.188	430.06
577.399	421.06
577.61	409.06
577.821	421.06
578.032	402.06
578.243	386.06
578.454	402.06
578.665	392.06
578.875	376.06
579.086	397.06
579.297	378.06
579.508	379.06
579.718	403.06
579.929	394.06
580.14	377.06
580.35	380.06
580.561	390.06
580.772	378.06
580.982	363.06
581.193	347.06
581.403	384.06
581.614	375.06
581.825	372.06
582.035	360.06
582.246	368.06
582.456	381.06
582.667	354.06
582.877	354.06
583.087	350.06
583.298	356.06
583.508	361.06
583.719	352.06
583.929	358.06
584.139	374.06
584.35	350.06
584.56	363.06
584.77	365.06
584.981	362.06
585.191	356.06
585.401	348.06
585.611	334.06
585.821	349.06
586.032	365.06
586.242	355.06
586.452	356.06
586.662	343.06
586.872	347.06
587.082	339.06
587.292	345.06
587.502	344.06
587.713	371.06
587.923	355.06
588.133	361.06
588.343	351.06
588.553	362.06
588.762	360.06
588.972	360.06
589.182	357.06
589.392	335.06
589.602	349.06
589.812	358.06
590.022	381.06
590.232	334.06
590.441	345.06
590.651	354.06
590.861	379.06
591.071	360.06
591.281	353.06
591.49	364.06
591.7	365.06
591.91	376.06
592.119	398.06
592.329	375.06
592.539	399.06
592.748	401.06
592.958	417.06
593.167	460.06
593.377	434.06
593.587	440.06
593.796	427.06
594.006	435.06
594.215	459.06
594.424	438.06
594.634	447.06
594.843	404.06
595.053	418.06
595.262	395.06
595.472	379.06
595.681	360.06
595.89	379.06
596.1	348.06
596.309	369.06
596.518	356.06
596.727	353.06
596.937	333.06
597.146	329.06
597.355	335.06
597.564	305.06
597.774	322.06
597.983	297.06
598.192	322.06
598.401	306.06
598.61	319.06
598.819	315.06
599.028	303.06
599.237	302.06
599.446	301.06
599.655	309.06
599.864	293.06
600.073	293.06
600.282	308.06
600.491	294.06
600.7	296.06
600.909	297.06
601.118	278.06
601.327	278.06
601.536	287.06
601.745	285.06
601.953	283.06
602.162	290.06
602.371	295.06
602.58	305.06
602.789	286.06
602.997	279.06
603.206	288.06
603.415	276.06
603.623	294.06
603.832	275.06
604.041	281.06
604.249	274.06
604.458	286.06
604.666	286.06
604.875	269.06
605.084	277.06
605.292	286.06
605.501	287.06
605.709	281.06
605.918	279.06
606.126	269.06
606.334	289.06
606.543	273.06
606.751	280.06
606.96	269.06
607.168	278.06
607.376	268.06
607.585	280.06
607.793	283.06
608.001	269.06
608.21	263.06
608.418	273.06
608.626	266.06
608.834	281.06
609.043	275.06
609.251	262.06
609.459	264.06
609.667	278.06
609.875	272.06
610.083	269.06
610.291	269.06
610.499	275.06
610.707	252.06
610.916	267.06
611.124	247.06
611.332	283.06
611.54	283.06
611.748	259.06
611.955	269.06
612.163	261.06
612.371	294.06
612.579	269.06
612.787	270.06
612.995	272.06
613.203	260.06
613.411	260.06
613.618	275.06
613.826	256.06
614.034	281.06
614.242	258.06
614.449	270.06
614.657	280.06
614.865	259.06
615.072	269.06
615.28	246.06
615.488	248.06
615.695	265.06
615.903	248.06
616.111	279.06
616.318	268.06
616.526	265.06
616.733	269.06
616.941	260.06
617.148	269.06
617.356	261.06
617.563	269.06
617.771	264.06
617.978	241.06
618.185	240.06
618.393	246.06
618.6	236.06
618.807	266.06
619.015	257.06
619.222	247.06
619.429	255.06
619.637	253.06
619.844	252.06
620.051	253.06
620.258	244.06
620.466	259.06
620.673	246.06
620.88	231.06
621.087	234.06
621.294	232.06
621.501	243.06
621.708	243.06
621.915	247.06
622.122	242.06
622.329	237.06
622.536	257.06
622.743	244.06
622.95	251.06
623.157	219.06
623.364	234.06
623.571	218.06
623.778	221.06
623.985	246.06
624.192	231.06
624.399	220.06
624.606	224.06
624.812	235.06
625.019	232.06
625.226	221.06
625.433	252.06
625.639	228.06
625.846	232.06
626.053	215.06
626.259	219.06
626.466	214.06
626.673	203.06
626.879	212.06
627.086	234.06
627.293	225.06
627.499	220.06
627.706	216.06
627.912	229.06
628.119	229.06
628.325	205.06
628.532	226.06
628.738	226.06
628.945	219.06
629.151	216.06
629.357	214.06
629.564	216.06
629.77	207.06
629.976	206.06
630.183	210.06
630.389	211.06
630.595	213.06
630.802	208.06
631.008	199.06
631.214	185.06
631.42	211.06
631.627	211.06
631.833	223.06
632.039	202.06
632.245	211.06
632.451	212.06
632.657	195.06
632.863	183.06
633.069	195.06
633.275	202.06
633.481	193.06
633.688	205.06
633.893	189.06
634.099	194.06
634.305	193.06
634.511	200.06
634.717	192.06
634.923	194.06
635.129	186.06
635.335	199.06
635.541	206.06
635.747	194.06
635.952	202.06
636.158	190.06
636.364	181.06
636.57	198.06
636.775	194.06
636.981	194.06
637.187	201.06
637.392	185.06
637.598	181.06
637.804	193.06
638.009	195.06
638.215	188.06
638.421	181.06
638.626	204.06
638.832	190.06
639.037	201.06
639.243	182.06
639.448	183.06
639.654	193.06
639.859	180.06
640.065	188.06
640.27	189.06
640.475	193.06
640.681	186.06
640.886	182.06
641.091	178.06
641.297	180.06
641.502	178.06
641.707	183.06
641.913	186.06
642.118	177.06
642.323	172.06
642.528	189.06
642.733	186.06
642.939	182.06
643.144	177.06
643.349	174.06
643.554	173.06
643.759	179.06
643.964	177.06
644.169	161.06
644.374	167.06
644.579	180.06
644.784	176.06
644.989	162.06
645.194	161.06
645.399	171.06
645.604	161.06
645.809	155.06
646.014	189.06
646.219	185.06
646.423	168.06
646.628	174.06
646.833	169.06
647.038	169.06
647.243	178.06
647.447	176.06
647.652	192.06
647.857	182.06
648.062	185.06
648.266	189.06
648.471	199.06
648.676	186.06
648.88	186.06
649.085	192.06
649.289	203.06
649.494	162.06
649.698	170.06
649.903	174.06
650.107	168.06
650.312	174.06
650.516	161.06
650.721	165.06
650.925	164.06
651.13	177.06
651.334	163.06
651.539	157.06
651.743	158.06
651.947	162.06
652.152	154.06
652.356	151.06
652.56	151.06
652.764	156.06
652.969	157.06
653.173	153.06
653.377	165.06
653.581	155.06
653.785	161.06
653.99	146.06
654.194	122.06
654.398	153.06
654.602	139.06
654.806	130.06
655.01	130.06
655.214	151.06
655.418	143.06
655.622	149.06
655.826	122.06
656.03	136.06
656.234	133.06
656.438	144.06
656.642	118.06
656.846	135.06
657.049	147.06
657.253	126.06
657.457	124.06
657.661	128.06
657.865	119.06
658.068	95.06
658.272	112.06
658.476	110.06
658.68	116.06
658.883	133.06
659.087	99.06
659.291	97.06
659.494	99.06
659.698	107.06
659.901	93.06
660.105	92.06
660.309	114.06
660.512	97.06
660.716	102.06
660.919	101.06
661.123	98.06
661.326	106.06
661.53	99.06
661.733	86.06
661.936	84.06
662.14	77.06
662.343	89.06
662.546	90.06
662.75	85.06
662.953	84.06
663.156	78.06
663.36	83.06
663.563	76.06
663.766	77.06
663.969	83.06
664.173	85.06
664.376	94.06
664.579	101.06
664.782	97.06
664.985	71.06
665.188	85.06
665.391	82.06
665.594	93.06
665.797	83.06
666	75.06
666.203	79.06
666.406	82.06
666.609	92.06
666.812	89.06
667.015	81.06
667.218	94.06
667.421	84.06
667.624	86.06
667.827	82.06
668.03	79.06
668.232	84.06
668.435	79.06
668.638	90.06
668.841	84.06
669.043	73.06
669.246	89.06
669.449	94.06
669.651	93.06
669.854	93.06
670.057	91.06
670.259	80.06
670.462	75.06
670.665	83.06
670.867	61.06
671.07	87.06
671.272	84.06
671.475	74.06
671.677	94.06
671.88	85.06
672.082	76.06
672.284	68.06
672.487	82.06
672.689	73.06
672.892	94.06
