Data from Ni(NO3)2@0.25M.TitratingCurve.Agarose3%dH2O.NegLispCup.LampEnergy10.LIBS07252019_HRD10591_18-02-34-566.txt Node
Date: Thu Jul 25 18:02:34 EDT 2019
User: cochatt
Spectrometer: HR+D1059
Trigger mode: 1
Integration Time (sec): 1.000000E-1
Scans to average: 1
Electric dark correction enabled: true
Nonlinearity correction enabled: false
Boxcar width: 0
XAxis mode: Wavelengths
Number of Pixels in Spectrum: 2048
>>>>>Begin Spectral Data<<<<<
223.165	-15.38
223.4	-15.38
223.635	-15.38
223.869	-20.38
224.104	-26.38
224.338	-23.38
224.573	-15.38
224.808	-7.38
225.042	-0.38
225.277	-16.38
225.511	-1.38
225.746	0.62
225.98	-1.38
226.215	22.62
226.449	20.62
226.683	27.62
226.918	29.62
227.152	26.62
227.387	42.62
227.621	36.62
227.856	54.62
228.09	60.62
228.324	35.62
228.559	53.62
228.793	64.62
229.027	108.62
229.262	113.62
229.496	107.62
229.73	103.62
229.964	123.62
230.199	126.62
230.433	146.62
230.667	149.62
230.901	146.62
231.136	126.62
231.37	124.62
231.604	133.62
231.838	146.62
232.072	148.62
232.306	163.62
232.541	147.62
232.775	140.62
233.009	141.62
233.243	116.62
233.477	131.62
233.711	135.62
233.945	140.62
234.179	140.62
234.413	146.62
234.647	143.62
234.881	142.62
235.115	132.62
235.349	124.62
235.583	138.62
235.817	131.62
236.051	140.62
236.285	140.62
236.519	147.62
236.753	135.62
236.987	128.62
237.221	140.62
237.455	135.62
237.689	134.62
237.922	160.62
238.156	148.62
238.39	144.62
238.624	133.62
238.858	148.62
239.091	158.62
239.325	142.62
239.559	150.62
239.793	165.62
240.027	181.62
240.26	151.62
240.494	142.62
240.728	160.62
240.961	142.62
241.195	162.62
241.429	155.62
241.662	154.62
241.896	173.62
242.13	173.62
242.363	176.62
242.597	176.62
242.83	170.62
243.064	166.62
243.298	161.62
243.531	153.62
243.765	177.62
243.998	162.62
244.232	186.62
244.465	160.62
244.699	184.62
244.932	194.62
245.166	172.62
245.399	178.62
245.633	187.62
245.866	192.62
246.099	186.62
246.333	190.62
246.566	163.62
246.8	208.62
247.033	188.62
247.266	188.62
247.5	201.62
247.733	188.62
247.966	202.62
248.2	210.62
248.433	211.62
248.666	202.62
248.899	209.62
249.133	202.62
249.366	201.62
249.599	205.62
249.832	192.62
250.066	210.62
250.299	219.62
250.532	227.62
250.765	228.62
250.998	228.62
251.231	257.62
251.465	247.62
251.698	232.62
251.931	220.62
252.164	236.62
252.397	240.62
252.63	215.62
252.863	238.62
253.096	264.62
253.329	249.62
253.562	233.62
253.795	243.62
254.028	237.62
254.261	246.62
254.494	260.62
254.727	251.62
254.96	265.62
255.193	278.62
255.426	263.62
255.659	264.62
255.892	263.62
256.124	270.62
256.357	280.62
256.59	279.62
256.823	273.62
257.056	280.62
257.289	296.62
257.521	274.62
257.754	284.62
257.987	291.62
258.22	276.62
258.452	297.62
258.685	306.62
258.918	293.62
259.151	297.62
259.383	317.62
259.616	281.62
259.849	301.62
260.081	301.62
260.314	299.62
260.547	286.62
260.779	315.62
261.012	300.62
261.244	337.62
261.477	315.62
261.71	313.62
261.942	308.62
262.175	318.62
262.407	299.62
262.64	308.62
262.872	305.62
263.105	336.62
263.337	340.62
263.57	302.62
263.802	299.62
264.035	324.62
264.267	325.62
264.499	321.62
264.732	342.62
264.964	324.62
265.197	324.62
265.429	347.62
265.661	346.62
265.894	343.62
266.126	355.62
266.358	346.62
266.591	356.62
266.823	344.62
267.055	331.62
267.287	324.62
267.52	345.62
267.752	364.62
267.984	363.62
268.216	361.62
268.448	362.62
268.681	373.62
268.913	353.62
269.145	353.62
269.377	351.62
269.609	356.62
269.841	371.62
270.073	368.62
270.306	368.62
270.538	361.62
270.77	365.62
271.002	367.62
271.234	352.62
271.466	368.62
271.698	362.62
271.93	378.62
272.162	376.62
272.394	366.62
272.626	363.62
272.858	380.62
273.09	376.62
273.322	371.62
273.553	398.62
273.785	384.62
274.017	394.62
274.249	392.62
274.481	394.62
274.713	383.62
274.945	369.62
275.176	395.62
275.408	393.62
275.64	396.62
275.872	381.62
276.104	399.62
276.335	412.62
276.567	401.62
276.799	385.62
277.031	394.62
277.262	419.62
277.494	417.62
277.726	421.62
277.957	429.62
278.189	411.62
278.421	390.62
278.652	393.62
278.884	400.62
279.115	427.62
279.347	428.62
279.579	408.62
279.81	427.62
280.042	405.62
280.273	395.62
280.505	428.62
280.736	408.62
280.968	429.62
281.199	407.62
281.431	413.62
281.662	430.62
281.894	417.62
282.125	432.62
282.356	410.62
282.588	446.62
282.819	437.62
283.051	439.62
283.282	455.62
283.513	424.62
283.745	427.62
283.976	413.62
284.207	425.62
284.439	437.62
284.67	424.62
284.901	409.62
285.132	428.62
285.364	445.62
285.595	423.62
285.826	452.62
286.057	457.62
286.288	398.62
286.52	437.62
286.751	446.62
286.982	443.62
287.213	434.62
287.444	471.62
287.675	460.62
287.906	453.62
288.138	453.62
288.369	450.62
288.6	434.62
288.831	433.62
289.062	435.62
289.293	476.62
289.524	453.62
289.755	429.62
289.986	436.62
290.217	459.62
290.448	462.62
290.679	445.62
290.91	452.62
291.141	440.62
291.371	455.62
291.602	438.62
291.833	457.62
292.064	448.62
292.295	457.62
292.526	462.62
292.757	446.62
292.987	442.62
293.218	469.62
293.449	456.62
293.68	446.62
293.91	444.62
294.141	433.62
294.372	453.62
294.603	470.62
294.833	460.62
295.064	445.62
295.295	469.62
295.525	467.62
295.756	452.62
295.987	461.62
296.217	473.62
296.448	476.62
296.679	446.62
296.909	453.62
297.14	473.62
297.37	478.62
297.601	482.62
297.831	456.62
298.062	471.62
298.292	480.62
298.523	489.62
298.753	512.62
298.984	470.62
299.214	480.62
299.445	487.62
299.675	483.62
299.905	489.62
300.136	509.62
300.366	494.62
300.597	541.62
300.827	500.62
301.057	496.62
301.288	517.62
301.518	498.62
301.748	524.62
301.979	516.62
302.209	502.62
302.439	517.62
302.669	491.62
302.9	504.62
303.13	513.62
303.36	512.62
303.59	496.62
303.82	525.62
304.051	533.62
304.281	535.62
304.511	520.62
304.741	533.62
304.971	514.62
305.201	522.62
305.431	526.62
305.661	520.62
305.891	534.62
306.121	532.62
306.352	519.62
306.582	505.62
306.812	536.62
307.042	535.62
307.272	521.62
307.502	514.62
307.731	527.62
307.961	530.62
308.191	523.62
308.421	516.62
308.651	533.62
308.881	511.62
309.111	527.62
309.341	528.62
309.571	516.62
309.8	550.62
310.03	557.62
310.26	568.62
310.49	582.62
310.72	556.62
310.949	550.62
311.179	570.62
311.409	559.62
311.639	562.62
311.868	560.62
312.098	555.62
312.328	562.62
312.557	562.62
312.787	554.62
313.017	580.62
313.246	582.62
313.476	580.62
313.706	604.62
313.935	595.62
314.165	603.62
314.394	585.62
314.624	602.62
314.853	600.62
315.083	578.62
315.312	603.62
315.542	572.62
315.771	595.62
316.001	576.62
316.23	603.62
316.46	597.62
316.689	596.62
316.919	622.62
317.148	586.62
317.377	594.62
317.607	628.62
317.836	605.62
318.065	631.62
318.295	644.62
318.524	645.62
318.753	622.62
318.983	628.62
319.212	638.62
319.441	636.62
319.67	604.62
319.9	622.62
320.129	636.62
320.358	639.62
320.587	625.62
320.816	646.62
321.046	667.62
321.275	653.62
321.504	674.62
321.733	650.62
321.962	662.62
322.191	684.62
322.42	662.62
322.649	690.62
322.878	653.62
323.108	676.62
323.337	692.62
323.566	703.62
323.795	665.62
324.024	695.62
324.253	713.62
324.482	703.62
324.71	710.62
324.939	701.62
325.168	687.62
325.397	690.62
325.626	709.62
325.855	711.62
326.084	710.62
326.313	704.62
326.542	727.62
326.77	709.62
326.999	746.62
327.228	738.62
327.457	712.62
327.686	739.62
327.914	719.62
328.143	737.62
328.372	741.62
328.6	737.62
328.829	762.62
329.058	758.62
329.287	735.62
329.515	763.62
329.744	760.62
329.972	771.62
330.201	777.62
330.43	778.62
330.658	749.62
330.887	764.62
331.115	774.62
331.344	759.62
331.572	757.62
331.801	769.62
332.03	797.62
332.258	792.62
332.486	794.62
332.715	790.62
332.943	819.62
333.172	801.62
333.4	808.62
333.629	824.62
333.857	811.62
334.085	822.62
334.314	821.62
334.542	827.62
334.771	840.62
334.999	846.62
335.227	852.62
335.455	859.62
335.684	845.62
335.912	861.62
336.14	863.62
336.369	864.62
336.597	865.62
336.825	858.62
337.053	859.62
337.281	871.62
337.51	846.62
337.738	858.62
337.966	874.62
338.194	861.62
338.422	880.62
338.65	838.62
338.878	861.62
339.106	871.62
339.334	862.62
339.562	847.62
339.79	818.62
340.018	839.62
340.246	822.62
340.474	824.62
340.702	821.62
340.93	818.62
341.158	855.62
341.386	845.62
341.614	867.62
341.842	836.62
342.07	830.62
342.298	845.62
342.526	813.62
342.754	861.62
342.981	841.62
343.209	830.62
343.437	856.62
343.665	864.62
343.893	835.62
344.12	836.62
344.348	857.62
344.576	840.62
344.804	843.62
345.031	851.62
345.259	850.62
345.487	834.62
345.714	833.62
345.942	875.62
346.17	875.62
346.397	829.62
346.625	831.62
346.853	816.62
347.08	806.62
347.308	814.62
347.535	827.62
347.763	828.62
347.99	822.62
348.218	817.62
348.445	814.62
348.673	805.62
348.9	813.62
349.128	832.62
349.355	844.62
349.583	811.62
349.81	788.62
350.037	780.62
350.265	808.62
350.492	782.62
350.72	797.62
350.947	796.62
351.174	821.62
351.402	838.62
351.629	833.62
351.856	818.62
352.083	809.62
352.311	817.62
352.538	837.62
352.765	845.62
352.992	805.62
353.22	815.62
353.447	773.62
353.674	808.62
353.901	793.62
354.128	750.62
354.355	768.62
354.583	784.62
354.81	758.62
355.037	782.62
355.264	786.62
355.491	773.62
355.718	791.62
355.945	774.62
356.172	771.62
356.399	794.62
356.626	816.62
356.853	789.62
357.08	797.62
357.307	780.62
357.534	787.62
357.761	768.62
357.988	789.62
358.215	789.62
358.441	798.62
358.668	774.62
358.895	772.62
359.122	772.62
359.349	775.62
359.576	790.62
359.802	783.62
360.029	760.62
360.256	805.62
360.483	792.62
360.709	768.62
360.936	781.62
361.163	790.62
361.39	774.62
361.616	817.62
361.843	782.62
362.07	805.62
362.296	829.62
362.523	786.62
362.749	766.62
362.976	795.62
363.203	797.62
363.429	777.62
363.656	779.62
363.882	779.62
364.109	770.62
364.335	804.62
364.562	762.62
364.788	790.62
365.015	761.62
365.241	756.62
365.468	764.62
365.694	769.62
365.92	773.62
366.147	788.62
366.373	794.62
366.599	784.62
366.826	777.62
367.052	810.62
367.278	796.62
367.505	801.62
367.731	773.62
367.957	789.62
368.184	769.62
368.41	776.62
368.636	819.62
368.862	790.62
369.089	790.62
369.315	816.62
369.541	792.62
369.767	792.62
369.993	797.62
370.219	790.62
370.445	768.62
370.672	820.62
370.898	809.62
371.124	806.62
371.35	804.62
371.576	776.62
371.802	783.62
372.028	800.62
372.254	796.62
372.48	788.62
372.706	804.62
372.932	819.62
373.158	804.62
373.384	781.62
373.61	805.62
373.835	816.62
374.061	798.62
374.287	758.62
374.513	789.62
374.739	822.62
374.965	815.62
375.191	827.62
375.416	803.62
375.642	787.62
375.868	802.62
376.094	798.62
376.319	804.62
376.545	819.62
376.771	801.62
376.997	781.62
377.222	792.62
377.448	769.62
377.674	802.62
377.899	788.62
378.125	768.62
378.35	786.62
378.576	789.62
378.802	775.62
379.027	774.62
379.253	763.62
379.478	774.62
379.704	773.62
379.929	775.62
380.155	774.62
380.38	778.62
380.606	764.62
380.831	796.62
381.057	787.62
381.282	791.62
381.507	756.62
381.733	777.62
381.958	773.62
382.184	780.62
382.409	809.62
382.634	797.62
382.86	789.62
383.085	818.62
383.31	801.62
383.535	812.62
383.761	792.62
383.986	783.62
384.211	800.62
384.436	827.62
384.662	819.62
384.887	809.62
385.112	810.62
385.337	822.62
385.562	797.62
385.787	822.62
386.013	845.62
386.238	861.62
386.463	837.62
386.688	848.62
386.913	817.62
387.138	826.62
387.363	811.62
387.588	832.62
387.813	831.62
388.038	822.62
388.263	828.62
388.488	827.62
388.713	825.62
388.938	845.62
389.163	858.62
389.387	858.62
389.612	862.62
389.837	840.62
390.062	857.62
390.287	869.62
390.512	823.62
390.736	853.62
390.961	871.62
391.186	869.62
391.411	860.62
391.636	855.62
391.86	875.62
392.085	886.62
392.31	870.62
392.534	862.62
392.759	869.62
392.984	865.62
393.208	886.62
393.433	849.62
393.658	888.62
393.882	877.62
394.107	875.62
394.331	883.62
394.556	884.62
394.78	884.62
395.005	875.62
395.229	887.62
395.454	886.62
395.678	895.62
395.903	891.62
396.127	884.62
396.352	904.62
396.576	884.62
396.801	868.62
397.025	877.62
397.249	903.62
397.474	924.62
397.698	900.62
397.922	913.62
398.147	898.62
398.371	921.62
398.595	944.62
398.82	954.62
399.044	953.62
399.268	992.62
399.492	1010.62
399.717	988.62
399.941	1014.62
400.165	1022.62
400.389	996.62
400.613	980.62
400.837	992.62
401.062	945.62
401.286	979.62
401.51	960.62
401.734	948.62
401.958	937.62
402.182	953.62
402.406	952.62
402.63	936.62
402.854	980.62
403.078	971.62
403.302	946.62
403.526	954.62
403.75	931.62
403.974	944.62
404.198	988.62
404.422	957.62
404.645	973.62
404.869	971.62
405.093	978.62
405.317	963.62
405.541	968.62
405.765	992.62
405.988	1008.62
406.212	978.62
406.436	995.62
406.66	988.62
406.883	986.62
407.107	1030.62
407.331	1072.62
407.555	1056.62
407.778	1029.62
408.002	1048.62
408.226	1049.62
408.449	1061.62
408.673	1044.62
408.896	1050.62
409.12	1020.62
409.344	1058.62
409.567	1034.62
409.791	1017.62
410.014	1007.62
410.238	1011.62
410.461	1023.62
410.685	994.62
410.908	1030.62
411.132	1024.62
411.355	1018.62
411.578	997.62
411.802	994.62
412.025	991.62
412.249	981.62
412.472	965.62
412.695	1000.62
412.919	968.62
413.142	1000.62
413.365	993.62
413.589	994.62
413.812	993.62
414.035	958.62
414.258	962.62
414.482	986.62
414.705	975.62
414.928	987.62
415.151	987.62
415.374	966.62
415.597	963.62
415.821	971.62
416.044	945.62
416.267	954.62
416.49	981.62
416.713	946.62
416.936	968.62
417.159	973.62
417.382	963.62
417.605	938.62
417.828	956.62
418.051	969.62
418.274	968.62
418.497	930.62
418.72	944.62
418.943	931.62
419.166	982.62
419.389	1044.62
419.611	1028.62
419.834	994.62
420.057	988.62
420.28	972.62
420.503	952.62
420.726	934.62
420.948	946.62
421.171	920.62
421.394	967.62
421.617	974.62
421.839	946.62
422.062	946.62
422.285	941.62
422.507	960.62
422.73	956.62
422.953	961.62
423.175	942.62
423.398	967.62
423.621	956.62
423.843	971.62
424.066	952.62
424.288	944.62
424.511	957.62
424.733	957.62
424.956	966.62
425.178	984.62
425.401	960.62
425.623	963.62
425.846	958.62
426.068	956.62
426.291	969.62
426.513	966.62
426.735	952.62
426.958	969.62
427.18	918.62
427.402	956.62
427.625	944.62
427.847	938.62
428.069	928.62
428.292	965.62
428.514	944.62
428.736	938.62
428.958	988.62
429.181	947.62
429.403	924.62
429.625	948.62
429.847	969.62
430.069	924.62
430.292	928.62
430.514	930.62
430.736	949.62
430.958	953.62
431.18	953.62
431.402	957.62
431.624	946.62
431.846	937.62
432.068	946.62
432.29	935.62
432.512	953.62
432.734	974.62
432.956	951.62
433.178	994.62
433.4	1000.62
433.622	997.62
433.844	989.62
434.066	1004.62
434.287	970.62
434.509	963.62
434.731	981.62
434.953	965.62
435.175	978.62
435.397	1016.62
435.618	974.62
435.84	983.62
436.062	952.62
436.284	968.62
436.505	960.62
436.727	954.62
436.949	951.62
437.17	974.62
437.392	957.62
437.614	949.62
437.835	935.62
438.057	928.62
438.278	900.62
438.5	921.62
438.721	940.62
438.943	957.62
439.165	932.62
439.386	996.62
439.608	937.62
439.829	977.62
440.05	958.62
440.272	957.62
440.493	959.62
440.715	967.62
440.936	985.62
441.158	996.62
441.379	999.62
441.6	1004.62
441.822	1002.62
442.043	985.62
442.264	965.62
442.486	990.62
442.707	970.62
442.928	986.62
443.149	1004.62
443.371	1000.62
443.592	1030.62
443.813	992.62
444.034	1005.62
444.255	988.62
444.476	980.62
444.698	1016.62
444.919	1028.62
445.14	1137.62
445.361	1047.62
445.582	1010.62
445.803	998.62
446.024	997.62
446.245	957.62
446.466	987.62
446.687	989.62
446.908	962.62
447.129	930.62
447.35	934.62
447.571	951.62
447.792	940.62
448.013	917.62
448.234	902.62
448.455	938.62
448.675	939.62
448.896	914.62
449.117	907.62
449.338	912.62
449.559	886.62
449.779	902.62
450	896.62
450.221	916.62
450.442	895.62
450.662	896.62
450.883	879.62
451.104	901.62
451.324	889.62
451.545	894.62
451.766	882.62
451.986	899.62
452.207	884.62
452.428	857.62
452.648	868.62
452.869	873.62
453.089	873.62
453.31	866.62
453.53	882.62
453.751	838.62
453.971	848.62
454.192	861.62
454.412	880.62
454.633	847.62
454.853	853.62
455.073	839.62
455.294	892.62
455.514	854.62
455.734	873.62
455.955	862.62
456.175	873.62
456.395	856.62
456.616	864.62
456.836	859.62
457.056	853.62
457.276	829.62
457.497	874.62
457.717	868.62
457.937	856.62
458.157	880.62
458.377	883.62
458.598	866.62
458.818	891.62
459.038	875.62
459.258	897.62
459.478	964.62
459.698	946.62
459.918	951.62
460.138	972.62
460.358	981.62
460.578	976.62
460.798	991.62
461.018	1001.62
461.238	968.62
461.458	972.62
461.678	969.62
461.898	986.62
462.118	973.62
462.338	1000.62
462.558	992.62
462.777	1038.62
462.997	1044.62
463.217	1076.62
463.437	1088.62
463.657	1099.62
463.876	1051.62
464.096	1060.62
464.316	1020.62
464.536	1043.62
464.755	1018.62
464.975	1028.62
465.195	990.62
465.414	993.62
465.634	984.62
465.854	939.62
466.073	942.62
466.293	971.62
466.512	968.62
466.732	961.62
466.951	934.62
467.171	943.62
467.391	942.62
467.61	906.62
467.829	923.62
468.049	921.62
468.268	927.62
468.488	908.62
468.707	924.62
468.927	948.62
469.146	912.62
469.365	939.62
469.585	947.62
469.804	931.62
470.023	959.62
470.243	924.62
470.462	924.62
470.681	944.62
470.901	937.62
471.12	973.62
471.339	970.62
471.558	959.62
471.777	965.62
471.997	939.62
472.216	923.62
472.435	943.62
472.654	935.62
472.873	908.62
473.092	925.62
473.311	947.62
473.53	952.62
473.749	924.62
473.968	954.62
474.187	933.62
474.406	945.62
474.625	966.62
474.844	948.62
475.063	978.62
475.282	976.62
475.501	1000.62
475.72	963.62
475.939	975.62
476.158	985.62
476.377	1027.62
476.596	948.62
476.814	1013.62
477.033	984.62
477.252	991.62
477.471	1002.62
477.69	1050.62
477.908	1025.62
478.127	1068.62
478.346	1040.62
478.564	1045.62
478.783	1088.62
479.002	1128.62
479.22	1133.62
479.439	1154.62
479.658	1088.62
479.876	1100.62
480.095	1103.62
480.313	1088.62
480.532	1088.62
480.751	1095.62
480.969	1063.62
481.188	1078.62
481.406	1103.62
481.624	1083.62
481.843	1108.62
482.061	1092.62
482.28	1089.62
482.498	1108.62
482.717	1078.62
482.935	1098.62
483.153	1116.62
483.372	1118.62
483.59	1124.62
483.808	1166.62
484.027	1135.62
484.245	1129.62
484.463	1149.62
484.681	1124.62
484.9	1150.62
485.118	1153.62
485.336	1133.62
485.554	1099.62
485.772	1138.62
485.99	1106.62
486.209	1115.62
486.427	1146.62
486.645	1109.62
486.863	1152.62
487.081	1134.62
487.299	1156.62
487.517	1140.62
487.735	1156.62
487.953	1168.62
488.171	1189.62
488.389	1139.62
488.607	1157.62
488.825	1158.62
489.043	1145.62
489.261	1148.62
489.479	1142.62
489.696	1141.62
489.914	1147.62
490.132	1143.62
490.35	1139.62
490.568	1145.62
490.786	1196.62
491.003	1186.62
491.221	1197.62
491.439	1200.62
491.657	1202.62
491.874	1204.62
492.092	1224.62
492.31	1242.62
492.527	1239.62
492.745	1210.62
492.963	1213.62
493.18	1177.62
493.398	1208.62
493.615	1236.62
493.833	1213.62
494.05	1221.62
494.268	1217.62
494.485	1220.62
494.703	1207.62
494.92	1216.62
495.138	1251.62
495.355	1250.62
495.573	1226.62
495.79	1245.62
496.008	1252.62
496.225	1276.62
496.442	1252.62
496.66	1280.62
496.877	1280.62
497.094	1281.62
497.312	1267.62
497.529	1290.62
497.746	1291.62
497.963	1350.62
498.181	1322.62
498.398	1360.62
498.615	1364.62
498.832	1375.62
499.049	1432.62
499.267	1428.62
499.484	1499.62
499.701	1526.62
499.918	1507.62
500.135	1605.62
500.352	1635.62
500.569	1627.62
500.786	1608.62
501.003	1637.62
501.22	1588.62
501.437	1540.62
501.654	1511.62
501.871	1482.62
502.088	1444.62
502.305	1416.62
502.522	1387.62
502.739	1387.62
502.956	1322.62
503.172	1346.62
503.389	1291.62
503.606	1280.62
503.823	1253.62
504.04	1228.62
504.256	1247.62
504.473	1218.62
504.69	1198.62
504.907	1180.62
505.123	1220.62
505.34	1194.62
505.557	1167.62
505.773	1145.62
505.99	1129.62
506.207	1102.62
506.423	1132.62
506.64	1128.62
506.856	1115.62
507.073	1086.62
507.289	1082.62
507.506	1085.62
507.722	1085.62
507.939	1057.62
508.155	1052.62
508.372	1033.62
508.588	1046.62
508.805	1022.62
509.021	1056.62
509.238	1037.62
509.454	1036.62
509.67	1014.62
509.887	993.62
510.103	981.62
510.319	986.62
510.536	977.62
510.752	967.62
510.968	1008.62
511.184	962.62
511.401	1016.62
511.617	988.62
511.833	976.62
512.049	960.62
512.265	969.62
512.481	973.62
512.698	979.62
512.914	977.62
513.13	972.62
513.346	980.62
513.562	981.62
513.778	975.62
513.994	970.62
514.21	963.62
514.426	963.62
514.642	971.62
514.858	973.62
515.074	977.62
515.29	986.62
515.506	996.62
515.721	968.62
515.937	984.62
516.153	1000.62
516.369	998.62
516.585	1018.62
516.801	990.62
517.016	1024.62
517.232	1036.62
517.448	1021.62
517.664	1041.62
517.879	1020.62
518.095	1038.62
518.311	1008.62
518.527	1005.62
518.742	992.62
518.958	984.62
519.173	996.62
519.389	1009.62
519.605	976.62
519.82	960.62
520.036	969.62
520.251	964.62
520.467	932.62
520.682	929.62
520.898	957.62
521.113	933.62
521.329	922.62
521.544	932.62
521.76	933.62
521.975	954.62
522.19	910.62
522.406	885.62
522.621	908.62
522.836	895.62
523.052	896.62
523.267	928.62
523.482	871.62
523.698	930.62
523.913	894.62
524.128	920.62
524.343	911.62
524.559	905.62
524.774	917.62
524.989	877.62
525.204	936.62
525.419	882.62
525.634	890.62
525.849	902.62
526.064	888.62
526.28	875.62
526.495	856.62
526.71	858.62
526.925	855.62
527.14	883.62
527.355	869.62
527.57	867.62
527.785	883.62
527.999	852.62
528.214	867.62
528.429	866.62
528.644	868.62
528.859	854.62
529.074	873.62
529.289	884.62
529.503	883.62
529.718	859.62
529.933	848.62
530.148	830.62
530.363	873.62
530.577	840.62
530.792	828.62
531.007	840.62
531.221	846.62
531.436	827.62
531.651	829.62
531.865	829.62
532.08	830.62
532.295	836.62
532.509	818.62
532.724	809.62
532.938	816.62
533.153	822.62
533.367	827.62
533.582	818.62
533.796	813.62
534.011	836.62
534.225	826.62
534.44	832.62
534.654	845.62
534.868	827.62
535.083	808.62
535.297	807.62
535.511	793.62
535.726	816.62
535.94	800.62
536.154	799.62
536.369	792.62
536.583	783.62
536.797	778.62
537.011	810.62
537.225	786.62
537.44	794.62
537.654	782.62
537.868	784.62
538.082	784.62
538.296	782.62
538.51	785.62
538.724	775.62
538.938	795.62
539.153	796.62
539.367	784.62
539.581	762.62
539.795	739.62
540.009	753.62
540.222	768.62
540.436	785.62
540.65	788.62
540.864	762.62
541.078	801.62
541.292	803.62
541.506	803.62
541.72	785.62
541.934	803.62
542.147	785.62
542.361	785.62
542.575	817.62
542.789	795.62
543.002	755.62
543.216	764.62
543.43	748.62
543.644	757.62
543.857	776.62
544.071	772.62
544.285	770.62
544.498	776.62
544.712	790.62
544.925	794.62
545.139	769.62
545.352	787.62
545.566	774.62
545.779	758.62
545.993	767.62
546.206	780.62
546.42	785.62
546.633	747.62
546.847	780.62
547.06	799.62
547.274	800.62
547.487	798.62
547.7	762.62
547.914	781.62
548.127	783.62
548.34	766.62
548.554	751.62
548.767	789.62
548.98	772.62
549.193	784.62
549.407	777.62
549.62	738.62
549.833	773.62
550.046	757.62
550.259	753.62
550.473	733.62
550.686	772.62
550.899	760.62
551.112	729.62
551.325	738.62
551.538	756.62
551.751	734.62
551.964	723.62
552.177	709.62
552.39	730.62
552.603	767.62
552.816	762.62
553.029	734.62
553.242	764.62
553.455	758.62
553.667	739.62
553.88	733.62
554.093	719.62
554.306	715.62
554.519	732.62
554.732	724.62
554.944	726.62
555.157	706.62
555.37	711.62
555.583	683.62
555.795	693.62
556.008	672.62
556.221	681.62
556.433	672.62
556.646	697.62
556.859	680.62
557.071	697.62
557.284	676.62
557.496	662.62
557.709	664.62
557.921	674.62
558.134	674.62
558.346	655.62
558.559	657.62
558.771	657.62
558.984	681.62
559.196	641.62
559.409	650.62
559.621	643.62
559.833	643.62
560.046	642.62
560.258	657.62
560.47	652.62
560.683	635.62
560.895	652.62
561.107	661.62
561.32	631.62
561.532	640.62
561.744	641.62
561.956	616.62
562.168	662.62
562.381	650.62
562.593	638.62
562.805	638.62
563.017	638.62
563.229	646.62
563.441	598.62
563.653	639.62
563.865	624.62
564.077	637.62
564.289	641.62
564.501	652.62
564.713	641.62
564.925	655.62
565.137	642.62
565.349	639.62
565.561	640.62
565.773	632.62
565.985	646.62
566.197	675.62
566.408	690.62
566.62	660.62
566.832	709.62
567.044	712.62
567.255	682.62
567.467	681.62
567.679	692.62
567.891	683.62
568.102	669.62
568.314	669.62
568.526	664.62
568.737	654.62
568.949	618.62
569.161	615.62
569.372	617.62
569.584	594.62
569.795	588.62
570.007	612.62
570.218	577.62
570.43	576.62
570.641	578.62
570.853	560.62
571.064	569.62
571.276	579.62
571.487	540.62
571.698	536.62
571.91	537.62
572.121	571.62
572.333	561.62
572.544	538.62
572.755	539.62
572.966	526.62
573.178	517.62
573.389	535.62
573.6	516.62
573.811	517.62
574.023	481.62
574.234	516.62
574.445	522.62
574.656	516.62
574.867	497.62
575.078	485.62
575.289	472.62
575.501	490.62
575.712	472.62
575.923	490.62
576.134	495.62
576.345	456.62
576.556	486.62
576.767	474.62
576.978	491.62
577.188	469.62
577.399	475.62
577.61	481.62
577.821	458.62
578.032	441.62
578.243	456.62
578.454	456.62
578.665	469.62
578.875	473.62
579.086	463.62
579.297	438.62
579.508	436.62
579.718	465.62
579.929	465.62
580.14	449.62
580.35	449.62
580.561	433.62
580.772	445.62
580.982	458.62
581.193	461.62
581.403	457.62
581.614	430.62
581.825	434.62
582.035	412.62
582.246	444.62
582.456	458.62
582.667	459.62
582.877	431.62
583.087	424.62
583.298	415.62
583.508	410.62
583.719	435.62
583.929	412.62
584.139	418.62
584.35	405.62
584.56	426.62
584.77	415.62
584.981	414.62
585.191	418.62
585.401	399.62
585.611	400.62
585.821	411.62
586.032	404.62
586.242	419.62
586.452	414.62
586.662	402.62
586.872	402.62
587.082	403.62
587.292	396.62
587.502	413.62
587.713	414.62
587.923	389.62
588.133	416.62
588.343	409.62
588.553	390.62
588.762	409.62
588.972	391.62
589.182	412.62
589.392	399.62
589.602	403.62
589.812	414.62
590.022	405.62
590.232	397.62
590.441	395.62
590.651	377.62
590.861	405.62
591.071	396.62
591.281	396.62
591.49	407.62
591.7	401.62
591.91	412.62
592.119	390.62
592.329	385.62
592.539	388.62
592.748	383.62
592.958	409.62
593.167	386.62
593.377	402.62
593.587	408.62
593.796	382.62
594.006	394.62
594.215	390.62
594.424	398.62
594.634	381.62
594.843	393.62
595.053	382.62
595.262	395.62
595.472	394.62
595.681	371.62
595.89	385.62
596.1	386.62
596.309	372.62
596.518	372.62
596.727	373.62
596.937	372.62
597.146	360.62
597.355	356.62
597.564	375.62
597.774	368.62
597.983	366.62
598.192	352.62
598.401	343.62
598.61	357.62
598.819	344.62
599.028	348.62
599.237	350.62
599.446	357.62
599.655	333.62
599.864	347.62
600.073	334.62
600.282	340.62
600.491	345.62
600.7	327.62
600.909	349.62
601.118	351.62
601.327	329.62
601.536	353.62
601.745	360.62
601.953	335.62
602.162	326.62
602.371	341.62
602.58	328.62
602.789	331.62
602.997	330.62
603.206	336.62
603.415	341.62
603.623	321.62
603.832	319.62
604.041	329.62
604.249	292.62
604.458	331.62
604.666	322.62
604.875	304.62
605.084	325.62
605.292	314.62
605.501	332.62
605.709	328.62
605.918	323.62
606.126	328.62
606.334	314.62
606.543	328.62
606.751	315.62
606.96	323.62
607.168	308.62
607.376	318.62
607.585	329.62
607.793	326.62
608.001	315.62
608.21	305.62
608.418	311.62
608.626	316.62
608.834	314.62
609.043	316.62
609.251	293.62
609.459	310.62
609.667	312.62
609.875	296.62
610.083	312.62
610.291	307.62
610.499	319.62
610.707	287.62
610.916	285.62
611.124	318.62
611.332	288.62
611.54	297.62
611.748	291.62
611.955	297.62
612.163	308.62
612.371	295.62
612.579	286.62
612.787	308.62
612.995	286.62
613.203	304.62
613.411	326.62
613.618	303.62
613.826	293.62
614.034	296.62
614.242	278.62
614.449	306.62
614.657	296.62
614.865	297.62
615.072	292.62
615.28	280.62
615.488	309.62
615.695	280.62
615.903	306.62
616.111	285.62
616.318	279.62
616.526	297.62
616.733	287.62
616.941	276.62
617.148	280.62
617.356	290.62
617.563	285.62
617.771	290.62
617.978	276.62
618.185	279.62
618.393	273.62
618.6	292.62
618.807	281.62
619.015	271.62
619.222	280.62
619.429	284.62
619.637	290.62
619.844	270.62
620.051	277.62
620.258	288.62
620.466	259.62
620.673	266.62
620.88	245.62
621.087	256.62
621.294	265.62
621.501	270.62
621.708	276.62
621.915	267.62
622.122	273.62
622.329	261.62
622.536	268.62
622.743	250.62
622.95	276.62
623.157	277.62
623.364	271.62
623.571	268.62
623.778	263.62
623.985	264.62
624.192	269.62
624.399	258.62
624.606	258.62
624.812	273.62
625.019	266.62
625.226	250.62
625.433	253.62
625.639	253.62
625.846	276.62
626.053	243.62
626.259	254.62
626.466	258.62
626.673	257.62
626.879	259.62
627.086	251.62
627.293	258.62
627.499	230.62
627.706	252.62
627.912	244.62
628.119	243.62
628.325	260.62
628.532	234.62
628.738	237.62
628.945	235.62
629.151	246.62
629.357	225.62
629.564	234.62
629.77	250.62
629.976	246.62
630.183	234.62
630.389	240.62
630.595	265.62
630.802	240.62
631.008	233.62
631.214	249.62
631.42	243.62
631.627	226.62
631.833	231.62
632.039	219.62
632.245	228.62
632.451	256.62
632.657	258.62
632.863	230.62
633.069	210.62
633.275	223.62
633.481	221.62
633.688	234.62
633.893	233.62
634.099	212.62
634.305	241.62
634.511	229.62
634.717	220.62
634.923	230.62
635.129	206.62
635.335	218.62
635.541	215.62
635.747	219.62
635.952	211.62
636.158	227.62
636.364	241.62
636.57	230.62
636.775	215.62
636.981	235.62
637.187	222.62
637.392	218.62
637.598	219.62
637.804	217.62
638.009	224.62
638.215	208.62
638.421	219.62
638.626	206.62
638.832	227.62
639.037	206.62
639.243	210.62
639.448	215.62
639.654	202.62
639.859	218.62
640.065	209.62
640.27	236.62
640.475	216.62
640.681	207.62
640.886	202.62
641.091	215.62
641.297	216.62
641.502	223.62
641.707	225.62
641.913	217.62
642.118	199.62
642.323	195.62
642.528	226.62
642.733	201.62
642.939	217.62
643.144	196.62
643.349	212.62
643.554	216.62
643.759	216.62
643.964	212.62
644.169	202.62
644.374	210.62
644.579	217.62
644.784	204.62
644.989	209.62
645.194	208.62
645.399	233.62
645.604	218.62
645.809	207.62
646.014	198.62
646.219	216.62
646.423	212.62
646.628	214.62
646.833	196.62
647.038	216.62
647.243	238.62
647.447	207.62
647.652	210.62
647.857	212.62
648.062	216.62
648.266	204.62
648.471	217.62
648.676	198.62
648.88	205.62
649.085	218.62
649.289	220.62
649.494	214.62
649.698	210.62
649.903	206.62
650.107	203.62
650.312	213.62
650.516	227.62
650.721	207.62
650.925	202.62
651.13	206.62
651.334	220.62
651.539	213.62
651.743	216.62
651.947	184.62
652.152	198.62
652.356	209.62
652.56	196.62
652.764	200.62
652.969	195.62
653.173	199.62
653.377	196.62
653.581	196.62
653.785	184.62
653.99	181.62
654.194	200.62
654.398	191.62
654.602	201.62
654.806	157.62
655.01	180.62
655.214	193.62
655.418	188.62
655.622	164.62
655.826	178.62
656.03	176.62
656.234	166.62
656.438	170.62
656.642	172.62
656.846	172.62
657.049	161.62
657.253	149.62
657.457	158.62
657.661	152.62
657.865	151.62
658.068	152.62
658.272	142.62
658.476	142.62
658.68	148.62
658.883	135.62
659.087	122.62
659.291	132.62
659.494	125.62
659.698	114.62
659.901	130.62
660.105	126.62
660.309	98.62
660.512	119.62
660.716	96.62
660.919	95.62
661.123	101.62
661.326	91.62
661.53	103.62
661.733	90.62
661.936	88.62
662.14	95.62
662.343	101.62
662.546	92.62
662.75	91.62
662.953	83.62
663.156	92.62
663.36	90.62
663.563	84.62
663.766	96.62
663.969	84.62
664.173	79.62
664.376	82.62
664.579	86.62
664.782	76.62
664.985	91.62
665.188	84.62
665.391	83.62
665.594	74.62
665.797	83.62
666	89.62
666.203	89.62
666.406	78.62
666.609	89.62
666.812	67.62
667.015	85.62
667.218	84.62
667.421	86.62
667.624	94.62
667.827	73.62
668.03	84.62
668.232	73.62
668.435	77.62
668.638	83.62
668.841	101.62
669.043	92.62
669.246	78.62
669.449	87.62
669.651	90.62
669.854	63.62
670.057	92.62
670.259	80.62
670.462	79.62
670.665	77.62
670.867	85.62
671.07	85.62
671.272	83.62
671.475	71.62
671.677	82.62
671.88	87.62
672.082	76.62
672.284	87.62
672.487	89.62
672.689	72.62
672.892	73.62
