Data from Ni(NO3)2@0.25M.TitratingCurve.Agarose3%dH2O.NegLispCup.LampEnergy10.LIBS07252019_HRD10591_18-03-37-565.txt Node
Date: Thu Jul 25 18:03:37 EDT 2019
User: cochatt
Spectrometer: HR+D1059
Trigger mode: 1
Integration Time (sec): 1.000000E-1
Scans to average: 1
Electric dark correction enabled: true
Nonlinearity correction enabled: false
Boxcar width: 0
XAxis mode: Wavelengths
Number of Pixels in Spectrum: 2048
>>>>>Begin Spectral Data<<<<<
223.165	-12.12
223.4	-12.12
223.635	-12.12
223.869	-22.12
224.104	-27.12
224.338	-16.12
224.573	-13.12
224.808	-5.12
225.042	1.88
225.277	-10.12
225.511	-5.12
225.746	-8.12
225.98	4.88
226.215	13.88
226.449	12.88
226.683	24.88
226.918	31.88
227.152	28.88
227.387	46.88
227.621	39.88
227.856	43.88
228.09	41.88
228.324	55.88
228.559	43.88
228.793	52.88
229.027	76.88
229.262	70.88
229.496	108.88
229.73	96.88
229.964	96.88
230.199	113.88
230.433	100.88
230.667	100.88
230.901	101.88
231.136	116.88
231.37	110.88
231.604	119.88
231.838	119.88
232.072	115.88
232.306	108.88
232.541	122.88
232.775	120.88
233.009	119.88
233.243	123.88
233.477	118.88
233.711	116.88
233.945	114.88
234.179	106.88
234.413	128.88
234.647	108.88
234.881	109.88
235.115	118.88
235.349	119.88
235.583	98.88
235.817	104.88
236.051	119.88
236.285	104.88
236.519	124.88
236.753	126.88
236.987	112.88
237.221	117.88
237.455	102.88
237.689	126.88
237.922	123.88
238.156	126.88
238.39	113.88
238.624	124.88
238.858	134.88
239.091	130.88
239.325	125.88
239.559	134.88
239.793	111.88
240.027	132.88
240.26	132.88
240.494	127.88
240.728	105.88
240.961	124.88
241.195	138.88
241.429	125.88
241.662	129.88
241.896	134.88
242.13	143.88
242.363	138.88
242.597	122.88
242.83	136.88
243.064	129.88
243.298	118.88
243.531	134.88
243.765	140.88
243.998	142.88
244.232	153.88
244.465	162.88
244.699	143.88
244.932	146.88
245.166	129.88
245.399	143.88
245.633	138.88
245.866	138.88
246.099	145.88
246.333	153.88
246.566	164.88
246.8	136.88
247.033	147.88
247.266	158.88
247.5	152.88
247.733	155.88
247.966	168.88
248.2	151.88
248.433	153.88
248.666	149.88
248.899	163.88
249.133	180.88
249.366	182.88
249.599	167.88
249.832	162.88
250.066	164.88
250.299	168.88
250.532	172.88
250.765	190.88
250.998	180.88
251.231	190.88
251.465	171.88
251.698	208.88
251.931	200.88
252.164	181.88
252.397	200.88
252.63	196.88
252.863	192.88
253.096	195.88
253.329	212.88
253.562	208.88
253.795	192.88
254.028	211.88
254.261	212.88
254.494	227.88
254.727	243.88
254.96	226.88
255.193	224.88
255.426	221.88
255.659	205.88
255.892	231.88
256.124	244.88
256.357	245.88
256.59	239.88
256.823	231.88
257.056	230.88
257.289	228.88
257.521	248.88
257.754	259.88
257.987	231.88
258.22	247.88
258.452	260.88
258.685	259.88
258.918	252.88
259.151	255.88
259.383	262.88
259.616	257.88
259.849	262.88
260.081	278.88
260.314	268.88
260.547	268.88
260.779	260.88
261.012	265.88
261.244	254.88
261.477	276.88
261.71	284.88
261.942	283.88
262.175	262.88
262.407	275.88
262.64	265.88
262.872	275.88
263.105	283.88
263.337	283.88
263.57	303.88
263.802	283.88
264.035	288.88
264.267	299.88
264.499	303.88
264.732	287.88
264.964	280.88
265.197	302.88
265.429	302.88
265.661	288.88
265.894	295.88
266.126	301.88
266.358	318.88
266.591	289.88
266.823	304.88
267.055	286.88
267.287	300.88
267.52	306.88
267.752	304.88
267.984	314.88
268.216	313.88
268.448	310.88
268.681	289.88
268.913	288.88
269.145	310.88
269.377	307.88
269.609	308.88
269.841	304.88
270.073	310.88
270.306	318.88
270.538	326.88
270.77	307.88
271.002	324.88
271.234	326.88
271.466	307.88
271.698	320.88
271.93	334.88
272.162	315.88
272.394	336.88
272.626	325.88
272.858	333.88
273.09	336.88
273.322	339.88
273.553	324.88
273.785	347.88
274.017	330.88
274.249	339.88
274.481	331.88
274.713	337.88
274.945	328.88
275.176	332.88
275.408	340.88
275.64	322.88
275.872	330.88
276.104	337.88
276.335	328.88
276.567	331.88
276.799	324.88
277.031	354.88
277.262	350.88
277.494	344.88
277.726	321.88
277.957	339.88
278.189	344.88
278.421	345.88
278.652	349.88
278.884	340.88
279.115	343.88
279.347	357.88
279.579	346.88
279.81	352.88
280.042	368.88
280.273	364.88
280.505	346.88
280.736	353.88
280.968	347.88
281.199	357.88
281.431	360.88
281.662	345.88
281.894	357.88
282.125	361.88
282.356	363.88
282.588	368.88
282.819	368.88
283.051	349.88
283.282	339.88
283.513	359.88
283.745	360.88
283.976	356.88
284.207	344.88
284.439	358.88
284.67	356.88
284.901	371.88
285.132	363.88
285.364	366.88
285.595	354.88
285.826	374.88
286.057	379.88
286.288	368.88
286.52	382.88
286.751	379.88
286.982	382.88
287.213	369.88
287.444	364.88
287.675	360.88
287.906	384.88
288.138	359.88
288.369	363.88
288.6	380.88
288.831	374.88
289.062	364.88
289.293	375.88
289.524	346.88
289.755	362.88
289.986	388.88
290.217	373.88
290.448	380.88
290.679	387.88
290.91	384.88
291.141	366.88
291.371	380.88
291.602	375.88
291.833	362.88
292.064	380.88
292.295	370.88
292.526	379.88
292.757	368.88
292.987	381.88
293.218	380.88
293.449	383.88
293.68	386.88
293.91	372.88
294.141	383.88
294.372	366.88
294.603	378.88
294.833	374.88
295.064	375.88
295.295	397.88
295.525	373.88
295.756	400.88
295.987	382.88
296.217	387.88
296.448	369.88
296.679	378.88
296.909	379.88
297.14	393.88
297.37	391.88
297.601	396.88
297.831	394.88
298.062	416.88
298.292	404.88
298.523	420.88
298.753	414.88
298.984	408.88
299.214	401.88
299.445	408.88
299.675	400.88
299.905	408.88
300.136	417.88
300.366	435.88
300.597	444.88
300.827	405.88
301.057	419.88
301.288	415.88
301.518	432.88
301.748	434.88
301.979	444.88
302.209	438.88
302.439	431.88
302.669	425.88
302.9	411.88
303.13	403.88
303.36	415.88
303.59	417.88
303.82	442.88
304.051	422.88
304.281	422.88
304.511	431.88
304.741	423.88
304.971	441.88
305.201	461.88
305.431	449.88
305.661	426.88
305.891	442.88
306.121	428.88
306.352	423.88
306.582	448.88
306.812	432.88
307.042	435.88
307.272	404.88
307.502	415.88
307.731	435.88
307.961	415.88
308.191	420.88
308.421	441.88
308.651	439.88
308.881	436.88
309.111	433.88
309.341	425.88
309.571	453.88
309.8	468.88
310.03	473.88
310.26	462.88
310.49	464.88
310.72	476.88
310.949	450.88
311.179	425.88
311.409	460.88
311.639	449.88
311.868	450.88
312.098	458.88
312.328	464.88
312.557	455.88
312.787	486.88
313.017	493.88
313.246	490.88
313.476	493.88
313.706	484.88
313.935	474.88
314.165	484.88
314.394	498.88
314.624	496.88
314.853	495.88
315.083	509.88
315.312	494.88
315.542	502.88
315.771	509.88
316.001	534.88
316.23	532.88
316.46	523.88
316.689	513.88
316.919	508.88
317.148	522.88
317.377	537.88
317.607	506.88
317.836	524.88
318.065	547.88
318.295	518.88
318.524	527.88
318.753	513.88
318.983	547.88
319.212	523.88
319.441	537.88
319.67	536.88
319.9	553.88
320.129	546.88
320.358	536.88
320.587	564.88
320.816	558.88
321.046	547.88
321.275	573.88
321.504	578.88
321.733	553.88
321.962	568.88
322.191	575.88
322.42	571.88
322.649	583.88
322.878	565.88
323.108	606.88
323.337	616.88
323.566	588.88
323.795	604.88
324.024	610.88
324.253	602.88
324.482	625.88
324.71	613.88
324.939	638.88
325.168	634.88
325.397	632.88
325.626	612.88
325.855	640.88
326.084	630.88
326.313	651.88
326.542	635.88
326.77	665.88
326.999	668.88
327.228	634.88
327.457	671.88
327.686	646.88
327.914	661.88
328.143	643.88
328.372	678.88
328.6	662.88
328.829	671.88
329.058	667.88
329.287	657.88
329.515	720.88
329.744	712.88
329.972	699.88
330.201	720.88
330.43	711.88
330.658	708.88
330.887	720.88
331.115	702.88
331.344	705.88
331.572	729.88
331.801	732.88
332.03	743.88
332.258	785.88
332.486	751.88
332.715	794.88
332.943	820.88
333.172	807.88
333.4	817.88
333.629	835.88
333.857	849.88
334.085	858.88
334.314	861.88
334.542	842.88
334.771	875.88
334.999	848.88
335.227	848.88
335.455	833.88
335.684	879.88
335.912	859.88
336.14	844.88
336.369	859.88
336.597	857.88
336.825	862.88
337.053	850.88
337.281	867.88
337.51	834.88
337.738	851.88
337.966	812.88
338.194	798.88
338.422	820.88
338.65	799.88
338.878	825.88
339.106	786.88
339.334	810.88
339.562	789.88
339.79	786.88
340.018	766.88
340.246	761.88
340.474	818.88
340.702	795.88
340.93	793.88
341.158	776.88
341.386	772.88
341.614	799.88
341.842	818.88
342.07	749.88
342.298	783.88
342.526	773.88
342.754	768.88
342.981	765.88
343.209	824.88
343.437	822.88
343.665	835.88
343.893	864.88
344.12	879.88
344.348	855.88
344.576	859.88
344.804	849.88
345.031	823.88
345.259	826.88
345.487	809.88
345.714	811.88
345.942	812.88
346.17	820.88
346.397	790.88
346.625	799.88
346.853	773.88
347.08	756.88
347.308	785.88
347.535	747.88
347.763	760.88
347.99	764.88
348.218	742.88
348.445	752.88
348.673	727.88
348.9	745.88
349.128	736.88
349.355	768.88
349.583	756.88
349.81	736.88
350.037	745.88
350.265	744.88
350.492	719.88
350.72	738.88
350.947	745.88
351.174	747.88
351.402	765.88
351.629	735.88
351.856	768.88
352.083	739.88
352.311	769.88
352.538	774.88
352.765	767.88
352.992	729.88
353.22	711.88
353.447	720.88
353.674	716.88
353.901	723.88
354.128	711.88
354.355	713.88
354.583	716.88
354.81	725.88
355.037	725.88
355.264	731.88
355.491	734.88
355.718	708.88
355.945	705.88
356.172	737.88
356.399	747.88
356.626	728.88
356.853	768.88
357.08	742.88
357.307	716.88
357.534	748.88
357.761	735.88
357.988	726.88
358.215	693.88
358.441	697.88
358.668	734.88
358.895	708.88
359.122	729.88
359.349	682.88
359.576	714.88
359.802	739.88
360.029	732.88
360.256	708.88
360.483	721.88
360.709	722.88
360.936	750.88
361.163	712.88
361.39	733.88
361.616	720.88
361.843	741.88
362.07	738.88
362.296	732.88
362.523	729.88
362.749	729.88
362.976	703.88
363.203	698.88
363.429	713.88
363.656	715.88
363.882	719.88
364.109	692.88
364.335	700.88
364.562	712.88
364.788	716.88
365.015	725.88
365.241	728.88
365.468	702.88
365.694	727.88
365.92	711.88
366.147	707.88
366.373	709.88
366.599	683.88
366.826	716.88
367.052	681.88
367.278	724.88
367.505	720.88
367.731	731.88
367.957	716.88
368.184	675.88
368.41	729.88
368.636	706.88
368.862	724.88
369.089	730.88
369.315	731.88
369.541	719.88
369.767	716.88
369.993	726.88
370.219	726.88
370.445	755.88
370.672	760.88
370.898	727.88
371.124	750.88
371.35	746.88
371.576	728.88
371.802	747.88
372.028	731.88
372.254	741.88
372.48	760.88
372.706	744.88
372.932	753.88
373.158	747.88
373.384	745.88
373.61	729.88
373.835	744.88
374.061	740.88
374.287	740.88
374.513	727.88
374.739	760.88
374.965	777.88
375.191	758.88
375.416	776.88
375.642	744.88
375.868	765.88
376.094	739.88
376.319	726.88
376.545	714.88
376.771	734.88
376.997	724.88
377.222	744.88
377.448	730.88
377.674	704.88
377.899	716.88
378.125	723.88
378.35	716.88
378.576	737.88
378.802	721.88
379.027	704.88
379.253	714.88
379.478	704.88
379.704	692.88
379.929	726.88
380.155	697.88
380.38	699.88
380.606	703.88
380.831	720.88
381.057	724.88
381.282	726.88
381.507	686.88
381.733	720.88
381.958	722.88
382.184	720.88
382.409	729.88
382.634	708.88
382.86	698.88
383.085	729.88
383.31	743.88
383.535	754.88
383.761	737.88
383.986	741.88
384.211	761.88
384.436	758.88
384.662	751.88
384.887	786.88
385.112	779.88
385.337	775.88
385.562	800.88
385.787	786.88
386.013	801.88
386.238	809.88
386.463	822.88
386.688	834.88
386.913	820.88
387.138	817.88
387.363	831.88
387.588	833.88
387.813	833.88
388.038	802.88
388.263	818.88
388.488	805.88
388.713	797.88
388.938	817.88
389.163	805.88
389.387	806.88
389.612	804.88
389.837	834.88
390.062	802.88
390.287	816.88
390.512	843.88
390.736	832.88
390.961	852.88
391.186	816.88
391.411	846.88
391.636	834.88
391.86	873.88
392.085	866.88
392.31	876.88
392.534	857.88
392.759	864.88
392.984	856.88
393.208	834.88
393.433	862.88
393.658	863.88
393.882	864.88
394.107	843.88
394.331	843.88
394.556	843.88
394.78	857.88
395.005	875.88
395.229	879.88
395.454	882.88
395.678	884.88
395.903	907.88
396.127	884.88
396.352	889.88
396.576	860.88
396.801	871.88
397.025	898.88
397.249	875.88
397.474	941.88
397.698	920.88
397.922	928.88
398.147	948.88
398.371	973.88
398.595	980.88
398.82	1016.88
399.044	1042.88
399.268	1098.88
399.492	1153.88
399.717	1204.88
399.941	1209.88
400.165	1225.88
400.389	1141.88
400.613	1108.88
400.837	1060.88
401.062	1037.88
401.286	1048.88
401.51	1014.88
401.734	1017.88
401.958	1035.88
402.182	1017.88
402.406	1018.88
402.63	976.88
402.854	990.88
403.078	1040.88
403.302	1043.88
403.526	1051.88
403.75	1054.88
403.974	1060.88
404.198	1008.88
404.422	1070.88
404.645	1053.88
404.869	1061.88
405.093	1066.88
405.317	1090.88
405.541	1079.88
405.765	1064.88
405.988	1080.88
406.212	1072.88
406.436	1107.88
406.66	1112.88
406.883	1116.88
407.107	1186.88
407.331	1183.88
407.555	1250.88
407.778	1203.88
408.002	1229.88
408.226	1214.88
408.449	1212.88
408.673	1150.88
408.896	1143.88
409.12	1126.88
409.344	1148.88
409.567	1112.88
409.791	1127.88
410.014	1144.88
410.238	1115.88
410.461	1128.88
410.685	1147.88
410.908	1105.88
411.132	1108.88
411.355	1103.88
411.578	1085.88
411.802	1086.88
412.025	1098.88
412.249	1084.88
412.472	1086.88
412.695	1065.88
412.919	1058.88
413.142	1078.88
413.365	1058.88
413.589	1086.88
413.812	1044.88
414.035	1085.88
414.258	1070.88
414.482	1046.88
414.705	1042.88
414.928	1074.88
415.151	1062.88
415.374	1043.88
415.597	1059.88
415.821	1039.88
416.044	1035.88
416.267	1016.88
416.49	1031.88
416.713	1035.88
416.936	1031.88
417.159	1026.88
417.382	1042.88
417.605	1007.88
417.828	1005.88
418.051	1035.88
418.274	1034.88
418.497	1022.88
418.72	1022.88
418.943	1056.88
419.166	1088.88
419.389	1185.88
419.611	1160.88
419.834	1116.88
420.057	1116.88
420.28	1071.88
420.503	1052.88
420.726	1050.88
420.948	1062.88
421.171	1059.88
421.394	1044.88
421.617	1005.88
421.839	1060.88
422.062	1063.88
422.285	1034.88
422.507	1051.88
422.73	1073.88
422.953	1046.88
423.175	1061.88
423.398	1060.88
423.621	1051.88
423.843	1083.88
424.066	1077.88
424.288	1058.88
424.511	1088.88
424.733	1052.88
424.956	1067.88
425.178	1071.88
425.401	1066.88
425.623	1034.88
425.846	1041.88
426.068	1055.88
426.291	1044.88
426.513	1084.88
426.735	1022.88
426.958	1044.88
427.18	1029.88
427.402	1024.88
427.625	995.88
427.847	1003.88
428.069	1012.88
428.292	1048.88
428.514	1010.88
428.736	1026.88
428.958	1025.88
429.181	1007.88
429.403	1015.88
429.625	1017.88
429.847	987.88
430.069	1010.88
430.292	1015.88
430.514	1017.88
430.736	998.88
430.958	1010.88
431.18	997.88
431.402	1034.88
431.624	993.88
431.846	1042.88
432.068	1019.88
432.29	1015.88
432.512	998.88
432.734	1042.88
432.956	1044.88
433.178	1067.88
433.4	1076.88
433.622	1057.88
433.844	1056.88
434.066	1050.88
434.287	1046.88
434.509	1054.88
434.731	1082.88
434.953	1088.88
435.175	1109.88
435.397	1103.88
435.618	1059.88
435.84	1062.88
436.062	1042.88
436.284	1047.88
436.505	1046.88
436.727	1038.88
436.949	1025.88
437.17	1042.88
437.392	1009.88
437.614	1026.88
437.835	971.88
438.057	973.88
438.278	963.88
438.5	1009.88
438.721	995.88
438.943	1018.88
439.165	978.88
439.386	1034.88
439.608	1034.88
439.829	1047.88
440.05	1023.88
440.272	1054.88
440.493	1060.88
440.715	1032.88
440.936	1046.88
441.158	1084.88
441.379	1083.88
441.6	1095.88
441.822	1089.88
442.043	1115.88
442.264	1115.88
442.486	1095.88
442.707	1129.88
442.928	1088.88
443.149	1094.88
443.371	1111.88
443.592	1127.88
443.813	1147.88
444.034	1086.88
444.255	1150.88
444.476	1160.88
444.698	1173.88
444.919	1191.88
445.14	1271.88
445.361	1168.88
445.582	1165.88
445.803	1098.88
446.024	1110.88
446.245	1100.88
446.466	1113.88
446.687	1052.88
446.908	1072.88
447.129	1052.88
447.35	1029.88
447.571	1048.88
447.792	995.88
448.013	1006.88
448.234	984.88
448.455	1003.88
448.675	978.88
448.896	980.88
449.117	959.88
449.338	957.88
449.559	966.88
449.779	960.88
450	940.88
450.221	951.88
450.442	943.88
450.662	975.88
450.883	974.88
451.104	968.88
451.324	963.88
451.545	963.88
451.766	962.88
451.986	951.88
452.207	970.88
452.428	949.88
452.648	929.88
452.869	930.88
453.089	922.88
453.31	930.88
453.53	915.88
453.751	934.88
453.971	900.88
454.192	906.88
454.412	905.88
454.633	934.88
454.853	915.88
455.073	926.88
455.294	899.88
455.514	905.88
455.734	892.88
455.955	919.88
456.175	907.88
456.395	900.88
456.616	903.88
456.836	906.88
457.056	919.88
457.276	881.88
457.497	930.88
457.717	927.88
457.937	920.88
458.157	951.88
458.377	926.88
458.598	930.88
458.818	942.88
459.038	962.88
459.258	990.88
459.478	1010.88
459.698	1077.88
459.918	1064.88
460.138	1079.88
460.358	1140.88
460.578	1141.88
460.798	1110.88
461.018	1162.88
461.238	1174.88
461.458	1158.88
461.678	1145.88
461.898	1151.88
462.118	1200.88
462.338	1184.88
462.558	1234.88
462.777	1287.88
462.997	1318.88
463.217	1347.88
463.437	1364.88
463.657	1367.88
463.876	1309.88
464.096	1300.88
464.316	1252.88
464.536	1247.88
464.755	1252.88
464.975	1211.88
465.195	1173.88
465.414	1139.88
465.634	1118.88
465.854	1074.88
466.073	1063.88
466.293	1050.88
466.512	991.88
466.732	1020.88
466.951	1023.88
467.171	1024.88
467.391	1008.88
467.61	994.88
467.829	1022.88
468.049	994.88
468.268	989.88
468.488	993.88
468.707	978.88
468.927	984.88
469.146	966.88
469.365	1026.88
469.585	1010.88
469.804	1009.88
470.023	987.88
470.243	1034.88
470.462	1026.88
470.681	1043.88
470.901	1030.88
471.12	1014.88
471.339	1026.88
471.558	1008.88
471.777	1031.88
471.997	1009.88
472.216	990.88
472.435	966.88
472.654	968.88
472.873	953.88
473.092	974.88
473.311	974.88
473.53	972.88
473.749	978.88
473.968	985.88
474.187	962.88
474.406	965.88
474.625	978.88
474.844	988.88
475.063	1002.88
475.282	984.88
475.501	984.88
475.72	1018.88
475.939	1006.88
476.158	1040.88
476.377	1043.88
476.596	1007.88
476.814	1028.88
477.033	1008.88
477.252	1036.88
477.471	1034.88
477.69	1071.88
477.908	1104.88
478.127	1127.88
478.346	1142.88
478.564	1121.88
478.783	1144.88
479.002	1147.88
479.22	1167.88
479.439	1166.88
479.658	1165.88
479.876	1155.88
480.095	1204.88
480.313	1164.88
480.532	1179.88
480.751	1183.88
480.969	1196.88
481.188	1163.88
481.406	1138.88
481.624	1136.88
481.843	1123.88
482.061	1111.88
482.28	1108.88
482.498	1114.88
482.717	1125.88
482.935	1156.88
483.153	1156.88
483.372	1117.88
483.59	1146.88
483.808	1140.88
484.027	1128.88
484.245	1138.88
484.463	1116.88
484.681	1151.88
484.9	1190.88
485.118	1171.88
485.336	1172.88
485.554	1166.88
485.772	1181.88
485.99	1180.88
486.209	1173.88
486.427	1160.88
486.645	1139.88
486.863	1165.88
487.081	1156.88
487.299	1162.88
487.517	1177.88
487.735	1166.88
487.953	1190.88
488.171	1181.88
488.389	1168.88
488.607	1178.88
488.825	1177.88
489.043	1159.88
489.261	1133.88
489.479	1185.88
489.696	1178.88
489.914	1181.88
490.132	1161.88
490.35	1199.88
490.568	1221.88
490.786	1218.88
491.003	1230.88
491.221	1234.88
491.439	1216.88
491.657	1225.88
491.874	1217.88
492.092	1277.88
492.31	1243.88
492.527	1256.88
492.745	1262.88
492.963	1244.88
493.18	1233.88
493.398	1208.88
493.615	1266.88
493.833	1241.88
494.05	1263.88
494.268	1311.88
494.485	1266.88
494.703	1292.88
494.92	1305.88
495.138	1315.88
495.355	1332.88
495.573	1339.88
495.79	1267.88
496.008	1305.88
496.225	1315.88
496.442	1355.88
496.66	1364.88
496.877	1370.88
497.094	1430.88
497.312	1436.88
497.529	1440.88
497.746	1454.88
497.963	1504.88
498.181	1545.88
498.398	1576.88
498.615	1696.88
498.832	1752.88
499.049	1769.88
499.267	1872.88
499.484	2005.88
499.701	2088.88
499.918	2229.88
500.135	2341.88
500.352	2426.88
500.569	2480.88
500.786	2490.88
501.003	2456.88
501.22	2343.88
501.437	2181.88
501.654	2055.88
501.871	2010.88
502.088	1871.88
502.305	1827.88
502.522	1741.88
502.739	1654.88
502.956	1598.88
503.172	1572.88
503.389	1563.88
503.606	1486.88
503.823	1456.88
504.04	1454.88
504.256	1435.88
504.473	1439.88
504.69	1425.88
504.907	1388.88
505.123	1386.88
505.34	1293.88
505.557	1286.88
505.773	1251.88
505.99	1248.88
506.207	1219.88
506.423	1189.88
506.64	1193.88
506.856	1177.88
507.073	1188.88
507.289	1178.88
507.506	1159.88
507.722	1148.88
507.939	1142.88
508.155	1134.88
508.372	1114.88
508.588	1103.88
508.805	1094.88
509.021	1092.88
509.238	1102.88
509.454	1064.88
509.67	1074.88
509.887	1067.88
510.103	1070.88
510.319	1041.88
510.536	1064.88
510.752	1031.88
510.968	1025.88
511.184	1011.88
511.401	1034.88
511.617	1037.88
511.833	1022.88
512.049	1041.88
512.265	1031.88
512.481	1026.88
512.698	1028.88
512.914	1047.88
513.13	1067.88
513.346	1039.88
513.562	1044.88
513.778	1054.88
513.994	1089.88
514.21	1051.88
514.426	1034.88
514.642	1050.88
514.858	1063.88
515.074	1069.88
515.29	1067.88
515.506	1082.88
515.721	1088.88
515.937	1109.88
516.153	1111.88
516.369	1130.88
516.585	1119.88
516.801	1141.88
517.016	1176.88
517.232	1194.88
517.448	1190.88
517.664	1233.88
517.879	1238.88
518.095	1250.88
518.311	1240.88
518.527	1191.88
518.742	1174.88
518.958	1168.88
519.173	1127.88
519.389	1116.88
519.605	1119.88
519.82	1100.88
520.036	1096.88
520.251	1008.88
520.467	1056.88
520.682	1030.88
520.898	1002.88
521.113	1013.88
521.329	991.88
521.544	1014.88
521.76	1001.88
521.975	1018.88
522.19	950.88
522.406	978.88
522.621	990.88
522.836	976.88
523.052	922.88
523.267	969.88
523.482	942.88
523.698	959.88
523.913	964.88
524.128	977.88
524.343	980.88
524.559	946.88
524.774	915.88
524.989	959.88
525.204	940.88
525.419	937.88
525.634	916.88
525.849	931.88
526.064	920.88
526.28	938.88
526.495	912.88
526.71	925.88
526.925	886.88
527.14	917.88
527.355	899.88
527.57	935.88
527.785	923.88
527.999	911.88
528.214	906.88
528.429	914.88
528.644	915.88
528.859	929.88
529.074	923.88
529.289	917.88
529.503	934.88
529.718	970.88
529.933	921.88
530.148	899.88
530.363	914.88
530.577	895.88
530.792	900.88
531.007	894.88
531.221	908.88
531.436	887.88
531.651	875.88
531.865	910.88
532.08	906.88
532.295	911.88
532.509	908.88
532.724	917.88
532.938	893.88
533.153	912.88
533.367	890.88
533.582	890.88
533.796	905.88
534.011	899.88
534.225	918.88
534.44	901.88
534.654	891.88
534.868	881.88
535.083	884.88
535.297	895.88
535.511	879.88
535.726	878.88
535.94	887.88
536.154	874.88
536.369	841.88
536.583	862.88
536.797	849.88
537.011	867.88
537.225	843.88
537.44	859.88
537.654	835.88
537.868	844.88
538.082	826.88
538.296	822.88
538.51	860.88
538.724	838.88
538.938	826.88
539.153	841.88
539.367	851.88
539.581	819.88
539.795	829.88
540.009	809.88
540.222	814.88
540.436	822.88
540.65	854.88
540.864	801.88
541.078	833.88
541.292	830.88
541.506	842.88
541.72	847.88
541.934	839.88
542.147	858.88
542.361	852.88
542.575	851.88
542.789	832.88
543.002	826.88
543.216	811.88
543.43	822.88
543.644	806.88
543.857	801.88
544.071	835.88
544.285	843.88
544.498	839.88
544.712	826.88
544.925	834.88
545.139	846.88
545.352	822.88
545.566	832.88
545.779	827.88
545.993	852.88
546.206	859.88
546.42	849.88
546.633	822.88
546.847	847.88
547.06	864.88
547.274	857.88
547.487	863.88
547.7	850.88
547.914	857.88
548.127	857.88
548.34	855.88
548.554	863.88
548.767	865.88
548.98	863.88
549.193	858.88
549.407	833.88
549.62	839.88
549.833	843.88
550.046	847.88
550.259	833.88
550.473	827.88
550.686	843.88
550.899	843.88
551.112	807.88
551.325	821.88
551.538	818.88
551.751	827.88
551.964	842.88
552.177	849.88
552.39	814.88
552.603	863.88
552.816	857.88
553.029	845.88
553.242	850.88
553.455	865.88
553.667	878.88
553.88	838.88
554.093	841.88
554.306	835.88
554.519	808.88
554.732	815.88
554.944	810.88
555.157	783.88
555.37	785.88
555.583	794.88
555.795	772.88
556.008	744.88
556.221	755.88
556.433	740.88
556.646	749.88
556.859	750.88
557.071	753.88
557.284	719.88
557.496	731.88
557.709	704.88
557.921	723.88
558.134	723.88
558.346	712.88
558.559	716.88
558.771	726.88
558.984	716.88
559.196	703.88
559.409	688.88
559.621	698.88
559.833	704.88
560.046	692.88
560.258	687.88
560.47	702.88
560.683	697.88
560.895	706.88
561.107	678.88
561.32	720.88
561.532	714.88
561.744	716.88
561.956	727.88
562.168	711.88
562.381	686.88
562.593	693.88
562.805	713.88
563.017	680.88
563.229	707.88
563.441	715.88
563.653	730.88
563.865	718.88
564.077	719.88
564.289	712.88
564.501	729.88
564.713	741.88
564.925	761.88
565.137	750.88
565.349	749.88
565.561	779.88
565.773	793.88
565.985	819.88
566.197	856.88
566.408	847.88
566.62	862.88
566.832	903.88
567.044	918.88
567.255	934.88
567.467	931.88
567.679	951.88
567.891	954.88
568.102	948.88
568.314	928.88
568.526	878.88
568.737	857.88
568.949	807.88
569.161	779.88
569.372	756.88
569.584	756.88
569.795	752.88
570.007	714.88
570.218	691.88
570.43	681.88
570.641	698.88
570.853	681.88
571.064	676.88
571.276	693.88
571.487	686.88
571.698	632.88
571.91	633.88
572.121	612.88
572.333	620.88
572.544	608.88
572.755	589.88
572.966	573.88
573.178	604.88
573.389	598.88
573.6	573.88
573.811	588.88
574.023	572.88
574.234	566.88
574.445	563.88
574.656	597.88
574.867	571.88
575.078	573.88
575.289	546.88
575.501	564.88
575.712	549.88
575.923	521.88
576.134	527.88
576.345	544.88
576.556	550.88
576.767	543.88
576.978	524.88
577.188	518.88
577.399	535.88
577.61	523.88
577.821	514.88
578.032	511.88
578.243	519.88
578.454	512.88
578.665	503.88
578.875	497.88
579.086	530.88
579.297	522.88
579.508	486.88
579.718	465.88
579.929	480.88
580.14	494.88
580.35	514.88
580.561	482.88
580.772	486.88
580.982	480.88
581.193	473.88
581.403	476.88
581.614	468.88
581.825	486.88
582.035	494.88
582.246	476.88
582.456	470.88
582.667	489.88
582.877	476.88
583.087	472.88
583.298	455.88
583.508	478.88
583.719	474.88
583.929	473.88
584.139	460.88
584.35	463.88
584.56	464.88
584.77	468.88
584.981	471.88
585.191	457.88
585.401	448.88
585.611	450.88
585.821	452.88
586.032	431.88
586.242	439.88
586.452	464.88
586.662	457.88
586.872	447.88
587.082	451.88
587.292	449.88
587.502	445.88
587.713	451.88
587.923	439.88
588.133	431.88
588.343	444.88
588.553	471.88
588.762	440.88
588.972	424.88
589.182	475.88
589.392	457.88
589.602	443.88
589.812	447.88
590.022	450.88
590.232	435.88
590.441	459.88
590.651	464.88
590.861	459.88
591.071	450.88
591.281	460.88
591.49	458.88
591.7	457.88
591.91	447.88
592.119	452.88
592.329	459.88
592.539	467.88
592.748	479.88
592.958	473.88
593.167	464.88
593.377	468.88
593.587	498.88
593.796	494.88
594.006	477.88
594.215	487.88
594.424	476.88
594.634	480.88
594.843	473.88
595.053	447.88
595.262	457.88
595.472	454.88
595.681	433.88
595.89	438.88
596.1	437.88
596.309	460.88
596.518	416.88
596.727	419.88
596.937	399.88
597.146	410.88
597.355	414.88
597.564	400.88
597.774	398.88
597.983	391.88
598.192	395.88
598.401	388.88
598.61	384.88
598.819	400.88
599.028	394.88
599.237	386.88
599.446	392.88
599.655	375.88
599.864	383.88
600.073	374.88
600.282	366.88
600.491	351.88
600.7	376.88
600.909	368.88
601.118	361.88
601.327	378.88
601.536	378.88
601.745	367.88
601.953	360.88
602.162	372.88
602.371	366.88
602.58	354.88
602.789	375.88
602.997	363.88
603.206	349.88
603.415	368.88
603.623	369.88
603.832	366.88
604.041	335.88
604.249	356.88
604.458	346.88
604.666	346.88
604.875	343.88
605.084	348.88
605.292	351.88
605.501	357.88
605.709	345.88
605.918	362.88
606.126	339.88
606.334	367.88
606.543	340.88
606.751	353.88
606.96	332.88
607.168	347.88
607.376	337.88
607.585	329.88
607.793	332.88
608.001	344.88
608.21	354.88
608.418	328.88
608.626	337.88
608.834	354.88
609.043	335.88
609.251	328.88
609.459	330.88
609.667	332.88
609.875	335.88
610.083	323.88
610.291	318.88
610.499	321.88
610.707	337.88
610.916	337.88
611.124	334.88
611.332	318.88
611.54	336.88
611.748	331.88
611.955	338.88
612.163	324.88
612.371	326.88
612.579	325.88
612.787	335.88
612.995	321.88
613.203	310.88
613.411	323.88
613.618	296.88
613.826	313.88
614.034	308.88
614.242	326.88
614.449	318.88
614.657	325.88
614.865	310.88
615.072	305.88
615.28	338.88
615.488	324.88
615.695	320.88
615.903	313.88
616.111	313.88
616.318	300.88
616.526	323.88
616.733	306.88
616.941	306.88
617.148	291.88
617.356	291.88
617.563	298.88
617.771	307.88
617.978	314.88
618.185	314.88
618.393	307.88
618.6	310.88
618.807	305.88
619.015	316.88
619.222	310.88
619.429	297.88
619.637	310.88
619.844	317.88
620.051	296.88
620.258	284.88
620.466	293.88
620.673	290.88
620.88	298.88
621.087	297.88
621.294	296.88
621.501	299.88
621.708	291.88
621.915	303.88
622.122	306.88
622.329	284.88
622.536	267.88
622.743	280.88
622.95	267.88
623.157	293.88
623.364	298.88
623.571	297.88
623.778	275.88
623.985	281.88
624.192	281.88
624.399	266.88
624.606	268.88
624.812	256.88
625.019	279.88
625.226	287.88
625.433	261.88
625.639	266.88
625.846	275.88
626.053	274.88
626.259	279.88
626.466	257.88
626.673	285.88
626.879	262.88
627.086	267.88
627.293	277.88
627.499	247.88
627.706	260.88
627.912	268.88
628.119	267.88
628.325	263.88
628.532	275.88
628.738	276.88
628.945	248.88
629.151	253.88
629.357	243.88
629.564	251.88
629.77	272.88
629.976	240.88
630.183	252.88
630.389	252.88
630.595	252.88
630.802	252.88
631.008	235.88
631.214	242.88
631.42	254.88
631.627	258.88
631.833	239.88
632.039	231.88
632.245	248.88
632.451	227.88
632.657	248.88
632.863	243.88
633.069	249.88
633.275	246.88
633.481	242.88
633.688	229.88
633.893	250.88
634.099	241.88
634.305	234.88
634.511	227.88
634.717	231.88
634.923	225.88
635.129	231.88
635.335	216.88
635.541	210.88
635.747	223.88
635.952	231.88
636.158	241.88
636.364	230.88
636.57	227.88
636.775	219.88
636.981	235.88
637.187	238.88
637.392	231.88
637.598	240.88
637.804	210.88
638.009	221.88
638.215	241.88
638.421	224.88
638.626	214.88
638.832	222.88
639.037	215.88
639.243	204.88
639.448	217.88
639.654	225.88
639.859	217.88
640.065	207.88
640.27	226.88
640.475	230.88
640.681	216.88
640.886	219.88
641.091	210.88
641.297	229.88
641.502	215.88
641.707	211.88
641.913	213.88
642.118	210.88
642.323	203.88
642.528	211.88
642.733	216.88
642.939	210.88
643.144	196.88
643.349	222.88
643.554	218.88
643.759	197.88
643.964	219.88
644.169	200.88
644.374	200.88
644.579	216.88
644.784	225.88
644.989	215.88
645.194	209.88
645.399	216.88
645.604	205.88
645.809	209.88
646.014	227.88
646.219	214.88
646.423	205.88
646.628	208.88
646.833	222.88
647.038	210.88
647.243	202.88
647.447	185.88
647.652	201.88
647.857	218.88
648.062	203.88
648.266	203.88
648.471	201.88
648.676	215.88
648.88	210.88
649.085	193.88
649.289	185.88
649.494	192.88
649.698	211.88
649.903	199.88
650.107	208.88
650.312	196.88
650.516	190.88
650.721	199.88
650.925	192.88
651.13	183.88
651.334	177.88
651.539	181.88
651.743	189.88
651.947	180.88
652.152	178.88
652.356	171.88
652.56	178.88
652.764	168.88
652.969	163.88
653.173	167.88
653.377	160.88
653.581	169.88
653.785	175.88
653.99	169.88
654.194	169.88
654.398	165.88
654.602	175.88
654.806	167.88
655.01	141.88
655.214	155.88
655.418	160.88
655.622	146.88
655.826	137.88
656.03	151.88
656.234	136.88
656.438	156.88
656.642	145.88
656.846	149.88
657.049	145.88
657.253	138.88
657.457	139.88
657.661	127.88
657.865	110.88
658.068	131.88
658.272	129.88
658.476	124.88
658.68	124.88
658.883	127.88
659.087	121.88
659.291	104.88
659.494	114.88
659.698	111.88
659.901	111.88
660.105	113.88
660.309	114.88
660.512	108.88
660.716	106.88
660.919	101.88
661.123	91.88
661.326	101.88
661.53	93.88
661.733	83.88
661.936	85.88
662.14	90.88
662.343	88.88
662.546	104.88
662.75	78.88
662.953	89.88
663.156	82.88
663.36	75.88
663.563	90.88
663.766	77.88
663.969	73.88
664.173	75.88
664.376	84.88
664.579	72.88
664.782	73.88
664.985	71.88
665.188	76.88
665.391	77.88
665.594	86.88
665.797	96.88
666	80.88
666.203	85.88
666.406	82.88
666.609	88.88
666.812	98.88
667.015	91.88
667.218	90.88
667.421	89.88
667.624	76.88
667.827	73.88
668.03	80.88
668.232	86.88
668.435	76.88
668.638	81.88
668.841	74.88
669.043	67.88
669.246	83.88
669.449	69.88
669.651	79.88
669.854	81.88
670.057	87.88
670.259	80.88
670.462	75.88
670.665	88.88
670.867	88.88
671.07	85.88
671.272	80.88
671.475	73.88
671.677	73.88
671.88	83.88
672.082	76.88
672.284	72.88
672.487	86.88
672.689	84.88
672.892	86.88
