Data from Ni(NO3)2@0.125M.TitratingCurve.Agarose3%dH2O.NegLispCup.LampEnergy10.LIBS07252019_HRD10591_18-10-26-568.txt Node
Date: Thu Jul 25 18:10:26 EDT 2019
User: cochatt
Spectrometer: HR+D1059
Trigger mode: 1
Integration Time (sec): 1.000000E-1
Scans to average: 1
Electric dark correction enabled: true
Nonlinearity correction enabled: false
Boxcar width: 0
XAxis mode: Wavelengths
Number of Pixels in Spectrum: 2048
>>>>>Begin Spectral Data<<<<<
223.165	-8.44
223.4	-8.44
223.635	-8.44
223.869	-21.44
224.104	-20.44
224.338	-16.44
224.573	-17.44
224.808	-8.44
225.042	-19.44
225.277	-3.44
225.511	3.56
225.746	0.56
225.98	8.56
226.215	20.56
226.449	9.56
226.683	16.56
226.918	24.56
227.152	31.56
227.387	32.56
227.621	29.56
227.856	36.56
228.09	46.56
228.324	51.56
228.559	43.56
228.793	58.56
229.027	98.56
229.262	81.56
229.496	92.56
229.73	107.56
229.964	106.56
230.199	116.56
230.433	114.56
230.667	108.56
230.901	124.56
231.136	116.56
231.37	122.56
231.604	122.56
231.838	139.56
232.072	124.56
232.306	116.56
232.541	122.56
232.775	129.56
233.009	135.56
233.243	123.56
233.477	122.56
233.711	132.56
233.945	115.56
234.179	129.56
234.413	133.56
234.647	119.56
234.881	131.56
235.115	126.56
235.349	127.56
235.583	108.56
235.817	101.56
236.051	127.56
236.285	128.56
236.519	142.56
236.753	134.56
236.987	122.56
237.221	146.56
237.455	131.56
237.689	138.56
237.922	134.56
238.156	139.56
238.39	140.56
238.624	134.56
238.858	141.56
239.091	136.56
239.325	146.56
239.559	146.56
239.793	149.56
240.027	150.56
240.26	153.56
240.494	142.56
240.728	147.56
240.961	148.56
241.195	131.56
241.429	150.56
241.662	142.56
241.896	138.56
242.13	154.56
242.363	160.56
242.597	169.56
242.83	174.56
243.064	168.56
243.298	155.56
243.531	182.56
243.765	178.56
243.998	185.56
244.232	167.56
244.465	172.56
244.699	159.56
244.932	175.56
245.166	170.56
245.399	175.56
245.633	185.56
245.866	165.56
246.099	177.56
246.333	186.56
246.566	203.56
246.8	166.56
247.033	192.56
247.266	188.56
247.5	187.56
247.733	177.56
247.966	180.56
248.2	181.56
248.433	176.56
248.666	188.56
248.899	191.56
249.133	199.56
249.366	200.56
249.599	199.56
249.832	190.56
250.066	208.56
250.299	181.56
250.532	191.56
250.765	199.56
250.998	197.56
251.231	204.56
251.465	195.56
251.698	196.56
251.931	203.56
252.164	202.56
252.397	209.56
252.63	223.56
252.863	209.56
253.096	212.56
253.329	210.56
253.562	217.56
253.795	228.56
254.028	223.56
254.261	212.56
254.494	224.56
254.727	228.56
254.96	221.56
255.193	224.56
255.426	222.56
255.659	222.56
255.892	207.56
256.124	218.56
256.357	224.56
256.59	231.56
256.823	232.56
257.056	242.56
257.289	228.56
257.521	248.56
257.754	235.56
257.987	237.56
258.22	251.56
258.452	232.56
258.685	257.56
258.918	256.56
259.151	240.56
259.383	231.56
259.616	232.56
259.849	256.56
260.081	244.56
260.314	258.56
260.547	257.56
260.779	250.56
261.012	253.56
261.244	250.56
261.477	259.56
261.71	254.56
261.942	257.56
262.175	273.56
262.407	250.56
262.64	263.56
262.872	258.56
263.105	262.56
263.337	246.56
263.57	259.56
263.802	264.56
264.035	273.56
264.267	278.56
264.499	266.56
264.732	276.56
264.964	284.56
265.197	282.56
265.429	291.56
265.661	288.56
265.894	271.56
266.126	267.56
266.358	280.56
266.591	272.56
266.823	280.56
267.055	267.56
267.287	274.56
267.52	280.56
267.752	274.56
267.984	300.56
268.216	286.56
268.448	282.56
268.681	282.56
268.913	294.56
269.145	299.56
269.377	278.56
269.609	307.56
269.841	318.56
270.073	295.56
270.306	293.56
270.538	289.56
270.77	272.56
271.002	315.56
271.234	308.56
271.466	305.56
271.698	294.56
271.93	297.56
272.162	303.56
272.394	292.56
272.626	296.56
272.858	308.56
273.09	314.56
273.322	301.56
273.553	287.56
273.785	320.56
274.017	315.56
274.249	290.56
274.481	318.56
274.713	313.56
274.945	332.56
275.176	310.56
275.408	316.56
275.64	323.56
275.872	330.56
276.104	322.56
276.335	315.56
276.567	319.56
276.799	314.56
277.031	318.56
277.262	314.56
277.494	332.56
277.726	319.56
277.957	333.56
278.189	325.56
278.421	324.56
278.652	356.56
278.884	355.56
279.115	342.56
279.347	327.56
279.579	347.56
279.81	348.56
280.042	325.56
280.273	344.56
280.505	347.56
280.736	349.56
280.968	356.56
281.199	350.56
281.431	377.56
281.662	352.56
281.894	352.56
282.125	348.56
282.356	356.56
282.588	357.56
282.819	376.56
283.051	361.56
283.282	353.56
283.513	356.56
283.745	351.56
283.976	341.56
284.207	366.56
284.439	369.56
284.67	355.56
284.901	373.56
285.132	356.56
285.364	380.56
285.595	370.56
285.826	408.56
286.057	362.56
286.288	384.56
286.52	375.56
286.751	382.56
286.982	387.56
287.213	381.56
287.444	363.56
287.675	382.56
287.906	384.56
288.138	387.56
288.369	383.56
288.6	386.56
288.831	420.56
289.062	395.56
289.293	379.56
289.524	407.56
289.755	416.56
289.986	419.56
290.217	395.56
290.448	371.56
290.679	386.56
290.91	384.56
291.141	396.56
291.371	417.56
291.602	414.56
291.833	400.56
292.064	398.56
292.295	415.56
292.526	414.56
292.757	393.56
292.987	395.56
293.218	394.56
293.449	402.56
293.68	394.56
293.91	402.56
294.141	408.56
294.372	392.56
294.603	430.56
294.833	404.56
295.064	416.56
295.295	414.56
295.525	414.56
295.756	401.56
295.987	415.56
296.217	417.56
296.448	418.56
296.679	426.56
296.909	411.56
297.14	425.56
297.37	443.56
297.601	417.56
297.831	422.56
298.062	426.56
298.292	420.56
298.523	447.56
298.753	430.56
298.984	422.56
299.214	448.56
299.445	425.56
299.675	449.56
299.905	421.56
300.136	436.56
300.366	456.56
300.597	455.56
300.827	458.56
301.057	454.56
301.288	450.56
301.518	433.56
301.748	487.56
301.979	464.56
302.209	464.56
302.439	457.56
302.669	474.56
302.9	442.56
303.13	449.56
303.36	434.56
303.59	448.56
303.82	458.56
304.051	453.56
304.281	459.56
304.511	455.56
304.741	446.56
304.971	448.56
305.201	446.56
305.431	465.56
305.661	424.56
305.891	451.56
306.121	453.56
306.352	459.56
306.582	444.56
306.812	450.56
307.042	442.56
307.272	448.56
307.502	447.56
307.731	470.56
307.961	425.56
308.191	438.56
308.421	435.56
308.651	418.56
308.881	442.56
309.111	441.56
309.341	424.56
309.571	442.56
309.8	446.56
310.03	434.56
310.26	436.56
310.49	435.56
310.72	458.56
310.949	432.56
311.179	427.56
311.409	450.56
311.639	449.56
311.868	442.56
312.098	453.56
312.328	482.56
312.557	462.56
312.787	453.56
313.017	472.56
313.246	458.56
313.476	446.56
313.706	472.56
313.935	490.56
314.165	486.56
314.394	452.56
314.624	471.56
314.853	474.56
315.083	481.56
315.312	471.56
315.542	475.56
315.771	470.56
316.001	482.56
316.23	454.56
316.46	474.56
316.689	460.56
316.919	464.56
317.148	443.56
317.377	486.56
317.607	461.56
317.836	462.56
318.065	452.56
318.295	464.56
318.524	460.56
318.753	482.56
318.983	458.56
319.212	468.56
319.441	473.56
319.67	472.56
319.9	468.56
320.129	472.56
320.358	483.56
320.587	466.56
320.816	460.56
321.046	458.56
321.275	467.56
321.504	478.56
321.733	469.56
321.962	486.56
322.191	472.56
322.42	472.56
322.649	456.56
322.878	474.56
323.108	461.56
323.337	471.56
323.566	473.56
323.795	462.56
324.024	483.56
324.253	467.56
324.482	487.56
324.71	477.56
324.939	482.56
325.168	514.56
325.397	487.56
325.626	460.56
325.855	524.56
326.084	508.56
326.313	496.56
326.542	517.56
326.77	530.56
326.999	510.56
327.228	498.56
327.457	513.56
327.686	527.56
327.914	515.56
328.143	507.56
328.372	497.56
328.6	497.56
328.829	517.56
329.058	511.56
329.287	508.56
329.515	515.56
329.744	537.56
329.972	530.56
330.201	514.56
330.43	520.56
330.658	537.56
330.887	545.56
331.115	528.56
331.344	554.56
331.572	554.56
331.801	571.56
332.03	562.56
332.258	586.56
332.486	597.56
332.715	627.56
332.943	635.56
333.172	653.56
333.4	700.56
333.629	697.56
333.857	689.56
334.085	690.56
334.314	720.56
334.542	665.56
334.771	671.56
334.999	620.56
335.227	640.56
335.455	630.56
335.684	623.56
335.912	650.56
336.14	620.56
336.369	640.56
336.597	618.56
336.825	615.56
337.053	630.56
337.281	635.56
337.51	615.56
337.738	592.56
337.966	564.56
338.194	577.56
338.422	557.56
338.65	540.56
338.878	570.56
339.106	585.56
339.334	571.56
339.562	530.56
339.79	544.56
340.018	570.56
340.246	558.56
340.474	540.56
340.702	523.56
340.93	555.56
341.158	537.56
341.386	544.56
341.614	544.56
341.842	563.56
342.07	526.56
342.298	528.56
342.526	546.56
342.754	527.56
342.981	560.56
343.209	562.56
343.437	571.56
343.665	602.56
343.893	665.56
344.12	662.56
344.348	640.56
344.576	611.56
344.804	586.56
345.031	580.56
345.259	563.56
345.487	552.56
345.714	507.56
345.942	529.56
346.17	510.56
346.397	528.56
346.625	520.56
346.853	538.56
347.08	532.56
347.308	534.56
347.535	534.56
347.763	528.56
347.99	538.56
348.218	554.56
348.445	534.56
348.673	526.56
348.9	518.56
349.128	543.56
349.355	494.56
349.583	509.56
349.81	522.56
350.037	495.56
350.265	498.56
350.492	517.56
350.72	524.56
350.947	502.56
351.174	509.56
351.402	504.56
351.629	502.56
351.856	484.56
352.083	492.56
352.311	495.56
352.538	492.56
352.765	490.56
352.992	486.56
353.22	504.56
353.447	490.56
353.674	501.56
353.901	514.56
354.128	519.56
354.355	516.56
354.583	519.56
354.81	510.56
355.037	521.56
355.264	495.56
355.491	498.56
355.718	525.56
355.945	499.56
356.172	498.56
356.399	498.56
356.626	523.56
356.853	530.56
357.08	516.56
357.307	514.56
357.534	495.56
357.761	519.56
357.988	495.56
358.215	519.56
358.441	512.56
358.668	486.56
358.895	508.56
359.122	512.56
359.349	500.56
359.576	497.56
359.802	496.56
360.029	466.56
360.256	496.56
360.483	506.56
360.709	494.56
360.936	490.56
361.163	524.56
361.39	507.56
361.616	522.56
361.843	514.56
362.07	497.56
362.296	510.56
362.523	472.56
362.749	499.56
362.976	501.56
363.203	502.56
363.429	496.56
363.656	513.56
363.882	492.56
364.109	505.56
364.335	497.56
364.562	522.56
364.788	493.56
365.015	482.56
365.241	515.56
365.468	483.56
365.694	529.56
365.92	516.56
366.147	491.56
366.373	492.56
366.599	500.56
366.826	498.56
367.052	496.56
367.278	516.56
367.505	502.56
367.731	514.56
367.957	508.56
368.184	514.56
368.41	508.56
368.636	499.56
368.862	530.56
369.089	512.56
369.315	528.56
369.541	552.56
369.767	528.56
369.993	523.56
370.219	534.56
370.445	540.56
370.672	544.56
370.898	547.56
371.124	545.56
371.35	550.56
371.576	541.56
371.802	539.56
372.028	538.56
372.254	546.56
372.48	571.56
372.706	577.56
372.932	577.56
373.158	550.56
373.384	551.56
373.61	538.56
373.835	552.56
374.061	572.56
374.287	579.56
374.513	556.56
374.739	581.56
374.965	600.56
375.191	608.56
375.416	621.56
375.642	574.56
375.868	568.56
376.094	597.56
376.319	562.56
376.545	564.56
376.771	553.56
376.997	552.56
377.222	561.56
377.448	566.56
377.674	545.56
377.899	554.56
378.125	552.56
378.35	542.56
378.576	540.56
378.802	554.56
379.027	569.56
379.253	548.56
379.478	533.56
379.704	530.56
379.929	512.56
380.155	558.56
380.38	523.56
380.606	560.56
380.831	545.56
381.057	574.56
381.282	542.56
381.507	553.56
381.733	543.56
381.958	551.56
382.184	562.56
382.409	560.56
382.634	588.56
382.86	576.56
383.085	568.56
383.31	627.56
383.535	615.56
383.761	620.56
383.986	623.56
384.211	619.56
384.436	663.56
384.662	649.56
384.887	665.56
385.112	667.56
385.337	671.56
385.562	664.56
385.787	673.56
386.013	681.56
386.238	673.56
386.463	655.56
386.688	674.56
386.913	650.56
387.138	630.56
387.363	647.56
387.588	637.56
387.813	649.56
388.038	631.56
388.263	642.56
388.488	658.56
388.713	649.56
388.938	670.56
389.163	639.56
389.387	635.56
389.612	637.56
389.837	642.56
390.062	652.56
390.287	642.56
390.512	643.56
390.736	671.56
390.961	680.56
391.186	658.56
391.411	672.56
391.636	708.56
391.86	731.56
392.085	714.56
392.31	768.56
392.534	736.56
392.759	700.56
392.984	679.56
393.208	705.56
393.433	705.56
393.658	687.56
393.882	694.56
394.107	716.56
394.331	711.56
394.556	720.56
394.78	700.56
395.005	678.56
395.229	711.56
395.454	724.56
395.678	753.56
395.903	731.56
396.127	709.56
396.352	691.56
396.576	679.56
396.801	665.56
397.025	690.56
397.249	727.56
397.474	731.56
397.698	699.56
397.922	738.56
398.147	732.56
398.371	737.56
398.595	740.56
398.82	808.56
399.044	866.56
399.268	955.56
399.492	1110.56
399.717	1276.56
399.941	1242.56
400.165	1115.56
400.389	956.56
400.613	902.56
400.837	848.56
401.062	824.56
401.286	809.56
401.51	795.56
401.734	826.56
401.958	810.56
402.182	839.56
402.406	868.56
402.63	866.56
402.854	891.56
403.078	902.56
403.302	922.56
403.526	931.56
403.75	956.56
403.974	969.56
404.198	970.56
404.422	994.56
404.645	985.56
404.869	960.56
405.093	941.56
405.317	897.56
405.541	907.56
405.765	914.56
405.988	904.56
406.212	880.56
406.436	896.56
406.66	893.56
406.883	945.56
407.107	1004.56
407.331	1061.56
407.555	1109.56
407.778	1081.56
408.002	1076.56
408.226	1048.56
408.449	995.56
408.673	963.56
408.896	950.56
409.12	927.56
409.344	981.56
409.567	959.56
409.791	987.56
410.014	949.56
410.238	931.56
410.461	946.56
410.685	922.56
410.908	902.56
411.132	874.56
411.355	862.56
411.578	864.56
411.802	849.56
412.025	852.56
412.249	866.56
412.472	897.56
412.695	838.56
412.919	830.56
413.142	825.56
413.365	823.56
413.589	831.56
413.812	794.56
414.035	810.56
414.258	810.56
414.482	819.56
414.705	832.56
414.928	859.56
415.151	830.56
415.374	828.56
415.597	847.56
415.821	811.56
416.044	803.56
416.267	808.56
416.49	809.56
416.713	784.56
416.936	831.56
417.159	812.56
417.382	801.56
417.605	823.56
417.828	834.56
418.051	838.56
418.274	839.56
418.497	829.56
418.72	834.56
418.943	842.56
419.166	921.56
419.389	994.56
419.611	940.56
419.834	890.56
420.057	898.56
420.28	851.56
420.503	827.56
420.726	832.56
420.948	814.56
421.171	794.56
421.394	855.56
421.617	826.56
421.839	822.56
422.062	867.56
422.285	822.56
422.507	858.56
422.73	872.56
422.953	850.56
423.175	854.56
423.398	884.56
423.621	926.56
423.843	902.56
424.066	900.56
424.288	904.56
424.511	858.56
424.733	844.56
424.956	835.56
425.178	843.56
425.401	844.56
425.623	851.56
425.846	816.56
426.068	808.56
426.291	788.56
426.513	782.56
426.735	754.56
426.958	770.56
427.18	759.56
427.402	746.56
427.625	739.56
427.847	722.56
428.069	728.56
428.292	734.56
428.514	712.56
428.736	722.56
428.958	750.56
429.181	729.56
429.403	714.56
429.625	714.56
429.847	711.56
430.069	719.56
430.292	732.56
430.514	711.56
430.736	706.56
430.958	704.56
431.18	698.56
431.402	734.56
431.624	722.56
431.846	736.56
432.068	727.56
432.29	751.56
432.512	747.56
432.734	721.56
432.956	766.56
433.178	752.56
433.4	746.56
433.622	716.56
433.844	776.56
434.066	743.56
434.287	754.56
434.509	782.56
434.731	807.56
434.953	852.56
435.175	847.56
435.397	831.56
435.618	760.56
435.84	769.56
436.062	743.56
436.284	750.56
436.505	743.56
436.727	765.56
436.949	782.56
437.17	744.56
437.392	745.56
437.614	726.56
437.835	713.56
438.057	714.56
438.278	707.56
438.5	712.56
438.721	722.56
438.943	707.56
439.165	722.56
439.386	712.56
439.608	750.56
439.829	740.56
440.05	747.56
440.272	770.56
440.493	760.56
440.715	756.56
440.936	785.56
441.158	782.56
441.379	798.56
441.6	843.56
441.822	864.56
442.043	844.56
442.264	847.56
442.486	826.56
442.707	825.56
442.928	817.56
443.149	824.56
443.371	778.56
443.592	814.56
443.813	860.56
444.034	849.56
444.255	910.56
444.476	905.56
444.698	984.56
444.919	1037.56
445.14	1106.56
445.361	951.56
445.582	875.56
445.803	830.56
446.024	778.56
446.245	795.56
446.466	774.56
446.687	768.56
446.908	765.56
447.129	725.56
447.35	716.56
447.571	722.56
447.792	699.56
448.013	708.56
448.234	690.56
448.455	691.56
448.675	693.56
448.896	690.56
449.117	670.56
449.338	696.56
449.559	692.56
449.779	664.56
450	683.56
450.221	677.56
450.442	697.56
450.662	721.56
450.883	703.56
451.104	703.56
451.324	716.56
451.545	701.56
451.766	700.56
451.986	692.56
452.207	740.56
452.428	710.56
452.648	692.56
452.869	683.56
453.089	650.56
453.31	671.56
453.53	654.56
453.751	680.56
453.971	663.56
454.192	660.56
454.412	662.56
454.633	665.56
454.853	650.56
455.073	656.56
455.294	648.56
455.514	655.56
455.734	641.56
455.955	650.56
456.175	626.56
456.395	642.56
456.616	648.56
456.836	635.56
457.056	617.56
457.276	630.56
457.497	640.56
457.717	650.56
457.937	630.56
458.157	659.56
458.377	649.56
458.598	675.56
458.818	692.56
459.038	694.56
459.258	716.56
459.478	750.56
459.698	747.56
459.918	775.56
460.138	832.56
460.358	854.56
460.578	867.56
460.798	898.56
461.018	885.56
461.238	857.56
461.458	858.56
461.678	849.56
461.898	875.56
462.118	908.56
462.338	930.56
462.558	928.56
462.777	978.56
462.997	1088.56
463.217	1209.56
463.437	1234.56
463.657	1091.56
463.876	1044.56
464.096	1036.56
464.316	1054.56
464.536	1084.56
464.755	1007.56
464.975	945.56
465.195	940.56
465.414	870.56
465.634	819.56
465.854	786.56
466.073	760.56
466.293	728.56
466.512	739.56
466.732	740.56
466.951	731.56
467.171	716.56
467.391	728.56
467.61	724.56
467.829	743.56
468.049	713.56
468.268	704.56
468.488	678.56
468.707	698.56
468.927	692.56
469.146	700.56
469.365	713.56
469.585	701.56
469.804	746.56
470.023	740.56
470.243	735.56
470.462	746.56
470.681	736.56
470.901	758.56
471.12	731.56
471.339	722.56
471.558	694.56
471.777	700.56
471.997	689.56
472.216	690.56
472.435	681.56
472.654	645.56
472.873	650.56
473.092	662.56
473.311	694.56
473.53	667.56
473.749	681.56
473.968	660.56
474.187	662.56
474.406	666.56
474.625	660.56
474.844	676.56
475.063	671.56
475.282	678.56
475.501	694.56
475.72	691.56
475.939	680.56
476.158	695.56
476.377	695.56
476.596	684.56
476.814	696.56
477.033	669.56
477.252	718.56
477.471	714.56
477.69	737.56
477.908	760.56
478.127	774.56
478.346	812.56
478.564	806.56
478.783	797.56
479.002	835.56
479.22	845.56
479.439	862.56
479.658	850.56
479.876	812.56
480.095	804.56
480.313	887.56
480.532	908.56
480.751	904.56
480.969	852.56
481.188	813.56
481.406	805.56
481.624	764.56
481.843	777.56
482.061	720.56
482.28	758.56
482.498	728.56
482.717	757.56
482.935	743.56
483.153	774.56
483.372	776.56
483.59	772.56
483.808	756.56
484.027	751.56
484.245	786.56
484.463	740.56
484.681	759.56
484.9	778.56
485.118	781.56
485.336	784.56
485.554	807.56
485.772	797.56
485.99	783.56
486.209	807.56
486.427	798.56
486.645	786.56
486.863	825.56
487.081	850.56
487.299	779.56
487.517	810.56
487.735	783.56
487.953	797.56
488.171	812.56
488.389	788.56
488.607	777.56
488.825	758.56
489.043	736.56
489.261	790.56
489.479	810.56
489.696	769.56
489.914	786.56
490.132	788.56
490.35	819.56
490.568	786.56
490.786	805.56
491.003	784.56
491.221	779.56
491.439	818.56
491.657	785.56
491.874	828.56
492.092	834.56
492.31	819.56
492.527	845.56
492.745	817.56
492.963	826.56
493.18	844.56
493.398	844.56
493.615	848.56
493.833	834.56
494.05	836.56
494.268	843.56
494.485	843.56
494.703	839.56
494.92	875.56
495.138	879.56
495.355	810.56
495.573	841.56
495.79	843.56
496.008	863.56
496.225	854.56
496.442	875.56
496.66	878.56
496.877	875.56
497.094	898.56
497.312	935.56
497.529	935.56
497.746	937.56
497.963	955.56
498.181	1033.56
498.398	1036.56
498.615	1113.56
498.832	1168.56
499.049	1328.56
499.267	1418.56
499.484	1515.56
499.701	1708.56
499.918	1879.56
500.135	2232.56
500.352	2611.56
500.569	2791.56
500.786	2680.56
501.003	2467.56
501.22	2174.56
501.437	1877.56
501.654	1619.56
501.871	1473.56
502.088	1342.56
502.305	1270.56
502.522	1216.56
502.739	1148.56
502.956	1102.56
503.172	1028.56
503.389	1021.56
503.606	966.56
503.823	929.56
504.04	979.56
504.256	966.56
504.473	998.56
504.69	1039.56
504.907	1008.56
505.123	937.56
505.34	864.56
505.557	831.56
505.773	850.56
505.99	816.56
506.207	775.56
506.423	786.56
506.64	775.56
506.856	766.56
507.073	744.56
507.289	740.56
507.506	756.56
507.722	727.56
507.939	738.56
508.155	724.56
508.372	691.56
508.588	684.56
508.805	726.56
509.021	680.56
509.238	711.56
509.454	702.56
509.67	679.56
509.887	681.56
510.103	694.56
510.319	692.56
510.536	687.56
510.752	667.56
510.968	688.56
511.184	686.56
511.401	677.56
511.617	698.56
511.833	702.56
512.049	669.56
512.265	674.56
512.481	686.56
512.698	711.56
512.914	686.56
513.13	663.56
513.346	693.56
513.562	703.56
513.778	676.56
513.994	679.56
514.21	676.56
514.426	690.56
514.642	680.56
514.858	682.56
515.074	728.56
515.29	689.56
515.506	715.56
515.721	695.56
515.937	713.56
516.153	729.56
516.369	731.56
516.585	804.56
516.801	782.56
517.016	841.56
517.232	885.56
517.448	922.56
517.664	958.56
517.879	966.56
518.095	973.56
518.311	953.56
518.527	895.56
518.742	895.56
518.958	832.56
519.173	776.56
519.389	772.56
519.605	770.56
519.82	739.56
520.036	720.56
520.251	696.56
520.467	689.56
520.682	699.56
520.898	696.56
521.113	675.56
521.329	660.56
521.544	656.56
521.76	655.56
521.975	636.56
522.19	655.56
522.406	650.56
522.621	654.56
522.836	639.56
523.052	659.56
523.267	648.56
523.482	630.56
523.698	628.56
523.913	629.56
524.128	638.56
524.343	650.56
524.559	620.56
524.774	632.56
524.989	619.56
525.204	617.56
525.419	644.56
525.634	610.56
525.849	631.56
526.064	614.56
526.28	621.56
526.495	615.56
526.71	618.56
526.925	601.56
527.14	624.56
527.355	607.56
527.57	608.56
527.785	615.56
527.999	627.56
528.214	598.56
528.429	617.56
528.644	632.56
528.859	618.56
529.074	624.56
529.289	632.56
529.503	645.56
529.718	638.56
529.933	619.56
530.148	607.56
530.363	620.56
530.577	622.56
530.792	592.56
531.007	613.56
531.221	629.56
531.436	636.56
531.651	631.56
531.865	609.56
532.08	626.56
532.295	646.56
532.509	632.56
532.724	624.56
532.938	626.56
533.153	653.56
533.367	610.56
533.582	630.56
533.796	586.56
534.011	634.56
534.225	607.56
534.44	596.56
534.654	612.56
534.868	586.56
535.083	586.56
535.297	611.56
535.511	602.56
535.726	604.56
535.94	595.56
536.154	592.56
536.369	592.56
536.583	594.56
536.797	546.56
537.011	581.56
537.225	584.56
537.44	573.56
537.654	562.56
537.868	555.56
538.082	560.56
538.296	576.56
538.51	577.56
538.724	587.56
538.938	568.56
539.153	559.56
539.367	564.56
539.581	562.56
539.795	555.56
540.009	572.56
540.222	582.56
540.436	558.56
540.65	555.56
540.864	558.56
541.078	551.56
541.292	560.56
541.506	553.56
541.72	555.56
541.934	573.56
542.147	582.56
542.361	550.56
542.575	562.56
542.789	557.56
543.002	540.56
543.216	554.56
543.43	529.56
543.644	530.56
543.857	571.56
544.071	552.56
544.285	548.56
544.498	551.56
544.712	563.56
544.925	566.56
545.139	571.56
545.352	558.56
545.566	589.56
545.779	574.56
545.993	563.56
546.206	566.56
546.42	596.56
546.633	569.56
546.847	582.56
547.06	536.56
547.274	568.56
547.487	566.56
547.7	573.56
547.914	591.56
548.127	572.56
548.34	573.56
548.554	583.56
548.767	604.56
548.98	574.56
549.193	587.56
549.407	610.56
549.62	600.56
549.833	604.56
550.046	577.56
550.259	568.56
550.473	561.56
550.686	572.56
550.899	567.56
551.112	558.56
551.325	570.56
551.538	560.56
551.751	558.56
551.964	579.56
552.177	578.56
552.39	576.56
552.603	574.56
552.816	583.56
553.029	628.56
553.242	623.56
553.455	634.56
553.667	670.56
553.88	628.56
554.093	608.56
554.306	587.56
554.519	595.56
554.732	562.56
554.944	556.56
555.157	547.56
555.37	560.56
555.583	522.56
555.795	519.56
556.008	521.56
556.221	541.56
556.433	518.56
556.646	521.56
556.859	501.56
557.071	500.56
557.284	497.56
557.496	487.56
557.709	494.56
557.921	510.56
558.134	506.56
558.346	485.56
558.559	478.56
558.771	488.56
558.984	492.56
559.196	466.56
559.409	494.56
559.621	472.56
559.833	466.56
560.046	469.56
560.258	473.56
560.47	482.56
560.683	479.56
560.895	470.56
561.107	466.56
561.32	485.56
561.532	469.56
561.744	479.56
561.956	463.56
562.168	478.56
562.381	473.56
562.593	466.56
562.805	476.56
563.017	482.56
563.229	474.56
563.441	489.56
563.653	502.56
563.865	476.56
564.077	494.56
564.289	475.56
564.501	480.56
564.713	499.56
564.925	516.56
565.137	520.56
565.349	522.56
565.561	532.56
565.773	542.56
565.985	569.56
566.197	624.56
566.408	649.56
566.62	713.56
566.832	778.56
567.044	787.56
567.255	756.56
567.467	782.56
567.679	856.56
567.891	934.56
568.102	983.56
568.314	909.56
568.526	819.56
568.737	716.56
568.949	673.56
569.161	597.56
569.372	573.56
569.584	543.56
569.795	539.56
570.007	524.56
570.218	494.56
570.43	495.56
570.641	507.56
570.853	478.56
571.064	496.56
571.276	504.56
571.487	495.56
571.698	451.56
571.91	439.56
572.121	439.56
572.333	425.56
572.544	424.56
572.755	420.56
572.966	434.56
573.178	413.56
573.389	413.56
573.6	393.56
573.811	407.56
574.023	384.56
574.234	402.56
574.445	367.56
574.656	414.56
574.867	382.56
575.078	408.56
575.289	391.56
575.501	373.56
575.712	409.56
575.923	389.56
576.134	377.56
576.345	368.56
576.556	386.56
576.767	375.56
576.978	383.56
577.188	373.56
577.399	379.56
577.61	376.56
577.821	355.56
578.032	354.56
578.243	362.56
578.454	358.56
578.665	355.56
578.875	347.56
579.086	339.56
579.297	351.56
579.508	353.56
579.718	345.56
579.929	338.56
580.14	348.56
580.35	350.56
580.561	330.56
580.772	353.56
580.982	348.56
581.193	340.56
581.403	356.56
581.614	335.56
581.825	326.56
582.035	343.56
582.246	342.56
582.456	337.56
582.667	342.56
582.877	317.56
583.087	329.56
583.298	337.56
583.508	332.56
583.719	341.56
583.929	312.56
584.139	339.56
584.35	335.56
584.56	333.56
584.77	349.56
584.981	323.56
585.191	332.56
585.401	332.56
585.611	337.56
585.821	342.56
586.032	314.56
586.242	332.56
586.452	321.56
586.662	339.56
586.872	329.56
587.082	323.56
587.292	311.56
587.502	324.56
587.713	322.56
587.923	312.56
588.133	311.56
588.343	324.56
588.553	322.56
588.762	331.56
588.972	334.56
589.182	293.56
589.392	295.56
589.602	340.56
589.812	314.56
590.022	323.56
590.232	329.56
590.441	311.56
590.651	339.56
590.861	335.56
591.071	334.56
591.281	337.56
591.49	338.56
591.7	339.56
591.91	363.56
592.119	353.56
592.329	351.56
592.539	356.56
592.748	392.56
592.958	390.56
593.167	388.56
593.377	425.56
593.587	411.56
593.796	414.56
594.006	407.56
594.215	422.56
594.424	418.56
594.634	407.56
594.843	388.56
595.053	379.56
595.262	367.56
595.472	343.56
595.681	332.56
595.89	333.56
596.1	322.56
596.309	303.56
596.518	336.56
596.727	291.56
596.937	305.56
597.146	308.56
597.355	279.56
597.564	303.56
597.774	306.56
597.983	292.56
598.192	282.56
598.401	284.56
598.61	286.56
598.819	293.56
599.028	288.56
599.237	273.56
599.446	265.56
599.655	286.56
599.864	296.56
600.073	267.56
600.282	277.56
600.491	281.56
600.7	261.56
600.909	275.56
601.118	275.56
601.327	266.56
601.536	271.56
601.745	274.56
601.953	270.56
602.162	251.56
602.371	253.56
602.58	261.56
602.789	275.56
602.997	263.56
603.206	268.56
603.415	261.56
603.623	268.56
603.832	265.56
604.041	268.56
604.249	260.56
604.458	253.56
604.666	254.56
604.875	257.56
605.084	268.56
605.292	248.56
605.501	259.56
605.709	231.56
605.918	242.56
606.126	258.56
606.334	246.56
606.543	256.56
606.751	272.56
606.96	240.56
607.168	243.56
607.376	262.56
607.585	249.56
607.793	242.56
608.001	260.56
608.21	251.56
608.418	252.56
608.626	248.56
608.834	254.56
609.043	259.56
609.251	223.56
609.459	245.56
609.667	223.56
609.875	254.56
610.083	230.56
610.291	241.56
610.499	240.56
610.707	252.56
610.916	240.56
611.124	254.56
611.332	246.56
611.54	255.56
611.748	265.56
611.955	243.56
612.163	239.56
612.371	244.56
612.579	238.56
612.787	251.56
612.995	257.56
613.203	235.56
613.411	227.56
613.618	213.56
613.826	240.56
614.034	229.56
614.242	247.56
614.449	243.56
614.657	233.56
614.865	241.56
615.072	230.56
615.28	251.56
615.488	238.56
615.695	247.56
615.903	242.56
616.111	246.56
616.318	255.56
616.526	242.56
616.733	229.56
616.941	232.56
617.148	225.56
617.356	243.56
617.563	247.56
617.771	260.56
617.978	239.56
618.185	229.56
618.393	240.56
618.6	234.56
618.807	232.56
619.015	243.56
619.222	246.56
619.429	243.56
619.637	228.56
619.844	226.56
620.051	228.56
620.258	216.56
620.466	209.56
620.673	227.56
620.88	214.56
621.087	229.56
621.294	232.56
621.501	225.56
621.708	223.56
621.915	217.56
622.122	199.56
622.329	206.56
622.536	216.56
622.743	209.56
622.95	221.56
623.157	222.56
623.364	208.56
623.571	225.56
623.778	197.56
623.985	215.56
624.192	208.56
624.399	206.56
624.606	225.56
624.812	246.56
625.019	207.56
625.226	217.56
625.433	210.56
625.639	206.56
625.846	195.56
626.053	196.56
626.259	209.56
626.466	191.56
626.673	205.56
626.879	200.56
627.086	201.56
627.293	193.56
627.499	199.56
627.706	196.56
627.912	211.56
628.119	208.56
628.325	216.56
628.532	178.56
628.738	203.56
628.945	231.56
629.151	194.56
629.357	221.56
629.564	204.56
629.77	186.56
629.976	187.56
630.183	204.56
630.389	194.56
630.595	204.56
630.802	198.56
631.008	194.56
631.214	186.56
631.42	183.56
631.627	196.56
631.833	187.56
632.039	194.56
632.245	174.56
632.451	191.56
632.657	186.56
632.863	177.56
633.069	184.56
633.275	198.56
633.481	178.56
633.688	167.56
633.893	180.56
634.099	183.56
634.305	198.56
634.511	181.56
634.717	180.56
634.923	164.56
635.129	185.56
635.335	181.56
635.541	182.56
635.747	161.56
635.952	180.56
636.158	178.56
636.364	182.56
636.57	186.56
636.775	172.56
636.981	172.56
637.187	177.56
637.392	178.56
637.598	172.56
637.804	174.56
638.009	158.56
638.215	160.56
638.421	166.56
638.626	172.56
638.832	162.56
639.037	170.56
639.243	166.56
639.448	165.56
639.654	165.56
639.859	155.56
640.065	176.56
640.27	180.56
640.475	160.56
640.681	154.56
640.886	148.56
641.091	171.56
641.297	178.56
641.502	172.56
641.707	169.56
641.913	175.56
642.118	158.56
642.323	150.56
642.528	168.56
642.733	181.56
642.939	162.56
643.144	163.56
643.349	164.56
643.554	166.56
643.759	160.56
643.964	175.56
644.169	174.56
644.374	163.56
644.579	169.56
644.784	177.56
644.989	160.56
645.194	157.56
645.399	174.56
645.604	156.56
645.809	155.56
646.014	156.56
646.219	151.56
646.423	150.56
646.628	156.56
646.833	161.56
647.038	159.56
647.243	171.56
647.447	147.56
647.652	159.56
647.857	174.56
648.062	156.56
648.266	174.56
648.471	182.56
648.676	186.56
648.88	168.56
649.085	181.56
649.289	163.56
649.494	170.56
649.698	160.56
649.903	159.56
650.107	158.56
650.312	154.56
650.516	152.56
650.721	147.56
650.925	162.56
651.13	150.56
651.334	126.56
651.539	130.56
651.743	144.56
651.947	135.56
652.152	138.56
652.356	140.56
652.56	148.56
652.764	151.56
652.969	140.56
653.173	122.56
653.377	117.56
653.581	127.56
653.785	135.56
653.99	127.56
654.194	129.56
654.398	120.56
654.602	128.56
654.806	121.56
655.01	140.56
655.214	129.56
655.418	128.56
655.622	126.56
655.826	119.56
656.03	145.56
656.234	123.56
656.438	120.56
656.642	124.56
656.846	123.56
657.049	120.56
657.253	101.56
657.457	114.56
657.661	103.56
657.865	105.56
658.068	117.56
658.272	98.56
658.476	98.56
658.68	91.56
658.883	98.56
659.087	77.56
659.291	98.56
659.494	107.56
659.698	104.56
659.901	87.56
660.105	86.56
660.309	74.56
660.512	81.56
660.716	97.56
660.919	94.56
661.123	102.56
661.326	89.56
661.53	86.56
661.733	89.56
661.936	73.56
662.14	59.56
662.343	81.56
662.546	71.56
662.75	79.56
662.953	86.56
663.156	77.56
663.36	81.56
663.563	76.56
663.766	69.56
663.969	80.56
664.173	83.56
664.376	82.56
664.579	72.56
664.782	87.56
664.985	72.56
665.188	82.56
665.391	85.56
665.594	82.56
665.797	74.56
666	70.56
666.203	73.56
666.406	76.56
666.609	66.56
666.812	58.56
667.015	71.56
667.218	92.56
667.421	90.56
667.624	76.56
667.827	81.56
668.03	78.56
668.232	73.56
668.435	74.56
668.638	83.56
668.841	84.56
669.043	64.56
669.246	96.56
669.449	84.56
669.651	82.56
669.854	83.56
670.057	81.56
670.259	69.56
670.462	76.56
670.665	78.56
670.867	83.56
671.07	81.56
671.272	73.56
671.475	84.56
671.677	65.56
671.88	80.56
672.082	67.56
672.284	76.56
672.487	69.56
672.689	59.56
672.892	69.56
