Data from Ni(NO3)2Standard.Agarose3%.GreenCap.LampEnergy5.5.E.O_HRD10591_14-42-19-188.txt Node
Date: Mon Jul 22 14:42:19 EDT 2019
User: cochatt
Spectrometer: HR+D1059
Trigger mode: 1
Integration Time (sec): 1.000000E-1
Scans to average: 1
Electric dark correction enabled: true
Nonlinearity correction enabled: false
Boxcar width: 0
XAxis mode: Wavelengths
Number of Pixels in Spectrum: 2048
>>>>>Begin Spectral Data<<<<<
223.165	-3.06
223.4	-3.06
223.635	-3.06
223.869	-12.06
224.104	-21.06
224.338	-17.06
224.573	-19.06
224.808	-20.06
225.042	1.94
225.277	0.94
225.511	8.94
225.746	2.94
225.98	-6.06
226.215	2.94
226.449	15.94
226.683	15.94
226.918	26.94
227.152	21.94
227.387	46.94
227.621	37.94
227.856	45.94
228.09	45.94
228.324	56.94
228.559	64.94
228.793	64.94
229.027	56.94
229.262	74.94
229.496	84.94
229.73	71.94
229.964	54.94
230.199	62.94
230.433	65.94
230.667	86.94
230.901	71.94
231.136	82.94
231.37	81.94
231.604	83.94
231.838	72.94
232.072	82.94
232.306	93.94
232.541	84.94
232.775	76.94
233.009	74.94
233.243	87.94
233.477	81.94
233.711	85.94
233.945	78.94
234.179	84.94
234.413	92.94
234.647	74.94
234.881	85.94
235.115	70.94
235.349	79.94
235.583	72.94
235.817	85.94
236.051	83.94
236.285	64.94
236.519	79.94
236.753	78.94
236.987	79.94
237.221	94.94
237.455	67.94
237.689	77.94
237.922	87.94
238.156	81.94
238.39	75.94
238.624	72.94
238.858	76.94
239.091	79.94
239.325	82.94
239.559	84.94
239.793	68.94
240.027	84.94
240.26	61.94
240.494	74.94
240.728	65.94
240.961	81.94
241.195	81.94
241.429	83.94
241.662	78.94
241.896	83.94
242.13	62.94
242.363	78.94
242.597	78.94
242.83	77.94
243.064	68.94
243.298	91.94
243.531	82.94
243.765	75.94
243.998	84.94
244.232	86.94
244.465	83.94
244.699	74.94
244.932	87.94
245.166	73.94
245.399	69.94
245.633	83.94
245.866	75.94
246.099	78.94
246.333	91.94
246.566	84.94
246.8	77.94
247.033	73.94
247.266	69.94
247.5	80.94
247.733	91.94
247.966	82.94
248.2	83.94
248.433	85.94
248.666	81.94
248.899	77.94
249.133	68.94
249.366	92.94
249.599	82.94
249.832	70.94
250.066	78.94
250.299	85.94
250.532	86.94
250.765	75.94
250.998	81.94
251.231	82.94
251.465	84.94
251.698	79.94
251.931	81.94
252.164	74.94
252.397	77.94
252.63	87.94
252.863	75.94
253.096	77.94
253.329	90.94
253.562	83.94
253.795	78.94
254.028	80.94
254.261	81.94
254.494	83.94
254.727	87.94
254.96	73.94
255.193	88.94
255.426	77.94
255.659	85.94
255.892	82.94
256.124	87.94
256.357	80.94
256.59	75.94
256.823	82.94
257.056	77.94
257.289	68.94
257.521	82.94
257.754	92.94
257.987	91.94
258.22	89.94
258.452	89.94
258.685	82.94
258.918	96.94
259.151	75.94
259.383	98.94
259.616	95.94
259.849	87.94
260.081	104.94
260.314	76.94
260.547	81.94
260.779	85.94
261.012	73.94
261.244	91.94
261.477	82.94
261.71	78.94
261.942	76.94
262.175	86.94
262.407	88.94
262.64	80.94
262.872	86.94
263.105	77.94
263.337	98.94
263.57	88.94
263.802	90.94
264.035	83.94
264.267	86.94
264.499	73.94
264.732	95.94
264.964	72.94
265.197	88.94
265.429	86.94
265.661	65.94
265.894	78.94
266.126	76.94
266.358	84.94
266.591	85.94
266.823	83.94
267.055	76.94
267.287	88.94
267.52	84.94
267.752	84.94
267.984	84.94
268.216	80.94
268.448	73.94
268.681	83.94
268.913	92.94
269.145	90.94
269.377	89.94
269.609	82.94
269.841	92.94
270.073	90.94
270.306	82.94
270.538	88.94
270.77	86.94
271.002	97.94
271.234	78.94
271.466	77.94
271.698	83.94
271.93	80.94
272.162	82.94
272.394	86.94
272.626	77.94
272.858	83.94
273.09	83.94
273.322	84.94
273.553	86.94
273.785	81.94
274.017	75.94
274.249	85.94
274.481	88.94
274.713	86.94
274.945	99.94
275.176	84.94
275.408	83.94
275.64	88.94
275.872	92.94
276.104	76.94
276.335	87.94
276.567	90.94
276.799	78.94
277.031	96.94
277.262	79.94
277.494	88.94
277.726	84.94
277.957	95.94
278.189	74.94
278.421	84.94
278.652	86.94
278.884	76.94
279.115	101.94
279.347	78.94
279.579	86.94
279.81	84.94
280.042	90.94
280.273	87.94
280.505	96.94
280.736	79.94
280.968	75.94
281.199	90.94
281.431	92.94
281.662	105.94
281.894	90.94
282.125	92.94
282.356	83.94
282.588	78.94
282.819	76.94
283.051	95.94
283.282	90.94
283.513	84.94
283.745	84.94
283.976	84.94
284.207	84.94
284.439	86.94
284.67	90.94
284.901	96.94
285.132	89.94
285.364	92.94
285.595	77.94
285.826	72.94
286.057	78.94
286.288	76.94
286.52	76.94
286.751	84.94
286.982	74.94
287.213	81.94
287.444	74.94
287.675	95.94
287.906	88.94
288.138	89.94
288.369	89.94
288.6	88.94
288.831	81.94
289.062	92.94
289.293	85.94
289.524	101.94
289.755	88.94
289.986	80.94
290.217	90.94
290.448	78.94
290.679	83.94
290.91	84.94
291.141	89.94
291.371	102.94
291.602	96.94
291.833	92.94
292.064	106.94
292.295	86.94
292.526	77.94
292.757	97.94
292.987	97.94
293.218	83.94
293.449	86.94
293.68	85.94
293.91	86.94
294.141	84.94
294.372	90.94
294.603	87.94
294.833	75.94
295.064	99.94
295.295	85.94
295.525	92.94
295.756	85.94
295.987	86.94
296.217	85.94
296.448	90.94
296.679	89.94
296.909	96.94
297.14	108.94
297.37	87.94
297.601	80.94
297.831	85.94
298.062	78.94
298.292	90.94
298.523	84.94
298.753	82.94
298.984	97.94
299.214	108.94
299.445	84.94
299.675	96.94
299.905	77.94
300.136	91.94
300.366	91.94
300.597	94.94
300.827	94.94
301.057	78.94
301.288	69.94
301.518	85.94
301.748	90.94
301.979	78.94
302.209	78.94
302.439	94.94
302.669	76.94
302.9	86.94
303.13	96.94
303.36	91.94
303.59	89.94
303.82	77.94
304.051	100.94
304.281	96.94
304.511	84.94
304.741	102.94
304.971	80.94
305.201	83.94
305.431	79.94
305.661	92.94
305.891	82.94
306.121	81.94
306.352	105.94
306.582	77.94
306.812	84.94
307.042	85.94
307.272	87.94
307.502	85.94
307.731	86.94
307.961	92.94
308.191	89.94
308.421	100.94
308.651	82.94
308.881	77.94
309.111	92.94
309.341	81.94
309.571	89.94
309.8	90.94
310.03	87.94
310.26	90.94
310.49	80.94
310.72	92.94
310.949	81.94
311.179	90.94
311.409	80.94
311.639	86.94
311.868	93.94
312.098	88.94
312.328	89.94
312.557	89.94
312.787	86.94
313.017	75.94
313.246	90.94
313.476	86.94
313.706	67.94
313.935	79.94
314.165	82.94
314.394	77.94
314.624	101.94
314.853	81.94
315.083	87.94
315.312	86.94
315.542	90.94
315.771	85.94
316.001	110.94
316.23	92.94
316.46	86.94
316.689	85.94
316.919	82.94
317.148	82.94
317.377	85.94
317.607	91.94
317.836	92.94
318.065	94.94
318.295	93.94
318.524	86.94
318.753	83.94
318.983	87.94
319.212	81.94
319.441	79.94
319.67	98.94
319.9	84.94
320.129	74.94
320.358	96.94
320.587	93.94
320.816	91.94
321.046	81.94
321.275	66.94
321.504	96.94
321.733	72.94
321.962	83.94
322.191	99.94
322.42	91.94
322.649	77.94
322.878	92.94
323.108	85.94
323.337	77.94
323.566	86.94
323.795	102.94
324.024	87.94
324.253	88.94
324.482	73.94
324.71	83.94
324.939	99.94
325.168	72.94
325.397	85.94
325.626	75.94
325.855	77.94
326.084	77.94
326.313	74.94
326.542	95.94
326.77	92.94
326.999	76.94
327.228	80.94
327.457	91.94
327.686	82.94
327.914	98.94
328.143	97.94
328.372	98.94
328.6	91.94
328.829	91.94
329.058	75.94
329.287	82.94
329.515	83.94
329.744	83.94
329.972	84.94
330.201	89.94
330.43	87.94
330.658	90.94
330.887	91.94
331.115	85.94
331.344	92.94
331.572	90.94
331.801	84.94
332.03	87.94
332.258	87.94
332.486	83.94
332.715	91.94
332.943	78.94
333.172	90.94
333.4	100.94
333.629	83.94
333.857	81.94
334.085	89.94
334.314	92.94
334.542	91.94
334.771	84.94
334.999	89.94
335.227	96.94
335.455	88.94
335.684	88.94
335.912	86.94
336.14	86.94
336.369	90.94
336.597	88.94
336.825	88.94
337.053	84.94
337.281	93.94
337.51	89.94
337.738	92.94
337.966	97.94
338.194	89.94
338.422	95.94
338.65	97.94
338.878	103.94
339.106	83.94
339.334	93.94
339.562	93.94
339.79	81.94
340.018	91.94
340.246	105.94
340.474	86.94
340.702	90.94
340.93	99.94
341.158	86.94
341.386	82.94
341.614	90.94
341.842	84.94
342.07	92.94
342.298	101.94
342.526	91.94
342.754	88.94
342.981	85.94
343.209	96.94
343.437	89.94
343.665	96.94
343.893	91.94
344.12	91.94
344.348	97.94
344.576	96.94
344.804	78.94
345.031	85.94
345.259	86.94
345.487	96.94
345.714	96.94
345.942	92.94
346.17	81.94
346.397	77.94
346.625	81.94
346.853	83.94
347.08	74.94
347.308	70.94
347.535	82.94
347.763	89.94
347.99	79.94
348.218	101.94
348.445	90.94
348.673	82.94
348.9	100.94
349.128	83.94
349.355	91.94
349.583	99.94
349.81	95.94
350.037	83.94
350.265	99.94
350.492	110.94
350.72	82.94
350.947	99.94
351.174	93.94
351.402	90.94
351.629	96.94
351.856	90.94
352.083	91.94
352.311	88.94
352.538	86.94
352.765	79.94
352.992	90.94
353.22	86.94
353.447	83.94
353.674	86.94
353.901	91.94
354.128	91.94
354.355	91.94
354.583	87.94
354.81	84.94
355.037	89.94
355.264	74.94
355.491	90.94
355.718	81.94
355.945	82.94
356.172	91.94
356.399	97.94
356.626	71.94
356.853	78.94
357.08	78.94
357.307	84.94
357.534	83.94
357.761	81.94
357.988	92.94
358.215	93.94
358.441	86.94
358.668	68.94
358.895	67.94
359.122	89.94
359.349	87.94
359.576	102.94
359.802	70.94
360.029	92.94
360.256	76.94
360.483	85.94
360.709	95.94
360.936	88.94
361.163	88.94
361.39	81.94
361.616	91.94
361.843	89.94
362.07	92.94
362.296	90.94
362.523	88.94
362.749	74.94
362.976	82.94
363.203	97.94
363.429	87.94
363.656	86.94
363.882	90.94
364.109	92.94
364.335	91.94
364.562	97.94
364.788	74.94
365.015	89.94
365.241	84.94
365.468	80.94
365.694	85.94
365.92	78.94
366.147	82.94
366.373	93.94
366.599	88.94
366.826	72.94
367.052	77.94
367.278	90.94
367.505	79.94
367.731	102.94
367.957	86.94
368.184	96.94
368.41	84.94
368.636	78.94
368.862	87.94
369.089	83.94
369.315	75.94
369.541	83.94
369.767	84.94
369.993	75.94
370.219	71.94
370.445	90.94
370.672	76.94
370.898	85.94
371.124	92.94
371.35	84.94
371.576	88.94
371.802	77.94
372.028	84.94
372.254	68.94
372.48	97.94
372.706	85.94
372.932	96.94
373.158	96.94
373.384	89.94
373.61	78.94
373.835	92.94
374.061	82.94
374.287	82.94
374.513	92.94
374.739	82.94
374.965	97.94
375.191	73.94
375.416	91.94
375.642	87.94
375.868	83.94
376.094	97.94
376.319	82.94
376.545	89.94
376.771	81.94
376.997	76.94
377.222	84.94
377.448	86.94
377.674	78.94
377.899	90.94
378.125	85.94
378.35	91.94
378.576	84.94
378.802	77.94
379.027	87.94
379.253	88.94
379.478	76.94
379.704	81.94
379.929	99.94
380.155	75.94
380.38	90.94
380.606	106.94
380.831	94.94
381.057	89.94
381.282	70.94
381.507	85.94
381.733	78.94
381.958	87.94
382.184	72.94
382.409	90.94
382.634	89.94
382.86	81.94
383.085	78.94
383.31	92.94
383.535	92.94
383.761	83.94
383.986	87.94
384.211	96.94
384.436	89.94
384.662	95.94
384.887	97.94
385.112	78.94
385.337	80.94
385.562	85.94
385.787	66.94
386.013	90.94
386.238	98.94
386.463	80.94
386.688	91.94
386.913	82.94
387.138	75.94
387.363	89.94
387.588	86.94
387.813	82.94
388.038	72.94
388.263	99.94
388.488	89.94
388.713	91.94
388.938	95.94
389.163	73.94
389.387	88.94
389.612	96.94
389.837	86.94
390.062	77.94
390.287	95.94
390.512	68.94
390.736	80.94
390.961	89.94
391.186	87.94
391.411	97.94
391.636	92.94
391.86	79.94
392.085	86.94
392.31	91.94
392.534	84.94
392.759	83.94
392.984	92.94
393.208	81.94
393.433	83.94
393.658	81.94
393.882	81.94
394.107	81.94
394.331	86.94
394.556	78.94
394.78	84.94
395.005	91.94
395.229	82.94
395.454	78.94
395.678	88.94
395.903	68.94
396.127	82.94
396.352	105.94
396.576	84.94
396.801	83.94
397.025	92.94
397.249	94.94
397.474	92.94
397.698	95.94
397.922	90.94
398.147	79.94
398.371	91.94
398.595	101.94
398.82	95.94
399.044	97.94
399.268	78.94
399.492	82.94
399.717	96.94
399.941	85.94
400.165	80.94
400.389	90.94
400.613	101.94
400.837	86.94
401.062	94.94
401.286	97.94
401.51	82.94
401.734	80.94
401.958	92.94
402.182	89.94
402.406	89.94
402.63	81.94
402.854	88.94
403.078	88.94
403.302	86.94
403.526	91.94
403.75	93.94
403.974	91.94
404.198	87.94
404.422	82.94
404.645	82.94
404.869	86.94
405.093	86.94
405.317	87.94
405.541	90.94
405.765	106.94
405.988	82.94
406.212	80.94
406.436	80.94
406.66	90.94
406.883	94.94
407.107	74.94
407.331	86.94
407.555	92.94
407.778	92.94
408.002	85.94
408.226	80.94
408.449	79.94
408.673	87.94
408.896	85.94
409.12	90.94
409.344	101.94
409.567	75.94
409.791	93.94
410.014	95.94
410.238	91.94
410.461	81.94
410.685	87.94
410.908	99.94
411.132	96.94
411.355	88.94
411.578	83.94
411.802	81.94
412.025	85.94
412.249	81.94
412.472	92.94
412.695	87.94
412.919	84.94
413.142	94.94
413.365	88.94
413.589	91.94
413.812	89.94
414.035	93.94
414.258	85.94
414.482	90.94
414.705	93.94
414.928	89.94
415.151	82.94
415.374	73.94
415.597	82.94
415.821	83.94
416.044	81.94
416.267	69.94
416.49	96.94
416.713	92.94
416.936	89.94
417.159	81.94
417.382	86.94
417.605	85.94
417.828	84.94
418.051	98.94
418.274	84.94
418.497	77.94
418.72	75.94
418.943	83.94
419.166	78.94
419.389	88.94
419.611	73.94
419.834	85.94
420.057	87.94
420.28	86.94
420.503	83.94
420.726	78.94
420.948	78.94
421.171	86.94
421.394	86.94
421.617	76.94
421.839	83.94
422.062	92.94
422.285	90.94
422.507	94.94
422.73	84.94
422.953	82.94
423.175	79.94
423.398	81.94
423.621	76.94
423.843	92.94
424.066	87.94
424.288	79.94
424.511	82.94
424.733	98.94
424.956	91.94
425.178	81.94
425.401	90.94
425.623	88.94
425.846	77.94
426.068	89.94
426.291	75.94
426.513	89.94
426.735	93.94
426.958	89.94
427.18	87.94
427.402	93.94
427.625	86.94
427.847	76.94
428.069	97.94
428.292	88.94
428.514	82.94
428.736	86.94
428.958	73.94
429.181	80.94
429.403	94.94
429.625	96.94
429.847	83.94
430.069	82.94
430.292	97.94
430.514	77.94
430.736	85.94
430.958	82.94
431.18	72.94
431.402	90.94
431.624	97.94
431.846	81.94
432.068	83.94
432.29	78.94
432.512	98.94
432.734	85.94
432.956	88.94
433.178	85.94
433.4	92.94
433.622	103.94
433.844	77.94
434.066	80.94
434.287	79.94
434.509	90.94
434.731	82.94
434.953	80.94
435.175	99.94
435.397	87.94
435.618	81.94
435.84	73.94
436.062	84.94
436.284	90.94
436.505	86.94
436.727	92.94
436.949	91.94
437.17	81.94
437.392	89.94
437.614	82.94
437.835	81.94
438.057	92.94
438.278	105.94
438.5	82.94
438.721	93.94
438.943	92.94
439.165	90.94
439.386	101.94
439.608	93.94
439.829	97.94
440.05	86.94
440.272	99.94
440.493	87.94
440.715	88.94
440.936	86.94
441.158	70.94
441.379	85.94
441.6	86.94
441.822	94.94
442.043	92.94
442.264	87.94
442.486	90.94
442.707	87.94
442.928	86.94
443.149	85.94
443.371	81.94
443.592	70.94
443.813	80.94
444.034	92.94
444.255	77.94
444.476	83.94
444.698	86.94
444.919	74.94
445.14	204.94
445.361	136.94
445.582	82.94
445.803	90.94
446.024	79.94
446.245	78.94
446.466	86.94
446.687	78.94
446.908	96.94
447.129	87.94
447.35	96.94
447.571	84.94
447.792	92.94
448.013	93.94
448.234	92.94
448.455	90.94
448.675	74.94
448.896	86.94
449.117	83.94
449.338	80.94
449.559	82.94
449.779	88.94
450	73.94
450.221	79.94
450.442	84.94
450.662	77.94
450.883	82.94
451.104	104.94
451.324	85.94
451.545	81.94
451.766	79.94
451.986	91.94
452.207	88.94
452.428	79.94
452.648	86.94
452.869	89.94
453.089	72.94
453.31	96.94
453.53	91.94
453.751	96.94
453.971	75.94
454.192	83.94
454.412	91.94
454.633	77.94
454.853	84.94
455.073	71.94
455.294	84.94
455.514	77.94
455.734	81.94
455.955	82.94
456.175	84.94
456.395	84.94
456.616	82.94
456.836	81.94
457.056	80.94
457.276	93.94
457.497	83.94
457.717	87.94
457.937	87.94
458.157	73.94
458.377	77.94
458.598	81.94
458.818	73.94
459.038	77.94
459.258	96.94
459.478	92.94
459.698	71.94
459.918	82.94
460.138	95.94
460.358	80.94
460.578	89.94
460.798	93.94
461.018	81.94
461.238	91.94
461.458	81.94
461.678	94.94
461.898	96.94
462.118	84.94
462.338	93.94
462.558	89.94
462.777	86.94
462.997	84.94
463.217	90.94
463.437	88.94
463.657	83.94
463.876	101.94
464.096	85.94
464.316	95.94
464.536	77.94
464.755	80.94
464.975	91.94
465.195	91.94
465.414	93.94
465.634	92.94
465.854	97.94
466.073	77.94
466.293	97.94
466.512	78.94
466.732	86.94
466.951	104.94
467.171	91.94
467.391	86.94
467.61	79.94
467.829	83.94
468.049	79.94
468.268	87.94
468.488	86.94
468.707	79.94
468.927	84.94
469.146	88.94
469.365	80.94
469.585	84.94
469.804	82.94
470.023	86.94
470.243	81.94
470.462	97.94
470.681	79.94
470.901	84.94
471.12	85.94
471.339	84.94
471.558	90.94
471.777	100.94
471.997	97.94
472.216	92.94
472.435	79.94
472.654	77.94
472.873	84.94
473.092	91.94
473.311	87.94
473.53	98.94
473.749	94.94
473.968	100.94
474.187	85.94
474.406	88.94
474.625	96.94
474.844	97.94
475.063	79.94
475.282	98.94
475.501	83.94
475.72	96.94
475.939	89.94
476.158	95.94
476.377	85.94
476.596	104.94
476.814	96.94
477.033	81.94
477.252	93.94
477.471	81.94
477.69	80.94
477.908	85.94
478.127	78.94
478.346	80.94
478.564	76.94
478.783	107.94
479.002	100.94
479.22	107.94
479.439	92.94
479.658	86.94
479.876	83.94
480.095	78.94
480.313	97.94
480.532	87.94
480.751	88.94
480.969	97.94
481.188	92.94
481.406	112.94
481.624	81.94
481.843	101.94
482.061	94.94
482.28	96.94
482.498	105.94
482.717	91.94
482.935	100.94
483.153	95.94
483.372	87.94
483.59	89.94
483.808	93.94
484.027	100.94
484.245	98.94
484.463	88.94
484.681	90.94
484.9	69.94
485.118	99.94
485.336	86.94
485.554	89.94
485.772	91.94
485.99	81.94
486.209	89.94
486.427	96.94
486.645	88.94
486.863	90.94
487.081	95.94
487.299	92.94
487.517	101.94
487.735	100.94
487.953	93.94
488.171	106.94
488.389	87.94
488.607	104.94
488.825	77.94
489.043	90.94
489.261	93.94
489.479	80.94
489.696	76.94
489.914	84.94
490.132	79.94
490.35	81.94
490.568	78.94
490.786	77.94
491.003	97.94
491.221	105.94
491.439	94.94
491.657	101.94
491.874	95.94
492.092	94.94
492.31	105.94
492.527	94.94
492.745	105.94
492.963	103.94
493.18	97.94
493.398	83.94
493.615	90.94
493.833	87.94
494.05	92.94
494.268	96.94
494.485	95.94
494.703	92.94
494.92	91.94
495.138	96.94
495.355	89.94
495.573	100.94
495.79	92.94
496.008	89.94
496.225	104.94
496.442	105.94
496.66	88.94
496.877	99.94
497.094	108.94
497.312	93.94
497.529	107.94
497.746	97.94
497.963	96.94
498.181	97.94
498.398	107.94
498.615	96.94
498.832	99.94
499.049	94.94
499.267	106.94
499.484	111.94
499.701	107.94
499.918	104.94
500.135	100.94
500.352	104.94
500.569	121.94
500.786	103.94
501.003	124.94
501.22	113.94
501.437	92.94
501.654	102.94
501.871	105.94
502.088	109.94
502.305	100.94
502.522	105.94
502.739	107.94
502.956	89.94
503.172	96.94
503.389	101.94
503.606	90.94
503.823	93.94
504.04	86.94
504.256	108.94
504.473	113.94
504.69	101.94
504.907	107.94
505.123	97.94
505.34	97.94
505.557	76.94
505.773	107.94
505.99	99.94
506.207	87.94
506.423	100.94
506.64	83.94
506.856	88.94
507.073	88.94
507.289	73.94
507.506	102.94
507.722	81.94
507.939	92.94
508.155	91.94
508.372	87.94
508.588	87.94
508.805	91.94
509.021	94.94
509.238	89.94
509.454	81.94
509.67	98.94
509.887	103.94
510.103	89.94
510.319	89.94
510.536	101.94
510.752	97.94
510.968	83.94
511.184	86.94
511.401	98.94
511.617	74.94
511.833	83.94
512.049	93.94
512.265	87.94
512.481	92.94
512.698	88.94
512.914	96.94
513.13	95.94
513.346	93.94
513.562	96.94
513.778	68.94
513.994	98.94
514.21	87.94
514.426	85.94
514.642	96.94
514.858	97.94
515.074	82.94
515.29	89.94
515.506	81.94
515.721	82.94
515.937	89.94
516.153	97.94
516.369	78.94
516.585	89.94
516.801	99.94
517.016	98.94
517.232	90.94
517.448	98.94
517.664	86.94
517.879	102.94
518.095	85.94
518.311	96.94
518.527	94.94
518.742	91.94
518.958	68.94
519.173	84.94
519.389	92.94
519.605	98.94
519.82	93.94
520.036	103.94
520.251	88.94
520.467	96.94
520.682	102.94
520.898	96.94
521.113	86.94
521.329	96.94
521.544	98.94
521.76	98.94
521.975	98.94
522.19	95.94
522.406	100.94
522.621	87.94
522.836	82.94
523.052	103.94
523.267	85.94
523.482	89.94
523.698	90.94
523.913	88.94
524.128	105.94
524.343	101.94
524.559	85.94
524.774	76.94
524.989	88.94
525.204	105.94
525.419	87.94
525.634	88.94
525.849	88.94
526.064	102.94
526.28	88.94
526.495	95.94
526.71	82.94
526.925	85.94
527.14	96.94
527.355	92.94
527.57	96.94
527.785	99.94
527.999	109.94
528.214	85.94
528.429	94.94
528.644	87.94
528.859	86.94
529.074	88.94
529.289	101.94
529.503	88.94
529.718	88.94
529.933	97.94
530.148	82.94
530.363	85.94
530.577	102.94
530.792	98.94
531.007	92.94
531.221	85.94
531.436	78.94
531.651	96.94
531.865	98.94
532.08	101.94
532.295	92.94
532.509	73.94
532.724	101.94
532.938	100.94
533.153	82.94
533.367	85.94
533.582	90.94
533.796	98.94
534.011	98.94
534.225	93.94
534.44	97.94
534.654	92.94
534.868	90.94
535.083	94.94
535.297	91.94
535.511	75.94
535.726	96.94
535.94	106.94
536.154	76.94
536.369	83.94
536.583	93.94
536.797	86.94
537.011	100.94
537.225	92.94
537.44	77.94
537.654	83.94
537.868	81.94
538.082	94.94
538.296	87.94
538.51	94.94
538.724	82.94
538.938	82.94
539.153	90.94
539.367	91.94
539.581	109.94
539.795	97.94
540.009	93.94
540.222	86.94
540.436	87.94
540.65	90.94
540.864	81.94
541.078	99.94
541.292	96.94
541.506	82.94
541.72	81.94
541.934	80.94
542.147	77.94
542.361	110.94
542.575	94.94
542.789	91.94
543.002	88.94
543.216	81.94
543.43	93.94
543.644	85.94
543.857	92.94
544.071	93.94
544.285	77.94
544.498	85.94
544.712	100.94
544.925	96.94
545.139	74.94
545.352	90.94
545.566	107.94
545.779	93.94
545.993	87.94
546.206	98.94
546.42	86.94
546.633	100.94
546.847	104.94
547.06	86.94
547.274	100.94
547.487	100.94
547.7	90.94
547.914	89.94
548.127	85.94
548.34	83.94
548.554	97.94
548.767	88.94
548.98	94.94
549.193	107.94
549.407	96.94
549.62	90.94
549.833	90.94
550.046	81.94
550.259	89.94
550.473	109.94
550.686	92.94
550.899	98.94
551.112	104.94
551.325	85.94
551.538	109.94
551.751	97.94
551.964	91.94
552.177	91.94
552.39	91.94
552.603	90.94
552.816	84.94
553.029	91.94
553.242	85.94
553.455	93.94
553.667	97.94
553.88	78.94
554.093	100.94
554.306	104.94
554.519	87.94
554.732	88.94
554.944	96.94
555.157	88.94
555.37	92.94
555.583	82.94
555.795	85.94
556.008	82.94
556.221	78.94
556.433	88.94
556.646	81.94
556.859	83.94
557.071	77.94
557.284	93.94
557.496	90.94
557.709	91.94
557.921	96.94
558.134	86.94
558.346	92.94
558.559	108.94
558.771	87.94
558.984	85.94
559.196	83.94
559.409	94.94
559.621	90.94
559.833	100.94
560.046	92.94
560.258	82.94
560.47	89.94
560.683	81.94
560.895	83.94
561.107	98.94
561.32	92.94
561.532	89.94
561.744	88.94
561.956	84.94
562.168	101.94
562.381	101.94
562.593	86.94
562.805	96.94
563.017	85.94
563.229	88.94
563.441	96.94
563.653	89.94
563.865	96.94
564.077	88.94
564.289	89.94
564.501	87.94
564.713	89.94
564.925	90.94
565.137	91.94
565.349	84.94
565.561	88.94
565.773	90.94
565.985	78.94
566.197	84.94
566.408	101.94
566.62	89.94
566.832	93.94
567.044	97.94
567.255	101.94
567.467	93.94
567.679	95.94
567.891	94.94
568.102	98.94
568.314	105.94
568.526	94.94
568.737	88.94
568.949	94.94
569.161	96.94
569.372	78.94
569.584	88.94
569.795	98.94
570.007	85.94
570.218	92.94
570.43	90.94
570.641	75.94
570.853	92.94
571.064	93.94
571.276	97.94
571.487	102.94
571.698	93.94
571.91	85.94
572.121	81.94
572.333	97.94
572.544	83.94
572.755	84.94
572.966	77.94
573.178	93.94
573.389	97.94
573.6	91.94
573.811	90.94
574.023	92.94
574.234	86.94
574.445	93.94
574.656	89.94
574.867	85.94
575.078	80.94
575.289	85.94
575.501	108.94
575.712	72.94
575.923	97.94
576.134	97.94
576.345	93.94
576.556	100.94
576.767	86.94
576.978	80.94
577.188	89.94
577.399	95.94
577.61	92.94
577.821	78.94
578.032	97.94
578.243	73.94
578.454	81.94
578.665	95.94
578.875	79.94
579.086	88.94
579.297	98.94
579.508	85.94
579.718	88.94
579.929	76.94
580.14	90.94
580.35	77.94
580.561	95.94
580.772	80.94
580.982	102.94
581.193	110.94
581.403	89.94
581.614	94.94
581.825	90.94
582.035	83.94
582.246	107.94
582.456	83.94
582.667	84.94
582.877	95.94
583.087	79.94
583.298	88.94
583.508	76.94
583.719	84.94
583.929	85.94
584.139	91.94
584.35	97.94
584.56	84.94
584.77	86.94
584.981	83.94
585.191	101.94
585.401	82.94
585.611	99.94
585.821	90.94
586.032	87.94
586.242	90.94
586.452	83.94
586.662	92.94
586.872	90.94
587.082	82.94
587.292	105.94
587.502	92.94
587.713	82.94
587.923	81.94
588.133	104.94
588.343	102.94
588.553	98.94
588.762	95.94
588.972	91.94
589.182	85.94
589.392	90.94
589.602	78.94
589.812	83.94
590.022	92.94
590.232	89.94
590.441	81.94
590.651	96.94
590.861	80.94
591.071	84.94
591.281	91.94
591.49	77.94
591.7	89.94
591.91	101.94
592.119	86.94
592.329	103.94
592.539	94.94
592.748	87.94
592.958	88.94
593.167	90.94
593.377	86.94
593.587	89.94
593.796	92.94
594.006	104.94
594.215	96.94
594.424	93.94
594.634	82.94
594.843	87.94
595.053	100.94
595.262	88.94
595.472	92.94
595.681	91.94
595.89	88.94
596.1	83.94
596.309	90.94
596.518	95.94
596.727	82.94
596.937	95.94
597.146	105.94
597.355	82.94
597.564	85.94
597.774	100.94
597.983	82.94
598.192	80.94
598.401	85.94
598.61	83.94
598.819	86.94
599.028	86.94
599.237	89.94
599.446	90.94
599.655	90.94
599.864	86.94
600.073	72.94
600.282	80.94
600.491	91.94
600.7	100.94
600.909	107.94
601.118	87.94
601.327	96.94
601.536	87.94
601.745	79.94
601.953	84.94
602.162	81.94
602.371	94.94
602.58	80.94
602.789	90.94
602.997	90.94
603.206	76.94
603.415	88.94
603.623	92.94
603.832	93.94
604.041	87.94
604.249	89.94
604.458	81.94
604.666	85.94
604.875	84.94
605.084	85.94
605.292	68.94
605.501	75.94
605.709	93.94
605.918	72.94
606.126	95.94
606.334	96.94
606.543	83.94
606.751	94.94
606.96	93.94
607.168	96.94
607.376	93.94
607.585	77.94
607.793	75.94
608.001	83.94
608.21	89.94
608.418	92.94
608.626	85.94
608.834	86.94
609.043	85.94
609.251	98.94
609.459	96.94
609.667	93.94
609.875	92.94
610.083	76.94
610.291	90.94
610.499	78.94
610.707	89.94
610.916	89.94
611.124	92.94
611.332	80.94
611.54	86.94
611.748	73.94
611.955	93.94
612.163	91.94
612.371	76.94
612.579	76.94
612.787	78.94
612.995	89.94
613.203	89.94
613.411	73.94
613.618	97.94
613.826	88.94
614.034	91.94
614.242	92.94
614.449	79.94
614.657	88.94
614.865	89.94
615.072	78.94
615.28	84.94
615.488	91.94
615.695	85.94
615.903	87.94
616.111	81.94
616.318	93.94
616.526	90.94
616.733	79.94
616.941	81.94
617.148	102.94
617.356	85.94
617.563	92.94
617.771	70.94
617.978	84.94
618.185	94.94
618.393	85.94
618.6	77.94
618.807	89.94
619.015	83.94
619.222	76.94
619.429	89.94
619.637	92.94
619.844	92.94
620.051	86.94
620.258	84.94
620.466	83.94
620.673	82.94
620.88	93.94
621.087	84.94
621.294	72.94
621.501	76.94
621.708	83.94
621.915	88.94
622.122	85.94
622.329	73.94
622.536	72.94
622.743	92.94
622.95	69.94
623.157	80.94
623.364	80.94
623.571	82.94
623.778	86.94
623.985	87.94
624.192	102.94
624.399	87.94
624.606	93.94
624.812	98.94
625.019	90.94
625.226	76.94
625.433	83.94
625.639	86.94
625.846	88.94
626.053	90.94
626.259	97.94
626.466	84.94
626.673	82.94
626.879	72.94
627.086	81.94
627.293	89.94
627.499	85.94
627.706	84.94
627.912	75.94
628.119	82.94
628.325	90.94
628.532	92.94
628.738	85.94
628.945	90.94
629.151	87.94
629.357	81.94
629.564	90.94
629.77	83.94
629.976	99.94
630.183	82.94
630.389	73.94
630.595	89.94
630.802	91.94
631.008	73.94
631.214	84.94
631.42	78.94
631.627	75.94
631.833	91.94
632.039	89.94
632.245	83.94
632.451	78.94
632.657	97.94
632.863	86.94
633.069	88.94
633.275	94.94
633.481	88.94
633.688	86.94
633.893	79.94
634.099	99.94
634.305	86.94
634.511	80.94
634.717	89.94
634.923	85.94
635.129	84.94
635.335	89.94
635.541	98.94
635.747	90.94
635.952	85.94
636.158	82.94
636.364	83.94
636.57	90.94
636.775	84.94
636.981	79.94
637.187	84.94
637.392	81.94
637.598	88.94
637.804	92.94
638.009	92.94
638.215	96.94
638.421	81.94
638.626	82.94
638.832	86.94
639.037	83.94
639.243	82.94
639.448	70.94
639.654	78.94
639.859	82.94
640.065	81.94
640.27	87.94
640.475	80.94
640.681	67.94
640.886	81.94
641.091	95.94
641.297	97.94
641.502	93.94
641.707	87.94
641.913	78.94
642.118	81.94
642.323	85.94
642.528	93.94
642.733	86.94
642.939	83.94
643.144	88.94
643.349	75.94
643.554	82.94
643.759	76.94
643.964	87.94
644.169	91.94
644.374	78.94
644.579	71.94
644.784	90.94
644.989	77.94
645.194	90.94
645.399	72.94
645.604	81.94
645.809	92.94
646.014	89.94
646.219	86.94
646.423	77.94
646.628	80.94
646.833	93.94
647.038	82.94
647.243	88.94
647.447	81.94
647.652	80.94
647.857	79.94
648.062	76.94
648.266	80.94
648.471	90.94
648.676	78.94
648.88	89.94
649.085	78.94
649.289	74.94
649.494	83.94
649.698	91.94
649.903	79.94
650.107	84.94
650.312	75.94
650.516	91.94
650.721	102.94
650.925	90.94
651.13	74.94
651.334	84.94
651.539	76.94
651.743	82.94
651.947	89.94
652.152	95.94
652.356	88.94
652.56	85.94
652.764	76.94
652.969	65.94
653.173	99.94
653.377	65.94
653.581	76.94
653.785	94.94
653.99	88.94
654.194	81.94
654.398	76.94
654.602	79.94
654.806	80.94
655.01	89.94
655.214	89.94
655.418	80.94
655.622	81.94
655.826	108.94
656.03	89.94
656.234	73.94
656.438	88.94
656.642	73.94
656.846	85.94
657.049	82.94
657.253	89.94
657.457	92.94
657.661	84.94
657.865	90.94
658.068	83.94
658.272	80.94
658.476	84.94
658.68	69.94
658.883	76.94
659.087	89.94
659.291	84.94
659.494	77.94
659.698	83.94
659.901	78.94
660.105	87.94
660.309	70.94
660.512	89.94
660.716	72.94
660.919	89.94
661.123	97.94
661.326	92.94
661.53	74.94
661.733	90.94
661.936	86.94
662.14	89.94
662.343	74.94
662.546	83.94
662.75	83.94
662.953	97.94
663.156	89.94
663.36	79.94
663.563	90.94
663.766	81.94
663.969	79.94
664.173	83.94
664.376	70.94
664.579	71.94
664.782	75.94
664.985	86.94
665.188	89.94
665.391	76.94
665.594	77.94
665.797	72.94
666	74.94
666.203	84.94
666.406	97.94
666.609	85.94
666.812	90.94
667.015	85.94
667.218	81.94
667.421	87.94
667.624	88.94
667.827	84.94
668.03	77.94
668.232	80.94
668.435	83.94
668.638	80.94
668.841	91.94
669.043	87.94
669.246	99.94
669.449	85.94
669.651	68.94
669.854	84.94
670.057	79.94
670.259	74.94
670.462	103.94
670.665	76.94
670.867	95.94
671.07	88.94
671.272	74.94
671.475	85.94
671.677	81.94
671.88	91.94
672.082	88.94
672.284	82.94
672.487	82.94
672.689	74.94
672.892	82.94
