Data from Ni(NO3)2@0.0625M.TitratingCurve.Agarose3%dH2O.NegLispCup.LampEnergy10.LIBS07252019_HRD10591_18-13-08-569.txt Node
Date: Thu Jul 25 18:13:08 EDT 2019
User: cochatt
Spectrometer: HR+D1059
Trigger mode: 1
Integration Time (sec): 1.000000E-1
Scans to average: 1
Electric dark correction enabled: true
Nonlinearity correction enabled: false
Boxcar width: 0
XAxis mode: Wavelengths
Number of Pixels in Spectrum: 2048
>>>>>Begin Spectral Data<<<<<
223.165	-11.62
223.4	-11.62
223.635	-11.62
223.869	-20.62
224.104	-21.62
224.338	-14.62
224.573	-7.62
224.808	-15.62
225.042	-13.62
225.277	-6.62
225.511	5.38
225.746	-9.62
225.98	14.38
226.215	13.38
226.449	20.38
226.683	20.38
226.918	32.38
227.152	15.38
227.387	30.38
227.621	46.38
227.856	44.38
228.09	46.38
228.324	57.38
228.559	60.38
228.793	71.38
229.027	99.38
229.262	88.38
229.496	96.38
229.73	105.38
229.964	109.38
230.199	110.38
230.433	121.38
230.667	118.38
230.901	105.38
231.136	115.38
231.37	105.38
231.604	111.38
231.838	108.38
232.072	137.38
232.306	133.38
232.541	139.38
232.775	131.38
233.009	113.38
233.243	122.38
233.477	109.38
233.711	126.38
233.945	137.38
234.179	134.38
234.413	139.38
234.647	129.38
234.881	127.38
235.115	130.38
235.349	127.38
235.583	124.38
235.817	129.38
236.051	117.38
236.285	133.38
236.519	138.38
236.753	135.38
236.987	137.38
237.221	131.38
237.455	116.38
237.689	133.38
237.922	148.38
238.156	126.38
238.39	145.38
238.624	128.38
238.858	136.38
239.091	145.38
239.325	135.38
239.559	138.38
239.793	157.38
240.027	128.38
240.26	142.38
240.494	146.38
240.728	137.38
240.961	149.38
241.195	149.38
241.429	144.38
241.662	147.38
241.896	157.38
242.13	155.38
242.363	139.38
242.597	153.38
242.83	164.38
243.064	148.38
243.298	166.38
243.531	165.38
243.765	141.38
243.998	150.38
244.232	165.38
244.465	169.38
244.699	175.38
244.932	179.38
245.166	165.38
245.399	171.38
245.633	164.38
245.866	159.38
246.099	163.38
246.333	171.38
246.566	183.38
246.8	166.38
247.033	180.38
247.266	165.38
247.5	179.38
247.733	203.38
247.966	165.38
248.2	184.38
248.433	178.38
248.666	201.38
248.899	174.38
249.133	180.38
249.366	202.38
249.599	190.38
249.832	182.38
250.066	183.38
250.299	193.38
250.532	199.38
250.765	203.38
250.998	190.38
251.231	188.38
251.465	195.38
251.698	198.38
251.931	192.38
252.164	195.38
252.397	203.38
252.63	208.38
252.863	200.38
253.096	195.38
253.329	209.38
253.562	208.38
253.795	207.38
254.028	205.38
254.261	215.38
254.494	197.38
254.727	190.38
254.96	221.38
255.193	215.38
255.426	198.38
255.659	213.38
255.892	217.38
256.124	205.38
256.357	209.38
256.59	215.38
256.823	225.38
257.056	215.38
257.289	209.38
257.521	220.38
257.754	231.38
257.987	228.38
258.22	232.38
258.452	208.38
258.685	237.38
258.918	214.38
259.151	222.38
259.383	226.38
259.616	223.38
259.849	221.38
260.081	229.38
260.314	254.38
260.547	243.38
260.779	234.38
261.012	249.38
261.244	243.38
261.477	226.38
261.71	236.38
261.942	257.38
262.175	238.38
262.407	232.38
262.64	219.38
262.872	242.38
263.105	249.38
263.337	260.38
263.57	259.38
263.802	247.38
264.035	243.38
264.267	260.38
264.499	264.38
264.732	247.38
264.964	252.38
265.197	263.38
265.429	235.38
265.661	251.38
265.894	243.38
266.126	261.38
266.358	244.38
266.591	262.38
266.823	248.38
267.055	260.38
267.287	271.38
267.52	261.38
267.752	269.38
267.984	261.38
268.216	272.38
268.448	271.38
268.681	271.38
268.913	278.38
269.145	261.38
269.377	287.38
269.609	279.38
269.841	270.38
270.073	275.38
270.306	259.38
270.538	287.38
270.77	258.38
271.002	264.38
271.234	266.38
271.466	280.38
271.698	271.38
271.93	265.38
272.162	273.38
272.394	265.38
272.626	293.38
272.858	276.38
273.09	286.38
273.322	295.38
273.553	289.38
273.785	307.38
274.017	300.38
274.249	309.38
274.481	309.38
274.713	296.38
274.945	309.38
275.176	287.38
275.408	300.38
275.64	291.38
275.872	296.38
276.104	289.38
276.335	292.38
276.567	288.38
276.799	307.38
277.031	313.38
277.262	292.38
277.494	316.38
277.726	312.38
277.957	305.38
278.189	303.38
278.421	312.38
278.652	307.38
278.884	309.38
279.115	307.38
279.347	293.38
279.579	322.38
279.81	307.38
280.042	336.38
280.273	315.38
280.505	325.38
280.736	322.38
280.968	320.38
281.199	345.38
281.431	330.38
281.662	331.38
281.894	322.38
282.125	310.38
282.356	330.38
282.588	335.38
282.819	335.38
283.051	338.38
283.282	328.38
283.513	342.38
283.745	354.38
283.976	334.38
284.207	349.38
284.439	339.38
284.67	327.38
284.901	341.38
285.132	359.38
285.364	349.38
285.595	347.38
285.826	332.38
286.057	356.38
286.288	354.38
286.52	345.38
286.751	344.38
286.982	362.38
287.213	360.38
287.444	353.38
287.675	364.38
287.906	353.38
288.138	351.38
288.369	357.38
288.6	367.38
288.831	371.38
289.062	374.38
289.293	360.38
289.524	359.38
289.755	362.38
289.986	371.38
290.217	364.38
290.448	368.38
290.679	353.38
290.91	375.38
291.141	381.38
291.371	381.38
291.602	380.38
291.833	360.38
292.064	369.38
292.295	378.38
292.526	368.38
292.757	361.38
292.987	389.38
293.218	371.38
293.449	361.38
293.68	390.38
293.91	373.38
294.141	383.38
294.372	385.38
294.603	368.38
294.833	374.38
295.064	381.38
295.295	379.38
295.525	369.38
295.756	385.38
295.987	376.38
296.217	392.38
296.448	384.38
296.679	385.38
296.909	390.38
297.14	391.38
297.37	417.38
297.601	410.38
297.831	402.38
298.062	405.38
298.292	423.38
298.523	418.38
298.753	414.38
298.984	416.38
299.214	410.38
299.445	421.38
299.675	396.38
299.905	398.38
300.136	419.38
300.366	406.38
300.597	419.38
300.827	415.38
301.057	436.38
301.288	423.38
301.518	424.38
301.748	427.38
301.979	429.38
302.209	431.38
302.439	424.38
302.669	405.38
302.9	399.38
303.13	401.38
303.36	421.38
303.59	389.38
303.82	401.38
304.051	419.38
304.281	432.38
304.511	428.38
304.741	429.38
304.971	402.38
305.201	416.38
305.431	410.38
305.661	407.38
305.891	419.38
306.121	403.38
306.352	409.38
306.582	408.38
306.812	402.38
307.042	411.38
307.272	428.38
307.502	410.38
307.731	418.38
307.961	423.38
308.191	406.38
308.421	419.38
308.651	404.38
308.881	429.38
309.111	401.38
309.341	419.38
309.571	406.38
309.8	420.38
310.03	418.38
310.26	411.38
310.49	406.38
310.72	388.38
310.949	423.38
311.179	413.38
311.409	410.38
311.639	427.38
311.868	419.38
312.098	414.38
312.328	447.38
312.557	447.38
312.787	432.38
313.017	433.38
313.246	440.38
313.476	425.38
313.706	451.38
313.935	415.38
314.165	448.38
314.394	443.38
314.624	442.38
314.853	437.38
315.083	450.38
315.312	440.38
315.542	438.38
315.771	436.38
316.001	453.38
316.23	424.38
316.46	441.38
316.689	441.38
316.919	421.38
317.148	443.38
317.377	432.38
317.607	435.38
317.836	419.38
318.065	446.38
318.295	453.38
318.524	441.38
318.753	413.38
318.983	435.38
319.212	429.38
319.441	434.38
319.67	433.38
319.9	429.38
320.129	441.38
320.358	445.38
320.587	435.38
320.816	441.38
321.046	427.38
321.275	439.38
321.504	457.38
321.733	455.38
321.962	427.38
322.191	453.38
322.42	462.38
322.649	436.38
322.878	446.38
323.108	454.38
323.337	450.38
323.566	454.38
323.795	460.38
324.024	441.38
324.253	453.38
324.482	441.38
324.71	472.38
324.939	461.38
325.168	448.38
325.397	458.38
325.626	447.38
325.855	457.38
326.084	476.38
326.313	462.38
326.542	474.38
326.77	463.38
326.999	473.38
327.228	472.38
327.457	473.38
327.686	478.38
327.914	476.38
328.143	484.38
328.372	492.38
328.6	484.38
328.829	476.38
329.058	488.38
329.287	484.38
329.515	477.38
329.744	476.38
329.972	518.38
330.201	478.38
330.43	492.38
330.658	496.38
330.887	478.38
331.115	508.38
331.344	500.38
331.572	492.38
331.801	543.38
332.03	527.38
332.258	528.38
332.486	569.38
332.715	581.38
332.943	603.38
333.172	622.38
333.4	666.38
333.629	679.38
333.857	671.38
334.085	640.38
334.314	624.38
334.542	641.38
334.771	623.38
334.999	608.38
335.227	608.38
335.455	606.38
335.684	607.38
335.912	596.38
336.14	555.38
336.369	575.38
336.597	601.38
336.825	584.38
337.053	586.38
337.281	576.38
337.51	545.38
337.738	539.38
337.966	536.38
338.194	545.38
338.422	534.38
338.65	511.38
338.878	511.38
339.106	524.38
339.334	517.38
339.562	533.38
339.79	523.38
340.018	502.38
340.246	503.38
340.474	496.38
340.702	500.38
340.93	500.38
341.158	519.38
341.386	506.38
341.614	526.38
341.842	527.38
342.07	490.38
342.298	507.38
342.526	517.38
342.754	497.38
342.981	509.38
343.209	523.38
343.437	557.38
343.665	585.38
343.893	601.38
344.12	633.38
344.348	599.38
344.576	571.38
344.804	537.38
345.031	541.38
345.259	521.38
345.487	524.38
345.714	508.38
345.942	520.38
346.17	511.38
346.397	502.38
346.625	487.38
346.853	488.38
347.08	497.38
347.308	514.38
347.535	519.38
347.763	518.38
347.99	537.38
348.218	503.38
348.445	489.38
348.673	517.38
348.9	500.38
349.128	492.38
349.355	490.38
349.583	484.38
349.81	466.38
350.037	482.38
350.265	516.38
350.492	483.38
350.72	491.38
350.947	485.38
351.174	496.38
351.402	489.38
351.629	481.38
351.856	478.38
352.083	477.38
352.311	469.38
352.538	502.38
352.765	478.38
352.992	462.38
353.22	456.38
353.447	472.38
353.674	477.38
353.901	464.38
354.128	477.38
354.355	473.38
354.583	475.38
354.81	487.38
355.037	485.38
355.264	489.38
355.491	497.38
355.718	469.38
355.945	484.38
356.172	494.38
356.399	488.38
356.626	491.38
356.853	500.38
357.08	485.38
357.307	497.38
357.534	470.38
357.761	478.38
357.988	491.38
358.215	480.38
358.441	475.38
358.668	470.38
358.895	472.38
359.122	468.38
359.349	477.38
359.576	477.38
359.802	479.38
360.029	477.38
360.256	464.38
360.483	479.38
360.709	488.38
360.936	482.38
361.163	491.38
361.39	491.38
361.616	465.38
361.843	482.38
362.07	474.38
362.296	467.38
362.523	479.38
362.749	477.38
362.976	483.38
363.203	491.38
363.429	478.38
363.656	484.38
363.882	471.38
364.109	485.38
364.335	475.38
364.562	472.38
364.788	476.38
365.015	463.38
365.241	477.38
365.468	475.38
365.694	468.38
365.92	479.38
366.147	484.38
366.373	456.38
366.599	468.38
366.826	483.38
367.052	464.38
367.278	485.38
367.505	491.38
367.731	478.38
367.957	486.38
368.184	481.38
368.41	461.38
368.636	482.38
368.862	485.38
369.089	500.38
369.315	502.38
369.541	500.38
369.767	513.38
369.993	516.38
370.219	509.38
370.445	484.38
370.672	514.38
370.898	517.38
371.124	524.38
371.35	529.38
371.576	522.38
371.802	523.38
372.028	496.38
372.254	544.38
372.48	516.38
372.706	542.38
372.932	541.38
373.158	533.38
373.384	536.38
373.61	527.38
373.835	529.38
374.061	561.38
374.287	544.38
374.513	544.38
374.739	560.38
374.965	576.38
375.191	583.38
375.416	566.38
375.642	548.38
375.868	546.38
376.094	552.38
376.319	509.38
376.545	519.38
376.771	530.38
376.997	529.38
377.222	537.38
377.448	504.38
377.674	514.38
377.899	522.38
378.125	513.38
378.35	521.38
378.576	526.38
378.802	544.38
379.027	526.38
379.253	508.38
379.478	506.38
379.704	516.38
379.929	523.38
380.155	508.38
380.38	521.38
380.606	522.38
380.831	508.38
381.057	504.38
381.282	495.38
381.507	529.38
381.733	542.38
381.958	535.38
382.184	535.38
382.409	537.38
382.634	557.38
382.86	533.38
383.085	548.38
383.31	557.38
383.535	577.38
383.761	589.38
383.986	594.38
384.211	598.38
384.436	609.38
384.662	633.38
384.887	637.38
385.112	615.38
385.337	629.38
385.562	639.38
385.787	637.38
386.013	636.38
386.238	623.38
386.463	657.38
386.688	629.38
386.913	620.38
387.138	609.38
387.363	638.38
387.588	571.38
387.813	587.38
388.038	616.38
388.263	596.38
388.488	629.38
388.713	595.38
388.938	601.38
389.163	588.38
389.387	600.38
389.612	591.38
389.837	611.38
390.062	609.38
390.287	608.38
390.512	612.38
390.736	616.38
390.961	606.38
391.186	642.38
391.411	677.38
391.636	681.38
391.86	711.38
392.085	688.38
392.31	706.38
392.534	694.38
392.759	677.38
392.984	664.38
393.208	668.38
393.433	670.38
393.658	653.38
393.882	665.38
394.107	667.38
394.331	656.38
394.556	661.38
394.78	671.38
395.005	643.38
395.229	678.38
395.454	702.38
395.678	683.38
395.903	703.38
396.127	684.38
396.352	622.38
396.576	638.38
396.801	638.38
397.025	646.38
397.249	669.38
397.474	699.38
397.698	659.38
397.922	679.38
398.147	685.38
398.371	703.38
398.595	718.38
398.82	750.38
399.044	792.38
399.268	909.38
399.492	1053.38
399.717	1217.38
399.941	1191.38
400.165	1045.38
400.389	927.38
400.613	812.38
400.837	785.38
401.062	765.38
401.286	792.38
401.51	756.38
401.734	776.38
401.958	772.38
402.182	791.38
402.406	786.38
402.63	799.38
402.854	857.38
403.078	856.38
403.302	884.38
403.526	889.38
403.75	892.38
403.974	931.38
404.198	911.38
404.422	941.38
404.645	892.38
404.869	883.38
405.093	902.38
405.317	857.38
405.541	862.38
405.765	844.38
405.988	830.38
406.212	836.38
406.436	850.38
406.66	876.38
406.883	880.38
407.107	926.38
407.331	986.38
407.555	1032.38
407.778	987.38
408.002	985.38
408.226	958.38
408.449	907.38
408.673	905.38
408.896	879.38
409.12	864.38
409.344	885.38
409.567	895.38
409.791	895.38
410.014	879.38
410.238	890.38
410.461	875.38
410.685	845.38
410.908	824.38
411.132	811.38
411.355	821.38
411.578	821.38
411.802	784.38
412.025	816.38
412.249	807.38
412.472	823.38
412.695	793.38
412.919	752.38
413.142	759.38
413.365	793.38
413.589	775.38
413.812	765.38
414.035	769.38
414.258	751.38
414.482	772.38
414.705	789.38
414.928	823.38
415.151	791.38
415.374	775.38
415.597	773.38
415.821	785.38
416.044	776.38
416.267	759.38
416.49	746.38
416.713	768.38
416.936	772.38
417.159	788.38
417.382	771.38
417.605	751.38
417.828	780.38
418.051	780.38
418.274	798.38
418.497	763.38
418.72	792.38
418.943	809.38
419.166	836.38
419.389	893.38
419.611	872.38
419.834	835.38
420.057	795.38
420.28	783.38
420.503	753.38
420.726	769.38
420.948	756.38
421.171	751.38
421.394	787.38
421.617	767.38
421.839	768.38
422.062	786.38
422.285	775.38
422.507	781.38
422.73	781.38
422.953	815.38
423.175	840.38
423.398	828.38
423.621	839.38
423.843	839.38
424.066	840.38
424.288	828.38
424.511	829.38
424.733	831.38
424.956	814.38
425.178	791.38
425.401	805.38
425.623	775.38
425.846	765.38
426.068	759.38
426.291	739.38
426.513	714.38
426.735	710.38
426.958	705.38
427.18	695.38
427.402	718.38
427.625	749.38
427.847	703.38
428.069	689.38
428.292	666.38
428.514	685.38
428.736	690.38
428.958	697.38
429.181	662.38
429.403	673.38
429.625	681.38
429.847	671.38
430.069	667.38
430.292	664.38
430.514	712.38
430.736	681.38
430.958	675.38
431.18	677.38
431.402	691.38
431.624	677.38
431.846	688.38
432.068	696.38
432.29	708.38
432.512	677.38
432.734	691.38
432.956	685.38
433.178	712.38
433.4	686.38
433.622	709.38
433.844	699.38
434.066	696.38
434.287	738.38
434.509	707.38
434.731	776.38
434.953	761.38
435.175	796.38
435.397	789.38
435.618	746.38
435.84	713.38
436.062	697.38
436.284	685.38
436.505	709.38
436.727	705.38
436.949	685.38
437.17	717.38
437.392	665.38
437.614	669.38
437.835	675.38
438.057	670.38
438.278	666.38
438.5	658.38
438.721	681.38
438.943	683.38
439.165	700.38
439.386	680.38
439.608	675.38
439.829	699.38
440.05	709.38
440.272	715.38
440.493	712.38
440.715	701.38
440.936	717.38
441.158	736.38
441.379	763.38
441.6	797.38
441.822	797.38
442.043	788.38
442.264	773.38
442.486	793.38
442.707	762.38
442.928	789.38
443.149	795.38
443.371	783.38
443.592	797.38
443.813	791.38
444.034	794.38
444.255	808.38
444.476	864.38
444.698	963.38
444.919	947.38
445.14	1008.38
445.361	897.38
445.582	815.38
445.803	779.38
446.024	749.38
446.245	744.38
446.466	696.38
446.687	715.38
446.908	715.38
447.129	673.38
447.35	695.38
447.571	676.38
447.792	657.38
448.013	653.38
448.234	652.38
448.455	647.38
448.675	671.38
448.896	662.38
449.117	633.38
449.338	635.38
449.559	644.38
449.779	652.38
450	635.38
450.221	650.38
450.442	664.38
450.662	673.38
450.883	665.38
451.104	696.38
451.324	676.38
451.545	693.38
451.766	670.38
451.986	661.38
452.207	639.38
452.428	660.38
452.648	666.38
452.869	652.38
453.089	655.38
453.31	663.38
453.53	632.38
453.751	654.38
453.971	621.38
454.192	620.38
454.412	632.38
454.633	628.38
454.853	609.38
455.073	631.38
455.294	624.38
455.514	608.38
455.734	592.38
455.955	610.38
456.175	629.38
456.395	593.38
456.616	589.38
456.836	583.38
457.056	619.38
457.276	629.38
457.497	613.38
457.717	609.38
457.937	626.38
458.157	585.38
458.377	622.38
458.598	625.38
458.818	647.38
459.038	663.38
459.258	692.38
459.478	705.38
459.698	741.38
459.918	757.38
460.138	796.38
460.358	836.38
460.578	840.38
460.798	839.38
461.018	838.38
461.238	842.38
461.458	844.38
461.678	824.38
461.898	854.38
462.118	837.38
462.338	864.38
462.558	905.38
462.777	949.38
462.997	1028.38
463.217	1125.38
463.437	1159.38
463.657	1045.38
463.876	992.38
464.096	978.38
464.316	958.38
464.536	998.38
464.755	928.38
464.975	900.38
465.195	855.38
465.414	803.38
465.634	790.38
465.854	747.38
466.073	720.38
466.293	697.38
466.512	689.38
466.732	673.38
466.951	715.38
467.171	695.38
467.391	681.38
467.61	676.38
467.829	649.38
468.049	676.38
468.268	663.38
468.488	656.38
468.707	653.38
468.927	667.38
469.146	664.38
469.365	659.38
469.585	641.38
469.804	697.38
470.023	685.38
470.243	705.38
470.462	714.38
470.681	716.38
470.901	715.38
471.12	682.38
471.339	678.38
471.558	657.38
471.777	673.38
471.997	647.38
472.216	639.38
472.435	644.38
472.654	638.38
472.873	624.38
473.092	620.38
473.311	641.38
473.53	637.38
473.749	642.38
473.968	634.38
474.187	637.38
474.406	625.38
474.625	639.38
474.844	643.38
475.063	624.38
475.282	637.38
475.501	641.38
475.72	658.38
475.939	669.38
476.158	650.38
476.377	641.38
476.596	651.38
476.814	670.38
477.033	671.38
477.252	662.38
477.471	692.38
477.69	719.38
477.908	730.38
478.127	769.38
478.346	755.38
478.564	760.38
478.783	766.38
479.002	790.38
479.22	829.38
479.439	783.38
479.658	768.38
479.876	821.38
480.095	814.38
480.313	829.38
480.532	869.38
480.751	854.38
480.969	811.38
481.188	782.38
481.406	751.38
481.624	763.38
481.843	742.38
482.061	737.38
482.28	739.38
482.498	710.38
482.717	717.38
482.935	712.38
483.153	713.38
483.372	702.38
483.59	731.38
483.808	711.38
484.027	729.38
484.245	724.38
484.463	766.38
484.681	737.38
484.9	786.38
485.118	771.38
485.336	751.38
485.554	786.38
485.772	755.38
485.99	773.38
486.209	779.38
486.427	769.38
486.645	755.38
486.863	773.38
487.081	757.38
487.299	753.38
487.517	768.38
487.735	771.38
487.953	784.38
488.171	755.38
488.389	779.38
488.607	735.38
488.825	772.38
489.043	747.38
489.261	769.38
489.479	756.38
489.696	768.38
489.914	768.38
490.132	749.38
490.35	762.38
490.568	762.38
490.786	760.38
491.003	763.38
491.221	744.38
491.439	758.38
491.657	776.38
491.874	759.38
492.092	769.38
492.31	783.38
492.527	783.38
492.745	801.38
492.963	780.38
493.18	766.38
493.398	785.38
493.615	776.38
493.833	781.38
494.05	802.38
494.268	786.38
494.485	831.38
494.703	829.38
494.92	819.38
495.138	783.38
495.355	823.38
495.573	791.38
495.79	797.38
496.008	819.38
496.225	825.38
496.442	835.38
496.66	819.38
496.877	845.38
497.094	885.38
497.312	831.38
497.529	853.38
497.746	897.38
497.963	888.38
498.181	944.38
498.398	996.38
498.615	1047.38
498.832	1132.38
499.049	1218.38
499.267	1283.38
499.484	1417.38
499.701	1617.38
499.918	1793.38
500.135	2023.38
500.352	2385.38
500.569	2543.38
500.786	2483.38
501.003	2261.38
501.22	1985.38
501.437	1757.38
501.654	1539.38
501.871	1362.38
502.088	1270.38
502.305	1164.38
502.522	1110.38
502.739	1084.38
502.956	1011.38
503.172	966.38
503.389	935.38
503.606	921.38
503.823	908.38
504.04	905.38
504.256	910.38
504.473	962.38
504.69	979.38
504.907	937.38
505.123	872.38
505.34	827.38
505.557	803.38
505.773	789.38
505.99	741.38
506.207	744.38
506.423	773.38
506.64	742.38
506.856	744.38
507.073	720.38
507.289	707.38
507.506	711.38
507.722	730.38
507.939	712.38
508.155	683.38
508.372	684.38
508.588	675.38
508.805	707.38
509.021	683.38
509.238	676.38
509.454	676.38
509.67	660.38
509.887	672.38
510.103	682.38
510.319	681.38
510.536	666.38
510.752	695.38
510.968	662.38
511.184	663.38
511.401	669.38
511.617	647.38
511.833	671.38
512.049	636.38
512.265	646.38
512.481	645.38
512.698	647.38
512.914	654.38
513.13	630.38
513.346	646.38
513.562	675.38
513.778	683.38
513.994	641.38
514.21	665.38
514.426	673.38
514.642	670.38
514.858	689.38
515.074	669.38
515.29	689.38
515.506	669.38
515.721	691.38
515.937	732.38
516.153	697.38
516.369	699.38
516.585	757.38
516.801	760.38
517.016	787.38
517.232	843.38
517.448	867.38
517.664	899.38
517.879	941.38
518.095	916.38
518.311	926.38
518.527	855.38
518.742	803.38
518.958	777.38
519.173	730.38
519.389	728.38
519.605	709.38
519.82	703.38
520.036	685.38
520.251	661.38
520.467	672.38
520.682	672.38
520.898	667.38
521.113	649.38
521.329	647.38
521.544	650.38
521.76	654.38
521.975	647.38
522.19	630.38
522.406	639.38
522.621	636.38
522.836	610.38
523.052	623.38
523.267	616.38
523.482	612.38
523.698	612.38
523.913	605.38
524.128	621.38
524.343	620.38
524.559	620.38
524.774	614.38
524.989	613.38
525.204	616.38
525.419	607.38
525.634	594.38
525.849	589.38
526.064	626.38
526.28	609.38
526.495	597.38
526.71	600.38
526.925	580.38
527.14	606.38
527.355	612.38
527.57	587.38
527.785	606.38
527.999	596.38
528.214	612.38
528.429	595.38
528.644	574.38
528.859	601.38
529.074	609.38
529.289	619.38
529.503	623.38
529.718	613.38
529.933	592.38
530.148	603.38
530.363	587.38
530.577	591.38
530.792	597.38
531.007	599.38
531.221	605.38
531.436	624.38
531.651	615.38
531.865	589.38
532.08	628.38
532.295	611.38
532.509	606.38
532.724	603.38
532.938	596.38
533.153	609.38
533.367	598.38
533.582	576.38
533.796	595.38
534.011	607.38
534.225	618.38
534.44	602.38
534.654	598.38
534.868	614.38
535.083	614.38
535.297	591.38
535.511	580.38
535.726	587.38
535.94	577.38
536.154	588.38
536.369	584.38
536.583	559.38
536.797	557.38
537.011	561.38
537.225	556.38
537.44	572.38
537.654	560.38
537.868	559.38
538.082	548.38
538.296	548.38
538.51	548.38
538.724	583.38
538.938	556.38
539.153	560.38
539.367	553.38
539.581	564.38
539.795	541.38
540.009	541.38
540.222	538.38
540.436	542.38
540.65	558.38
540.864	535.38
541.078	550.38
541.292	549.38
541.506	553.38
541.72	529.38
541.934	553.38
542.147	551.38
542.361	547.38
542.575	541.38
542.789	549.38
543.002	550.38
543.216	534.38
543.43	556.38
543.644	525.38
543.857	527.38
544.071	544.38
544.285	525.38
544.498	531.38
544.712	549.38
544.925	539.38
545.139	537.38
545.352	532.38
545.566	573.38
545.779	548.38
545.993	548.38
546.206	558.38
546.42	549.38
546.633	544.38
546.847	541.38
547.06	535.38
547.274	544.38
547.487	543.38
547.7	566.38
547.914	555.38
548.127	565.38
548.34	562.38
548.554	561.38
548.767	556.38
548.98	521.38
549.193	551.38
549.407	556.38
549.62	533.38
549.833	561.38
550.046	561.38
550.259	527.38
550.473	531.38
550.686	529.38
550.899	537.38
551.112	540.38
551.325	512.38
551.538	526.38
551.751	559.38
551.964	553.38
552.177	561.38
552.39	549.38
552.603	572.38
552.816	579.38
553.029	594.38
553.242	606.38
553.455	611.38
553.667	619.38
553.88	596.38
554.093	573.38
554.306	574.38
554.519	568.38
554.732	552.38
554.944	533.38
555.157	521.38
555.37	515.38
555.583	537.38
555.795	510.38
556.008	515.38
556.221	482.38
556.433	484.38
556.646	494.38
556.859	488.38
557.071	478.38
557.284	485.38
557.496	472.38
557.709	469.38
557.921	479.38
558.134	468.38
558.346	491.38
558.559	480.38
558.771	472.38
558.984	446.38
559.196	454.38
559.409	466.38
559.621	456.38
559.833	482.38
560.046	453.38
560.258	469.38
560.47	461.38
560.683	454.38
560.895	445.38
561.107	443.38
561.32	474.38
561.532	458.38
561.744	446.38
561.956	480.38
562.168	475.38
562.381	454.38
562.593	440.38
562.805	458.38
563.017	462.38
563.229	458.38
563.441	482.38
563.653	480.38
563.865	464.38
564.077	458.38
564.289	469.38
564.501	485.38
564.713	520.38
564.925	493.38
565.137	507.38
565.349	507.38
565.561	511.38
565.773	564.38
565.985	560.38
566.197	587.38
566.408	606.38
566.62	683.38
566.832	734.38
567.044	738.38
567.255	728.38
567.467	742.38
567.679	809.38
567.891	895.38
568.102	920.38
568.314	879.38
568.526	759.38
568.737	697.38
568.949	641.38
569.161	593.38
569.372	540.38
569.584	493.38
569.795	493.38
570.007	468.38
570.218	468.38
570.43	476.38
570.641	484.38
570.853	480.38
571.064	489.38
571.276	493.38
571.487	471.38
571.698	443.38
571.91	447.38
572.121	433.38
572.333	428.38
572.544	421.38
572.755	391.38
572.966	394.38
573.178	402.38
573.389	402.38
573.6	396.38
573.811	407.38
574.023	392.38
574.234	382.38
574.445	403.38
574.656	375.38
574.867	377.38
575.078	390.38
575.289	401.38
575.501	366.38
575.712	371.38
575.923	375.38
576.134	389.38
576.345	362.38
576.556	372.38
576.767	373.38
576.978	367.38
577.188	355.38
577.399	356.38
577.61	360.38
577.821	344.38
578.032	352.38
578.243	366.38
578.454	346.38
578.665	346.38
578.875	329.38
579.086	337.38
579.297	314.38
579.508	385.38
579.718	337.38
579.929	360.38
580.14	358.38
580.35	342.38
580.561	351.38
580.772	366.38
580.982	353.38
581.193	335.38
581.403	328.38
581.614	349.38
581.825	342.38
582.035	341.38
582.246	355.38
582.456	336.38
582.667	334.38
582.877	349.38
583.087	328.38
583.298	334.38
583.508	341.38
583.719	344.38
583.929	320.38
584.139	317.38
584.35	325.38
584.56	331.38
584.77	320.38
584.981	319.38
585.191	317.38
585.401	329.38
585.611	324.38
585.821	323.38
586.032	315.38
586.242	304.38
586.452	293.38
586.662	307.38
586.872	316.38
587.082	311.38
587.292	321.38
587.502	314.38
587.713	296.38
587.923	305.38
588.133	305.38
588.343	314.38
588.553	309.38
588.762	313.38
588.972	329.38
589.182	320.38
589.392	295.38
589.602	312.38
589.812	315.38
590.022	326.38
590.232	323.38
590.441	311.38
590.651	314.38
590.861	316.38
591.071	336.38
591.281	343.38
591.49	341.38
591.7	350.38
591.91	324.38
592.119	327.38
592.329	347.38
592.539	350.38
592.748	388.38
592.958	401.38
593.167	384.38
593.377	399.38
593.587	397.38
593.796	407.38
594.006	395.38
594.215	413.38
594.424	415.38
594.634	407.38
594.843	385.38
595.053	381.38
595.262	361.38
595.472	359.38
595.681	337.38
595.89	330.38
596.1	327.38
596.309	317.38
596.518	310.38
596.727	303.38
596.937	289.38
597.146	291.38
597.355	292.38
597.564	300.38
597.774	284.38
597.983	291.38
598.192	277.38
598.401	284.38
598.61	273.38
598.819	291.38
599.028	303.38
599.237	294.38
599.446	281.38
599.655	299.38
599.864	295.38
600.073	284.38
600.282	282.38
600.491	271.38
600.7	286.38
600.909	251.38
601.118	279.38
601.327	275.38
601.536	260.38
601.745	275.38
601.953	260.38
602.162	280.38
602.371	257.38
602.58	265.38
602.789	263.38
602.997	269.38
603.206	280.38
603.415	266.38
603.623	259.38
603.832	262.38
604.041	262.38
604.249	269.38
604.458	260.38
604.666	256.38
604.875	248.38
605.084	259.38
605.292	249.38
605.501	262.38
605.709	254.38
605.918	241.38
606.126	265.38
606.334	252.38
606.543	261.38
606.751	261.38
606.96	251.38
607.168	266.38
607.376	229.38
607.585	251.38
607.793	247.38
608.001	256.38
608.21	237.38
608.418	231.38
608.626	254.38
608.834	246.38
609.043	264.38
609.251	252.38
609.459	238.38
609.667	245.38
609.875	243.38
610.083	261.38
610.291	239.38
610.499	255.38
610.707	246.38
610.916	236.38
611.124	243.38
611.332	259.38
611.54	257.38
611.748	264.38
611.955	254.38
612.163	263.38
612.371	253.38
612.579	236.38
612.787	263.38
612.995	243.38
613.203	223.38
613.411	251.38
613.618	229.38
613.826	231.38
614.034	238.38
614.242	243.38
614.449	213.38
614.657	230.38
614.865	246.38
615.072	232.38
615.28	237.38
615.488	237.38
615.695	261.38
615.903	247.38
616.111	248.38
616.318	262.38
616.526	249.38
616.733	250.38
616.941	248.38
617.148	239.38
617.356	263.38
617.563	247.38
617.771	245.38
617.978	236.38
618.185	236.38
618.393	234.38
618.6	238.38
618.807	235.38
619.015	246.38
619.222	255.38
619.429	253.38
619.637	234.38
619.844	224.38
620.051	217.38
620.258	228.38
620.466	219.38
620.673	217.38
620.88	222.38
621.087	229.38
621.294	222.38
621.501	218.38
621.708	234.38
621.915	236.38
622.122	215.38
622.329	221.38
622.536	226.38
622.743	229.38
622.95	230.38
623.157	214.38
623.364	188.38
623.571	218.38
623.778	221.38
623.985	219.38
624.192	213.38
624.399	205.38
624.606	206.38
624.812	220.38
625.019	214.38
625.226	217.38
625.433	209.38
625.639	216.38
625.846	195.38
626.053	200.38
626.259	213.38
626.466	202.38
626.673	210.38
626.879	192.38
627.086	190.38
627.293	199.38
627.499	206.38
627.706	214.38
627.912	191.38
628.119	197.38
628.325	211.38
628.532	204.38
628.738	208.38
628.945	192.38
629.151	200.38
629.357	183.38
629.564	184.38
629.77	213.38
629.976	190.38
630.183	189.38
630.389	193.38
630.595	187.38
630.802	197.38
631.008	190.38
631.214	193.38
631.42	184.38
631.627	198.38
631.833	189.38
632.039	178.38
632.245	183.38
632.451	203.38
632.657	183.38
632.863	204.38
633.069	198.38
633.275	199.38
633.481	182.38
633.688	181.38
633.893	183.38
634.099	173.38
634.305	179.38
634.511	195.38
634.717	185.38
634.923	182.38
635.129	195.38
635.335	185.38
635.541	181.38
635.747	183.38
635.952	172.38
636.158	173.38
636.364	188.38
636.57	178.38
636.775	180.38
636.981	188.38
637.187	185.38
637.392	185.38
637.598	183.38
637.804	189.38
638.009	184.38
638.215	187.38
638.421	160.38
638.626	173.38
638.832	171.38
639.037	176.38
639.243	167.38
639.448	181.38
639.654	191.38
639.859	168.38
640.065	179.38
640.27	173.38
640.475	170.38
640.681	183.38
640.886	166.38
641.091	159.38
641.297	180.38
641.502	161.38
641.707	161.38
641.913	179.38
642.118	172.38
642.323	167.38
642.528	183.38
642.733	163.38
642.939	166.38
643.144	165.38
643.349	169.38
643.554	170.38
643.759	156.38
643.964	163.38
644.169	173.38
644.374	163.38
644.579	171.38
644.784	171.38
644.989	157.38
645.194	168.38
645.399	172.38
645.604	152.38
645.809	185.38
646.014	163.38
646.219	168.38
646.423	163.38
646.628	175.38
646.833	161.38
647.038	169.38
647.243	191.38
647.447	188.38
647.652	174.38
647.857	192.38
648.062	164.38
648.266	172.38
648.471	179.38
648.676	190.38
648.88	173.38
649.085	167.38
649.289	176.38
649.494	164.38
649.698	197.38
649.903	163.38
650.107	169.38
650.312	168.38
650.516	157.38
650.721	147.38
650.925	143.38
651.13	173.38
651.334	142.38
651.539	159.38
651.743	155.38
651.947	150.38
652.152	148.38
652.356	139.38
652.56	134.38
652.764	137.38
652.969	149.38
653.173	148.38
653.377	163.38
653.581	144.38
653.785	148.38
653.99	149.38
654.194	138.38
654.398	121.38
654.602	135.38
654.806	132.38
655.01	131.38
655.214	128.38
655.418	132.38
655.622	137.38
655.826	141.38
656.03	132.38
656.234	139.38
656.438	133.38
656.642	114.38
656.846	123.38
657.049	126.38
657.253	131.38
657.457	106.38
657.661	123.38
657.865	117.38
658.068	118.38
658.272	106.38
658.476	113.38
658.68	96.38
658.883	100.38
659.087	111.38
659.291	103.38
659.494	105.38
659.698	100.38
659.901	110.38
660.105	90.38
660.309	107.38
660.512	113.38
660.716	94.38
660.919	96.38
661.123	106.38
661.326	91.38
661.53	95.38
661.733	108.38
661.936	111.38
662.14	85.38
662.343	85.38
662.546	89.38
662.75	96.38
662.953	87.38
663.156	94.38
663.36	94.38
663.563	83.38
663.766	81.38
663.969	78.38
664.173	82.38
664.376	85.38
664.579	95.38
664.782	75.38
664.985	85.38
665.188	95.38
665.391	95.38
665.594	78.38
665.797	75.38
666	78.38
666.203	94.38
666.406	83.38
666.609	94.38
666.812	86.38
667.015	88.38
667.218	86.38
667.421	93.38
667.624	82.38
667.827	86.38
668.03	85.38
668.232	79.38
668.435	76.38
668.638	98.38
668.841	80.38
669.043	80.38
669.246	82.38
669.449	72.38
669.651	79.38
669.854	89.38
670.057	87.38
670.259	99.38
670.462	86.38
670.665	77.38
670.867	78.38
671.07	92.38
671.272	102.38
671.475	82.38
671.677	76.38
671.88	90.38
672.082	70.38
672.284	73.38
672.487	81.38
672.689	88.38
672.892	89.38
