Data from Ni(NO3)2@0.5M.TitratingCurve.Agarose3%dH2O.NegLispCup.LampEnergy10.LIBS07252019_HRD10591_17-58-10-564.txt Node
Date: Thu Jul 25 17:58:10 EDT 2019
User: cochatt
Spectrometer: HR+D1059
Trigger mode: 1
Integration Time (sec): 1.000000E-1
Scans to average: 1
Electric dark correction enabled: true
Nonlinearity correction enabled: false
Boxcar width: 0
XAxis mode: Wavelengths
Number of Pixels in Spectrum: 2048
>>>>>Begin Spectral Data<<<<<
223.165	-15.5
223.4	-15.5
223.635	-15.5
223.869	-21.5
224.104	-12.5
224.338	-6.5
224.573	-5.5
224.808	-25.5
225.042	-9.5
225.277	-10.5
225.511	-13.5
225.746	-3.5
225.98	26.5
226.215	9.5
226.449	14.5
226.683	21.5
226.918	22.5
227.152	29.5
227.387	34.5
227.621	38.5
227.856	27.5
228.09	43.5
228.324	39.5
228.559	60.5
228.793	64.5
229.027	99.5
229.262	113.5
229.496	92.5
229.73	88.5
229.964	120.5
230.199	123.5
230.433	123.5
230.667	118.5
230.901	150.5
231.136	122.5
231.37	120.5
231.604	126.5
231.838	124.5
232.072	123.5
232.306	137.5
232.541	125.5
232.775	114.5
233.009	122.5
233.243	136.5
233.477	122.5
233.711	121.5
233.945	124.5
234.179	132.5
234.413	128.5
234.647	127.5
234.881	133.5
235.115	119.5
235.349	135.5
235.583	117.5
235.817	114.5
236.051	108.5
236.285	117.5
236.519	109.5
236.753	120.5
236.987	127.5
237.221	123.5
237.455	120.5
237.689	128.5
237.922	133.5
238.156	117.5
238.39	115.5
238.624	129.5
238.858	125.5
239.091	132.5
239.325	142.5
239.559	140.5
239.793	143.5
240.027	152.5
240.26	139.5
240.494	131.5
240.728	134.5
240.961	139.5
241.195	125.5
241.429	133.5
241.662	154.5
241.896	133.5
242.13	151.5
242.363	135.5
242.597	137.5
242.83	141.5
243.064	152.5
243.298	163.5
243.531	151.5
243.765	144.5
243.998	143.5
244.232	155.5
244.465	150.5
244.699	157.5
244.932	148.5
245.166	165.5
245.399	149.5
245.633	155.5
245.866	149.5
246.099	152.5
246.333	154.5
246.566	157.5
246.8	146.5
247.033	163.5
247.266	183.5
247.5	161.5
247.733	160.5
247.966	178.5
248.2	161.5
248.433	177.5
248.666	182.5
248.899	165.5
249.133	171.5
249.366	166.5
249.599	171.5
249.832	198.5
250.066	179.5
250.299	183.5
250.532	173.5
250.765	179.5
250.998	192.5
251.231	193.5
251.465	218.5
251.698	211.5
251.931	185.5
252.164	198.5
252.397	212.5
252.63	189.5
252.863	211.5
253.096	187.5
253.329	205.5
253.562	205.5
253.795	208.5
254.028	211.5
254.261	189.5
254.494	217.5
254.727	217.5
254.96	214.5
255.193	215.5
255.426	232.5
255.659	208.5
255.892	225.5
256.124	200.5
256.357	205.5
256.59	220.5
256.823	216.5
257.056	219.5
257.289	223.5
257.521	223.5
257.754	221.5
257.987	237.5
258.22	241.5
258.452	247.5
258.685	227.5
258.918	236.5
259.151	223.5
259.383	230.5
259.616	246.5
259.849	259.5
260.081	243.5
260.314	261.5
260.547	251.5
260.779	254.5
261.012	255.5
261.244	240.5
261.477	231.5
261.71	250.5
261.942	244.5
262.175	261.5
262.407	239.5
262.64	264.5
262.872	260.5
263.105	240.5
263.337	252.5
263.57	257.5
263.802	263.5
264.035	250.5
264.267	258.5
264.499	275.5
264.732	268.5
264.964	282.5
265.197	268.5
265.429	268.5
265.661	282.5
265.894	260.5
266.126	279.5
266.358	269.5
266.591	255.5
266.823	277.5
267.055	269.5
267.287	284.5
267.52	283.5
267.752	280.5
267.984	313.5
268.216	285.5
268.448	291.5
268.681	290.5
268.913	282.5
269.145	295.5
269.377	294.5
269.609	284.5
269.841	290.5
270.073	285.5
270.306	296.5
270.538	291.5
270.77	301.5
271.002	303.5
271.234	291.5
271.466	308.5
271.698	300.5
271.93	292.5
272.162	300.5
272.394	304.5
272.626	309.5
272.858	316.5
273.09	300.5
273.322	283.5
273.553	296.5
273.785	308.5
274.017	310.5
274.249	320.5
274.481	306.5
274.713	314.5
274.945	312.5
275.176	312.5
275.408	316.5
275.64	334.5
275.872	312.5
276.104	323.5
276.335	340.5
276.567	340.5
276.799	325.5
277.031	319.5
277.262	321.5
277.494	328.5
277.726	324.5
277.957	331.5
278.189	332.5
278.421	331.5
278.652	354.5
278.884	334.5
279.115	327.5
279.347	339.5
279.579	323.5
279.81	344.5
280.042	314.5
280.273	348.5
280.505	338.5
280.736	351.5
280.968	339.5
281.199	339.5
281.431	358.5
281.662	338.5
281.894	349.5
282.125	323.5
282.356	330.5
282.588	333.5
282.819	346.5
283.051	359.5
283.282	335.5
283.513	361.5
283.745	363.5
283.976	347.5
284.207	364.5
284.439	345.5
284.67	352.5
284.901	352.5
285.132	362.5
285.364	376.5
285.595	354.5
285.826	359.5
286.057	376.5
286.288	359.5
286.52	376.5
286.751	362.5
286.982	343.5
287.213	373.5
287.444	368.5
287.675	361.5
287.906	348.5
288.138	359.5
288.369	372.5
288.6	377.5
288.831	388.5
289.062	368.5
289.293	356.5
289.524	346.5
289.755	377.5
289.986	364.5
290.217	365.5
290.448	363.5
290.679	351.5
290.91	355.5
291.141	377.5
291.371	385.5
291.602	377.5
291.833	369.5
292.064	372.5
292.295	380.5
292.526	371.5
292.757	387.5
292.987	387.5
293.218	388.5
293.449	394.5
293.68	377.5
293.91	392.5
294.141	389.5
294.372	381.5
294.603	375.5
294.833	374.5
295.064	368.5
295.295	380.5
295.525	389.5
295.756	378.5
295.987	371.5
296.217	380.5
296.448	381.5
296.679	380.5
296.909	400.5
297.14	404.5
297.37	386.5
297.601	402.5
297.831	391.5
298.062	391.5
298.292	400.5
298.523	396.5
298.753	386.5
298.984	398.5
299.214	403.5
299.445	392.5
299.675	377.5
299.905	406.5
300.136	412.5
300.366	416.5
300.597	420.5
300.827	417.5
301.057	404.5
301.288	439.5
301.518	413.5
301.748	422.5
301.979	433.5
302.209	437.5
302.439	426.5
302.669	409.5
302.9	405.5
303.13	416.5
303.36	424.5
303.59	421.5
303.82	429.5
304.051	433.5
304.281	438.5
304.511	434.5
304.741	439.5
304.971	457.5
305.201	440.5
305.431	443.5
305.661	449.5
305.891	447.5
306.121	424.5
306.352	421.5
306.582	425.5
306.812	445.5
307.042	437.5
307.272	437.5
307.502	435.5
307.731	437.5
307.961	422.5
308.191	452.5
308.421	429.5
308.651	439.5
308.881	441.5
309.111	442.5
309.341	451.5
309.571	467.5
309.8	446.5
310.03	458.5
310.26	455.5
310.49	479.5
310.72	461.5
310.949	460.5
311.179	448.5
311.409	432.5
311.639	449.5
311.868	456.5
312.098	438.5
312.328	475.5
312.557	458.5
312.787	459.5
313.017	454.5
313.246	473.5
313.476	477.5
313.706	468.5
313.935	487.5
314.165	465.5
314.394	473.5
314.624	458.5
314.853	459.5
315.083	485.5
315.312	481.5
315.542	491.5
315.771	487.5
316.001	462.5
316.23	484.5
316.46	491.5
316.689	488.5
316.919	484.5
317.148	498.5
317.377	514.5
317.607	488.5
317.836	509.5
318.065	471.5
318.295	489.5
318.524	526.5
318.753	509.5
318.983	490.5
319.212	505.5
319.441	501.5
319.67	492.5
319.9	518.5
320.129	499.5
320.358	524.5
320.587	526.5
320.816	515.5
321.046	511.5
321.275	543.5
321.504	515.5
321.733	516.5
321.962	528.5
322.191	523.5
322.42	510.5
322.649	530.5
322.878	534.5
323.108	515.5
323.337	515.5
323.566	530.5
323.795	564.5
324.024	562.5
324.253	513.5
324.482	543.5
324.71	550.5
324.939	557.5
325.168	547.5
325.397	539.5
325.626	543.5
325.855	572.5
326.084	567.5
326.313	559.5
326.542	561.5
326.77	570.5
326.999	547.5
327.228	562.5
327.457	571.5
327.686	571.5
327.914	567.5
328.143	589.5
328.372	578.5
328.6	583.5
328.829	572.5
329.058	569.5
329.287	573.5
329.515	565.5
329.744	589.5
329.972	584.5
330.201	588.5
330.43	588.5
330.658	573.5
330.887	572.5
331.115	587.5
331.344	590.5
331.572	611.5
331.801	579.5
332.03	603.5
332.258	610.5
332.486	620.5
332.715	621.5
332.943	616.5
333.172	626.5
333.4	667.5
333.629	671.5
333.857	657.5
334.085	649.5
334.314	680.5
334.542	668.5
334.771	667.5
334.999	649.5
335.227	653.5
335.455	656.5
335.684	669.5
335.912	676.5
336.14	675.5
336.369	637.5
336.597	674.5
336.825	689.5
337.053	669.5
337.281	670.5
337.51	654.5
337.738	676.5
337.966	674.5
338.194	669.5
338.422	653.5
338.65	650.5
338.878	626.5
339.106	665.5
339.334	651.5
339.562	653.5
339.79	638.5
340.018	633.5
340.246	627.5
340.474	635.5
340.702	641.5
340.93	621.5
341.158	656.5
341.386	679.5
341.614	669.5
341.842	661.5
342.07	656.5
342.298	643.5
342.526	645.5
342.754	624.5
342.981	635.5
343.209	668.5
343.437	651.5
343.665	671.5
343.893	671.5
344.12	665.5
344.348	678.5
344.576	671.5
344.804	687.5
345.031	647.5
345.259	660.5
345.487	652.5
345.714	673.5
345.942	663.5
346.17	667.5
346.397	665.5
346.625	610.5
346.853	616.5
347.08	618.5
347.308	628.5
347.535	643.5
347.763	627.5
347.99	608.5
348.218	634.5
348.445	621.5
348.673	627.5
348.9	613.5
349.128	625.5
349.355	639.5
349.583	660.5
349.81	626.5
350.037	624.5
350.265	610.5
350.492	628.5
350.72	612.5
350.947	618.5
351.174	639.5
351.402	645.5
351.629	657.5
351.856	651.5
352.083	629.5
352.311	650.5
352.538	649.5
352.765	618.5
352.992	600.5
353.22	583.5
353.447	615.5
353.674	588.5
353.901	602.5
354.128	601.5
354.355	598.5
354.583	597.5
354.81	599.5
355.037	594.5
355.264	606.5
355.491	597.5
355.718	605.5
355.945	609.5
356.172	618.5
356.399	631.5
356.626	639.5
356.853	608.5
357.08	614.5
357.307	623.5
357.534	600.5
357.761	599.5
357.988	601.5
358.215	595.5
358.441	600.5
358.668	579.5
358.895	603.5
359.122	558.5
359.349	597.5
359.576	604.5
359.802	626.5
360.029	620.5
360.256	618.5
360.483	600.5
360.709	583.5
360.936	601.5
361.163	610.5
361.39	616.5
361.616	616.5
361.843	602.5
362.07	638.5
362.296	633.5
362.523	625.5
362.749	612.5
362.976	624.5
363.203	600.5
363.429	620.5
363.656	601.5
363.882	604.5
364.109	592.5
364.335	590.5
364.562	606.5
364.788	593.5
365.015	602.5
365.241	603.5
365.468	613.5
365.694	592.5
365.92	613.5
366.147	614.5
366.373	612.5
366.599	624.5
366.826	583.5
367.052	607.5
367.278	620.5
367.505	613.5
367.731	638.5
367.957	621.5
368.184	606.5
368.41	616.5
368.636	612.5
368.862	627.5
369.089	606.5
369.315	597.5
369.541	600.5
369.767	636.5
369.993	623.5
370.219	639.5
370.445	619.5
370.672	642.5
370.898	664.5
371.124	610.5
371.35	635.5
371.576	639.5
371.802	613.5
372.028	631.5
372.254	651.5
372.48	639.5
372.706	633.5
372.932	652.5
373.158	625.5
373.384	631.5
373.61	634.5
373.835	634.5
374.061	637.5
374.287	653.5
374.513	646.5
374.739	664.5
374.965	672.5
375.191	668.5
375.416	656.5
375.642	644.5
375.868	656.5
376.094	652.5
376.319	645.5
376.545	628.5
376.771	632.5
376.997	635.5
377.222	632.5
377.448	613.5
377.674	620.5
377.899	637.5
378.125	606.5
378.35	636.5
378.576	607.5
378.802	617.5
379.027	657.5
379.253	619.5
379.478	620.5
379.704	641.5
379.929	615.5
380.155	613.5
380.38	610.5
380.606	624.5
380.831	645.5
381.057	627.5
381.282	628.5
381.507	635.5
381.733	621.5
381.958	611.5
382.184	646.5
382.409	635.5
382.634	653.5
382.86	658.5
383.085	666.5
383.31	636.5
383.535	654.5
383.761	647.5
383.986	675.5
384.211	659.5
384.436	653.5
384.662	662.5
384.887	667.5
385.112	683.5
385.337	681.5
385.562	704.5
385.787	692.5
386.013	716.5
386.238	712.5
386.463	706.5
386.688	713.5
386.913	669.5
387.138	705.5
387.363	707.5
387.588	711.5
387.813	683.5
388.038	699.5
388.263	703.5
388.488	705.5
388.713	714.5
388.938	695.5
389.163	708.5
389.387	725.5
389.612	695.5
389.837	717.5
390.062	698.5
390.287	707.5
390.512	706.5
390.736	698.5
390.961	694.5
391.186	717.5
391.411	726.5
391.636	731.5
391.86	727.5
392.085	732.5
392.31	726.5
392.534	752.5
392.759	716.5
392.984	731.5
393.208	749.5
393.433	733.5
393.658	729.5
393.882	717.5
394.107	720.5
394.331	724.5
394.556	716.5
394.78	735.5
395.005	738.5
395.229	744.5
395.454	755.5
395.678	735.5
395.903	760.5
396.127	761.5
396.352	719.5
396.576	740.5
396.801	739.5
397.025	766.5
397.249	738.5
397.474	757.5
397.698	756.5
397.922	788.5
398.147	760.5
398.371	803.5
398.595	802.5
398.82	827.5
399.044	835.5
399.268	881.5
399.492	927.5
399.717	962.5
399.941	960.5
400.165	929.5
400.389	911.5
400.613	860.5
400.837	868.5
401.062	852.5
401.286	812.5
401.51	844.5
401.734	802.5
401.958	817.5
402.182	815.5
402.406	826.5
402.63	830.5
402.854	836.5
403.078	808.5
403.302	808.5
403.526	819.5
403.75	838.5
403.974	853.5
404.198	821.5
404.422	852.5
404.645	807.5
404.869	831.5
405.093	841.5
405.317	837.5
405.541	870.5
405.765	881.5
405.988	865.5
406.212	908.5
406.436	869.5
406.66	877.5
406.883	854.5
407.107	906.5
407.331	909.5
407.555	934.5
407.778	932.5
408.002	913.5
408.226	947.5
408.449	927.5
408.673	907.5
408.896	897.5
409.12	889.5
409.344	920.5
409.567	866.5
409.791	875.5
410.014	859.5
410.238	856.5
410.461	849.5
410.685	859.5
410.908	869.5
411.132	860.5
411.355	844.5
411.578	843.5
411.802	863.5
412.025	831.5
412.249	825.5
412.472	844.5
412.695	821.5
412.919	830.5
413.142	851.5
413.365	844.5
413.589	844.5
413.812	845.5
414.035	835.5
414.258	837.5
414.482	848.5
414.705	819.5
414.928	801.5
415.151	825.5
415.374	813.5
415.597	824.5
415.821	811.5
416.044	809.5
416.267	783.5
416.49	788.5
416.713	827.5
416.936	803.5
417.159	820.5
417.382	796.5
417.605	809.5
417.828	808.5
418.051	776.5
418.274	823.5
418.497	796.5
418.72	823.5
418.943	799.5
419.166	857.5
419.389	880.5
419.611	887.5
419.834	886.5
420.057	810.5
420.28	829.5
420.503	804.5
420.726	789.5
420.948	799.5
421.171	792.5
421.394	781.5
421.617	804.5
421.839	811.5
422.062	825.5
422.285	807.5
422.507	815.5
422.73	797.5
422.953	815.5
423.175	809.5
423.398	823.5
423.621	809.5
423.843	831.5
424.066	827.5
424.288	819.5
424.511	829.5
424.733	809.5
424.956	808.5
425.178	792.5
425.401	823.5
425.623	826.5
425.846	782.5
426.068	775.5
426.291	816.5
426.513	802.5
426.735	805.5
426.958	801.5
427.18	776.5
427.402	789.5
427.625	795.5
427.847	769.5
428.069	798.5
428.292	797.5
428.514	791.5
428.736	761.5
428.958	778.5
429.181	775.5
429.403	772.5
429.625	778.5
429.847	768.5
430.069	780.5
430.292	771.5
430.514	760.5
430.736	793.5
430.958	807.5
431.18	777.5
431.402	785.5
431.624	772.5
431.846	747.5
432.068	790.5
432.29	772.5
432.512	747.5
432.734	796.5
432.956	765.5
433.178	801.5
433.4	842.5
433.622	807.5
433.844	792.5
434.066	803.5
434.287	791.5
434.509	803.5
434.731	813.5
434.953	822.5
435.175	805.5
435.397	818.5
435.618	782.5
435.84	801.5
436.062	797.5
436.284	769.5
436.505	792.5
436.727	779.5
436.949	770.5
437.17	770.5
437.392	771.5
437.614	773.5
437.835	756.5
438.057	767.5
438.278	743.5
438.5	757.5
438.721	793.5
438.943	756.5
439.165	769.5
439.386	775.5
439.608	775.5
439.829	804.5
440.05	784.5
440.272	785.5
440.493	782.5
440.715	792.5
440.936	790.5
441.158	807.5
441.379	808.5
441.6	846.5
441.822	843.5
442.043	832.5
442.264	840.5
442.486	817.5
442.707	833.5
442.928	820.5
443.149	824.5
443.371	804.5
443.592	834.5
443.813	863.5
444.034	838.5
444.255	849.5
444.476	845.5
444.698	865.5
444.919	893.5
445.14	949.5
445.361	893.5
445.582	867.5
445.803	837.5
446.024	807.5
446.245	800.5
446.466	801.5
446.687	796.5
446.908	770.5
447.129	797.5
447.35	789.5
447.571	780.5
447.792	782.5
448.013	753.5
448.234	768.5
448.455	769.5
448.675	712.5
448.896	741.5
449.117	711.5
449.338	725.5
449.559	770.5
449.779	704.5
450	733.5
450.221	721.5
450.442	744.5
450.662	744.5
450.883	724.5
451.104	738.5
451.324	735.5
451.545	728.5
451.766	727.5
451.986	701.5
452.207	720.5
452.428	739.5
452.648	717.5
452.869	682.5
453.089	727.5
453.31	736.5
453.53	725.5
453.751	691.5
453.971	701.5
454.192	704.5
454.412	683.5
454.633	707.5
454.853	707.5
455.073	703.5
455.294	721.5
455.514	681.5
455.734	710.5
455.955	720.5
456.175	688.5
456.395	692.5
456.616	702.5
456.836	707.5
457.056	667.5
457.276	691.5
457.497	699.5
457.717	715.5
457.937	721.5
458.157	692.5
458.377	716.5
458.598	700.5
458.818	724.5
459.038	724.5
459.258	770.5
459.478	795.5
459.698	809.5
459.918	773.5
460.138	801.5
460.358	834.5
460.578	800.5
460.798	823.5
461.018	851.5
461.238	854.5
461.458	835.5
461.678	833.5
461.898	807.5
462.118	823.5
462.338	871.5
462.558	896.5
462.777	903.5
462.997	924.5
463.217	940.5
463.437	977.5
463.657	947.5
463.876	918.5
464.096	933.5
464.316	911.5
464.536	907.5
464.755	893.5
464.975	858.5
465.195	851.5
465.414	860.5
465.634	851.5
465.854	792.5
466.073	786.5
466.293	804.5
466.512	755.5
466.732	800.5
466.951	777.5
467.171	753.5
467.391	760.5
467.61	729.5
467.829	752.5
468.049	751.5
468.268	749.5
468.488	756.5
468.707	743.5
468.927	743.5
469.146	745.5
469.365	774.5
469.585	762.5
469.804	762.5
470.023	788.5
470.243	742.5
470.462	770.5
470.681	765.5
470.901	760.5
471.12	763.5
471.339	777.5
471.558	764.5
471.777	772.5
471.997	760.5
472.216	759.5
472.435	733.5
472.654	743.5
472.873	728.5
473.092	740.5
473.311	747.5
473.53	745.5
473.749	713.5
473.968	717.5
474.187	748.5
474.406	731.5
474.625	775.5
474.844	760.5
475.063	744.5
475.282	767.5
475.501	770.5
475.72	777.5
475.939	771.5
476.158	781.5
476.377	758.5
476.596	778.5
476.814	789.5
477.033	777.5
477.252	775.5
477.471	823.5
477.69	837.5
477.908	832.5
478.127	823.5
478.346	817.5
478.564	855.5
478.783	835.5
479.002	871.5
479.22	883.5
479.439	887.5
479.658	872.5
479.876	880.5
480.095	867.5
480.313	890.5
480.532	887.5
480.751	868.5
480.969	889.5
481.188	873.5
481.406	865.5
481.624	866.5
481.843	859.5
482.061	839.5
482.28	866.5
482.498	873.5
482.717	837.5
482.935	852.5
483.153	840.5
483.372	854.5
483.59	891.5
483.808	862.5
484.027	846.5
484.245	866.5
484.463	867.5
484.681	865.5
484.9	869.5
485.118	881.5
485.336	853.5
485.554	895.5
485.772	860.5
485.99	887.5
486.209	883.5
486.427	885.5
486.645	865.5
486.863	875.5
487.081	891.5
487.299	869.5
487.517	897.5
487.735	915.5
487.953	930.5
488.171	932.5
488.389	908.5
488.607	926.5
488.825	867.5
489.043	889.5
489.261	880.5
489.479	893.5
489.696	899.5
489.914	889.5
490.132	888.5
490.35	893.5
490.568	888.5
490.786	910.5
491.003	890.5
491.221	926.5
491.439	931.5
491.657	941.5
491.874	928.5
492.092	930.5
492.31	963.5
492.527	943.5
492.745	956.5
492.963	941.5
493.18	964.5
493.398	934.5
493.615	928.5
493.833	959.5
494.05	957.5
494.268	964.5
494.485	980.5
494.703	936.5
494.92	956.5
495.138	935.5
495.355	994.5
495.573	946.5
495.79	971.5
496.008	968.5
496.225	1003.5
496.442	947.5
496.66	989.5
496.877	1023.5
497.094	1048.5
497.312	1043.5
497.529	1059.5
497.746	1032.5
497.963	1055.5
498.181	1126.5
498.398	1123.5
498.615	1121.5
498.832	1207.5
499.049	1250.5
499.267	1257.5
499.484	1311.5
499.701	1401.5
499.918	1437.5
500.135	1524.5
500.352	1572.5
500.569	1591.5
500.786	1593.5
501.003	1544.5
501.22	1543.5
501.437	1424.5
501.654	1339.5
501.871	1315.5
502.088	1259.5
502.305	1215.5
502.522	1188.5
502.739	1155.5
502.956	1139.5
503.172	1073.5
503.389	1119.5
503.606	1041.5
503.823	1028.5
504.04	1025.5
504.256	1020.5
504.473	1009.5
504.69	1007.5
504.907	990.5
505.123	959.5
505.34	930.5
505.557	923.5
505.773	934.5
505.99	894.5
506.207	876.5
506.423	872.5
506.64	876.5
506.856	860.5
507.073	874.5
507.289	839.5
507.506	883.5
507.722	876.5
507.939	856.5
508.155	859.5
508.372	828.5
508.588	843.5
508.805	831.5
509.021	810.5
509.238	826.5
509.454	801.5
509.67	816.5
509.887	816.5
510.103	821.5
510.319	794.5
510.536	795.5
510.752	769.5
510.968	797.5
511.184	791.5
511.401	762.5
511.617	777.5
511.833	797.5
512.049	783.5
512.265	778.5
512.481	776.5
512.698	782.5
512.914	780.5
513.13	767.5
513.346	791.5
513.562	742.5
513.778	801.5
513.994	756.5
514.21	775.5
514.426	786.5
514.642	769.5
514.858	786.5
515.074	800.5
515.29	817.5
515.506	799.5
515.721	805.5
515.937	802.5
516.153	785.5
516.369	823.5
516.585	822.5
516.801	826.5
517.016	872.5
517.232	869.5
517.448	862.5
517.664	870.5
517.879	886.5
518.095	857.5
518.311	869.5
518.527	850.5
518.742	855.5
518.958	831.5
519.173	805.5
519.389	835.5
519.605	813.5
519.82	789.5
520.036	771.5
520.251	775.5
520.467	763.5
520.682	774.5
520.898	766.5
521.113	761.5
521.329	744.5
521.544	732.5
521.76	738.5
521.975	748.5
522.19	757.5
522.406	706.5
522.621	714.5
522.836	745.5
523.052	727.5
523.267	753.5
523.482	739.5
523.698	709.5
523.913	709.5
524.128	704.5
524.343	712.5
524.559	713.5
524.774	740.5
524.989	707.5
525.204	722.5
525.419	718.5
525.634	705.5
525.849	703.5
526.064	693.5
526.28	695.5
526.495	675.5
526.71	685.5
526.925	700.5
527.14	696.5
527.355	683.5
527.57	700.5
527.785	704.5
527.999	653.5
528.214	683.5
528.429	701.5
528.644	703.5
528.859	714.5
529.074	690.5
529.289	703.5
529.503	700.5
529.718	698.5
529.933	677.5
530.148	683.5
530.363	685.5
530.577	678.5
530.792	660.5
531.007	690.5
531.221	706.5
531.436	689.5
531.651	685.5
531.865	689.5
532.08	663.5
532.295	679.5
532.509	672.5
532.724	688.5
532.938	685.5
533.153	693.5
533.367	692.5
533.582	681.5
533.796	680.5
534.011	675.5
534.225	661.5
534.44	656.5
534.654	642.5
534.868	673.5
535.083	676.5
535.297	663.5
535.511	660.5
535.726	667.5
535.94	643.5
536.154	653.5
536.369	626.5
536.583	629.5
536.797	643.5
537.011	641.5
537.225	637.5
537.44	634.5
537.654	618.5
537.868	634.5
538.082	628.5
538.296	642.5
538.51	633.5
538.724	647.5
538.938	643.5
539.153	637.5
539.367	664.5
539.581	636.5
539.795	620.5
540.009	621.5
540.222	601.5
540.436	627.5
540.65	626.5
540.864	634.5
541.078	629.5
541.292	639.5
541.506	642.5
541.72	671.5
541.934	629.5
542.147	634.5
542.361	641.5
542.575	623.5
542.789	632.5
543.002	609.5
543.216	610.5
543.43	619.5
543.644	616.5
543.857	617.5
544.071	624.5
544.285	639.5
544.498	630.5
544.712	641.5
544.925	659.5
545.139	666.5
545.352	636.5
545.566	630.5
545.779	629.5
545.993	642.5
546.206	623.5
546.42	628.5
546.633	628.5
546.847	647.5
547.06	652.5
547.274	632.5
547.487	651.5
547.7	643.5
547.914	630.5
548.127	641.5
548.34	633.5
548.554	610.5
548.767	638.5
548.98	633.5
549.193	628.5
549.407	625.5
549.62	643.5
549.833	634.5
550.046	613.5
550.259	620.5
550.473	608.5
550.686	638.5
550.899	631.5
551.112	621.5
551.325	613.5
551.538	613.5
551.751	612.5
551.964	583.5
552.177	612.5
552.39	589.5
552.603	633.5
552.816	616.5
553.029	626.5
553.242	631.5
553.455	671.5
553.667	627.5
553.88	632.5
554.093	599.5
554.306	603.5
554.519	611.5
554.732	608.5
554.944	592.5
555.157	591.5
555.37	589.5
555.583	588.5
555.795	572.5
556.008	565.5
556.221	563.5
556.433	551.5
556.646	546.5
556.859	547.5
557.071	553.5
557.284	567.5
557.496	542.5
557.709	567.5
557.921	545.5
558.134	561.5
558.346	541.5
558.559	539.5
558.771	544.5
558.984	556.5
559.196	549.5
559.409	519.5
559.621	518.5
559.833	528.5
560.046	549.5
560.258	530.5
560.47	514.5
560.683	512.5
560.895	521.5
561.107	525.5
561.32	528.5
561.532	529.5
561.744	553.5
561.956	534.5
562.168	537.5
562.381	532.5
562.593	530.5
562.805	541.5
563.017	525.5
563.229	530.5
563.441	512.5
563.653	524.5
563.865	539.5
564.077	545.5
564.289	535.5
564.501	543.5
564.713	544.5
564.925	552.5
565.137	560.5
565.349	550.5
565.561	550.5
565.773	564.5
565.985	590.5
566.197	601.5
566.408	603.5
566.62	596.5
566.832	620.5
567.044	631.5
567.255	633.5
567.467	642.5
567.679	666.5
567.891	638.5
568.102	629.5
568.314	648.5
568.526	608.5
568.737	598.5
568.949	570.5
569.161	578.5
569.372	539.5
569.584	517.5
569.795	511.5
570.007	497.5
570.218	491.5
570.43	497.5
570.641	515.5
570.853	492.5
571.064	465.5
571.276	496.5
571.487	483.5
571.698	471.5
571.91	464.5
572.121	471.5
572.333	463.5
572.544	445.5
572.755	458.5
572.966	437.5
573.178	446.5
573.389	422.5
573.6	438.5
573.811	441.5
574.023	427.5
574.234	417.5
574.445	412.5
574.656	424.5
574.867	421.5
575.078	441.5
575.289	422.5
575.501	424.5
575.712	406.5
575.923	424.5
576.134	422.5
576.345	406.5
576.556	409.5
576.767	423.5
576.978	431.5
577.188	414.5
577.399	420.5
577.61	397.5
577.821	396.5
578.032	393.5
578.243	383.5
578.454	400.5
578.665	413.5
578.875	395.5
579.086	379.5
579.297	388.5
579.508	400.5
579.718	397.5
579.929	397.5
580.14	374.5
580.35	387.5
580.561	373.5
580.772	375.5
580.982	369.5
581.193	374.5
581.403	387.5
581.614	356.5
581.825	367.5
582.035	369.5
582.246	354.5
582.456	374.5
582.667	391.5
582.877	362.5
583.087	351.5
583.298	345.5
583.508	353.5
583.719	358.5
583.929	349.5
584.139	360.5
584.35	356.5
584.56	374.5
584.77	362.5
584.981	347.5
585.191	352.5
585.401	363.5
585.611	349.5
585.821	351.5
586.032	353.5
586.242	346.5
586.452	352.5
586.662	339.5
586.872	341.5
587.082	354.5
587.292	345.5
587.502	342.5
587.713	333.5
587.923	345.5
588.133	340.5
588.343	342.5
588.553	347.5
588.762	337.5
588.972	359.5
589.182	408.5
589.392	414.5
589.602	371.5
589.812	386.5
590.022	364.5
590.232	342.5
590.441	332.5
590.651	349.5
590.861	347.5
591.071	356.5
591.281	346.5
591.49	356.5
591.7	370.5
591.91	341.5
592.119	352.5
592.329	356.5
592.539	380.5
592.748	337.5
592.958	332.5
593.167	353.5
593.377	359.5
593.587	370.5
593.796	355.5
594.006	362.5
594.215	369.5
594.424	354.5
594.634	362.5
594.843	331.5
595.053	349.5
595.262	338.5
595.472	346.5
595.681	349.5
595.89	332.5
596.1	331.5
596.309	347.5
596.518	338.5
596.727	324.5
596.937	326.5
597.146	305.5
597.355	311.5
597.564	301.5
597.774	317.5
597.983	310.5
598.192	312.5
598.401	304.5
598.61	300.5
598.819	293.5
599.028	313.5
599.237	313.5
599.446	295.5
599.655	280.5
599.864	286.5
600.073	276.5
600.282	296.5
600.491	291.5
600.7	285.5
600.909	291.5
601.118	292.5
601.327	285.5
601.536	309.5
601.745	285.5
601.953	282.5
602.162	306.5
602.371	296.5
602.58	288.5
602.789	285.5
602.997	272.5
603.206	274.5
603.415	281.5
603.623	305.5
603.832	273.5
604.041	297.5
604.249	280.5
604.458	266.5
604.666	275.5
604.875	268.5
605.084	271.5
605.292	277.5
605.501	292.5
605.709	277.5
605.918	275.5
606.126	274.5
606.334	280.5
606.543	300.5
606.751	273.5
606.96	283.5
607.168	279.5
607.376	275.5
607.585	285.5
607.793	280.5
608.001	284.5
608.21	281.5
608.418	257.5
608.626	288.5
608.834	264.5
609.043	274.5
609.251	273.5
609.459	275.5
609.667	268.5
609.875	267.5
610.083	268.5
610.291	269.5
610.499	270.5
610.707	265.5
610.916	263.5
611.124	274.5
611.332	267.5
611.54	264.5
611.748	260.5
611.955	263.5
612.163	259.5
612.371	265.5
612.579	258.5
612.787	266.5
612.995	281.5
613.203	264.5
613.411	248.5
613.618	260.5
613.826	269.5
614.034	275.5
614.242	250.5
614.449	256.5
614.657	254.5
614.865	244.5
615.072	253.5
615.28	260.5
615.488	255.5
615.695	264.5
615.903	236.5
616.111	250.5
616.318	263.5
616.526	255.5
616.733	242.5
616.941	245.5
617.148	266.5
617.356	254.5
617.563	227.5
617.771	252.5
617.978	243.5
618.185	259.5
618.393	236.5
618.6	241.5
618.807	232.5
619.015	252.5
619.222	236.5
619.429	260.5
619.637	243.5
619.844	218.5
620.051	235.5
620.258	216.5
620.466	241.5
620.673	249.5
620.88	224.5
621.087	239.5
621.294	220.5
621.501	229.5
621.708	228.5
621.915	231.5
622.122	243.5
622.329	227.5
622.536	238.5
622.743	231.5
622.95	216.5
623.157	239.5
623.364	223.5
623.571	241.5
623.778	228.5
623.985	236.5
624.192	230.5
624.399	230.5
624.606	227.5
624.812	233.5
625.019	233.5
625.226	222.5
625.433	231.5
625.639	217.5
625.846	220.5
626.053	223.5
626.259	217.5
626.466	231.5
626.673	235.5
626.879	222.5
627.086	224.5
627.293	213.5
627.499	221.5
627.706	205.5
627.912	212.5
628.119	227.5
628.325	226.5
628.532	219.5
628.738	220.5
628.945	202.5
629.151	220.5
629.357	210.5
629.564	206.5
629.77	201.5
629.976	209.5
630.183	210.5
630.389	201.5
630.595	218.5
630.802	218.5
631.008	199.5
631.214	214.5
631.42	216.5
631.627	208.5
631.833	182.5
632.039	216.5
632.245	210.5
632.451	208.5
632.657	209.5
632.863	201.5
633.069	200.5
633.275	201.5
633.481	206.5
633.688	187.5
633.893	213.5
634.099	186.5
634.305	196.5
634.511	195.5
634.717	196.5
634.923	203.5
635.129	189.5
635.335	196.5
635.541	201.5
635.747	191.5
635.952	198.5
636.158	193.5
636.364	200.5
636.57	184.5
636.775	197.5
636.981	201.5
637.187	185.5
637.392	198.5
637.598	189.5
637.804	200.5
638.009	195.5
638.215	191.5
638.421	183.5
638.626	201.5
638.832	185.5
639.037	200.5
639.243	191.5
639.448	189.5
639.654	198.5
639.859	180.5
640.065	185.5
640.27	192.5
640.475	194.5
640.681	196.5
640.886	187.5
641.091	199.5
641.297	189.5
641.502	184.5
641.707	172.5
641.913	183.5
642.118	179.5
642.323	185.5
642.528	180.5
642.733	203.5
642.939	177.5
643.144	179.5
643.349	168.5
643.554	179.5
643.759	179.5
643.964	180.5
644.169	175.5
644.374	190.5
644.579	196.5
644.784	212.5
644.989	183.5
645.194	184.5
645.399	188.5
645.604	189.5
645.809	188.5
646.014	175.5
646.219	195.5
646.423	181.5
646.628	192.5
646.833	191.5
647.038	196.5
647.243	172.5
647.447	189.5
647.652	187.5
647.857	180.5
648.062	177.5
648.266	175.5
648.471	182.5
648.676	182.5
648.88	194.5
649.085	186.5
649.289	165.5
649.494	188.5
649.698	184.5
649.903	160.5
650.107	166.5
650.312	170.5
650.516	177.5
650.721	174.5
650.925	178.5
651.13	167.5
651.334	160.5
651.539	167.5
651.743	187.5
651.947	181.5
652.152	164.5
652.356	166.5
652.56	150.5
652.764	182.5
652.969	169.5
653.173	168.5
653.377	148.5
653.581	155.5
653.785	166.5
653.99	162.5
654.194	144.5
654.398	152.5
654.602	157.5
654.806	154.5
655.01	150.5
655.214	147.5
655.418	149.5
655.622	135.5
655.826	143.5
656.03	146.5
656.234	148.5
656.438	136.5
656.642	152.5
656.846	137.5
657.049	131.5
657.253	135.5
657.457	125.5
657.661	136.5
657.865	131.5
658.068	129.5
658.272	124.5
658.476	119.5
658.68	116.5
658.883	115.5
659.087	116.5
659.291	100.5
659.494	108.5
659.698	122.5
659.901	102.5
660.105	95.5
660.309	98.5
660.512	90.5
660.716	80.5
660.919	95.5
661.123	101.5
661.326	105.5
661.53	95.5
661.733	74.5
661.936	91.5
662.14	88.5
662.343	98.5
662.546	82.5
662.75	87.5
662.953	82.5
663.156	70.5
663.36	95.5
663.563	90.5
663.766	83.5
663.969	86.5
664.173	82.5
664.376	76.5
664.579	76.5
664.782	70.5
664.985	87.5
665.188	92.5
665.391	80.5
665.594	85.5
665.797	90.5
666	74.5
666.203	83.5
666.406	75.5
666.609	72.5
666.812	95.5
667.015	86.5
667.218	90.5
667.421	81.5
667.624	79.5
667.827	88.5
668.03	77.5
668.232	75.5
668.435	84.5
668.638	82.5
668.841	89.5
669.043	77.5
669.246	78.5
669.449	91.5
669.651	93.5
669.854	86.5
670.057	86.5
670.259	73.5
670.462	60.5
670.665	73.5
670.867	87.5
671.07	78.5
671.272	83.5
671.475	77.5
671.677	84.5
671.88	78.5
672.082	85.5
672.284	73.5
672.487	92.5
672.689	73.5
672.892	85.5
