Data from Ni(NO3)2@0.5M.TitratingCurve.Agarose3%dH2O.NegLispCup.LampEnergy10.LIBS07252019_HRD10591_17-58-30-564.txt Node
Date: Thu Jul 25 17:58:30 EDT 2019
User: cochatt
Spectrometer: HR+D1059
Trigger mode: 1
Integration Time (sec): 1.000000E-1
Scans to average: 1
Electric dark correction enabled: true
Nonlinearity correction enabled: false
Boxcar width: 0
XAxis mode: Wavelengths
Number of Pixels in Spectrum: 2048
>>>>>Begin Spectral Data<<<<<
223.165	-21.62
223.4	-21.62
223.635	-21.62
223.869	-9.62
224.104	-33.62
224.338	-14.62
224.573	-18.62
224.808	-15.62
225.042	-0.62
225.277	3.38
225.511	5.38
225.746	12.38
225.98	11.38
226.215	-0.62
226.449	17.38
226.683	16.38
226.918	14.38
227.152	34.38
227.387	42.38
227.621	36.38
227.856	46.38
228.09	59.38
228.324	56.38
228.559	53.38
228.793	88.38
229.027	109.38
229.262	132.38
229.496	142.38
229.73	146.38
229.964	148.38
230.199	174.38
230.433	199.38
230.667	190.38
230.901	186.38
231.136	152.38
231.37	146.38
231.604	176.38
231.838	206.38
232.072	209.38
232.306	195.38
232.541	165.38
232.775	172.38
233.009	140.38
233.243	167.38
233.477	155.38
233.711	174.38
233.945	175.38
234.179	151.38
234.413	180.38
234.647	150.38
234.881	170.38
235.115	173.38
235.349	174.38
235.583	176.38
235.817	161.38
236.051	162.38
236.285	155.38
236.519	151.38
236.753	154.38
236.987	163.38
237.221	153.38
237.455	175.38
237.689	167.38
237.922	182.38
238.156	183.38
238.39	168.38
238.624	168.38
238.858	182.38
239.091	185.38
239.325	195.38
239.559	197.38
239.793	207.38
240.027	203.38
240.26	183.38
240.494	158.38
240.728	164.38
240.961	179.38
241.195	194.38
241.429	178.38
241.662	181.38
241.896	225.38
242.13	218.38
242.363	212.38
242.597	210.38
242.83	197.38
243.064	183.38
243.298	193.38
243.531	199.38
243.765	195.38
243.998	240.38
244.232	220.38
244.465	217.38
244.699	206.38
244.932	203.38
245.166	220.38
245.399	218.38
245.633	209.38
245.866	218.38
246.099	216.38
246.333	219.38
246.566	218.38
246.8	221.38
247.033	213.38
247.266	237.38
247.5	210.38
247.733	238.38
247.966	239.38
248.2	236.38
248.433	246.38
248.666	233.38
248.899	235.38
249.133	262.38
249.366	262.38
249.599	235.38
249.832	255.38
250.066	252.38
250.299	250.38
250.532	240.38
250.765	266.38
250.998	277.38
251.231	264.38
251.465	290.38
251.698	270.38
251.931	281.38
252.164	271.38
252.397	264.38
252.63	287.38
252.863	280.38
253.096	277.38
253.329	278.38
253.562	275.38
253.795	271.38
254.028	278.38
254.261	290.38
254.494	295.38
254.727	313.38
254.96	300.38
255.193	306.38
255.426	303.38
255.659	302.38
255.892	306.38
256.124	304.38
256.357	320.38
256.59	299.38
256.823	298.38
257.056	320.38
257.289	332.38
257.521	328.38
257.754	327.38
257.987	338.38
258.22	316.38
258.452	336.38
258.685	344.38
258.918	331.38
259.151	332.38
259.383	334.38
259.616	318.38
259.849	326.38
260.081	342.38
260.314	365.38
260.547	336.38
260.779	343.38
261.012	356.38
261.244	343.38
261.477	371.38
261.71	361.38
261.942	354.38
262.175	365.38
262.407	348.38
262.64	366.38
262.872	374.38
263.105	363.38
263.337	366.38
263.57	344.38
263.802	378.38
264.035	354.38
264.267	358.38
264.499	359.38
264.732	382.38
264.964	382.38
265.197	368.38
265.429	360.38
265.661	393.38
265.894	386.38
266.126	400.38
266.358	406.38
266.591	364.38
266.823	396.38
267.055	392.38
267.287	382.38
267.52	396.38
267.752	411.38
267.984	411.38
268.216	424.38
268.448	406.38
268.681	410.38
268.913	418.38
269.145	407.38
269.377	407.38
269.609	426.38
269.841	413.38
270.073	395.38
270.306	406.38
270.538	394.38
270.77	423.38
271.002	420.38
271.234	415.38
271.466	430.38
271.698	428.38
271.93	438.38
272.162	440.38
272.394	450.38
272.626	420.38
272.858	431.38
273.09	435.38
273.322	431.38
273.553	434.38
273.785	432.38
274.017	443.38
274.249	460.38
274.481	431.38
274.713	456.38
274.945	452.38
275.176	455.38
275.408	446.38
275.64	467.38
275.872	470.38
276.104	448.38
276.335	442.38
276.567	474.38
276.799	476.38
277.031	461.38
277.262	467.38
277.494	463.38
277.726	466.38
277.957	473.38
278.189	493.38
278.421	487.38
278.652	462.38
278.884	480.38
279.115	478.38
279.347	474.38
279.579	487.38
279.81	480.38
280.042	478.38
280.273	498.38
280.505	487.38
280.736	472.38
280.968	517.38
281.199	484.38
281.431	498.38
281.662	498.38
281.894	511.38
282.125	514.38
282.356	514.38
282.588	506.38
282.819	492.38
283.051	501.38
283.282	491.38
283.513	499.38
283.745	507.38
283.976	520.38
284.207	515.38
284.439	534.38
284.67	536.38
284.901	539.38
285.132	557.38
285.364	532.38
285.595	535.38
285.826	527.38
286.057	546.38
286.288	528.38
286.52	538.38
286.751	528.38
286.982	543.38
287.213	565.38
287.444	538.38
287.675	538.38
287.906	546.38
288.138	548.38
288.369	542.38
288.6	557.38
288.831	554.38
289.062	559.38
289.293	540.38
289.524	538.38
289.755	539.38
289.986	540.38
290.217	537.38
290.448	551.38
290.679	553.38
290.91	560.38
291.141	552.38
291.371	564.38
291.602	546.38
291.833	557.38
292.064	549.38
292.295	552.38
292.526	570.38
292.757	582.38
292.987	547.38
293.218	537.38
293.449	560.38
293.68	576.38
293.91	560.38
294.141	549.38
294.372	559.38
294.603	559.38
294.833	562.38
295.064	540.38
295.295	563.38
295.525	587.38
295.756	569.38
295.987	564.38
296.217	606.38
296.448	578.38
296.679	586.38
296.909	581.38
297.14	571.38
297.37	597.38
297.601	581.38
297.831	602.38
298.062	596.38
298.292	598.38
298.523	621.38
298.753	593.38
298.984	590.38
299.214	602.38
299.445	596.38
299.675	605.38
299.905	603.38
300.136	613.38
300.366	658.38
300.597	665.38
300.827	635.38
301.057	626.38
301.288	664.38
301.518	645.38
301.748	634.38
301.979	630.38
302.209	614.38
302.439	616.38
302.669	607.38
302.9	631.38
303.13	630.38
303.36	662.38
303.59	633.38
303.82	657.38
304.051	657.38
304.281	637.38
304.511	630.38
304.741	638.38
304.971	663.38
305.201	676.38
305.431	695.38
305.661	687.38
305.891	675.38
306.121	667.38
306.352	661.38
306.582	657.38
306.812	640.38
307.042	644.38
307.272	646.38
307.502	639.38
307.731	658.38
307.961	647.38
308.191	648.38
308.421	676.38
308.651	678.38
308.881	642.38
309.111	642.38
309.341	660.38
309.571	651.38
309.8	670.38
310.03	706.38
310.26	710.38
310.49	726.38
310.72	680.38
310.949	680.38
311.179	685.38
311.409	678.38
311.639	699.38
311.868	680.38
312.098	694.38
312.328	673.38
312.557	698.38
312.787	708.38
313.017	713.38
313.246	717.38
313.476	749.38
313.706	764.38
313.935	722.38
314.165	699.38
314.394	699.38
314.624	707.38
314.853	696.38
315.083	711.38
315.312	717.38
315.542	712.38
315.771	717.38
316.001	711.38
316.23	734.38
316.46	747.38
316.689	726.38
316.919	702.38
317.148	750.38
317.377	745.38
317.607	759.38
317.836	720.38
318.065	727.38
318.295	717.38
318.524	727.38
318.753	738.38
318.983	749.38
319.212	722.38
319.441	725.38
319.67	724.38
319.9	752.38
320.129	778.38
320.358	769.38
320.587	747.38
320.816	766.38
321.046	772.38
321.275	754.38
321.504	796.38
321.733	790.38
321.962	772.38
322.191	786.38
322.42	778.38
322.649	820.38
322.878	773.38
323.108	808.38
323.337	797.38
323.566	770.38
323.795	786.38
324.024	809.38
324.253	792.38
324.482	795.38
324.71	816.38
324.939	807.38
325.168	807.38
325.397	819.38
325.626	812.38
325.855	830.38
326.084	812.38
326.313	815.38
326.542	804.38
326.77	836.38
326.999	839.38
327.228	810.38
327.457	830.38
327.686	832.38
327.914	843.38
328.143	832.38
328.372	871.38
328.6	844.38
328.829	831.38
329.058	870.38
329.287	834.38
329.515	849.38
329.744	839.38
329.972	854.38
330.201	874.38
330.43	855.38
330.658	854.38
330.887	884.38
331.115	867.38
331.344	886.38
331.572	868.38
331.801	910.38
332.03	915.38
332.258	920.38
332.486	897.38
332.715	902.38
332.943	925.38
333.172	905.38
333.4	950.38
333.629	947.38
333.857	955.38
334.085	951.38
334.314	947.38
334.542	955.38
334.771	939.38
334.999	987.38
335.227	1001.38
335.455	993.38
335.684	981.38
335.912	975.38
336.14	995.38
336.369	978.38
336.597	1033.38
336.825	1022.38
337.053	1007.38
337.281	993.38
337.51	1010.38
337.738	980.38
337.966	977.38
338.194	1021.38
338.422	952.38
338.65	927.38
338.878	948.38
339.106	931.38
339.334	965.38
339.562	996.38
339.79	966.38
340.018	942.38
340.246	919.38
340.474	917.38
340.702	938.38
340.93	936.38
341.158	961.38
341.386	978.38
341.614	1027.38
341.842	963.38
342.07	934.38
342.298	946.38
342.526	957.38
342.754	934.38
342.981	931.38
343.209	937.38
343.437	973.38
343.665	991.38
343.893	960.38
344.12	975.38
344.348	993.38
344.576	1004.38
344.804	1008.38
345.031	987.38
345.259	974.38
345.487	959.38
345.714	957.38
345.942	986.38
346.17	1007.38
346.397	973.38
346.625	934.38
346.853	916.38
347.08	906.38
347.308	938.38
347.535	898.38
347.763	912.38
347.99	886.38
348.218	935.38
348.445	922.38
348.673	912.38
348.9	914.38
349.128	936.38
349.355	930.38
349.583	933.38
349.81	908.38
350.037	891.38
350.265	900.38
350.492	884.38
350.72	908.38
350.947	915.38
351.174	925.38
351.402	954.38
351.629	956.38
351.856	925.38
352.083	920.38
352.311	945.38
352.538	989.38
352.765	967.38
352.992	879.38
353.22	872.38
353.447	873.38
353.674	894.38
353.901	869.38
354.128	857.38
354.355	874.38
354.583	878.38
354.81	882.38
355.037	892.38
355.264	885.38
355.491	896.38
355.718	894.38
355.945	896.38
356.172	911.38
356.399	887.38
356.626	930.38
356.853	925.38
357.08	887.38
357.307	887.38
357.534	908.38
357.761	897.38
357.988	892.38
358.215	906.38
358.441	892.38
358.668	891.38
358.895	890.38
359.122	888.38
359.349	890.38
359.576	883.38
359.802	906.38
360.029	888.38
360.256	894.38
360.483	879.38
360.709	902.38
360.936	912.38
361.163	921.38
361.39	917.38
361.616	908.38
361.843	939.38
362.07	974.38
362.296	949.38
362.523	898.38
362.749	885.38
362.976	878.38
363.203	899.38
363.429	904.38
363.656	914.38
363.882	926.38
364.109	909.38
364.335	875.38
364.562	895.38
364.788	870.38
365.015	931.38
365.241	904.38
365.468	893.38
365.694	866.38
365.92	904.38
366.147	879.38
366.373	906.38
366.599	884.38
366.826	886.38
367.052	883.38
367.278	930.38
367.505	920.38
367.731	895.38
367.957	874.38
368.184	907.38
368.41	933.38
368.636	922.38
368.862	966.38
369.089	885.38
369.315	931.38
369.541	918.38
369.767	924.38
369.993	913.38
370.219	942.38
370.445	943.38
370.672	945.38
370.898	937.38
371.124	910.38
371.35	942.38
371.576	942.38
371.802	939.38
372.028	962.38
372.254	940.38
372.48	954.38
372.706	940.38
372.932	942.38
373.158	947.38
373.384	951.38
373.61	937.38
373.835	948.38
374.061	918.38
374.287	959.38
374.513	947.38
374.739	927.38
374.965	966.38
375.191	948.38
375.416	970.38
375.642	963.38
375.868	962.38
376.094	941.38
376.319	943.38
376.545	943.38
376.771	936.38
376.997	942.38
377.222	954.38
377.448	964.38
377.674	953.38
377.899	983.38
378.125	950.38
378.35	971.38
378.576	948.38
378.802	948.38
379.027	950.38
379.253	944.38
379.478	940.38
379.704	910.38
379.929	944.38
380.155	910.38
380.38	921.38
380.606	920.38
380.831	943.38
381.057	962.38
381.282	948.38
381.507	944.38
381.733	943.38
381.958	951.38
382.184	965.38
382.409	942.38
382.634	968.38
382.86	954.38
383.085	983.38
383.31	982.38
383.535	1000.38
383.761	981.38
383.986	992.38
384.211	974.38
384.436	997.38
384.662	986.38
384.887	1002.38
385.112	1035.38
385.337	1028.38
385.562	1024.38
385.787	1044.38
386.013	1055.38
386.238	1044.38
386.463	1045.38
386.688	1043.38
386.913	1030.38
387.138	1052.38
387.363	1055.38
387.588	1040.38
387.813	1039.38
388.038	1031.38
388.263	1064.38
388.488	1026.38
388.713	1040.38
388.938	1070.38
389.163	1051.38
389.387	1068.38
389.612	1015.38
389.837	1070.38
390.062	1048.38
390.287	1079.38
390.512	1053.38
390.736	1045.38
390.961	1085.38
391.186	1083.38
391.411	1116.38
391.636	1124.38
391.86	1101.38
392.085	1062.38
392.31	1098.38
392.534	1114.38
392.759	1103.38
392.984	1082.38
393.208	1108.38
393.433	1082.38
393.658	1078.38
393.882	1090.38
394.107	1095.38
394.331	1077.38
394.556	1078.38
394.78	1086.38
395.005	1100.38
395.229	1097.38
395.454	1119.38
395.678	1149.38
395.903	1100.38
396.127	1128.38
396.352	1096.38
396.576	1131.38
396.801	1139.38
397.025	1147.38
397.249	1158.38
397.474	1181.38
397.698	1134.38
397.922	1192.38
398.147	1149.38
398.371	1192.38
398.595	1202.38
398.82	1210.38
399.044	1273.38
399.268	1290.38
399.492	1361.38
399.717	1334.38
399.941	1386.38
400.165	1339.38
400.389	1339.38
400.613	1296.38
400.837	1255.38
401.062	1247.38
401.286	1256.38
401.51	1259.38
401.734	1226.38
401.958	1227.38
402.182	1235.38
402.406	1219.38
402.63	1195.38
402.854	1250.38
403.078	1227.38
403.302	1245.38
403.526	1221.38
403.75	1237.38
403.974	1286.38
404.198	1194.38
404.422	1213.38
404.645	1266.38
404.869	1236.38
405.093	1251.38
405.317	1256.38
405.541	1260.38
405.765	1254.38
405.988	1290.38
406.212	1277.38
406.436	1267.38
406.66	1325.38
406.883	1319.38
407.107	1323.38
407.331	1341.38
407.555	1373.38
407.778	1364.38
408.002	1362.38
408.226	1358.38
408.449	1342.38
408.673	1325.38
408.896	1322.38
409.12	1324.38
409.344	1330.38
409.567	1337.38
409.791	1349.38
410.014	1331.38
410.238	1346.38
410.461	1305.38
410.685	1293.38
410.908	1290.38
411.132	1247.38
411.355	1286.38
411.578	1270.38
411.802	1275.38
412.025	1318.38
412.249	1294.38
412.472	1271.38
412.695	1239.38
412.919	1263.38
413.142	1261.38
413.365	1253.38
413.589	1256.38
413.812	1213.38
414.035	1217.38
414.258	1246.38
414.482	1207.38
414.705	1225.38
414.928	1242.38
415.151	1266.38
415.374	1261.38
415.597	1227.38
415.821	1210.38
416.044	1165.38
416.267	1194.38
416.49	1206.38
416.713	1201.38
416.936	1213.38
417.159	1196.38
417.382	1156.38
417.605	1175.38
417.828	1172.38
418.051	1208.38
418.274	1198.38
418.497	1140.38
418.72	1188.38
418.943	1175.38
419.166	1259.38
419.389	1296.38
419.611	1298.38
419.834	1262.38
420.057	1222.38
420.28	1200.38
420.503	1158.38
420.726	1133.38
420.948	1172.38
421.171	1200.38
421.394	1219.38
421.617	1194.38
421.839	1182.38
422.062	1215.38
422.285	1155.38
422.507	1187.38
422.73	1207.38
422.953	1182.38
423.175	1196.38
423.398	1184.38
423.621	1196.38
423.843	1209.38
424.066	1154.38
424.288	1182.38
424.511	1171.38
424.733	1198.38
424.956	1184.38
425.178	1172.38
425.401	1188.38
425.623	1196.38
425.846	1148.38
426.068	1192.38
426.291	1189.38
426.513	1164.38
426.735	1162.38
426.958	1183.38
427.18	1163.38
427.402	1145.38
427.625	1207.38
427.847	1168.38
428.069	1141.38
428.292	1156.38
428.514	1123.38
428.736	1142.38
428.958	1198.38
429.181	1162.38
429.403	1125.38
429.625	1145.38
429.847	1148.38
430.069	1145.38
430.292	1148.38
430.514	1143.38
430.736	1145.38
430.958	1119.38
431.18	1124.38
431.402	1166.38
431.624	1172.38
431.846	1134.38
432.068	1154.38
432.29	1168.38
432.512	1148.38
432.734	1153.38
432.956	1152.38
433.178	1184.38
433.4	1223.38
433.622	1171.38
433.844	1210.38
434.066	1206.38
434.287	1194.38
434.509	1197.38
434.731	1197.38
434.953	1214.38
435.175	1208.38
435.397	1207.38
435.618	1184.38
435.84	1181.38
436.062	1133.38
436.284	1162.38
436.505	1166.38
436.727	1131.38
436.949	1148.38
437.17	1198.38
437.392	1158.38
437.614	1133.38
437.835	1136.38
438.057	1130.38
438.278	1116.38
438.5	1147.38
438.721	1131.38
438.943	1128.38
439.165	1121.38
439.386	1132.38
439.608	1169.38
439.829	1150.38
440.05	1134.38
440.272	1146.38
440.493	1169.38
440.715	1169.38
440.936	1148.38
441.158	1158.38
441.379	1174.38
441.6	1205.38
441.822	1213.38
442.043	1184.38
442.264	1226.38
442.486	1196.38
442.707	1206.38
442.928	1202.38
443.149	1222.38
443.371	1223.38
443.592	1244.38
443.813	1256.38
444.034	1216.38
444.255	1234.38
444.476	1261.38
444.698	1250.38
444.919	1286.38
445.14	1362.38
445.361	1316.38
445.582	1257.38
445.803	1210.38
446.024	1151.38
446.245	1216.38
446.466	1198.38
446.687	1134.38
446.908	1172.38
447.129	1122.38
447.35	1130.38
447.571	1102.38
447.792	1101.38
448.013	1095.38
448.234	1101.38
448.455	1108.38
448.675	1087.38
448.896	1095.38
449.117	1072.38
449.338	1031.38
449.559	1067.38
449.779	1078.38
450	1058.38
450.221	1080.38
450.442	1058.38
450.662	1062.38
450.883	1085.38
451.104	1108.38
451.324	1066.38
451.545	1091.38
451.766	1041.38
451.986	1071.38
452.207	1045.38
452.428	1068.38
452.648	1040.38
452.869	1052.38
453.089	1054.38
453.31	1099.38
453.53	1044.38
453.751	1030.38
453.971	1051.38
454.192	1080.38
454.412	1077.38
454.633	1043.38
454.853	1030.38
455.073	1039.38
455.294	1036.38
455.514	1044.38
455.734	1069.38
455.955	1113.38
456.175	1075.38
456.395	1031.38
456.616	1011.38
456.836	1030.38
457.056	1029.38
457.276	1027.38
457.497	1060.38
457.717	1073.38
457.937	1069.38
458.157	1069.38
458.377	1064.38
458.598	1070.38
458.818	1100.38
459.038	1095.38
459.258	1104.38
459.478	1198.38
459.698	1222.38
459.918	1273.38
460.138	1227.38
460.358	1237.38
460.578	1229.38
460.798	1313.38
461.018	1295.38
461.238	1249.38
461.458	1274.38
461.678	1217.38
461.898	1284.38
462.118	1234.38
462.338	1300.38
462.558	1290.38
462.777	1348.38
462.997	1343.38
463.217	1408.38
463.437	1432.38
463.657	1403.38
463.876	1321.38
464.096	1348.38
464.316	1338.38
464.536	1300.38
464.755	1327.38
464.975	1268.38
465.195	1271.38
465.414	1247.38
465.634	1165.38
465.854	1192.38
466.073	1155.38
466.293	1163.38
466.512	1133.38
466.732	1125.38
466.951	1170.38
467.171	1145.38
467.391	1144.38
467.61	1127.38
467.829	1102.38
468.049	1114.38
468.268	1090.38
468.488	1120.38
468.707	1121.38
468.927	1097.38
469.146	1115.38
469.365	1125.38
469.585	1124.38
469.804	1109.38
470.023	1124.38
470.243	1108.38
470.462	1113.38
470.681	1120.38
470.901	1106.38
471.12	1090.38
471.339	1132.38
471.558	1119.38
471.777	1119.38
471.997	1095.38
472.216	1131.38
472.435	1098.38
472.654	1110.38
472.873	1076.38
473.092	1116.38
473.311	1110.38
473.53	1102.38
473.749	1132.38
473.968	1104.38
474.187	1102.38
474.406	1095.38
474.625	1147.38
474.844	1124.38
475.063	1113.38
475.282	1147.38
475.501	1154.38
475.72	1140.38
475.939	1137.38
476.158	1155.38
476.377	1147.38
476.596	1151.38
476.814	1182.38
477.033	1180.38
477.252	1240.38
477.471	1199.38
477.69	1198.38
477.908	1232.38
478.127	1249.38
478.346	1224.38
478.564	1268.38
478.783	1268.38
479.002	1343.38
479.22	1354.38
479.439	1314.38
479.658	1356.38
479.876	1329.38
480.095	1288.38
480.313	1287.38
480.532	1304.38
480.751	1298.38
480.969	1314.38
481.188	1347.38
481.406	1293.38
481.624	1279.38
481.843	1288.38
482.061	1293.38
482.28	1295.38
482.498	1278.38
482.717	1323.38
482.935	1316.38
483.153	1339.38
483.372	1327.38
483.59	1378.38
483.808	1352.38
484.027	1359.38
484.245	1327.38
484.463	1344.38
484.681	1350.38
484.9	1366.38
485.118	1342.38
485.336	1334.38
485.554	1331.38
485.772	1319.38
485.99	1306.38
486.209	1329.38
486.427	1317.38
486.645	1339.38
486.863	1352.38
487.081	1392.38
487.299	1374.38
487.517	1337.38
487.735	1375.38
487.953	1382.38
488.171	1352.38
488.389	1356.38
488.607	1334.38
488.825	1312.38
489.043	1350.38
489.261	1355.38
489.479	1342.38
489.696	1325.38
489.914	1346.38
490.132	1287.38
490.35	1359.38
490.568	1379.38
490.786	1387.38
491.003	1356.38
491.221	1351.38
491.439	1391.38
491.657	1398.38
491.874	1406.38
492.092	1406.38
492.31	1381.38
492.527	1398.38
492.745	1405.38
492.963	1405.38
493.18	1390.38
493.398	1404.38
493.615	1398.38
493.833	1426.38
494.05	1430.38
494.268	1424.38
494.485	1428.38
494.703	1435.38
494.92	1451.38
495.138	1418.38
495.355	1447.38
495.573	1478.38
495.79	1471.38
496.008	1439.38
496.225	1453.38
496.442	1492.38
496.66	1486.38
496.877	1551.38
497.094	1475.38
497.312	1542.38
497.529	1551.38
497.746	1583.38
497.963	1602.38
498.181	1618.38
498.398	1656.38
498.615	1730.38
498.832	1767.38
499.049	1797.38
499.267	1828.38
499.484	1945.38
499.701	1970.38
499.918	2074.38
500.135	2108.38
500.352	2182.38
500.569	2186.38
500.786	2176.38
501.003	2162.38
501.22	2137.38
501.437	2027.38
501.654	1967.38
501.871	1919.38
502.088	1869.38
502.305	1830.38
502.522	1791.38
502.739	1755.38
502.956	1694.38
503.172	1654.38
503.389	1615.38
503.606	1586.38
503.823	1568.38
504.04	1598.38
504.256	1526.38
504.473	1507.38
504.69	1495.38
504.907	1495.38
505.123	1450.38
505.34	1427.38
505.557	1388.38
505.773	1398.38
505.99	1368.38
506.207	1351.38
506.423	1339.38
506.64	1340.38
506.856	1301.38
507.073	1284.38
507.289	1292.38
507.506	1263.38
507.722	1292.38
507.939	1276.38
508.155	1259.38
508.372	1290.38
508.588	1257.38
508.805	1247.38
509.021	1239.38
509.238	1193.38
509.454	1214.38
509.67	1203.38
509.887	1174.38
510.103	1204.38
510.319	1162.38
510.536	1180.38
510.752	1180.38
510.968	1166.38
511.184	1161.38
511.401	1174.38
511.617	1177.38
511.833	1178.38
512.049	1181.38
512.265	1193.38
512.481	1165.38
512.698	1134.38
512.914	1156.38
513.13	1158.38
513.346	1157.38
513.562	1142.38
513.778	1190.38
513.994	1162.38
514.21	1158.38
514.426	1172.38
514.642	1176.38
514.858	1193.38
515.074	1147.38
515.29	1182.38
515.506	1208.38
515.721	1190.38
515.937	1188.38
516.153	1193.38
516.369	1199.38
516.585	1208.38
516.801	1219.38
517.016	1239.38
517.232	1233.38
517.448	1246.38
517.664	1309.38
517.879	1266.38
518.095	1263.38
518.311	1282.38
518.527	1231.38
518.742	1239.38
518.958	1225.38
519.173	1185.38
519.389	1177.38
519.605	1170.38
519.82	1171.38
520.036	1170.38
520.251	1144.38
520.467	1134.38
520.682	1122.38
520.898	1103.38
521.113	1100.38
521.329	1107.38
521.544	1103.38
521.76	1102.38
521.975	1083.38
522.19	1095.38
522.406	1102.38
522.621	1091.38
522.836	1124.38
523.052	1097.38
523.267	1092.38
523.482	1074.38
523.698	1074.38
523.913	1057.38
524.128	1064.38
524.343	1055.38
524.559	1078.38
524.774	1094.38
524.989	1056.38
525.204	1066.38
525.419	1042.38
525.634	1056.38
525.849	1014.38
526.064	1060.38
526.28	1071.38
526.495	1037.38
526.71	1030.38
526.925	1030.38
527.14	1052.38
527.355	1014.38
527.57	1009.38
527.785	1019.38
527.999	1002.38
528.214	1032.38
528.429	1022.38
528.644	1053.38
528.859	1038.38
529.074	1030.38
529.289	1010.38
529.503	1005.38
529.718	1014.38
529.933	1006.38
530.148	1021.38
530.363	982.38
530.577	1007.38
530.792	1000.38
531.007	1027.38
531.221	1005.38
531.436	1000.38
531.651	1007.38
531.865	988.38
532.08	979.38
532.295	1001.38
532.509	1005.38
532.724	1006.38
532.938	988.38
533.153	976.38
533.367	1018.38
533.582	1002.38
533.796	1018.38
534.011	975.38
534.225	966.38
534.44	963.38
534.654	962.38
534.868	974.38
535.083	973.38
535.297	984.38
535.511	962.38
535.726	951.38
535.94	963.38
536.154	938.38
536.369	956.38
536.583	932.38
536.797	976.38
537.011	939.38
537.225	942.38
537.44	938.38
537.654	926.38
537.868	932.38
538.082	935.38
538.296	929.38
538.51	930.38
538.724	972.38
538.938	944.38
539.153	921.38
539.367	927.38
539.581	913.38
539.795	920.38
540.009	909.38
540.222	914.38
540.436	933.38
540.65	914.38
540.864	908.38
541.078	915.38
541.292	919.38
541.506	915.38
541.72	924.38
541.934	931.38
542.147	932.38
542.361	935.38
542.575	909.38
542.789	919.38
543.002	916.38
543.216	887.38
543.43	910.38
543.644	872.38
543.857	916.38
544.071	909.38
544.285	926.38
544.498	859.38
544.712	904.38
544.925	933.38
545.139	913.38
545.352	894.38
545.566	888.38
545.779	913.38
545.993	903.38
546.206	926.38
546.42	887.38
546.633	911.38
546.847	931.38
547.06	903.38
547.274	918.38
547.487	896.38
547.7	895.38
547.914	934.38
548.127	914.38
548.34	885.38
548.554	899.38
548.767	896.38
548.98	897.38
549.193	906.38
549.407	894.38
549.62	895.38
549.833	902.38
550.046	880.38
550.259	902.38
550.473	872.38
550.686	885.38
550.899	879.38
551.112	882.38
551.325	862.38
551.538	875.38
551.751	868.38
551.964	880.38
552.177	875.38
552.39	883.38
552.603	870.38
552.816	871.38
553.029	884.38
553.242	896.38
553.455	908.38
553.667	884.38
553.88	861.38
554.093	874.38
554.306	860.38
554.519	862.38
554.732	860.38
554.944	855.38
555.157	828.38
555.37	845.38
555.583	822.38
555.795	831.38
556.008	820.38
556.221	818.38
556.433	796.38
556.646	815.38
556.859	830.38
557.071	816.38
557.284	790.38
557.496	812.38
557.709	822.38
557.921	784.38
558.134	797.38
558.346	762.38
558.559	759.38
558.771	785.38
558.984	760.38
559.196	788.38
559.409	784.38
559.621	766.38
559.833	748.38
560.046	752.38
560.258	751.38
560.47	747.38
560.683	770.38
560.895	750.38
561.107	768.38
561.32	743.38
561.532	763.38
561.744	785.38
561.956	768.38
562.168	722.38
562.381	758.38
562.593	802.38
562.805	767.38
563.017	740.38
563.229	768.38
563.441	740.38
563.653	741.38
563.865	768.38
564.077	766.38
564.289	780.38
564.501	793.38
564.713	822.38
564.925	784.38
565.137	807.38
565.349	836.38
565.561	794.38
565.773	834.38
565.985	832.38
566.197	828.38
566.408	824.38
566.62	874.38
566.832	870.38
567.044	890.38
567.255	902.38
567.467	899.38
567.679	891.38
567.891	911.38
568.102	860.38
568.314	876.38
568.526	883.38
568.737	828.38
568.949	813.38
569.161	791.38
569.372	772.38
569.584	767.38
569.795	752.38
570.007	731.38
570.218	718.38
570.43	733.38
570.641	721.38
570.853	707.38
571.064	714.38
571.276	693.38
571.487	691.38
571.698	702.38
571.91	671.38
572.121	652.38
572.333	658.38
572.544	653.38
572.755	660.38
572.966	636.38
573.178	645.38
573.389	632.38
573.6	613.38
573.811	612.38
574.023	606.38
574.234	610.38
574.445	603.38
574.656	590.38
574.867	582.38
575.078	562.38
575.289	628.38
575.501	618.38
575.712	580.38
575.923	595.38
576.134	597.38
576.345	592.38
576.556	582.38
576.767	575.38
576.978	581.38
577.188	579.38
577.399	568.38
577.61	586.38
577.821	548.38
578.032	570.38
578.243	567.38
578.454	584.38
578.665	567.38
578.875	547.38
579.086	551.38
579.297	552.38
579.508	559.38
579.718	546.38
579.929	544.38
580.14	521.38
580.35	544.38
580.561	537.38
580.772	550.38
580.982	518.38
581.193	542.38
581.403	528.38
581.614	536.38
581.825	533.38
582.035	505.38
582.246	499.38
582.456	511.38
582.667	512.38
582.877	524.38
583.087	510.38
583.298	520.38
583.508	513.38
583.719	486.38
583.929	536.38
584.139	512.38
584.35	518.38
584.56	498.38
584.77	507.38
584.981	526.38
585.191	495.38
585.401	501.38
585.611	492.38
585.821	489.38
586.032	510.38
586.242	491.38
586.452	488.38
586.662	499.38
586.872	518.38
587.082	500.38
587.292	488.38
587.502	495.38
587.713	496.38
587.923	484.38
588.133	484.38
588.343	476.38
588.553	489.38
588.762	486.38
588.972	490.38
589.182	561.38
589.392	554.38
589.602	498.38
589.812	569.38
590.022	498.38
590.232	484.38
590.441	498.38
590.651	487.38
590.861	475.38
591.071	484.38
591.281	479.38
591.49	492.38
591.7	486.38
591.91	476.38
592.119	477.38
592.329	468.38
592.539	505.38
592.748	510.38
592.958	502.38
593.167	491.38
593.377	502.38
593.587	511.38
593.796	502.38
594.006	490.38
594.215	502.38
594.424	493.38
594.634	487.38
594.843	500.38
595.053	494.38
595.262	474.38
595.472	455.38
595.681	468.38
595.89	444.38
596.1	456.38
596.309	454.38
596.518	464.38
596.727	463.38
596.937	450.38
597.146	434.38
597.355	445.38
597.564	419.38
597.774	434.38
597.983	412.38
598.192	414.38
598.401	436.38
598.61	423.38
598.819	424.38
599.028	437.38
599.237	428.38
599.446	428.38
599.655	417.38
599.864	428.38
600.073	399.38
600.282	393.38
600.491	406.38
600.7	410.38
600.909	428.38
601.118	403.38
601.327	388.38
601.536	376.38
601.745	386.38
601.953	393.38
602.162	418.38
602.371	394.38
602.58	387.38
602.789	406.38
602.997	383.38
603.206	398.38
603.415	396.38
603.623	381.38
603.832	396.38
604.041	393.38
604.249	406.38
604.458	371.38
604.666	376.38
604.875	373.38
605.084	368.38
605.292	382.38
605.501	364.38
605.709	405.38
605.918	396.38
606.126	379.38
606.334	392.38
606.543	366.38
606.751	379.38
606.96	386.38
607.168	375.38
607.376	362.38
607.585	379.38
607.793	388.38
608.001	377.38
608.21	378.38
608.418	352.38
608.626	372.38
608.834	364.38
609.043	370.38
609.251	374.38
609.459	339.38
609.667	366.38
609.875	364.38
610.083	356.38
610.291	342.38
610.499	357.38
610.707	357.38
610.916	350.38
611.124	365.38
611.332	355.38
611.54	357.38
611.748	354.38
611.955	346.38
612.163	371.38
612.371	351.38
612.579	340.38
612.787	333.38
612.995	355.38
613.203	364.38
613.411	345.38
613.618	341.38
613.826	333.38
614.034	357.38
614.242	347.38
614.449	336.38
614.657	353.38
614.865	349.38
615.072	359.38
615.28	347.38
615.488	343.38
615.695	340.38
615.903	332.38
616.111	344.38
616.318	348.38
616.526	342.38
616.733	347.38
616.941	349.38
617.148	350.38
617.356	352.38
617.563	348.38
617.771	336.38
617.978	334.38
618.185	331.38
618.393	336.38
618.6	330.38
618.807	328.38
619.015	327.38
619.222	352.38
619.429	347.38
619.637	326.38
619.844	316.38
620.051	322.38
620.258	312.38
620.466	324.38
620.673	322.38
620.88	299.38
621.087	315.38
621.294	322.38
621.501	322.38
621.708	342.38
621.915	331.38
622.122	302.38
622.329	323.38
622.536	319.38
622.743	325.38
622.95	333.38
623.157	323.38
623.364	306.38
623.571	314.38
623.778	319.38
623.985	329.38
624.192	312.38
624.399	306.38
624.606	322.38
624.812	295.38
625.019	292.38
625.226	306.38
625.433	305.38
625.639	287.38
625.846	299.38
626.053	310.38
626.259	308.38
626.466	291.38
626.673	291.38
626.879	287.38
627.086	292.38
627.293	295.38
627.499	279.38
627.706	298.38
627.912	292.38
628.119	296.38
628.325	283.38
628.532	293.38
628.738	290.38
628.945	285.38
629.151	298.38
629.357	270.38
629.564	263.38
629.77	288.38
629.976	279.38
630.183	288.38
630.389	291.38
630.595	299.38
630.802	284.38
631.008	273.38
631.214	282.38
631.42	279.38
631.627	270.38
631.833	287.38
632.039	252.38
632.245	275.38
632.451	290.38
632.657	274.38
632.863	250.38
633.069	269.38
633.275	277.38
633.481	248.38
633.688	265.38
633.893	247.38
634.099	272.38
634.305	262.38
634.511	262.38
634.717	247.38
634.923	282.38
635.129	246.38
635.335	250.38
635.541	258.38
635.747	261.38
635.952	262.38
636.158	255.38
636.364	262.38
636.57	256.38
636.775	279.38
636.981	258.38
637.187	227.38
637.392	251.38
637.598	247.38
637.804	236.38
638.009	272.38
638.215	257.38
638.421	247.38
638.626	249.38
638.832	253.38
639.037	250.38
639.243	254.38
639.448	233.38
639.654	248.38
639.859	260.38
640.065	245.38
640.27	252.38
640.475	245.38
640.681	237.38
640.886	243.38
641.091	266.38
641.297	265.38
641.502	233.38
641.707	233.38
641.913	235.38
642.118	255.38
642.323	259.38
642.528	244.38
642.733	231.38
642.939	248.38
643.144	246.38
643.349	247.38
643.554	254.38
643.759	229.38
643.964	223.38
644.169	251.38
644.374	224.38
644.579	237.38
644.784	243.38
644.989	228.38
645.194	234.38
645.399	257.38
645.604	243.38
645.809	235.38
646.014	232.38
646.219	229.38
646.423	239.38
646.628	245.38
646.833	247.38
647.038	237.38
647.243	247.38
647.447	232.38
647.652	229.38
647.857	235.38
648.062	247.38
648.266	239.38
648.471	250.38
648.676	233.38
648.88	233.38
649.085	260.38
649.289	262.38
649.494	246.38
649.698	235.38
649.903	225.38
650.107	237.38
650.312	247.38
650.516	218.38
650.721	231.38
650.925	246.38
651.13	229.38
651.334	224.38
651.539	219.38
651.743	216.38
651.947	229.38
652.152	219.38
652.356	230.38
652.56	209.38
652.764	218.38
652.969	221.38
653.173	220.38
653.377	207.38
653.581	212.38
653.785	199.38
653.99	206.38
654.194	216.38
654.398	212.38
654.602	204.38
654.806	192.38
655.01	210.38
655.214	193.38
655.418	208.38
655.622	196.38
655.826	217.38
656.03	215.38
656.234	184.38
656.438	190.38
656.642	192.38
656.846	184.38
657.049	188.38
657.253	182.38
657.457	170.38
657.661	164.38
657.865	164.38
658.068	149.38
658.272	151.38
658.476	142.38
658.68	151.38
658.883	131.38
659.087	138.38
659.291	127.38
659.494	132.38
659.698	134.38
659.901	127.38
660.105	125.38
660.309	120.38
660.512	113.38
660.716	101.38
660.919	109.38
661.123	102.38
661.326	112.38
661.53	102.38
661.733	104.38
661.936	114.38
662.14	79.38
662.343	97.38
662.546	102.38
662.75	101.38
662.953	98.38
663.156	92.38
663.36	92.38
663.563	88.38
663.766	89.38
663.969	80.38
664.173	92.38
664.376	86.38
664.579	99.38
664.782	88.38
664.985	80.38
665.188	77.38
665.391	79.38
665.594	78.38
665.797	85.38
666	86.38
666.203	79.38
666.406	100.38
666.609	87.38
666.812	91.38
667.015	96.38
667.218	84.38
667.421	94.38
667.624	82.38
667.827	79.38
668.03	87.38
668.232	88.38
668.435	92.38
668.638	103.38
668.841	89.38
669.043	74.38
669.246	77.38
669.449	102.38
669.651	80.38
669.854	88.38
670.057	76.38
670.259	87.38
670.462	87.38
670.665	90.38
670.867	74.38
671.07	72.38
671.272	88.38
671.475	87.38
671.677	80.38
671.88	86.38
672.082	80.38
672.284	81.38
672.487	82.38
672.689	71.38
672.892	85.38
