Data from Ni(NO3)2Standard.Agarose3%.GreenCap.LampEnergy5.5.E.O_HRD10591_14-39-02-188.txt Node
Date: Mon Jul 22 14:39:02 EDT 2019
User: cochatt
Spectrometer: HR+D1059
Trigger mode: 1
Integration Time (sec): 1.000000E-1
Scans to average: 1
Electric dark correction enabled: true
Nonlinearity correction enabled: false
Boxcar width: 0
XAxis mode: Wavelengths
Number of Pixels in Spectrum: 2048
>>>>>Begin Spectral Data<<<<<
223.165	-15.06
223.4	-15.06
223.635	-15.06
223.869	-26.06
224.104	-15.06
224.338	-23.06
224.573	-11.06
224.808	-11.06
225.042	-18.06
225.277	-11.06
225.511	-3.06
225.746	10.94
225.98	15.94
226.215	9.94
226.449	20.94
226.683	21.94
226.918	25.94
227.152	27.94
227.387	34.94
227.621	48.94
227.856	44.94
228.09	38.94
228.324	42.94
228.559	60.94
228.793	74.94
229.027	56.94
229.262	74.94
229.496	66.94
229.73	69.94
229.964	78.94
230.199	64.94
230.433	73.94
230.667	70.94
230.901	78.94
231.136	77.94
231.37	71.94
231.604	89.94
231.838	76.94
232.072	78.94
232.306	85.94
232.541	73.94
232.775	84.94
233.009	84.94
233.243	77.94
233.477	88.94
233.711	88.94
233.945	86.94
234.179	66.94
234.413	91.94
234.647	83.94
234.881	71.94
235.115	82.94
235.349	81.94
235.583	85.94
235.817	74.94
236.051	86.94
236.285	76.94
236.519	78.94
236.753	69.94
236.987	74.94
237.221	66.94
237.455	88.94
237.689	67.94
237.922	77.94
238.156	88.94
238.39	52.94
238.624	72.94
238.858	75.94
239.091	76.94
239.325	74.94
239.559	77.94
239.793	67.94
240.027	83.94
240.26	80.94
240.494	73.94
240.728	68.94
240.961	67.94
241.195	74.94
241.429	75.94
241.662	93.94
241.896	89.94
242.13	76.94
242.363	78.94
242.597	71.94
242.83	87.94
243.064	73.94
243.298	71.94
243.531	77.94
243.765	85.94
243.998	70.94
244.232	65.94
244.465	71.94
244.699	73.94
244.932	77.94
245.166	74.94
245.399	81.94
245.633	73.94
245.866	83.94
246.099	85.94
246.333	81.94
246.566	85.94
246.8	68.94
247.033	65.94
247.266	71.94
247.5	61.94
247.733	76.94
247.966	71.94
248.2	73.94
248.433	74.94
248.666	83.94
248.899	95.94
249.133	94.94
249.366	82.94
249.599	66.94
249.832	92.94
250.066	68.94
250.299	82.94
250.532	88.94
250.765	72.94
250.998	78.94
251.231	65.94
251.465	88.94
251.698	78.94
251.931	77.94
252.164	82.94
252.397	75.94
252.63	81.94
252.863	86.94
253.096	85.94
253.329	78.94
253.562	77.94
253.795	77.94
254.028	74.94
254.261	82.94
254.494	68.94
254.727	86.94
254.96	74.94
255.193	75.94
255.426	69.94
255.659	80.94
255.892	96.94
256.124	67.94
256.357	74.94
256.59	75.94
256.823	81.94
257.056	69.94
257.289	87.94
257.521	88.94
257.754	84.94
257.987	71.94
258.22	86.94
258.452	74.94
258.685	74.94
258.918	77.94
259.151	78.94
259.383	90.94
259.616	86.94
259.849	72.94
260.081	84.94
260.314	91.94
260.547	69.94
260.779	78.94
261.012	75.94
261.244	70.94
261.477	75.94
261.71	78.94
261.942	79.94
262.175	93.94
262.407	75.94
262.64	76.94
262.872	72.94
263.105	74.94
263.337	87.94
263.57	78.94
263.802	81.94
264.035	80.94
264.267	81.94
264.499	86.94
264.732	77.94
264.964	77.94
265.197	82.94
265.429	86.94
265.661	96.94
265.894	79.94
266.126	92.94
266.358	97.94
266.591	93.94
266.823	82.94
267.055	85.94
267.287	100.94
267.52	88.94
267.752	91.94
267.984	82.94
268.216	96.94
268.448	67.94
268.681	87.94
268.913	84.94
269.145	77.94
269.377	85.94
269.609	85.94
269.841	78.94
270.073	69.94
270.306	93.94
270.538	86.94
270.77	86.94
271.002	69.94
271.234	83.94
271.466	86.94
271.698	91.94
271.93	82.94
272.162	98.94
272.394	89.94
272.626	78.94
272.858	81.94
273.09	72.94
273.322	91.94
273.553	88.94
273.785	97.94
274.017	91.94
274.249	86.94
274.481	97.94
274.713	79.94
274.945	91.94
275.176	74.94
275.408	85.94
275.64	82.94
275.872	81.94
276.104	82.94
276.335	76.94
276.567	77.94
276.799	84.94
277.031	95.94
277.262	75.94
277.494	77.94
277.726	86.94
277.957	91.94
278.189	87.94
278.421	88.94
278.652	83.94
278.884	70.94
279.115	89.94
279.347	80.94
279.579	89.94
279.81	84.94
280.042	89.94
280.273	81.94
280.505	74.94
280.736	86.94
280.968	90.94
281.199	95.94
281.431	79.94
281.662	94.94
281.894	95.94
282.125	80.94
282.356	95.94
282.588	82.94
282.819	83.94
283.051	96.94
283.282	82.94
283.513	97.94
283.745	80.94
283.976	75.94
284.207	84.94
284.439	85.94
284.67	70.94
284.901	97.94
285.132	93.94
285.364	89.94
285.595	80.94
285.826	71.94
286.057	80.94
286.288	84.94
286.52	86.94
286.751	67.94
286.982	99.94
287.213	79.94
287.444	98.94
287.675	90.94
287.906	81.94
288.138	95.94
288.369	98.94
288.6	93.94
288.831	69.94
289.062	82.94
289.293	78.94
289.524	85.94
289.755	82.94
289.986	92.94
290.217	86.94
290.448	90.94
290.679	78.94
290.91	90.94
291.141	78.94
291.371	88.94
291.602	91.94
291.833	92.94
292.064	89.94
292.295	103.94
292.526	77.94
292.757	88.94
292.987	90.94
293.218	75.94
293.449	79.94
293.68	88.94
293.91	83.94
294.141	80.94
294.372	77.94
294.603	88.94
294.833	86.94
295.064	88.94
295.295	90.94
295.525	89.94
295.756	92.94
295.987	78.94
296.217	81.94
296.448	92.94
296.679	82.94
296.909	74.94
297.14	84.94
297.37	76.94
297.601	83.94
297.831	88.94
298.062	81.94
298.292	89.94
298.523	87.94
298.753	70.94
298.984	73.94
299.214	85.94
299.445	75.94
299.675	83.94
299.905	85.94
300.136	79.94
300.366	75.94
300.597	79.94
300.827	74.94
301.057	99.94
301.288	85.94
301.518	96.94
301.748	82.94
301.979	91.94
302.209	76.94
302.439	87.94
302.669	81.94
302.9	75.94
303.13	76.94
303.36	74.94
303.59	78.94
303.82	71.94
304.051	88.94
304.281	104.94
304.511	95.94
304.741	103.94
304.971	92.94
305.201	105.94
305.431	80.94
305.661	89.94
305.891	97.94
306.121	87.94
306.352	92.94
306.582	89.94
306.812	88.94
307.042	93.94
307.272	70.94
307.502	88.94
307.731	81.94
307.961	97.94
308.191	75.94
308.421	76.94
308.651	86.94
308.881	85.94
309.111	90.94
309.341	103.94
309.571	76.94
309.8	88.94
310.03	81.94
310.26	77.94
310.49	78.94
310.72	91.94
310.949	91.94
311.179	81.94
311.409	91.94
311.639	93.94
311.868	92.94
312.098	83.94
312.328	78.94
312.557	91.94
312.787	91.94
313.017	90.94
313.246	97.94
313.476	86.94
313.706	82.94
313.935	90.94
314.165	85.94
314.394	100.94
314.624	90.94
314.853	89.94
315.083	96.94
315.312	78.94
315.542	89.94
315.771	70.94
316.001	82.94
316.23	91.94
316.46	72.94
316.689	87.94
316.919	72.94
317.148	73.94
317.377	88.94
317.607	88.94
317.836	76.94
318.065	82.94
318.295	89.94
318.524	103.94
318.753	95.94
318.983	92.94
319.212	96.94
319.441	91.94
319.67	86.94
319.9	78.94
320.129	81.94
320.358	89.94
320.587	83.94
320.816	79.94
321.046	89.94
321.275	89.94
321.504	86.94
321.733	84.94
321.962	78.94
322.191	91.94
322.42	82.94
322.649	99.94
322.878	109.94
323.108	82.94
323.337	80.94
323.566	73.94
323.795	94.94
324.024	83.94
324.253	79.94
324.482	96.94
324.71	91.94
324.939	90.94
325.168	84.94
325.397	84.94
325.626	93.94
325.855	96.94
326.084	92.94
326.313	90.94
326.542	100.94
326.77	91.94
326.999	85.94
327.228	88.94
327.457	98.94
327.686	88.94
327.914	82.94
328.143	90.94
328.372	91.94
328.6	105.94
328.829	102.94
329.058	85.94
329.287	81.94
329.515	71.94
329.744	81.94
329.972	70.94
330.201	91.94
330.43	77.94
330.658	88.94
330.887	94.94
331.115	79.94
331.344	101.94
331.572	75.94
331.801	87.94
332.03	89.94
332.258	89.94
332.486	85.94
332.715	86.94
332.943	88.94
333.172	99.94
333.4	76.94
333.629	83.94
333.857	96.94
334.085	86.94
334.314	102.94
334.542	88.94
334.771	88.94
334.999	93.94
335.227	88.94
335.455	86.94
335.684	99.94
335.912	89.94
336.14	90.94
336.369	78.94
336.597	86.94
336.825	86.94
337.053	84.94
337.281	80.94
337.51	86.94
337.738	87.94
337.966	86.94
338.194	88.94
338.422	86.94
338.65	94.94
338.878	91.94
339.106	103.94
339.334	77.94
339.562	94.94
339.79	79.94
340.018	83.94
340.246	76.94
340.474	83.94
340.702	95.94
340.93	93.94
341.158	84.94
341.386	77.94
341.614	80.94
341.842	95.94
342.07	85.94
342.298	81.94
342.526	90.94
342.754	78.94
342.981	86.94
343.209	85.94
343.437	80.94
343.665	87.94
343.893	79.94
344.12	90.94
344.348	77.94
344.576	91.94
344.804	81.94
345.031	82.94
345.259	77.94
345.487	80.94
345.714	71.94
345.942	93.94
346.17	82.94
346.397	89.94
346.625	89.94
346.853	85.94
347.08	84.94
347.308	83.94
347.535	77.94
347.763	84.94
347.99	85.94
348.218	93.94
348.445	74.94
348.673	84.94
348.9	100.94
349.128	85.94
349.355	78.94
349.583	80.94
349.81	80.94
350.037	92.94
350.265	79.94
350.492	104.94
350.72	83.94
350.947	78.94
351.174	89.94
351.402	72.94
351.629	73.94
351.856	71.94
352.083	78.94
352.311	76.94
352.538	82.94
352.765	96.94
352.992	89.94
353.22	86.94
353.447	100.94
353.674	97.94
353.901	81.94
354.128	84.94
354.355	91.94
354.583	96.94
354.81	91.94
355.037	93.94
355.264	82.94
355.491	70.94
355.718	76.94
355.945	72.94
356.172	81.94
356.399	69.94
356.626	87.94
356.853	95.94
357.08	92.94
357.307	90.94
357.534	102.94
357.761	83.94
357.988	64.94
358.215	85.94
358.441	78.94
358.668	82.94
358.895	77.94
359.122	90.94
359.349	78.94
359.576	89.94
359.802	84.94
360.029	73.94
360.256	103.94
360.483	99.94
360.709	89.94
360.936	104.94
361.163	82.94
361.39	95.94
361.616	91.94
361.843	95.94
362.07	70.94
362.296	77.94
362.523	77.94
362.749	98.94
362.976	84.94
363.203	95.94
363.429	89.94
363.656	73.94
363.882	81.94
364.109	88.94
364.335	83.94
364.562	86.94
364.788	88.94
365.015	94.94
365.241	92.94
365.468	89.94
365.694	90.94
365.92	94.94
366.147	72.94
366.373	95.94
366.599	91.94
366.826	85.94
367.052	89.94
367.278	101.94
367.505	97.94
367.731	95.94
367.957	85.94
368.184	77.94
368.41	85.94
368.636	85.94
368.862	86.94
369.089	85.94
369.315	93.94
369.541	95.94
369.767	83.94
369.993	86.94
370.219	79.94
370.445	92.94
370.672	83.94
370.898	86.94
371.124	86.94
371.35	83.94
371.576	84.94
371.802	80.94
372.028	80.94
372.254	85.94
372.48	85.94
372.706	98.94
372.932	88.94
373.158	81.94
373.384	86.94
373.61	81.94
373.835	93.94
374.061	87.94
374.287	85.94
374.513	75.94
374.739	86.94
374.965	71.94
375.191	92.94
375.416	97.94
375.642	81.94
375.868	84.94
376.094	73.94
376.319	83.94
376.545	80.94
376.771	81.94
376.997	92.94
377.222	90.94
377.448	82.94
377.674	84.94
377.899	83.94
378.125	97.94
378.35	81.94
378.576	69.94
378.802	71.94
379.027	77.94
379.253	101.94
379.478	92.94
379.704	89.94
379.929	72.94
380.155	86.94
380.38	89.94
380.606	91.94
380.831	87.94
381.057	91.94
381.282	83.94
381.507	86.94
381.733	78.94
381.958	86.94
382.184	85.94
382.409	85.94
382.634	73.94
382.86	76.94
383.085	75.94
383.31	96.94
383.535	82.94
383.761	87.94
383.986	73.94
384.211	78.94
384.436	82.94
384.662	91.94
384.887	86.94
385.112	84.94
385.337	84.94
385.562	76.94
385.787	91.94
386.013	93.94
386.238	91.94
386.463	79.94
386.688	84.94
386.913	87.94
387.138	80.94
387.363	88.94
387.588	83.94
387.813	87.94
388.038	91.94
388.263	94.94
388.488	79.94
388.713	86.94
388.938	77.94
389.163	76.94
389.387	80.94
389.612	81.94
389.837	82.94
390.062	88.94
390.287	87.94
390.512	96.94
390.736	80.94
390.961	88.94
391.186	89.94
391.411	82.94
391.636	101.94
391.86	91.94
392.085	89.94
392.31	87.94
392.534	75.94
392.759	79.94
392.984	83.94
393.208	88.94
393.433	76.94
393.658	77.94
393.882	87.94
394.107	77.94
394.331	80.94
394.556	82.94
394.78	83.94
395.005	91.94
395.229	89.94
395.454	75.94
395.678	77.94
395.903	87.94
396.127	69.94
396.352	77.94
396.576	77.94
396.801	84.94
397.025	84.94
397.249	85.94
397.474	90.94
397.698	90.94
397.922	87.94
398.147	81.94
398.371	82.94
398.595	88.94
398.82	96.94
399.044	82.94
399.268	93.94
399.492	89.94
399.717	96.94
399.941	98.94
400.165	74.94
400.389	86.94
400.613	88.94
400.837	81.94
401.062	68.94
401.286	88.94
401.51	77.94
401.734	75.94
401.958	83.94
402.182	97.94
402.406	93.94
402.63	86.94
402.854	90.94
403.078	85.94
403.302	100.94
403.526	96.94
403.75	86.94
403.974	91.94
404.198	79.94
404.422	77.94
404.645	94.94
404.869	93.94
405.093	84.94
405.317	87.94
405.541	84.94
405.765	83.94
405.988	73.94
406.212	87.94
406.436	84.94
406.66	80.94
406.883	68.94
407.107	71.94
407.331	90.94
407.555	88.94
407.778	91.94
408.002	91.94
408.226	96.94
408.449	85.94
408.673	89.94
408.896	96.94
409.12	81.94
409.344	93.94
409.567	88.94
409.791	93.94
410.014	76.94
410.238	84.94
410.461	87.94
410.685	80.94
410.908	89.94
411.132	78.94
411.355	74.94
411.578	91.94
411.802	95.94
412.025	92.94
412.249	78.94
412.472	94.94
412.695	89.94
412.919	79.94
413.142	95.94
413.365	83.94
413.589	78.94
413.812	80.94
414.035	89.94
414.258	92.94
414.482	91.94
414.705	84.94
414.928	98.94
415.151	85.94
415.374	76.94
415.597	77.94
415.821	67.94
416.044	87.94
416.267	82.94
416.49	89.94
416.713	69.94
416.936	60.94
417.159	89.94
417.382	82.94
417.605	86.94
417.828	101.94
418.051	81.94
418.274	84.94
418.497	85.94
418.72	78.94
418.943	68.94
419.166	73.94
419.389	93.94
419.611	75.94
419.834	78.94
420.057	90.94
420.28	69.94
420.503	76.94
420.726	94.94
420.948	79.94
421.171	85.94
421.394	90.94
421.617	72.94
421.839	77.94
422.062	82.94
422.285	106.94
422.507	90.94
422.73	64.94
422.953	69.94
423.175	92.94
423.398	81.94
423.621	81.94
423.843	94.94
424.066	86.94
424.288	86.94
424.511	72.94
424.733	100.94
424.956	81.94
425.178	94.94
425.401	81.94
425.623	83.94
425.846	82.94
426.068	72.94
426.291	81.94
426.513	78.94
426.735	74.94
426.958	93.94
427.18	76.94
427.402	91.94
427.625	94.94
427.847	101.94
428.069	88.94
428.292	77.94
428.514	88.94
428.736	89.94
428.958	102.94
429.181	92.94
429.403	78.94
429.625	80.94
429.847	80.94
430.069	83.94
430.292	74.94
430.514	66.94
430.736	76.94
430.958	73.94
431.18	74.94
431.402	76.94
431.624	84.94
431.846	74.94
432.068	76.94
432.29	75.94
432.512	91.94
432.734	87.94
432.956	90.94
433.178	88.94
433.4	79.94
433.622	92.94
433.844	76.94
434.066	86.94
434.287	75.94
434.509	90.94
434.731	87.94
434.953	98.94
435.175	76.94
435.397	97.94
435.618	90.94
435.84	73.94
436.062	92.94
436.284	85.94
436.505	85.94
436.727	64.94
436.949	82.94
437.17	97.94
437.392	91.94
437.614	84.94
437.835	68.94
438.057	81.94
438.278	81.94
438.5	76.94
438.721	92.94
438.943	80.94
439.165	86.94
439.386	73.94
439.608	89.94
439.829	84.94
440.05	91.94
440.272	97.94
440.493	82.94
440.715	78.94
440.936	102.94
441.158	87.94
441.379	82.94
441.6	85.94
441.822	94.94
442.043	77.94
442.264	67.94
442.486	75.94
442.707	83.94
442.928	76.94
443.149	84.94
443.371	98.94
443.592	76.94
443.813	76.94
444.034	73.94
444.255	99.94
444.476	87.94
444.698	72.94
444.919	91.94
445.14	207.94
445.361	150.94
445.582	87.94
445.803	74.94
446.024	80.94
446.245	85.94
446.466	82.94
446.687	99.94
446.908	88.94
447.129	85.94
447.35	82.94
447.571	78.94
447.792	92.94
448.013	82.94
448.234	94.94
448.455	75.94
448.675	88.94
448.896	83.94
449.117	81.94
449.338	86.94
449.559	78.94
449.779	86.94
450	84.94
450.221	75.94
450.442	93.94
450.662	90.94
450.883	81.94
451.104	89.94
451.324	66.94
451.545	86.94
451.766	82.94
451.986	80.94
452.207	86.94
452.428	79.94
452.648	84.94
452.869	93.94
453.089	69.94
453.31	83.94
453.53	74.94
453.751	76.94
453.971	82.94
454.192	88.94
454.412	91.94
454.633	87.94
454.853	73.94
455.073	86.94
455.294	93.94
455.514	84.94
455.734	96.94
455.955	83.94
456.175	76.94
456.395	78.94
456.616	78.94
456.836	97.94
457.056	84.94
457.276	75.94
457.497	81.94
457.717	86.94
457.937	71.94
458.157	90.94
458.377	85.94
458.598	86.94
458.818	87.94
459.038	82.94
459.258	76.94
459.478	80.94
459.698	76.94
459.918	95.94
460.138	76.94
460.358	102.94
460.578	73.94
460.798	88.94
461.018	95.94
461.238	90.94
461.458	95.94
461.678	80.94
461.898	95.94
462.118	96.94
462.338	92.94
462.558	83.94
462.777	77.94
462.997	85.94
463.217	79.94
463.437	98.94
463.657	78.94
463.876	95.94
464.096	80.94
464.316	99.94
464.536	93.94
464.755	81.94
464.975	89.94
465.195	84.94
465.414	91.94
465.634	94.94
465.854	88.94
466.073	86.94
466.293	84.94
466.512	72.94
466.732	83.94
466.951	89.94
467.171	77.94
467.391	81.94
467.61	90.94
467.829	80.94
468.049	89.94
468.268	85.94
468.488	72.94
468.707	85.94
468.927	75.94
469.146	90.94
469.365	91.94
469.585	88.94
469.804	83.94
470.023	97.94
470.243	89.94
470.462	89.94
470.681	77.94
470.901	86.94
471.12	76.94
471.339	86.94
471.558	86.94
471.777	87.94
471.997	79.94
472.216	77.94
472.435	71.94
472.654	95.94
472.873	82.94
473.092	83.94
473.311	88.94
473.53	82.94
473.749	82.94
473.968	91.94
474.187	86.94
474.406	82.94
474.625	92.94
474.844	90.94
475.063	77.94
475.282	84.94
475.501	86.94
475.72	94.94
475.939	78.94
476.158	85.94
476.377	74.94
476.596	84.94
476.814	88.94
477.033	97.94
477.252	81.94
477.471	89.94
477.69	89.94
477.908	79.94
478.127	94.94
478.346	86.94
478.564	94.94
478.783	105.94
479.002	86.94
479.22	87.94
479.439	92.94
479.658	78.94
479.876	86.94
480.095	92.94
480.313	88.94
480.532	78.94
480.751	86.94
480.969	94.94
481.188	79.94
481.406	92.94
481.624	79.94
481.843	81.94
482.061	75.94
482.28	106.94
482.498	96.94
482.717	101.94
482.935	99.94
483.153	97.94
483.372	88.94
483.59	93.94
483.808	89.94
484.027	81.94
484.245	105.94
484.463	85.94
484.681	96.94
484.9	82.94
485.118	80.94
485.336	92.94
485.554	89.94
485.772	84.94
485.99	93.94
486.209	95.94
486.427	92.94
486.645	94.94
486.863	86.94
487.081	98.94
487.299	101.94
487.517	94.94
487.735	100.94
487.953	87.94
488.171	90.94
488.389	105.94
488.607	84.94
488.825	82.94
489.043	89.94
489.261	100.94
489.479	80.94
489.696	85.94
489.914	88.94
490.132	94.94
490.35	102.94
490.568	95.94
490.786	86.94
491.003	90.94
491.221	91.94
491.439	100.94
491.657	103.94
491.874	113.94
492.092	106.94
492.31	106.94
492.527	101.94
492.745	98.94
492.963	107.94
493.18	106.94
493.398	113.94
493.615	104.94
493.833	94.94
494.05	105.94
494.268	90.94
494.485	101.94
494.703	107.94
494.92	97.94
495.138	106.94
495.355	98.94
495.573	94.94
495.79	100.94
496.008	89.94
496.225	92.94
496.442	92.94
496.66	91.94
496.877	108.94
497.094	103.94
497.312	114.94
497.529	95.94
497.746	107.94
497.963	95.94
498.181	90.94
498.398	97.94
498.615	98.94
498.832	90.94
499.049	111.94
499.267	117.94
499.484	90.94
499.701	106.94
499.918	105.94
500.135	104.94
500.352	100.94
500.569	108.94
500.786	113.94
501.003	103.94
501.22	112.94
501.437	100.94
501.654	112.94
501.871	100.94
502.088	101.94
502.305	114.94
502.522	102.94
502.739	96.94
502.956	104.94
503.172	88.94
503.389	98.94
503.606	98.94
503.823	93.94
504.04	82.94
504.256	112.94
504.473	105.94
504.69	86.94
504.907	79.94
505.123	87.94
505.34	96.94
505.557	100.94
505.773	87.94
505.99	95.94
506.207	86.94
506.423	90.94
506.64	88.94
506.856	86.94
507.073	85.94
507.289	102.94
507.506	86.94
507.722	92.94
507.939	108.94
508.155	103.94
508.372	75.94
508.588	102.94
508.805	86.94
509.021	80.94
509.238	81.94
509.454	84.94
509.67	84.94
509.887	89.94
510.103	75.94
510.319	84.94
510.536	93.94
510.752	86.94
510.968	85.94
511.184	86.94
511.401	94.94
511.617	84.94
511.833	92.94
512.049	77.94
512.265	102.94
512.481	92.94
512.698	99.94
512.914	94.94
513.13	89.94
513.346	88.94
513.562	69.94
513.778	82.94
513.994	88.94
514.21	82.94
514.426	92.94
514.642	80.94
514.858	97.94
515.074	93.94
515.29	87.94
515.506	86.94
515.721	83.94
515.937	99.94
516.153	79.94
516.369	90.94
516.585	90.94
516.801	102.94
517.016	94.94
517.232	90.94
517.448	97.94
517.664	86.94
517.879	92.94
518.095	79.94
518.311	89.94
518.527	104.94
518.742	99.94
518.958	83.94
519.173	91.94
519.389	78.94
519.605	93.94
519.82	95.94
520.036	73.94
520.251	92.94
520.467	86.94
520.682	84.94
520.898	89.94
521.113	83.94
521.329	84.94
521.544	92.94
521.76	97.94
521.975	96.94
522.19	100.94
522.406	87.94
522.621	84.94
522.836	87.94
523.052	90.94
523.267	96.94
523.482	96.94
523.698	94.94
523.913	79.94
524.128	92.94
524.343	86.94
524.559	101.94
524.774	80.94
524.989	98.94
525.204	102.94
525.419	99.94
525.634	92.94
525.849	94.94
526.064	84.94
526.28	91.94
526.495	85.94
526.71	87.94
526.925	96.94
527.14	92.94
527.355	81.94
527.57	94.94
527.785	82.94
527.999	92.94
528.214	73.94
528.429	87.94
528.644	88.94
528.859	81.94
529.074	101.94
529.289	102.94
529.503	88.94
529.718	102.94
529.933	92.94
530.148	93.94
530.363	86.94
530.577	82.94
530.792	91.94
531.007	86.94
531.221	93.94
531.436	87.94
531.651	85.94
531.865	90.94
532.08	87.94
532.295	83.94
532.509	88.94
532.724	64.94
532.938	101.94
533.153	92.94
533.367	95.94
533.582	95.94
533.796	91.94
534.011	94.94
534.225	85.94
534.44	94.94
534.654	82.94
534.868	83.94
535.083	91.94
535.297	86.94
535.511	77.94
535.726	96.94
535.94	90.94
536.154	89.94
536.369	89.94
536.583	70.94
536.797	84.94
537.011	76.94
537.225	99.94
537.44	94.94
537.654	79.94
537.868	97.94
538.082	78.94
538.296	84.94
538.51	91.94
538.724	85.94
538.938	85.94
539.153	95.94
539.367	86.94
539.581	84.94
539.795	101.94
540.009	83.94
540.222	87.94
540.436	106.94
540.65	91.94
540.864	104.94
541.078	110.94
541.292	98.94
541.506	93.94
541.72	105.94
541.934	95.94
542.147	82.94
542.361	98.94
542.575	98.94
542.789	105.94
543.002	70.94
543.216	99.94
543.43	93.94
543.644	94.94
543.857	88.94
544.071	95.94
544.285	82.94
544.498	96.94
544.712	94.94
544.925	108.94
545.139	94.94
545.352	93.94
545.566	94.94
545.779	102.94
545.993	92.94
546.206	100.94
546.42	102.94
546.633	94.94
546.847	94.94
547.06	93.94
547.274	108.94
547.487	99.94
547.7	97.94
547.914	92.94
548.127	92.94
548.34	99.94
548.554	107.94
548.767	97.94
548.98	88.94
549.193	92.94
549.407	89.94
549.62	93.94
549.833	101.94
550.046	97.94
550.259	90.94
550.473	100.94
550.686	91.94
550.899	84.94
551.112	84.94
551.325	79.94
551.538	102.94
551.751	93.94
551.964	84.94
552.177	91.94
552.39	100.94
552.603	98.94
552.816	93.94
553.029	93.94
553.242	106.94
553.455	98.94
553.667	96.94
553.88	98.94
554.093	93.94
554.306	114.94
554.519	92.94
554.732	88.94
554.944	92.94
555.157	85.94
555.37	102.94
555.583	93.94
555.795	95.94
556.008	84.94
556.221	99.94
556.433	90.94
556.646	91.94
556.859	90.94
557.071	76.94
557.284	104.94
557.496	76.94
557.709	77.94
557.921	97.94
558.134	95.94
558.346	103.94
558.559	93.94
558.771	98.94
558.984	102.94
559.196	82.94
559.409	101.94
559.621	87.94
559.833	85.94
560.046	88.94
560.258	104.94
560.47	88.94
560.683	99.94
560.895	100.94
561.107	106.94
561.32	73.94
561.532	74.94
561.744	95.94
561.956	86.94
562.168	93.94
562.381	87.94
562.593	92.94
562.805	95.94
563.017	77.94
563.229	95.94
563.441	74.94
563.653	91.94
563.865	94.94
564.077	90.94
564.289	89.94
564.501	84.94
564.713	85.94
564.925	81.94
565.137	79.94
565.349	86.94
565.561	89.94
565.773	87.94
565.985	84.94
566.197	89.94
566.408	87.94
566.62	77.94
566.832	81.94
567.044	93.94
567.255	77.94
567.467	92.94
567.679	92.94
567.891	79.94
568.102	80.94
568.314	88.94
568.526	89.94
568.737	72.94
568.949	88.94
569.161	90.94
569.372	91.94
569.584	87.94
569.795	80.94
570.007	83.94
570.218	97.94
570.43	97.94
570.641	89.94
570.853	85.94
571.064	88.94
571.276	82.94
571.487	86.94
571.698	102.94
571.91	90.94
572.121	78.94
572.333	92.94
572.544	79.94
572.755	65.94
572.966	96.94
573.178	91.94
573.389	80.94
573.6	92.94
573.811	97.94
574.023	103.94
574.234	83.94
574.445	72.94
574.656	87.94
574.867	93.94
575.078	84.94
575.289	99.94
575.501	93.94
575.712	68.94
575.923	92.94
576.134	92.94
576.345	91.94
576.556	78.94
576.767	91.94
576.978	98.94
577.188	83.94
577.399	89.94
577.61	81.94
577.821	100.94
578.032	93.94
578.243	77.94
578.454	85.94
578.665	99.94
578.875	76.94
579.086	79.94
579.297	86.94
579.508	84.94
579.718	89.94
579.929	88.94
580.14	95.94
580.35	88.94
580.561	93.94
580.772	80.94
580.982	87.94
581.193	79.94
581.403	86.94
581.614	82.94
581.825	107.94
582.035	86.94
582.246	93.94
582.456	96.94
582.667	83.94
582.877	84.94
583.087	88.94
583.298	97.94
583.508	79.94
583.719	98.94
583.929	86.94
584.139	92.94
584.35	97.94
584.56	91.94
584.77	95.94
584.981	97.94
585.191	80.94
585.401	72.94
585.611	73.94
585.821	79.94
586.032	77.94
586.242	87.94
586.452	90.94
586.662	90.94
586.872	89.94
587.082	99.94
587.292	89.94
587.502	92.94
587.713	90.94
587.923	87.94
588.133	79.94
588.343	85.94
588.553	79.94
588.762	90.94
588.972	83.94
589.182	84.94
589.392	90.94
589.602	82.94
589.812	100.94
590.022	93.94
590.232	90.94
590.441	68.94
590.651	78.94
590.861	91.94
591.071	88.94
591.281	98.94
591.49	74.94
591.7	98.94
591.91	98.94
592.119	97.94
592.329	83.94
592.539	91.94
592.748	88.94
592.958	79.94
593.167	83.94
593.377	84.94
593.587	81.94
593.796	91.94
594.006	84.94
594.215	91.94
594.424	76.94
594.634	89.94
594.843	76.94
595.053	83.94
595.262	75.94
595.472	83.94
595.681	89.94
595.89	85.94
596.1	92.94
596.309	87.94
596.518	84.94
596.727	82.94
596.937	79.94
597.146	84.94
597.355	87.94
597.564	92.94
597.774	95.94
597.983	95.94
598.192	84.94
598.401	89.94
598.61	98.94
598.819	81.94
599.028	93.94
599.237	93.94
599.446	95.94
599.655	94.94
599.864	82.94
600.073	76.94
600.282	87.94
600.491	75.94
600.7	87.94
600.909	74.94
601.118	88.94
601.327	80.94
601.536	110.94
601.745	66.94
601.953	88.94
602.162	89.94
602.371	90.94
602.58	86.94
602.789	85.94
602.997	91.94
603.206	96.94
603.415	96.94
603.623	92.94
603.832	92.94
604.041	79.94
604.249	73.94
604.458	78.94
604.666	84.94
604.875	84.94
605.084	87.94
605.292	84.94
605.501	78.94
605.709	83.94
605.918	124.94
606.126	86.94
606.334	84.94
606.543	96.94
606.751	90.94
606.96	70.94
607.168	88.94
607.376	90.94
607.585	84.94
607.793	86.94
608.001	85.94
608.21	92.94
608.418	74.94
608.626	93.94
608.834	94.94
609.043	90.94
609.251	81.94
609.459	78.94
609.667	94.94
609.875	92.94
610.083	87.94
610.291	80.94
610.499	102.94
610.707	87.94
610.916	86.94
611.124	88.94
611.332	87.94
611.54	87.94
611.748	74.94
611.955	74.94
612.163	85.94
612.371	86.94
612.579	82.94
612.787	101.94
612.995	82.94
613.203	88.94
613.411	84.94
613.618	71.94
613.826	89.94
614.034	85.94
614.242	85.94
614.449	82.94
614.657	88.94
614.865	85.94
615.072	81.94
615.28	86.94
615.488	87.94
615.695	92.94
615.903	99.94
616.111	81.94
616.318	77.94
616.526	86.94
616.733	79.94
616.941	93.94
617.148	85.94
617.356	74.94
617.563	72.94
617.771	79.94
617.978	77.94
618.185	96.94
618.393	79.94
618.6	81.94
618.807	73.94
619.015	79.94
619.222	88.94
619.429	96.94
619.637	90.94
619.844	83.94
620.051	89.94
620.258	86.94
620.466	89.94
620.673	88.94
620.88	90.94
621.087	84.94
621.294	94.94
621.501	90.94
621.708	86.94
621.915	88.94
622.122	87.94
622.329	83.94
622.536	91.94
622.743	87.94
622.95	70.94
623.157	82.94
623.364	99.94
623.571	87.94
623.778	92.94
623.985	78.94
624.192	83.94
624.399	88.94
624.606	86.94
624.812	90.94
625.019	76.94
625.226	82.94
625.433	88.94
625.639	73.94
625.846	93.94
626.053	71.94
626.259	82.94
626.466	97.94
626.673	76.94
626.879	72.94
627.086	86.94
627.293	69.94
627.499	84.94
627.706	79.94
627.912	84.94
628.119	79.94
628.325	93.94
628.532	88.94
628.738	81.94
628.945	88.94
629.151	75.94
629.357	77.94
629.564	84.94
629.77	77.94
629.976	87.94
630.183	79.94
630.389	94.94
630.595	88.94
630.802	92.94
631.008	79.94
631.214	85.94
631.42	85.94
631.627	91.94
631.833	74.94
632.039	79.94
632.245	75.94
632.451	73.94
632.657	70.94
632.863	90.94
633.069	77.94
633.275	86.94
633.481	80.94
633.688	94.94
633.893	72.94
634.099	84.94
634.305	100.94
634.511	81.94
634.717	88.94
634.923	79.94
635.129	79.94
635.335	85.94
635.541	68.94
635.747	84.94
635.952	78.94
636.158	84.94
636.364	97.94
636.57	91.94
636.775	92.94
636.981	93.94
637.187	76.94
637.392	90.94
637.598	88.94
637.804	91.94
638.009	89.94
638.215	95.94
638.421	84.94
638.626	82.94
638.832	88.94
639.037	79.94
639.243	73.94
639.448	84.94
639.654	79.94
639.859	77.94
640.065	96.94
640.27	91.94
640.475	78.94
640.681	88.94
640.886	87.94
641.091	84.94
641.297	101.94
641.502	109.94
641.707	88.94
641.913	71.94
642.118	77.94
642.323	85.94
642.528	72.94
642.733	85.94
642.939	76.94
643.144	86.94
643.349	86.94
643.554	87.94
643.759	82.94
643.964	99.94
644.169	95.94
644.374	78.94
644.579	96.94
644.784	91.94
644.989	88.94
645.194	98.94
645.399	82.94
645.604	88.94
645.809	87.94
646.014	87.94
646.219	89.94
646.423	87.94
646.628	75.94
646.833	85.94
647.038	81.94
647.243	81.94
647.447	87.94
647.652	70.94
647.857	97.94
648.062	83.94
648.266	86.94
648.471	91.94
648.676	85.94
648.88	90.94
649.085	83.94
649.289	77.94
649.494	86.94
649.698	93.94
649.903	76.94
650.107	84.94
650.312	77.94
650.516	89.94
650.721	77.94
650.925	82.94
651.13	71.94
651.334	88.94
651.539	90.94
651.743	85.94
651.947	83.94
652.152	78.94
652.356	97.94
652.56	90.94
652.764	86.94
652.969	78.94
653.173	93.94
653.377	65.94
653.581	89.94
653.785	69.94
653.99	83.94
654.194	78.94
654.398	85.94
654.602	81.94
654.806	69.94
655.01	84.94
655.214	81.94
655.418	71.94
655.622	81.94
655.826	79.94
656.03	79.94
656.234	86.94
656.438	85.94
656.642	86.94
656.846	84.94
657.049	67.94
657.253	85.94
657.457	91.94
657.661	86.94
657.865	70.94
658.068	81.94
658.272	73.94
658.476	78.94
658.68	75.94
658.883	89.94
659.087	86.94
659.291	90.94
659.494	77.94
659.698	87.94
659.901	82.94
660.105	82.94
660.309	81.94
660.512	70.94
660.716	96.94
660.919	81.94
661.123	91.94
661.326	83.94
661.53	73.94
661.733	90.94
661.936	84.94
662.14	79.94
662.343	85.94
662.546	92.94
662.75	75.94
662.953	81.94
663.156	82.94
663.36	86.94
663.563	83.94
663.766	74.94
663.969	91.94
664.173	77.94
664.376	83.94
664.579	75.94
664.782	69.94
664.985	93.94
665.188	81.94
665.391	85.94
665.594	84.94
665.797	78.94
666	84.94
666.203	85.94
666.406	65.94
666.609	77.94
666.812	80.94
667.015	79.94
667.218	88.94
667.421	69.94
667.624	73.94
667.827	73.94
668.03	80.94
668.232	81.94
668.435	78.94
668.638	86.94
668.841	91.94
669.043	86.94
669.246	90.94
669.449	92.94
669.651	84.94
669.854	77.94
670.057	60.94
670.259	88.94
670.462	76.94
670.665	82.94
670.867	88.94
671.07	85.94
671.272	78.94
671.475	80.94
671.677	81.94
671.88	72.94
672.082	85.94
672.284	96.94
672.487	88.94
672.689	76.94
672.892	83.94
