Data from Ni(NO3)2@0.0625M.TitratingCurve.Agarose3%dH2O.NegLispCup.LampEnergy10.LIBS07252019_HRD10591_18-15-02-569.txt Node
Date: Thu Jul 25 18:15:02 EDT 2019
User: cochatt
Spectrometer: HR+D1059
Trigger mode: 1
Integration Time (sec): 1.000000E-1
Scans to average: 1
Electric dark correction enabled: true
Nonlinearity correction enabled: false
Boxcar width: 0
XAxis mode: Wavelengths
Number of Pixels in Spectrum: 2048
>>>>>Begin Spectral Data<<<<<
223.165	-7.12
223.4	-7.12
223.635	-7.12
223.869	-16.12
224.104	-36.12
224.338	-6.12
224.573	3.88
224.808	-15.12
225.042	3.88
225.277	-0.12
225.511	-12.12
225.746	0.88
225.98	11.88
226.215	-10.12
226.449	7.88
226.683	12.88
226.918	25.88
227.152	35.88
227.387	37.88
227.621	38.88
227.856	41.88
228.09	41.88
228.324	44.88
228.559	49.88
228.793	73.88
229.027	88.88
229.262	86.88
229.496	112.88
229.73	112.88
229.964	110.88
230.199	114.88
230.433	105.88
230.667	112.88
230.901	116.88
231.136	122.88
231.37	132.88
231.604	127.88
231.838	140.88
232.072	145.88
232.306	118.88
232.541	142.88
232.775	121.88
233.009	120.88
233.243	114.88
233.477	116.88
233.711	144.88
233.945	125.88
234.179	131.88
234.413	128.88
234.647	123.88
234.881	128.88
235.115	124.88
235.349	128.88
235.583	130.88
235.817	135.88
236.051	122.88
236.285	121.88
236.519	136.88
236.753	128.88
236.987	118.88
237.221	138.88
237.455	145.88
237.689	127.88
237.922	142.88
238.156	146.88
238.39	141.88
238.624	134.88
238.858	132.88
239.091	146.88
239.325	136.88
239.559	154.88
239.793	153.88
240.027	162.88
240.26	146.88
240.494	146.88
240.728	123.88
240.961	151.88
241.195	136.88
241.429	146.88
241.662	138.88
241.896	158.88
242.13	158.88
242.363	149.88
242.597	171.88
242.83	139.88
243.064	142.88
243.298	137.88
243.531	158.88
243.765	159.88
243.998	163.88
244.232	171.88
244.465	163.88
244.699	165.88
244.932	157.88
245.166	178.88
245.399	174.88
245.633	178.88
245.866	174.88
246.099	168.88
246.333	171.88
246.566	169.88
246.8	169.88
247.033	176.88
247.266	187.88
247.5	167.88
247.733	196.88
247.966	171.88
248.2	190.88
248.433	203.88
248.666	190.88
248.899	186.88
249.133	179.88
249.366	183.88
249.599	190.88
249.832	188.88
250.066	201.88
250.299	209.88
250.532	194.88
250.765	187.88
250.998	189.88
251.231	194.88
251.465	186.88
251.698	195.88
251.931	197.88
252.164	206.88
252.397	204.88
252.63	215.88
252.863	196.88
253.096	214.88
253.329	210.88
253.562	204.88
253.795	216.88
254.028	230.88
254.261	216.88
254.494	196.88
254.727	207.88
254.96	205.88
255.193	202.88
255.426	223.88
255.659	217.88
255.892	207.88
256.124	210.88
256.357	219.88
256.59	228.88
256.823	219.88
257.056	225.88
257.289	208.88
257.521	217.88
257.754	244.88
257.987	228.88
258.22	243.88
258.452	231.88
258.685	227.88
258.918	223.88
259.151	225.88
259.383	222.88
259.616	240.88
259.849	252.88
260.081	239.88
260.314	239.88
260.547	246.88
260.779	238.88
261.012	232.88
261.244	239.88
261.477	231.88
261.71	252.88
261.942	254.88
262.175	234.88
262.407	245.88
262.64	240.88
262.872	245.88
263.105	240.88
263.337	268.88
263.57	249.88
263.802	264.88
264.035	264.88
264.267	251.88
264.499	250.88
264.732	257.88
264.964	238.88
265.197	260.88
265.429	245.88
265.661	254.88
265.894	260.88
266.126	274.88
266.358	257.88
266.591	263.88
266.823	270.88
267.055	261.88
267.287	255.88
267.52	250.88
267.752	262.88
267.984	276.88
268.216	274.88
268.448	273.88
268.681	274.88
268.913	288.88
269.145	262.88
269.377	276.88
269.609	286.88
269.841	278.88
270.073	270.88
270.306	271.88
270.538	276.88
270.77	274.88
271.002	297.88
271.234	275.88
271.466	275.88
271.698	267.88
271.93	275.88
272.162	267.88
272.394	286.88
272.626	288.88
272.858	296.88
273.09	279.88
273.322	289.88
273.553	282.88
273.785	285.88
274.017	299.88
274.249	288.88
274.481	303.88
274.713	304.88
274.945	325.88
275.176	295.88
275.408	297.88
275.64	315.88
275.872	308.88
276.104	301.88
276.335	288.88
276.567	322.88
276.799	295.88
277.031	320.88
277.262	320.88
277.494	323.88
277.726	311.88
277.957	317.88
278.189	298.88
278.421	310.88
278.652	313.88
278.884	304.88
279.115	331.88
279.347	335.88
279.579	310.88
279.81	334.88
280.042	314.88
280.273	319.88
280.505	344.88
280.736	329.88
280.968	328.88
281.199	337.88
281.431	354.88
281.662	342.88
281.894	354.88
282.125	338.88
282.356	347.88
282.588	347.88
282.819	348.88
283.051	339.88
283.282	352.88
283.513	344.88
283.745	352.88
283.976	341.88
284.207	360.88
284.439	359.88
284.67	338.88
284.901	338.88
285.132	368.88
285.364	347.88
285.595	365.88
285.826	352.88
286.057	373.88
286.288	384.88
286.52	364.88
286.751	376.88
286.982	374.88
287.213	357.88
287.444	384.88
287.675	354.88
287.906	370.88
288.138	370.88
288.369	374.88
288.6	391.88
288.831	389.88
289.062	370.88
289.293	378.88
289.524	370.88
289.755	389.88
289.986	400.88
290.217	371.88
290.448	380.88
290.679	368.88
290.91	380.88
291.141	394.88
291.371	392.88
291.602	384.88
291.833	405.88
292.064	370.88
292.295	382.88
292.526	385.88
292.757	374.88
292.987	384.88
293.218	399.88
293.449	385.88
293.68	398.88
293.91	393.88
294.141	412.88
294.372	376.88
294.603	369.88
294.833	399.88
295.064	384.88
295.295	401.88
295.525	398.88
295.756	402.88
295.987	396.88
296.217	396.88
296.448	390.88
296.679	392.88
296.909	398.88
297.14	414.88
297.37	421.88
297.601	429.88
297.831	399.88
298.062	431.88
298.292	425.88
298.523	438.88
298.753	426.88
298.984	436.88
299.214	434.88
299.445	440.88
299.675	397.88
299.905	423.88
300.136	427.88
300.366	447.88
300.597	445.88
300.827	440.88
301.057	419.88
301.288	443.88
301.518	451.88
301.748	447.88
301.979	450.88
302.209	446.88
302.439	467.88
302.669	452.88
302.9	439.88
303.13	433.88
303.36	410.88
303.59	409.88
303.82	448.88
304.051	447.88
304.281	451.88
304.511	438.88
304.741	438.88
304.971	430.88
305.201	441.88
305.431	461.88
305.661	454.88
305.891	434.88
306.121	439.88
306.352	442.88
306.582	427.88
306.812	430.88
307.042	432.88
307.272	427.88
307.502	422.88
307.731	430.88
307.961	429.88
308.191	429.88
308.421	426.88
308.651	412.88
308.881	412.88
309.111	419.88
309.341	432.88
309.571	418.88
309.8	439.88
310.03	432.88
310.26	439.88
310.49	447.88
310.72	440.88
310.949	426.88
311.179	439.88
311.409	440.88
311.639	441.88
311.868	441.88
312.098	441.88
312.328	463.88
312.557	454.88
312.787	439.88
313.017	417.88
313.246	455.88
313.476	461.88
313.706	461.88
313.935	471.88
314.165	453.88
314.394	467.88
314.624	452.88
314.853	477.88
315.083	448.88
315.312	460.88
315.542	442.88
315.771	456.88
316.001	457.88
316.23	430.88
316.46	440.88
316.689	449.88
316.919	442.88
317.148	429.88
317.377	434.88
317.607	451.88
317.836	438.88
318.065	438.88
318.295	448.88
318.524	449.88
318.753	436.88
318.983	440.88
319.212	430.88
319.441	462.88
319.67	430.88
319.9	455.88
320.129	467.88
320.358	442.88
320.587	456.88
320.816	453.88
321.046	456.88
321.275	455.88
321.504	458.88
321.733	448.88
321.962	470.88
322.191	456.88
322.42	449.88
322.649	452.88
322.878	453.88
323.108	450.88
323.337	465.88
323.566	476.88
323.795	483.88
324.024	471.88
324.253	455.88
324.482	459.88
324.71	456.88
324.939	469.88
325.168	486.88
325.397	478.88
325.626	485.88
325.855	498.88
326.084	489.88
326.313	502.88
326.542	504.88
326.77	512.88
326.999	502.88
327.228	472.88
327.457	475.88
327.686	496.88
327.914	487.88
328.143	496.88
328.372	496.88
328.6	512.88
328.829	481.88
329.058	491.88
329.287	472.88
329.515	501.88
329.744	517.88
329.972	498.88
330.201	492.88
330.43	518.88
330.658	520.88
330.887	521.88
331.115	485.88
331.344	512.88
331.572	539.88
331.801	522.88
332.03	536.88
332.258	553.88
332.486	568.88
332.715	580.88
332.943	606.88
333.172	652.88
333.4	672.88
333.629	661.88
333.857	666.88
334.085	661.88
334.314	637.88
334.542	636.88
334.771	624.88
334.999	613.88
335.227	604.88
335.455	621.88
335.684	604.88
335.912	608.88
336.14	607.88
336.369	612.88
336.597	609.88
336.825	621.88
337.053	590.88
337.281	615.88
337.51	580.88
337.738	592.88
337.966	579.88
338.194	588.88
338.422	560.88
338.65	564.88
338.878	530.88
339.106	543.88
339.334	560.88
339.562	545.88
339.79	551.88
340.018	518.88
340.246	501.88
340.474	503.88
340.702	538.88
340.93	559.88
341.158	542.88
341.386	555.88
341.614	594.88
341.842	584.88
342.07	528.88
342.298	512.88
342.526	528.88
342.754	528.88
342.981	555.88
343.209	531.88
343.437	558.88
343.665	598.88
343.893	629.88
344.12	621.88
344.348	619.88
344.576	588.88
344.804	581.88
345.031	555.88
345.259	555.88
345.487	552.88
345.714	539.88
345.942	545.88
346.17	567.88
346.397	533.88
346.625	527.88
346.853	509.88
347.08	507.88
347.308	519.88
347.535	526.88
347.763	531.88
347.99	525.88
348.218	521.88
348.445	549.88
348.673	519.88
348.9	494.88
349.128	504.88
349.355	532.88
349.583	544.88
349.81	498.88
350.037	502.88
350.265	481.88
350.492	492.88
350.72	490.88
350.947	488.88
351.174	512.88
351.402	537.88
351.629	538.88
351.856	515.88
352.083	487.88
352.311	522.88
352.538	533.88
352.765	542.88
352.992	498.88
353.22	478.88
353.447	489.88
353.674	485.88
353.901	471.88
354.128	492.88
354.355	477.88
354.583	462.88
354.81	478.88
355.037	506.88
355.264	487.88
355.491	500.88
355.718	487.88
355.945	518.88
356.172	495.88
356.399	511.88
356.626	508.88
356.853	533.88
357.08	516.88
357.307	502.88
357.534	479.88
357.761	491.88
357.988	501.88
358.215	484.88
358.441	478.88
358.668	506.88
358.895	472.88
359.122	485.88
359.349	471.88
359.576	510.88
359.802	468.88
360.029	483.88
360.256	496.88
360.483	490.88
360.709	484.88
360.936	504.88
361.163	520.88
361.39	523.88
361.616	514.88
361.843	491.88
362.07	508.88
362.296	546.88
362.523	501.88
362.749	502.88
362.976	480.88
363.203	493.88
363.429	473.88
363.656	505.88
363.882	520.88
364.109	488.88
364.335	498.88
364.562	503.88
364.788	491.88
365.015	494.88
365.241	503.88
365.468	491.88
365.694	479.88
365.92	488.88
366.147	482.88
366.373	512.88
366.599	484.88
366.826	489.88
367.052	478.88
367.278	502.88
367.505	494.88
367.731	487.88
367.957	478.88
368.184	487.88
368.41	484.88
368.636	491.88
368.862	511.88
369.089	489.88
369.315	484.88
369.541	482.88
369.767	497.88
369.993	504.88
370.219	495.88
370.445	517.88
370.672	503.88
370.898	502.88
371.124	519.88
371.35	547.88
371.576	544.88
371.802	526.88
372.028	530.88
372.254	530.88
372.48	529.88
372.706	574.88
372.932	565.88
373.158	576.88
373.384	548.88
373.61	531.88
373.835	553.88
374.061	554.88
374.287	550.88
374.513	562.88
374.739	573.88
374.965	578.88
375.191	588.88
375.416	591.88
375.642	582.88
375.868	585.88
376.094	563.88
376.319	543.88
376.545	533.88
376.771	535.88
376.997	558.88
377.222	543.88
377.448	547.88
377.674	540.88
377.899	566.88
378.125	519.88
378.35	543.88
378.576	540.88
378.802	547.88
379.027	502.88
379.253	522.88
379.478	524.88
379.704	549.88
379.929	542.88
380.155	513.88
380.38	522.88
380.606	522.88
380.831	519.88
381.057	523.88
381.282	522.88
381.507	534.88
381.733	536.88
381.958	545.88
382.184	535.88
382.409	552.88
382.634	548.88
382.86	570.88
383.085	556.88
383.31	573.88
383.535	584.88
383.761	579.88
383.986	615.88
384.211	596.88
384.436	612.88
384.662	622.88
384.887	649.88
385.112	653.88
385.337	637.88
385.562	657.88
385.787	661.88
386.013	658.88
386.238	664.88
386.463	640.88
386.688	645.88
386.913	631.88
387.138	606.88
387.363	646.88
387.588	613.88
387.813	639.88
388.038	611.88
388.263	620.88
388.488	624.88
388.713	624.88
388.938	634.88
389.163	602.88
389.387	625.88
389.612	600.88
389.837	620.88
390.062	631.88
390.287	632.88
390.512	626.88
390.736	642.88
390.961	658.88
391.186	650.88
391.411	663.88
391.636	676.88
391.86	689.88
392.085	727.88
392.31	711.88
392.534	694.88
392.759	676.88
392.984	682.88
393.208	679.88
393.433	663.88
393.658	683.88
393.882	676.88
394.107	671.88
394.331	682.88
394.556	679.88
394.78	695.88
395.005	680.88
395.229	686.88
395.454	700.88
395.678	722.88
395.903	712.88
396.127	682.88
396.352	646.88
396.576	653.88
396.801	651.88
397.025	682.88
397.249	679.88
397.474	715.88
397.698	723.88
397.922	702.88
398.147	674.88
398.371	724.88
398.595	726.88
398.82	768.88
399.044	800.88
399.268	922.88
399.492	1071.88
399.717	1244.88
399.941	1187.88
400.165	1052.88
400.389	928.88
400.613	840.88
400.837	825.88
401.062	782.88
401.286	811.88
401.51	821.88
401.734	780.88
401.958	828.88
402.182	822.88
402.406	800.88
402.63	831.88
402.854	828.88
403.078	867.88
403.302	888.88
403.526	898.88
403.75	911.88
403.974	930.88
404.198	949.88
404.422	954.88
404.645	902.88
404.869	901.88
405.093	891.88
405.317	878.88
405.541	862.88
405.765	884.88
405.988	841.88
406.212	862.88
406.436	870.88
406.66	896.88
406.883	887.88
407.107	967.88
407.331	1003.88
407.555	1027.88
407.778	1033.88
408.002	1022.88
408.226	994.88
408.449	979.88
408.673	897.88
408.896	924.88
409.12	907.88
409.344	892.88
409.567	906.88
409.791	921.88
410.014	910.88
410.238	879.88
410.461	888.88
410.685	881.88
410.908	862.88
411.132	868.88
411.355	843.88
411.578	835.88
411.802	822.88
412.025	829.88
412.249	826.88
412.472	814.88
412.695	807.88
412.919	789.88
413.142	778.88
413.365	782.88
413.589	763.88
413.812	780.88
414.035	790.88
414.258	790.88
414.482	797.88
414.705	801.88
414.928	798.88
415.151	790.88
415.374	796.88
415.597	794.88
415.821	795.88
416.044	758.88
416.267	751.88
416.49	776.88
416.713	769.88
416.936	779.88
417.159	757.88
417.382	773.88
417.605	770.88
417.828	778.88
418.051	766.88
418.274	789.88
418.497	774.88
418.72	796.88
418.943	814.88
419.166	858.88
419.389	919.88
419.611	867.88
419.834	868.88
420.057	828.88
420.28	793.88
420.503	794.88
420.726	750.88
420.948	788.88
421.171	777.88
421.394	758.88
421.617	782.88
421.839	800.88
422.062	804.88
422.285	794.88
422.507	795.88
422.73	819.88
422.953	803.88
423.175	830.88
423.398	816.88
423.621	848.88
423.843	868.88
424.066	878.88
424.288	840.88
424.511	784.88
424.733	808.88
424.956	804.88
425.178	809.88
425.401	814.88
425.623	778.88
425.846	755.88
426.068	746.88
426.291	753.88
426.513	732.88
426.735	739.88
426.958	763.88
427.18	718.88
427.402	748.88
427.625	724.88
427.847	690.88
428.069	686.88
428.292	718.88
428.514	696.88
428.736	706.88
428.958	713.88
429.181	665.88
429.403	705.88
429.625	688.88
429.847	694.88
430.069	706.88
430.292	696.88
430.514	677.88
430.736	686.88
430.958	702.88
431.18	663.88
431.402	691.88
431.624	712.88
431.846	712.88
432.068	737.88
432.29	750.88
432.512	731.88
432.734	712.88
432.956	695.88
433.178	706.88
433.4	707.88
433.622	699.88
433.844	725.88
434.066	706.88
434.287	739.88
434.509	765.88
434.731	778.88
434.953	765.88
435.175	823.88
435.397	800.88
435.618	793.88
435.84	772.88
436.062	741.88
436.284	734.88
436.505	742.88
436.727	718.88
436.949	717.88
437.17	712.88
437.392	699.88
437.614	693.88
437.835	695.88
438.057	704.88
438.278	699.88
438.5	678.88
438.721	676.88
438.943	688.88
439.165	694.88
439.386	691.88
439.608	707.88
439.829	712.88
440.05	741.88
440.272	709.88
440.493	710.88
440.715	722.88
440.936	736.88
441.158	730.88
441.379	766.88
441.6	772.88
441.822	832.88
442.043	815.88
442.264	804.88
442.486	772.88
442.707	788.88
442.928	784.88
443.149	790.88
443.371	798.88
443.592	790.88
443.813	806.88
444.034	801.88
444.255	855.88
444.476	860.88
444.698	905.88
444.919	981.88
445.14	1038.88
445.361	902.88
445.582	811.88
445.803	778.88
446.024	748.88
446.245	757.88
446.466	738.88
446.687	711.88
446.908	696.88
447.129	695.88
447.35	682.88
447.571	696.88
447.792	702.88
448.013	662.88
448.234	680.88
448.455	660.88
448.675	650.88
448.896	664.88
449.117	651.88
449.338	651.88
449.559	647.88
449.779	646.88
450	653.88
450.221	648.88
450.442	646.88
450.662	648.88
450.883	666.88
451.104	698.88
451.324	651.88
451.545	684.88
451.766	672.88
451.986	646.88
452.207	678.88
452.428	655.88
452.648	662.88
452.869	666.88
453.089	659.88
453.31	690.88
453.53	651.88
453.751	645.88
453.971	666.88
454.192	626.88
454.412	624.88
454.633	633.88
454.853	616.88
455.073	623.88
455.294	648.88
455.514	615.88
455.734	597.88
455.955	613.88
456.175	598.88
456.395	598.88
456.616	622.88
456.836	628.88
457.056	595.88
457.276	610.88
457.497	632.88
457.717	611.88
457.937	616.88
458.157	607.88
458.377	615.88
458.598	656.88
458.818	658.88
459.038	674.88
459.258	730.88
459.478	698.88
459.698	727.88
459.918	785.88
460.138	819.88
460.358	863.88
460.578	866.88
460.798	871.88
461.018	863.88
461.238	835.88
461.458	826.88
461.678	824.88
461.898	839.88
462.118	855.88
462.338	926.88
462.558	942.88
462.777	931.88
462.997	1060.88
463.217	1155.88
463.437	1163.88
463.657	1072.88
463.876	1015.88
464.096	998.88
464.316	992.88
464.536	992.88
464.755	949.88
464.975	922.88
465.195	882.88
465.414	841.88
465.634	779.88
465.854	764.88
466.073	738.88
466.293	702.88
466.512	715.88
466.732	688.88
466.951	692.88
467.171	708.88
467.391	702.88
467.61	680.88
467.829	702.88
468.049	676.88
468.268	667.88
468.488	659.88
468.707	652.88
468.927	673.88
469.146	663.88
469.365	683.88
469.585	692.88
469.804	688.88
470.023	689.88
470.243	703.88
470.462	721.88
470.681	732.88
470.901	702.88
471.12	694.88
471.339	673.88
471.558	678.88
471.777	696.88
471.997	680.88
472.216	644.88
472.435	654.88
472.654	656.88
472.873	673.88
473.092	650.88
473.311	646.88
473.53	666.88
473.749	672.88
473.968	652.88
474.187	655.88
474.406	637.88
474.625	671.88
474.844	646.88
475.063	642.88
475.282	669.88
475.501	649.88
475.72	665.88
475.939	651.88
476.158	652.88
476.377	677.88
476.596	671.88
476.814	709.88
477.033	697.88
477.252	708.88
477.471	716.88
477.69	758.88
477.908	740.88
478.127	776.88
478.346	763.88
478.564	798.88
478.783	800.88
479.002	846.88
479.22	816.88
479.439	790.88
479.658	786.88
479.876	805.88
480.095	836.88
480.313	875.88
480.532	884.88
480.751	888.88
480.969	851.88
481.188	800.88
481.406	786.88
481.624	770.88
481.843	753.88
482.061	784.88
482.28	772.88
482.498	768.88
482.717	735.88
482.935	746.88
483.153	778.88
483.372	768.88
483.59	751.88
483.808	764.88
484.027	749.88
484.245	770.88
484.463	799.88
484.681	803.88
484.9	790.88
485.118	799.88
485.336	784.88
485.554	825.88
485.772	790.88
485.99	807.88
486.209	829.88
486.427	835.88
486.645	796.88
486.863	825.88
487.081	805.88
487.299	827.88
487.517	799.88
487.735	818.88
487.953	814.88
488.171	795.88
488.389	807.88
488.607	807.88
488.825	814.88
489.043	788.88
489.261	784.88
489.479	792.88
489.696	786.88
489.914	777.88
490.132	779.88
490.35	771.88
490.568	786.88
490.786	792.88
491.003	800.88
491.221	805.88
491.439	801.88
491.657	789.88
491.874	787.88
492.092	809.88
492.31	814.88
492.527	786.88
492.745	789.88
492.963	830.88
493.18	792.88
493.398	828.88
493.615	842.88
493.833	841.88
494.05	819.88
494.268	845.88
494.485	834.88
494.703	819.88
494.92	831.88
495.138	819.88
495.355	819.88
495.573	794.88
495.79	828.88
496.008	839.88
496.225	826.88
496.442	839.88
496.66	852.88
496.877	876.88
497.094	878.88
497.312	890.88
497.529	906.88
497.746	930.88
497.963	937.88
498.181	972.88
498.398	995.88
498.615	1074.88
498.832	1156.88
499.049	1236.88
499.267	1315.88
499.484	1456.88
499.701	1612.88
499.918	1800.88
500.135	2067.88
500.352	2382.88
500.569	2555.88
500.786	2460.88
501.003	2304.88
501.22	1968.88
501.437	1777.88
501.654	1564.88
501.871	1417.88
502.088	1303.88
502.305	1213.88
502.522	1156.88
502.739	1118.88
502.956	1062.88
503.172	1002.88
503.389	961.88
503.606	946.88
503.823	908.88
504.04	948.88
504.256	936.88
504.473	955.88
504.69	980.88
504.907	968.88
505.123	899.88
505.34	858.88
505.557	810.88
505.773	804.88
505.99	799.88
506.207	780.88
506.423	756.88
506.64	717.88
506.856	738.88
507.073	706.88
507.289	715.88
507.506	708.88
507.722	751.88
507.939	718.88
508.155	688.88
508.372	726.88
508.588	684.88
508.805	687.88
509.021	704.88
509.238	694.88
509.454	690.88
509.67	688.88
509.887	687.88
510.103	671.88
510.319	674.88
510.536	675.88
510.752	658.88
510.968	665.88
511.184	674.88
511.401	667.88
511.617	658.88
511.833	654.88
512.049	657.88
512.265	664.88
512.481	649.88
512.698	635.88
512.914	650.88
513.13	682.88
513.346	676.88
513.562	662.88
513.778	667.88
513.994	680.88
514.21	664.88
514.426	674.88
514.642	675.88
514.858	694.88
515.074	655.88
515.29	667.88
515.506	694.88
515.721	690.88
515.937	713.88
516.153	706.88
516.369	724.88
516.585	763.88
516.801	780.88
517.016	787.88
517.232	834.88
517.448	878.88
517.664	930.88
517.879	929.88
518.095	898.88
518.311	906.88
518.527	856.88
518.742	846.88
518.958	797.88
519.173	805.88
519.389	747.88
519.605	712.88
519.82	702.88
520.036	698.88
520.251	672.88
520.467	670.88
520.682	680.88
520.898	671.88
521.113	650.88
521.329	655.88
521.544	640.88
521.76	656.88
521.975	639.88
522.19	639.88
522.406	634.88
522.621	604.88
522.836	629.88
523.052	644.88
523.267	613.88
523.482	628.88
523.698	624.88
523.913	620.88
524.128	628.88
524.343	587.88
524.559	622.88
524.774	602.88
524.989	607.88
525.204	616.88
525.419	601.88
525.634	608.88
525.849	617.88
526.064	619.88
526.28	623.88
526.495	622.88
526.71	630.88
526.925	623.88
527.14	618.88
527.355	606.88
527.57	603.88
527.785	621.88
527.999	630.88
528.214	626.88
528.429	612.88
528.644	614.88
528.859	604.88
529.074	618.88
529.289	612.88
529.503	586.88
529.718	606.88
529.933	612.88
530.148	596.88
530.363	598.88
530.577	594.88
530.792	610.88
531.007	607.88
531.221	587.88
531.436	585.88
531.651	608.88
531.865	616.88
532.08	609.88
532.295	610.88
532.509	585.88
532.724	606.88
532.938	627.88
533.153	597.88
533.367	611.88
533.582	603.88
533.796	624.88
534.011	586.88
534.225	613.88
534.44	583.88
534.654	603.88
534.868	608.88
535.083	606.88
535.297	601.88
535.511	596.88
535.726	588.88
535.94	589.88
536.154	602.88
536.369	579.88
536.583	586.88
536.797	575.88
537.011	562.88
537.225	549.88
537.44	566.88
537.654	558.88
537.868	550.88
538.082	562.88
538.296	551.88
538.51	546.88
538.724	576.88
538.938	532.88
539.153	555.88
539.367	566.88
539.581	569.88
539.795	554.88
540.009	566.88
540.222	531.88
540.436	538.88
540.65	542.88
540.864	555.88
541.078	539.88
541.292	542.88
541.506	555.88
541.72	549.88
541.934	539.88
542.147	549.88
542.361	532.88
542.575	550.88
542.789	554.88
543.002	545.88
543.216	529.88
543.43	521.88
543.644	523.88
543.857	553.88
544.071	544.88
544.285	563.88
544.498	550.88
544.712	544.88
544.925	550.88
545.139	535.88
545.352	517.88
545.566	536.88
545.779	556.88
545.993	536.88
546.206	560.88
546.42	556.88
546.633	550.88
546.847	548.88
547.06	564.88
547.274	567.88
547.487	550.88
547.7	561.88
547.914	576.88
548.127	578.88
548.34	579.88
548.554	555.88
548.767	566.88
548.98	544.88
549.193	555.88
549.407	558.88
549.62	576.88
549.833	590.88
550.046	580.88
550.259	546.88
550.473	553.88
550.686	564.88
550.899	540.88
551.112	546.88
551.325	536.88
551.538	558.88
551.751	559.88
551.964	546.88
552.177	570.88
552.39	560.88
552.603	571.88
552.816	582.88
553.029	590.88
553.242	597.88
553.455	592.88
553.667	615.88
553.88	606.88
554.093	580.88
554.306	558.88
554.519	538.88
554.732	543.88
554.944	553.88
555.157	564.88
555.37	530.88
555.583	537.88
555.795	521.88
556.008	499.88
556.221	487.88
556.433	483.88
556.646	501.88
556.859	492.88
557.071	464.88
557.284	488.88
557.496	478.88
557.709	463.88
557.921	477.88
558.134	473.88
558.346	473.88
558.559	484.88
558.771	499.88
558.984	457.88
559.196	482.88
559.409	473.88
559.621	461.88
559.833	462.88
560.046	457.88
560.258	463.88
560.47	467.88
560.683	451.88
560.895	441.88
561.107	465.88
561.32	477.88
561.532	469.88
561.744	486.88
561.956	459.88
562.168	476.88
562.381	458.88
562.593	490.88
562.805	476.88
563.017	456.88
563.229	485.88
563.441	463.88
563.653	483.88
563.865	491.88
564.077	473.88
564.289	482.88
564.501	487.88
564.713	512.88
564.925	506.88
565.137	539.88
565.349	482.88
565.561	523.88
565.773	555.88
565.985	567.88
566.197	566.88
566.408	637.88
566.62	700.88
566.832	738.88
567.044	771.88
567.255	761.88
567.467	752.88
567.679	831.88
567.891	872.88
568.102	927.88
568.314	843.88
568.526	766.88
568.737	714.88
568.949	630.88
569.161	570.88
569.372	541.88
569.584	521.88
569.795	516.88
570.007	492.88
570.218	490.88
570.43	456.88
570.641	473.88
570.853	487.88
571.064	477.88
571.276	486.88
571.487	478.88
571.698	460.88
571.91	459.88
572.121	446.88
572.333	412.88
572.544	410.88
572.755	419.88
572.966	405.88
573.178	424.88
573.389	379.88
573.6	401.88
573.811	407.88
574.023	387.88
574.234	383.88
574.445	403.88
574.656	380.88
574.867	392.88
575.078	392.88
575.289	378.88
575.501	383.88
575.712	355.88
575.923	375.88
576.134	378.88
576.345	368.88
576.556	377.88
576.767	384.88
576.978	378.88
577.188	372.88
577.399	366.88
577.61	373.88
577.821	361.88
578.032	358.88
578.243	358.88
578.454	369.88
578.665	363.88
578.875	340.88
579.086	354.88
579.297	343.88
579.508	343.88
579.718	348.88
579.929	360.88
580.14	317.88
580.35	333.88
580.561	345.88
580.772	329.88
580.982	360.88
581.193	339.88
581.403	357.88
581.614	333.88
581.825	330.88
582.035	326.88
582.246	336.88
582.456	336.88
582.667	347.88
582.877	347.88
583.087	345.88
583.298	331.88
583.508	342.88
583.719	336.88
583.929	331.88
584.139	328.88
584.35	334.88
584.56	318.88
584.77	342.88
584.981	330.88
585.191	300.88
585.401	331.88
585.611	331.88
585.821	333.88
586.032	319.88
586.242	335.88
586.452	311.88
586.662	322.88
586.872	323.88
587.082	310.88
587.292	322.88
587.502	319.88
587.713	320.88
587.923	329.88
588.133	316.88
588.343	323.88
588.553	306.88
588.762	342.88
588.972	324.88
589.182	320.88
589.392	336.88
589.602	328.88
589.812	328.88
590.022	304.88
590.232	321.88
590.441	314.88
590.651	318.88
590.861	329.88
591.071	314.88
591.281	332.88
591.49	343.88
591.7	327.88
591.91	352.88
592.119	359.88
592.329	326.88
592.539	368.88
592.748	382.88
592.958	372.88
593.167	389.88
593.377	410.88
593.587	400.88
593.796	408.88
594.006	402.88
594.215	406.88
594.424	417.88
594.634	372.88
594.843	360.88
595.053	370.88
595.262	369.88
595.472	346.88
595.681	361.88
595.89	335.88
596.1	295.88
596.309	315.88
596.518	310.88
596.727	307.88
596.937	304.88
597.146	306.88
597.355	302.88
597.564	299.88
597.774	294.88
597.983	282.88
598.192	284.88
598.401	288.88
598.61	292.88
598.819	273.88
599.028	283.88
599.237	281.88
599.446	292.88
599.655	300.88
599.864	282.88
600.073	282.88
600.282	268.88
600.491	265.88
600.7	288.88
600.909	275.88
601.118	283.88
601.327	274.88
601.536	267.88
601.745	272.88
601.953	278.88
602.162	258.88
602.371	263.88
602.58	249.88
602.789	286.88
602.997	270.88
603.206	260.88
603.415	264.88
603.623	265.88
603.832	259.88
604.041	274.88
604.249	272.88
604.458	273.88
604.666	267.88
604.875	232.88
605.084	243.88
605.292	262.88
605.501	256.88
605.709	260.88
605.918	260.88
606.126	257.88
606.334	258.88
606.543	260.88
606.751	260.88
606.96	246.88
607.168	265.88
607.376	247.88
607.585	239.88
607.793	254.88
608.001	238.88
608.21	255.88
608.418	263.88
608.626	245.88
608.834	233.88
609.043	247.88
609.251	228.88
609.459	251.88
609.667	259.88
609.875	260.88
610.083	247.88
610.291	266.88
610.499	253.88
610.707	244.88
610.916	246.88
611.124	252.88
611.332	249.88
611.54	248.88
611.748	233.88
611.955	260.88
612.163	236.88
612.371	223.88
612.579	229.88
612.787	234.88
612.995	246.88
613.203	256.88
613.411	235.88
613.618	255.88
613.826	243.88
614.034	250.88
614.242	237.88
614.449	239.88
614.657	232.88
614.865	245.88
615.072	246.88
615.28	233.88
615.488	249.88
615.695	242.88
615.903	239.88
616.111	254.88
616.318	257.88
616.526	243.88
616.733	231.88
616.941	254.88
617.148	232.88
617.356	240.88
617.563	241.88
617.771	224.88
617.978	242.88
618.185	247.88
618.393	235.88
618.6	246.88
618.807	235.88
619.015	242.88
619.222	242.88
619.429	230.88
619.637	229.88
619.844	231.88
620.051	248.88
620.258	238.88
620.466	226.88
620.673	224.88
620.88	224.88
621.087	198.88
621.294	216.88
621.501	213.88
621.708	222.88
621.915	215.88
622.122	223.88
622.329	207.88
622.536	222.88
622.743	234.88
622.95	213.88
623.157	219.88
623.364	214.88
623.571	215.88
623.778	213.88
623.985	232.88
624.192	191.88
624.399	207.88
624.606	216.88
624.812	222.88
625.019	213.88
625.226	219.88
625.433	221.88
625.639	204.88
625.846	223.88
626.053	211.88
626.259	202.88
626.466	212.88
626.673	202.88
626.879	214.88
627.086	219.88
627.293	202.88
627.499	197.88
627.706	199.88
627.912	218.88
628.119	198.88
628.325	208.88
628.532	208.88
628.738	222.88
628.945	195.88
629.151	200.88
629.357	206.88
629.564	189.88
629.77	198.88
629.976	201.88
630.183	197.88
630.389	195.88
630.595	196.88
630.802	202.88
631.008	193.88
631.214	197.88
631.42	187.88
631.627	197.88
631.833	184.88
632.039	195.88
632.245	178.88
632.451	175.88
632.657	195.88
632.863	191.88
633.069	193.88
633.275	196.88
633.481	193.88
633.688	203.88
633.893	177.88
634.099	180.88
634.305	190.88
634.511	190.88
634.717	168.88
634.923	171.88
635.129	172.88
635.335	176.88
635.541	187.88
635.747	190.88
635.952	180.88
636.158	185.88
636.364	181.88
636.57	157.88
636.775	162.88
636.981	177.88
637.187	183.88
637.392	174.88
637.598	167.88
637.804	186.88
638.009	182.88
638.215	187.88
638.421	176.88
638.626	174.88
638.832	182.88
639.037	169.88
639.243	181.88
639.448	171.88
639.654	180.88
639.859	184.88
640.065	183.88
640.27	178.88
640.475	174.88
640.681	174.88
640.886	151.88
641.091	176.88
641.297	178.88
641.502	167.88
641.707	162.88
641.913	176.88
642.118	160.88
642.323	171.88
642.528	167.88
642.733	175.88
642.939	147.88
643.144	166.88
643.349	178.88
643.554	166.88
643.759	155.88
643.964	163.88
644.169	173.88
644.374	167.88
644.579	164.88
644.784	168.88
644.989	162.88
645.194	180.88
645.399	164.88
645.604	160.88
645.809	163.88
646.014	148.88
646.219	179.88
646.423	160.88
646.628	167.88
646.833	184.88
647.038	185.88
647.243	170.88
647.447	165.88
647.652	186.88
647.857	175.88
648.062	178.88
648.266	180.88
648.471	174.88
648.676	178.88
648.88	160.88
649.085	163.88
649.289	177.88
649.494	180.88
649.698	172.88
649.903	170.88
650.107	154.88
650.312	169.88
650.516	163.88
650.721	164.88
650.925	158.88
651.13	167.88
651.334	146.88
651.539	141.88
651.743	144.88
651.947	159.88
652.152	149.88
652.356	161.88
652.56	164.88
652.764	147.88
652.969	153.88
653.173	154.88
653.377	153.88
653.581	168.88
653.785	141.88
653.99	151.88
654.194	153.88
654.398	153.88
654.602	150.88
654.806	142.88
655.01	162.88
655.214	147.88
655.418	151.88
655.622	151.88
655.826	159.88
656.03	158.88
656.234	152.88
656.438	160.88
656.642	176.88
656.846	156.88
657.049	154.88
657.253	143.88
657.457	141.88
657.661	133.88
657.865	120.88
658.068	126.88
658.272	117.88
658.476	114.88
658.68	105.88
658.883	117.88
659.087	106.88
659.291	100.88
659.494	104.88
659.698	100.88
659.901	93.88
660.105	105.88
660.309	102.88
660.512	110.88
660.716	100.88
660.919	92.88
661.123	90.88
661.326	102.88
661.53	87.88
661.733	90.88
661.936	94.88
662.14	85.88
662.343	85.88
662.546	85.88
662.75	86.88
662.953	92.88
663.156	91.88
663.36	76.88
663.563	82.88
663.766	84.88
663.969	64.88
664.173	81.88
664.376	88.88
664.579	67.88
664.782	79.88
664.985	90.88
665.188	94.88
665.391	84.88
665.594	99.88
665.797	89.88
666	80.88
666.203	82.88
666.406	72.88
666.609	74.88
666.812	83.88
667.015	82.88
667.218	86.88
667.421	85.88
667.624	86.88
667.827	82.88
668.03	76.88
668.232	72.88
668.435	86.88
668.638	68.88
668.841	84.88
669.043	78.88
669.246	79.88
669.449	78.88
669.651	101.88
669.854	79.88
670.057	74.88
670.259	88.88
670.462	87.88
670.665	74.88
670.867	85.88
671.07	77.88
671.272	87.88
671.475	92.88
671.677	77.88
671.88	79.88
672.082	75.88
672.284	84.88
672.487	84.88
672.689	84.88
672.892	79.88
