Data from Ni(NO3)2@0.25M.TitratingCurve.Agarose3%dH2O.NegLispCup.LampEnergy10.LIBS07252019_HRD10591_18-05-25-566.txt Node
Date: Thu Jul 25 18:05:25 EDT 2019
User: cochatt
Spectrometer: HR+D1059
Trigger mode: 1
Integration Time (sec): 1.000000E-1
Scans to average: 1
Electric dark correction enabled: true
Nonlinearity correction enabled: false
Boxcar width: 0
XAxis mode: Wavelengths
Number of Pixels in Spectrum: 2048
>>>>>Begin Spectral Data<<<<<
223.165	-13.31
223.4	-13.31
223.635	-13.31
223.869	-18.31
224.104	-16.31
224.338	3.69
224.573	-19.31
224.808	-11.31
225.042	-8.31
225.277	-21.31
225.511	-2.31
225.746	6.69
225.98	-8.31
226.215	12.69
226.449	19.69
226.683	18.69
226.918	31.69
227.152	25.69
227.387	28.69
227.621	27.69
227.856	34.69
228.09	42.69
228.324	54.69
228.559	55.69
228.793	67.69
229.027	94.69
229.262	90.69
229.496	97.69
229.73	95.69
229.964	104.69
230.199	114.69
230.433	109.69
230.667	106.69
230.901	104.69
231.136	104.69
231.37	100.69
231.604	105.69
231.838	121.69
232.072	108.69
232.306	123.69
232.541	121.69
232.775	127.69
233.009	124.69
233.243	119.69
233.477	114.69
233.711	121.69
233.945	123.69
234.179	119.69
234.413	123.69
234.647	125.69
234.881	112.69
235.115	122.69
235.349	124.69
235.583	130.69
235.817	123.69
236.051	111.69
236.285	117.69
236.519	125.69
236.753	114.69
236.987	123.69
237.221	128.69
237.455	111.69
237.689	101.69
237.922	123.69
238.156	119.69
238.39	105.69
238.624	128.69
238.858	119.69
239.091	122.69
239.325	122.69
239.559	131.69
239.793	135.69
240.027	127.69
240.26	131.69
240.494	110.69
240.728	117.69
240.961	136.69
241.195	130.69
241.429	136.69
241.662	125.69
241.896	130.69
242.13	135.69
242.363	143.69
242.597	134.69
242.83	159.69
243.064	127.69
243.298	145.69
243.531	147.69
243.765	153.69
243.998	149.69
244.232	157.69
244.465	155.69
244.699	150.69
244.932	161.69
245.166	157.69
245.399	164.69
245.633	142.69
245.866	148.69
246.099	165.69
246.333	164.69
246.566	167.69
246.8	155.69
247.033	155.69
247.266	153.69
247.5	176.69
247.733	163.69
247.966	174.69
248.2	167.69
248.433	170.69
248.666	171.69
248.899	168.69
249.133	178.69
249.366	171.69
249.599	183.69
249.832	179.69
250.066	185.69
250.299	158.69
250.532	192.69
250.765	197.69
250.998	183.69
251.231	168.69
251.465	170.69
251.698	187.69
251.931	195.69
252.164	176.69
252.397	193.69
252.63	197.69
252.863	204.69
253.096	196.69
253.329	197.69
253.562	186.69
253.795	179.69
254.028	211.69
254.261	210.69
254.494	201.69
254.727	207.69
254.96	193.69
255.193	202.69
255.426	189.69
255.659	192.69
255.892	194.69
256.124	217.69
256.357	201.69
256.59	198.69
256.823	196.69
257.056	216.69
257.289	213.69
257.521	223.69
257.754	199.69
257.987	212.69
258.22	199.69
258.452	211.69
258.685	212.69
258.918	218.69
259.151	215.69
259.383	219.69
259.616	224.69
259.849	216.69
260.081	212.69
260.314	239.69
260.547	242.69
260.779	216.69
261.012	235.69
261.244	209.69
261.477	236.69
261.71	235.69
261.942	235.69
262.175	222.69
262.407	228.69
262.64	264.69
262.872	241.69
263.105	228.69
263.337	241.69
263.57	243.69
263.802	242.69
264.035	231.69
264.267	226.69
264.499	257.69
264.732	256.69
264.964	240.69
265.197	235.69
265.429	245.69
265.661	262.69
265.894	233.69
266.126	257.69
266.358	260.69
266.591	262.69
266.823	267.69
267.055	262.69
267.287	270.69
267.52	261.69
267.752	260.69
267.984	250.69
268.216	259.69
268.448	254.69
268.681	255.69
268.913	264.69
269.145	272.69
269.377	261.69
269.609	251.69
269.841	267.69
270.073	265.69
270.306	268.69
270.538	261.69
270.77	264.69
271.002	265.69
271.234	264.69
271.466	263.69
271.698	259.69
271.93	279.69
272.162	264.69
272.394	282.69
272.626	279.69
272.858	289.69
273.09	290.69
273.322	281.69
273.553	261.69
273.785	285.69
274.017	287.69
274.249	286.69
274.481	273.69
274.713	292.69
274.945	284.69
275.176	282.69
275.408	281.69
275.64	294.69
275.872	290.69
276.104	277.69
276.335	291.69
276.567	287.69
276.799	282.69
277.031	291.69
277.262	285.69
277.494	280.69
277.726	287.69
277.957	287.69
278.189	285.69
278.421	313.69
278.652	293.69
278.884	292.69
279.115	303.69
279.347	316.69
279.579	304.69
279.81	312.69
280.042	297.69
280.273	294.69
280.505	305.69
280.736	318.69
280.968	329.69
281.199	312.69
281.431	326.69
281.662	330.69
281.894	315.69
282.125	307.69
282.356	317.69
282.588	310.69
282.819	339.69
283.051	326.69
283.282	333.69
283.513	309.69
283.745	319.69
283.976	308.69
284.207	315.69
284.439	324.69
284.67	317.69
284.901	328.69
285.132	327.69
285.364	331.69
285.595	343.69
285.826	313.69
286.057	339.69
286.288	330.69
286.52	337.69
286.751	323.69
286.982	336.69
287.213	333.69
287.444	342.69
287.675	357.69
287.906	332.69
288.138	351.69
288.369	340.69
288.6	342.69
288.831	337.69
289.062	349.69
289.293	346.69
289.524	331.69
289.755	340.69
289.986	335.69
290.217	355.69
290.448	352.69
290.679	348.69
290.91	342.69
291.141	352.69
291.371	357.69
291.602	358.69
291.833	344.69
292.064	354.69
292.295	340.69
292.526	355.69
292.757	343.69
292.987	347.69
293.218	376.69
293.449	361.69
293.68	346.69
293.91	349.69
294.141	348.69
294.372	345.69
294.603	356.69
294.833	350.69
295.064	360.69
295.295	336.69
295.525	358.69
295.756	364.69
295.987	368.69
296.217	343.69
296.448	351.69
296.679	351.69
296.909	361.69
297.14	374.69
297.37	373.69
297.601	376.69
297.831	380.69
298.062	370.69
298.292	368.69
298.523	387.69
298.753	372.69
298.984	375.69
299.214	381.69
299.445	379.69
299.675	380.69
299.905	383.69
300.136	361.69
300.366	401.69
300.597	394.69
300.827	391.69
301.057	374.69
301.288	389.69
301.518	401.69
301.748	403.69
301.979	404.69
302.209	392.69
302.439	383.69
302.669	409.69
302.9	394.69
303.13	374.69
303.36	392.69
303.59	387.69
303.82	387.69
304.051	393.69
304.281	410.69
304.511	386.69
304.741	387.69
304.971	391.69
305.201	389.69
305.431	409.69
305.661	399.69
305.891	403.69
306.121	390.69
306.352	409.69
306.582	389.69
306.812	387.69
307.042	395.69
307.272	400.69
307.502	387.69
307.731	387.69
307.961	402.69
308.191	397.69
308.421	399.69
308.651	396.69
308.881	389.69
309.111	398.69
309.341	397.69
309.571	387.69
309.8	395.69
310.03	378.69
310.26	388.69
310.49	371.69
310.72	379.69
310.949	403.69
311.179	399.69
311.409	395.69
311.639	403.69
311.868	418.69
312.098	403.69
312.328	436.69
312.557	420.69
312.787	421.69
313.017	423.69
313.246	410.69
313.476	431.69
313.706	428.69
313.935	420.69
314.165	431.69
314.394	428.69
314.624	440.69
314.853	416.69
315.083	424.69
315.312	420.69
315.542	421.69
315.771	417.69
316.001	408.69
316.23	440.69
316.46	429.69
316.689	419.69
316.919	427.69
317.148	420.69
317.377	428.69
317.607	436.69
317.836	426.69
318.065	413.69
318.295	436.69
318.524	431.69
318.753	413.69
318.983	406.69
319.212	417.69
319.441	429.69
319.67	430.69
319.9	434.69
320.129	409.69
320.358	433.69
320.587	440.69
320.816	437.69
321.046	426.69
321.275	465.69
321.504	435.69
321.733	406.69
321.962	446.69
322.191	454.69
322.42	451.69
322.649	445.69
322.878	463.69
323.108	420.69
323.337	439.69
323.566	455.69
323.795	457.69
324.024	461.69
324.253	455.69
324.482	452.69
324.71	471.69
324.939	464.69
325.168	485.69
325.397	468.69
325.626	478.69
325.855	490.69
326.084	482.69
326.313	496.69
326.542	508.69
326.77	506.69
326.999	504.69
327.228	493.69
327.457	494.69
327.686	509.69
327.914	488.69
328.143	498.69
328.372	490.69
328.6	473.69
328.829	468.69
329.058	498.69
329.287	496.69
329.515	499.69
329.744	507.69
329.972	506.69
330.201	509.69
330.43	528.69
330.658	524.69
330.887	512.69
331.115	527.69
331.344	533.69
331.572	547.69
331.801	564.69
332.03	543.69
332.258	564.69
332.486	602.69
332.715	580.69
332.943	581.69
333.172	627.69
333.4	649.69
333.629	649.69
333.857	657.69
334.085	673.69
334.314	662.69
334.542	667.69
334.771	655.69
334.999	657.69
335.227	636.69
335.455	662.69
335.684	635.69
335.912	619.69
336.14	641.69
336.369	609.69
336.597	616.69
336.825	596.69
337.053	608.69
337.281	593.69
337.51	580.69
337.738	561.69
337.966	573.69
338.194	580.69
338.422	577.69
338.65	552.69
338.878	565.69
339.106	564.69
339.334	556.69
339.562	566.69
339.79	552.69
340.018	541.69
340.246	548.69
340.474	539.69
340.702	539.69
340.93	546.69
341.158	522.69
341.386	541.69
341.614	552.69
341.842	548.69
342.07	536.69
342.298	531.69
342.526	527.69
342.754	543.69
342.981	533.69
343.209	550.69
343.437	603.69
343.665	597.69
343.893	630.69
344.12	647.69
344.348	651.69
344.576	611.69
344.804	589.69
345.031	563.69
345.259	550.69
345.487	551.69
345.714	541.69
345.942	552.69
346.17	558.69
346.397	545.69
346.625	526.69
346.853	515.69
347.08	531.69
347.308	537.69
347.535	541.69
347.763	507.69
347.99	535.69
348.218	538.69
348.445	530.69
348.673	533.69
348.9	522.69
349.128	505.69
349.355	508.69
349.583	523.69
349.81	521.69
350.037	520.69
350.265	499.69
350.492	520.69
350.72	515.69
350.947	524.69
351.174	517.69
351.402	519.69
351.629	511.69
351.856	515.69
352.083	502.69
352.311	530.69
352.538	531.69
352.765	504.69
352.992	508.69
353.22	503.69
353.447	479.69
353.674	508.69
353.901	513.69
354.128	482.69
354.355	501.69
354.583	495.69
354.81	487.69
355.037	501.69
355.264	510.69
355.491	500.69
355.718	486.69
355.945	522.69
356.172	525.69
356.399	502.69
356.626	509.69
356.853	528.69
357.08	510.69
357.307	505.69
357.534	509.69
357.761	519.69
357.988	535.69
358.215	519.69
358.441	496.69
358.668	502.69
358.895	505.69
359.122	509.69
359.349	532.69
359.576	507.69
359.802	485.69
360.029	503.69
360.256	524.69
360.483	497.69
360.709	485.69
360.936	515.69
361.163	507.69
361.39	499.69
361.616	505.69
361.843	494.69
362.07	509.69
362.296	532.69
362.523	508.69
362.749	506.69
362.976	504.69
363.203	501.69
363.429	507.69
363.656	507.69
363.882	487.69
364.109	511.69
364.335	504.69
364.562	508.69
364.788	496.69
365.015	470.69
365.241	482.69
365.468	506.69
365.694	492.69
365.92	487.69
366.147	484.69
366.373	533.69
366.599	511.69
366.826	488.69
367.052	488.69
367.278	476.69
367.505	497.69
367.731	515.69
367.957	502.69
368.184	515.69
368.41	505.69
368.636	487.69
368.862	513.69
369.089	524.69
369.315	515.69
369.541	515.69
369.767	534.69
369.993	501.69
370.219	509.69
370.445	513.69
370.672	533.69
370.898	531.69
371.124	551.69
371.35	513.69
371.576	538.69
371.802	534.69
372.028	565.69
372.254	551.69
372.48	543.69
372.706	538.69
372.932	543.69
373.158	560.69
373.384	538.69
373.61	532.69
373.835	538.69
374.061	540.69
374.287	557.69
374.513	544.69
374.739	568.69
374.965	575.69
375.191	588.69
375.416	587.69
375.642	557.69
375.868	571.69
376.094	549.69
376.319	557.69
376.545	555.69
376.771	571.69
376.997	538.69
377.222	543.69
377.448	535.69
377.674	536.69
377.899	541.69
378.125	539.69
378.35	533.69
378.576	528.69
378.802	505.69
379.027	525.69
379.253	534.69
379.478	509.69
379.704	522.69
379.929	517.69
380.155	537.69
380.38	528.69
380.606	520.69
380.831	541.69
381.057	534.69
381.282	531.69
381.507	526.69
381.733	538.69
381.958	528.69
382.184	521.69
382.409	541.69
382.634	535.69
382.86	562.69
383.085	560.69
383.31	559.69
383.535	563.69
383.761	572.69
383.986	610.69
384.211	599.69
384.436	623.69
384.662	616.69
384.887	635.69
385.112	637.69
385.337	628.69
385.562	626.69
385.787	627.69
386.013	639.69
386.238	641.69
386.463	637.69
386.688	635.69
386.913	631.69
387.138	620.69
387.363	648.69
387.588	633.69
387.813	620.69
388.038	608.69
388.263	635.69
388.488	617.69
388.713	601.69
388.938	620.69
389.163	607.69
389.387	619.69
389.612	602.69
389.837	626.69
390.062	631.69
390.287	641.69
390.512	628.69
390.736	642.69
390.961	654.69
391.186	658.69
391.411	662.69
391.636	701.69
391.86	715.69
392.085	716.69
392.31	713.69
392.534	687.69
392.759	668.69
392.984	677.69
393.208	671.69
393.433	665.69
393.658	668.69
393.882	683.69
394.107	687.69
394.331	671.69
394.556	659.69
394.78	683.69
395.005	697.69
395.229	673.69
395.454	691.69
395.678	709.69
395.903	721.69
396.127	695.69
396.352	688.69
396.576	678.69
396.801	665.69
397.025	676.69
397.249	711.69
397.474	704.69
397.698	736.69
397.922	731.69
398.147	731.69
398.371	727.69
398.595	755.69
398.82	807.69
399.044	866.69
399.268	913.69
399.492	1008.69
399.717	1153.69
399.941	1108.69
400.165	1043.69
400.389	968.69
400.613	897.69
400.837	835.69
401.062	839.69
401.286	808.69
401.51	807.69
401.734	784.69
401.958	812.69
402.182	794.69
402.406	843.69
402.63	845.69
402.854	848.69
403.078	843.69
403.302	844.69
403.526	869.69
403.75	858.69
403.974	899.69
404.198	875.69
404.422	913.69
404.645	899.69
404.869	875.69
405.093	860.69
405.317	883.69
405.541	874.69
405.765	880.69
405.988	915.69
406.212	877.69
406.436	871.69
406.66	913.69
406.883	915.69
407.107	955.69
407.331	979.69
407.555	993.69
407.778	1014.69
408.002	997.69
408.226	976.69
408.449	977.69
408.673	903.69
408.896	899.69
409.12	915.69
409.344	943.69
409.567	909.69
409.791	903.69
410.014	890.69
410.238	875.69
410.461	908.69
410.685	893.69
410.908	861.69
411.132	830.69
411.355	842.69
411.578	850.69
411.802	839.69
412.025	852.69
412.249	845.69
412.472	876.69
412.695	809.69
412.919	829.69
413.142	809.69
413.365	820.69
413.589	823.69
413.812	803.69
414.035	781.69
414.258	806.69
414.482	821.69
414.705	838.69
414.928	839.69
415.151	802.69
415.374	836.69
415.597	821.69
415.821	805.69
416.044	802.69
416.267	802.69
416.49	755.69
416.713	779.69
416.936	831.69
417.159	803.69
417.382	797.69
417.605	789.69
417.828	806.69
418.051	816.69
418.274	813.69
418.497	847.69
418.72	824.69
418.943	828.69
419.166	882.69
419.389	917.69
419.611	896.69
419.834	870.69
420.057	845.69
420.28	839.69
420.503	818.69
420.726	805.69
420.948	797.69
421.171	803.69
421.394	808.69
421.617	812.69
421.839	804.69
422.062	796.69
422.285	807.69
422.507	822.69
422.73	822.69
422.953	824.69
423.175	826.69
423.398	856.69
423.621	830.69
423.843	855.69
424.066	832.69
424.288	862.69
424.511	834.69
424.733	833.69
424.956	823.69
425.178	824.69
425.401	841.69
425.623	820.69
425.846	762.69
426.068	781.69
426.291	784.69
426.513	794.69
426.735	781.69
426.958	798.69
427.18	751.69
427.402	763.69
427.625	757.69
427.847	748.69
428.069	732.69
428.292	736.69
428.514	727.69
428.736	745.69
428.958	770.69
429.181	751.69
429.403	746.69
429.625	731.69
429.847	723.69
430.069	716.69
430.292	723.69
430.514	705.69
430.736	692.69
430.958	736.69
431.18	736.69
431.402	753.69
431.624	732.69
431.846	735.69
432.068	745.69
432.29	764.69
432.512	751.69
432.734	737.69
432.956	735.69
433.178	749.69
433.4	748.69
433.622	736.69
433.844	756.69
434.066	751.69
434.287	751.69
434.509	769.69
434.731	811.69
434.953	824.69
435.175	840.69
435.397	824.69
435.618	797.69
435.84	746.69
436.062	743.69
436.284	747.69
436.505	754.69
436.727	766.69
436.949	759.69
437.17	743.69
437.392	741.69
437.614	727.69
437.835	704.69
438.057	691.69
438.278	689.69
438.5	695.69
438.721	717.69
438.943	744.69
439.165	727.69
439.386	736.69
439.608	737.69
439.829	776.69
440.05	738.69
440.272	759.69
440.493	736.69
440.715	773.69
440.936	785.69
441.158	788.69
441.379	794.69
441.6	827.69
441.822	826.69
442.043	846.69
442.264	845.69
442.486	815.69
442.707	819.69
442.928	808.69
443.149	865.69
443.371	822.69
443.592	864.69
443.813	856.69
444.034	848.69
444.255	854.69
444.476	911.69
444.698	929.69
444.919	961.69
445.14	1064.69
445.361	955.69
445.582	868.69
445.803	825.69
446.024	795.69
446.245	800.69
446.466	778.69
446.687	768.69
446.908	762.69
447.129	769.69
447.35	748.69
447.571	723.69
447.792	735.69
448.013	702.69
448.234	705.69
448.455	709.69
448.675	695.69
448.896	688.69
449.117	694.69
449.338	691.69
449.559	698.69
449.779	687.69
450	688.69
450.221	667.69
450.442	720.69
450.662	699.69
450.883	673.69
451.104	726.69
451.324	717.69
451.545	721.69
451.766	720.69
451.986	685.69
452.207	711.69
452.428	705.69
452.648	652.69
452.869	661.69
453.089	665.69
453.31	651.69
453.53	642.69
453.751	652.69
453.971	660.69
454.192	675.69
454.412	657.69
454.633	659.69
454.853	688.69
455.073	674.69
455.294	637.69
455.514	637.69
455.734	654.69
455.955	656.69
456.175	639.69
456.395	612.69
456.616	653.69
456.836	637.69
457.056	626.69
457.276	620.69
457.497	655.69
457.717	664.69
457.937	647.69
458.157	650.69
458.377	660.69
458.598	687.69
458.818	703.69
459.038	708.69
459.258	722.69
459.478	747.69
459.698	746.69
459.918	770.69
460.138	812.69
460.358	856.69
460.578	869.69
460.798	897.69
461.018	873.69
461.238	882.69
461.458	881.69
461.678	853.69
461.898	856.69
462.118	921.69
462.338	925.69
462.558	952.69
462.777	994.69
462.997	1081.69
463.217	1139.69
463.437	1119.69
463.657	1069.69
463.876	1041.69
464.096	987.69
464.316	1018.69
464.536	1023.69
464.755	985.69
464.975	907.69
465.195	890.69
465.414	838.69
465.634	825.69
465.854	788.69
466.073	781.69
466.293	747.69
466.512	746.69
466.732	721.69
466.951	738.69
467.171	728.69
467.391	718.69
467.61	709.69
467.829	724.69
468.049	725.69
468.268	696.69
468.488	675.69
468.707	711.69
468.927	700.69
469.146	703.69
469.365	710.69
469.585	725.69
469.804	729.69
470.023	744.69
470.243	732.69
470.462	735.69
470.681	739.69
470.901	723.69
471.12	727.69
471.339	723.69
471.558	711.69
471.777	706.69
471.997	711.69
472.216	717.69
472.435	694.69
472.654	675.69
472.873	660.69
473.092	663.69
473.311	644.69
473.53	669.69
473.749	666.69
473.968	675.69
474.187	662.69
474.406	669.69
474.625	688.69
474.844	677.69
475.063	689.69
475.282	685.69
475.501	657.69
475.72	673.69
475.939	708.69
476.158	680.69
476.377	709.69
476.596	682.69
476.814	728.69
477.033	708.69
477.252	745.69
477.471	737.69
477.69	725.69
477.908	749.69
478.127	789.69
478.346	805.69
478.564	796.69
478.783	812.69
479.002	833.69
479.22	821.69
479.439	832.69
479.658	808.69
479.876	829.69
480.095	849.69
480.313	855.69
480.532	849.69
480.751	873.69
480.969	809.69
481.188	819.69
481.406	815.69
481.624	793.69
481.843	764.69
482.061	784.69
482.28	751.69
482.498	754.69
482.717	748.69
482.935	743.69
483.153	756.69
483.372	769.69
483.59	764.69
483.808	766.69
484.027	743.69
484.245	789.69
484.463	765.69
484.681	765.69
484.9	811.69
485.118	782.69
485.336	806.69
485.554	790.69
485.772	800.69
485.99	804.69
486.209	786.69
486.427	781.69
486.645	783.69
486.863	805.69
487.081	816.69
487.299	780.69
487.517	799.69
487.735	793.69
487.953	844.69
488.171	811.69
488.389	779.69
488.607	780.69
488.825	795.69
489.043	767.69
489.261	795.69
489.479	781.69
489.696	790.69
489.914	797.69
490.132	819.69
490.35	801.69
490.568	819.69
490.786	815.69
491.003	823.69
491.221	836.69
491.439	822.69
491.657	831.69
491.874	839.69
492.092	843.69
492.31	839.69
492.527	813.69
492.745	829.69
492.963	840.69
493.18	820.69
493.398	815.69
493.615	844.69
493.833	850.69
494.05	836.69
494.268	853.69
494.485	869.69
494.703	849.69
494.92	865.69
495.138	863.69
495.355	892.69
495.573	876.69
495.79	880.69
496.008	875.69
496.225	867.69
496.442	872.69
496.66	868.69
496.877	921.69
497.094	905.69
497.312	958.69
497.529	958.69
497.746	979.69
497.963	1006.69
498.181	1034.69
498.398	1083.69
498.615	1177.69
498.832	1225.69
499.049	1336.69
499.267	1436.69
499.484	1571.69
499.701	1719.69
499.918	1843.69
500.135	2098.69
500.352	2324.69
500.569	2362.69
500.786	2332.69
501.003	2223.69
501.22	2021.69
501.437	1784.69
501.654	1620.69
501.871	1459.69
502.088	1379.69
502.305	1292.69
502.522	1247.69
502.739	1159.69
502.956	1119.69
503.172	1037.69
503.389	1031.69
503.606	1004.69
503.823	995.69
504.04	985.69
504.256	988.69
504.473	988.69
504.69	993.69
504.907	963.69
505.123	930.69
505.34	888.69
505.557	847.69
505.773	852.69
505.99	801.69
506.207	819.69
506.423	764.69
506.64	756.69
506.856	770.69
507.073	775.69
507.289	778.69
507.506	767.69
507.722	747.69
507.939	753.69
508.155	765.69
508.372	738.69
508.588	732.69
508.805	705.69
509.021	719.69
509.238	693.69
509.454	704.69
509.67	691.69
509.887	700.69
510.103	696.69
510.319	698.69
510.536	664.69
510.752	679.69
510.968	698.69
511.184	684.69
511.401	707.69
511.617	679.69
511.833	703.69
512.049	679.69
512.265	681.69
512.481	693.69
512.698	665.69
512.914	701.69
513.13	690.69
513.346	680.69
513.562	687.69
513.778	704.69
513.994	701.69
514.21	683.69
514.426	699.69
514.642	701.69
514.858	721.69
515.074	729.69
515.29	709.69
515.506	691.69
515.721	705.69
515.937	740.69
516.153	755.69
516.369	748.69
516.585	805.69
516.801	803.69
517.016	836.69
517.232	900.69
517.448	911.69
517.664	919.69
517.879	929.69
518.095	943.69
518.311	923.69
518.527	871.69
518.742	849.69
518.958	807.69
519.173	821.69
519.389	742.69
519.605	756.69
519.82	730.69
520.036	733.69
520.251	704.69
520.467	707.69
520.682	694.69
520.898	681.69
521.113	691.69
521.329	669.69
521.544	662.69
521.76	653.69
521.975	636.69
522.19	645.69
522.406	649.69
522.621	661.69
522.836	653.69
523.052	639.69
523.267	626.69
523.482	631.69
523.698	618.69
523.913	616.69
524.128	618.69
524.343	634.69
524.559	637.69
524.774	635.69
524.989	648.69
525.204	633.69
525.419	630.69
525.634	641.69
525.849	643.69
526.064	632.69
526.28	630.69
526.495	609.69
526.71	633.69
526.925	616.69
527.14	583.69
527.355	592.69
527.57	593.69
527.785	597.69
527.999	606.69
528.214	600.69
528.429	615.69
528.644	611.69
528.859	660.69
529.074	613.69
529.289	626.69
529.503	623.69
529.718	627.69
529.933	608.69
530.148	593.69
530.363	621.69
530.577	619.69
530.792	590.69
531.007	614.69
531.221	630.69
531.436	605.69
531.651	610.69
531.865	604.69
532.08	600.69
532.295	623.69
532.509	607.69
532.724	614.69
532.938	629.69
533.153	597.69
533.367	612.69
533.582	609.69
533.796	651.69
534.011	619.69
534.225	586.69
534.44	600.69
534.654	614.69
534.868	600.69
535.083	614.69
535.297	598.69
535.511	597.69
535.726	581.69
535.94	603.69
536.154	556.69
536.369	570.69
536.583	567.69
536.797	597.69
537.011	579.69
537.225	582.69
537.44	552.69
537.654	567.69
537.868	552.69
538.082	566.69
538.296	553.69
538.51	573.69
538.724	576.69
538.938	553.69
539.153	550.69
539.367	549.69
539.581	574.69
539.795	568.69
540.009	559.69
540.222	569.69
540.436	577.69
540.65	573.69
540.864	582.69
541.078	572.69
541.292	581.69
541.506	584.69
541.72	553.69
541.934	548.69
542.147	571.69
542.361	568.69
542.575	538.69
542.789	560.69
543.002	539.69
543.216	570.69
543.43	568.69
543.644	581.69
543.857	546.69
544.071	568.69
544.285	574.69
544.498	578.69
544.712	563.69
544.925	562.69
545.139	576.69
545.352	603.69
545.566	589.69
545.779	580.69
545.993	594.69
546.206	578.69
546.42	592.69
546.633	593.69
546.847	577.69
547.06	569.69
547.274	567.69
547.487	570.69
547.7	576.69
547.914	581.69
548.127	596.69
548.34	589.69
548.554	581.69
548.767	602.69
548.98	579.69
549.193	576.69
549.407	557.69
549.62	577.69
549.833	624.69
550.046	578.69
550.259	589.69
550.473	570.69
550.686	578.69
550.899	560.69
551.112	571.69
551.325	568.69
551.538	548.69
551.751	536.69
551.964	547.69
552.177	567.69
552.39	587.69
552.603	583.69
552.816	607.69
553.029	632.69
553.242	631.69
553.455	620.69
553.667	651.69
553.88	620.69
554.093	599.69
554.306	585.69
554.519	577.69
554.732	566.69
554.944	565.69
555.157	564.69
555.37	559.69
555.583	548.69
555.795	533.69
556.008	528.69
556.221	507.69
556.433	529.69
556.646	521.69
556.859	515.69
557.071	489.69
557.284	511.69
557.496	513.69
557.709	497.69
557.921	491.69
558.134	487.69
558.346	497.69
558.559	499.69
558.771	497.69
558.984	496.69
559.196	496.69
559.409	480.69
559.621	476.69
559.833	469.69
560.046	476.69
560.258	467.69
560.47	466.69
560.683	480.69
560.895	484.69
561.107	475.69
561.32	473.69
561.532	454.69
561.744	479.69
561.956	450.69
562.168	473.69
562.381	459.69
562.593	458.69
562.805	478.69
563.017	464.69
563.229	488.69
563.441	464.69
563.653	476.69
563.865	472.69
564.077	509.69
564.289	517.69
564.501	484.69
564.713	508.69
564.925	499.69
565.137	535.69
565.349	529.69
565.561	534.69
565.773	559.69
565.985	585.69
566.197	630.69
566.408	645.69
566.62	704.69
566.832	729.69
567.044	756.69
567.255	744.69
567.467	780.69
567.679	815.69
567.891	853.69
568.102	843.69
568.314	812.69
568.526	761.69
568.737	662.69
568.949	636.69
569.161	575.69
569.372	567.69
569.584	532.69
569.795	529.69
570.007	514.69
570.218	511.69
570.43	520.69
570.641	496.69
570.853	493.69
571.064	475.69
571.276	475.69
571.487	475.69
571.698	445.69
571.91	466.69
572.121	441.69
572.333	425.69
572.544	435.69
572.755	416.69
572.966	407.69
573.178	419.69
573.389	399.69
573.6	407.69
573.811	397.69
574.023	410.69
574.234	389.69
574.445	378.69
574.656	400.69
574.867	403.69
575.078	387.69
575.289	394.69
575.501	393.69
575.712	369.69
575.923	386.69
576.134	366.69
576.345	385.69
576.556	379.69
576.767	369.69
576.978	377.69
577.188	368.69
577.399	381.69
577.61	357.69
577.821	357.69
578.032	341.69
578.243	335.69
578.454	350.69
578.665	322.69
578.875	354.69
579.086	356.69
579.297	338.69
579.508	334.69
579.718	327.69
579.929	338.69
580.14	337.69
580.35	337.69
580.561	333.69
580.772	343.69
580.982	344.69
581.193	344.69
581.403	343.69
581.614	333.69
581.825	352.69
582.035	321.69
582.246	332.69
582.456	326.69
582.667	330.69
582.877	336.69
583.087	335.69
583.298	332.69
583.508	341.69
583.719	311.69
583.929	333.69
584.139	331.69
584.35	320.69
584.56	323.69
584.77	322.69
584.981	302.69
585.191	314.69
585.401	324.69
585.611	313.69
585.821	323.69
586.032	319.69
586.242	315.69
586.452	322.69
586.662	330.69
586.872	322.69
587.082	340.69
587.292	316.69
587.502	320.69
587.713	325.69
587.923	305.69
588.133	321.69
588.343	336.69
588.553	331.69
588.762	331.69
588.972	315.69
589.182	327.69
589.392	334.69
589.602	328.69
589.812	324.69
590.022	321.69
590.232	308.69
590.441	299.69
590.651	339.69
590.861	327.69
591.071	327.69
591.281	336.69
591.49	330.69
591.7	336.69
591.91	360.69
592.119	343.69
592.329	333.69
592.539	345.69
592.748	351.69
592.958	380.69
593.167	379.69
593.377	389.69
593.587	386.69
593.796	395.69
594.006	401.69
594.215	411.69
594.424	372.69
594.634	378.69
594.843	389.69
595.053	351.69
595.262	342.69
595.472	331.69
595.681	307.69
595.89	328.69
596.1	320.69
596.309	307.69
596.518	312.69
596.727	313.69
596.937	304.69
597.146	285.69
597.355	299.69
597.564	288.69
597.774	298.69
597.983	297.69
598.192	267.69
598.401	282.69
598.61	290.69
598.819	290.69
599.028	271.69
599.237	260.69
599.446	279.69
599.655	290.69
599.864	280.69
600.073	272.69
600.282	259.69
600.491	269.69
600.7	290.69
600.909	277.69
601.118	274.69
601.327	259.69
601.536	276.69
601.745	277.69
601.953	280.69
602.162	254.69
602.371	267.69
602.58	259.69
602.789	264.69
602.997	268.69
603.206	253.69
603.415	267.69
603.623	271.69
603.832	264.69
604.041	239.69
604.249	261.69
604.458	255.69
604.666	256.69
604.875	252.69
605.084	262.69
605.292	265.69
605.501	249.69
605.709	249.69
605.918	260.69
606.126	260.69
606.334	259.69
606.543	241.69
606.751	247.69
606.96	236.69
607.168	257.69
607.376	248.69
607.585	247.69
607.793	261.69
608.001	244.69
608.21	236.69
608.418	236.69
608.626	226.69
608.834	240.69
609.043	246.69
609.251	244.69
609.459	253.69
609.667	231.69
609.875	232.69
610.083	217.69
610.291	243.69
610.499	244.69
610.707	240.69
610.916	235.69
611.124	258.69
611.332	247.69
611.54	225.69
611.748	239.69
611.955	251.69
612.163	241.69
612.371	228.69
612.579	243.69
612.787	228.69
612.995	238.69
613.203	258.69
613.411	228.69
613.618	247.69
613.826	257.69
614.034	234.69
614.242	226.69
614.449	241.69
614.657	225.69
614.865	227.69
615.072	237.69
615.28	247.69
615.488	228.69
615.695	235.69
615.903	251.69
616.111	244.69
616.318	235.69
616.526	247.69
616.733	239.69
616.941	236.69
617.148	245.69
617.356	233.69
617.563	245.69
617.771	232.69
617.978	242.69
618.185	249.69
618.393	216.69
618.6	228.69
618.807	213.69
619.015	219.69
619.222	234.69
619.429	239.69
619.637	237.69
619.844	221.69
620.051	216.69
620.258	252.69
620.466	221.69
620.673	216.69
620.88	217.69
621.087	226.69
621.294	215.69
621.501	219.69
621.708	220.69
621.915	224.69
622.122	211.69
622.329	223.69
622.536	235.69
622.743	199.69
622.95	231.69
623.157	214.69
623.364	200.69
623.571	207.69
623.778	214.69
623.985	224.69
624.192	221.69
624.399	206.69
624.606	196.69
624.812	207.69
625.019	214.69
625.226	202.69
625.433	199.69
625.639	197.69
625.846	187.69
626.053	201.69
626.259	195.69
626.466	197.69
626.673	207.69
626.879	204.69
627.086	210.69
627.293	199.69
627.499	220.69
627.706	205.69
627.912	191.69
628.119	195.69
628.325	191.69
628.532	201.69
628.738	202.69
628.945	217.69
629.151	209.69
629.357	204.69
629.564	205.69
629.77	197.69
629.976	192.69
630.183	199.69
630.389	205.69
630.595	210.69
630.802	193.69
631.008	185.69
631.214	185.69
631.42	193.69
631.627	205.69
631.833	197.69
632.039	187.69
632.245	175.69
632.451	191.69
632.657	186.69
632.863	172.69
633.069	196.69
633.275	183.69
633.481	188.69
633.688	176.69
633.893	193.69
634.099	189.69
634.305	189.69
634.511	178.69
634.717	177.69
634.923	175.69
635.129	173.69
635.335	188.69
635.541	164.69
635.747	189.69
635.952	177.69
636.158	182.69
636.364	191.69
636.57	183.69
636.775	180.69
636.981	188.69
637.187	165.69
637.392	183.69
637.598	185.69
637.804	170.69
638.009	188.69
638.215	188.69
638.421	185.69
638.626	183.69
638.832	180.69
639.037	177.69
639.243	172.69
639.448	166.69
639.654	164.69
639.859	181.69
640.065	170.69
640.27	177.69
640.475	155.69
640.681	187.69
640.886	162.69
641.091	182.69
641.297	171.69
641.502	155.69
641.707	178.69
641.913	158.69
642.118	160.69
642.323	166.69
642.528	175.69
642.733	179.69
642.939	163.69
643.144	171.69
643.349	166.69
643.554	162.69
643.759	175.69
643.964	165.69
644.169	172.69
644.374	164.69
644.579	171.69
644.784	145.69
644.989	167.69
645.194	179.69
645.399	161.69
645.604	167.69
645.809	170.69
646.014	168.69
646.219	153.69
646.423	177.69
646.628	165.69
646.833	165.69
647.038	163.69
647.243	159.69
647.447	168.69
647.652	170.69
647.857	167.69
648.062	152.69
648.266	170.69
648.471	165.69
648.676	189.69
648.88	161.69
649.085	179.69
649.289	170.69
649.494	171.69
649.698	160.69
649.903	171.69
650.107	163.69
650.312	165.69
650.516	161.69
650.721	168.69
650.925	150.69
651.13	157.69
651.334	149.69
651.539	130.69
651.743	140.69
651.947	151.69
652.152	147.69
652.356	134.69
652.56	139.69
652.764	147.69
652.969	151.69
653.173	152.69
653.377	141.69
653.581	128.69
653.785	140.69
653.99	120.69
654.194	129.69
654.398	124.69
654.602	125.69
654.806	134.69
655.01	120.69
655.214	146.69
655.418	140.69
655.622	109.69
655.826	132.69
656.03	130.69
656.234	123.69
656.438	136.69
656.642	131.69
656.846	117.69
657.049	111.69
657.253	105.69
657.457	121.69
657.661	121.69
657.865	132.69
658.068	111.69
658.272	105.69
658.476	123.69
658.68	116.69
658.883	102.69
659.087	100.69
659.291	104.69
659.494	92.69
659.698	91.69
659.901	103.69
660.105	103.69
660.309	102.69
660.512	87.69
660.716	103.69
660.919	102.69
661.123	106.69
661.326	82.69
661.53	94.69
661.733	91.69
661.936	78.69
662.14	83.69
662.343	99.69
662.546	91.69
662.75	86.69
662.953	78.69
663.156	82.69
663.36	90.69
663.563	83.69
663.766	84.69
663.969	75.69
664.173	83.69
664.376	75.69
664.579	81.69
664.782	88.69
664.985	90.69
665.188	80.69
665.391	69.69
665.594	87.69
665.797	84.69
666	73.69
666.203	82.69
666.406	83.69
666.609	89.69
666.812	80.69
667.015	64.69
667.218	78.69
667.421	78.69
667.624	83.69
667.827	74.69
668.03	74.69
668.232	86.69
668.435	85.69
668.638	86.69
668.841	83.69
669.043	83.69
669.246	85.69
669.449	70.69
669.651	74.69
669.854	75.69
670.057	77.69
670.259	80.69
670.462	96.69
670.665	88.69
670.867	84.69
671.07	81.69
671.272	79.69
671.475	96.69
671.677	76.69
671.88	78.69
672.082	80.69
672.284	75.69
672.487	85.69
672.689	82.69
672.892	88.69
