Data from Ni(NO3)2@0.125M.TitratingCurve.Agarose3%dH2O.NegLispCup.LampEnergy10.LIBS07252019_HRD10591_18-09-20-567.txt Node
Date: Thu Jul 25 18:09:20 EDT 2019
User: cochatt
Spectrometer: HR+D1059
Trigger mode: 1
Integration Time (sec): 1.000000E-1
Scans to average: 1
Electric dark correction enabled: true
Nonlinearity correction enabled: false
Boxcar width: 0
XAxis mode: Wavelengths
Number of Pixels in Spectrum: 2048
>>>>>Begin Spectral Data<<<<<
223.165	-17.56
223.4	-17.56
223.635	-17.56
223.869	-21.56
224.104	-17.56
224.338	-23.56
224.573	-12.56
224.808	-14.56
225.042	6.44
225.277	-5.56
225.511	1.44
225.746	-0.56
225.98	13.44
226.215	8.44
226.449	1.44
226.683	25.44
226.918	24.44
227.152	32.44
227.387	33.44
227.621	44.44
227.856	29.44
228.09	38.44
228.324	40.44
228.559	37.44
228.793	59.44
229.027	99.44
229.262	99.44
229.496	97.44
229.73	119.44
229.964	119.44
230.199	109.44
230.433	103.44
230.667	122.44
230.901	113.44
231.136	114.44
231.37	124.44
231.604	123.44
231.838	132.44
232.072	129.44
232.306	136.44
232.541	143.44
232.775	125.44
233.009	128.44
233.243	139.44
233.477	124.44
233.711	139.44
233.945	155.44
234.179	129.44
234.413	139.44
234.647	139.44
234.881	137.44
235.115	138.44
235.349	127.44
235.583	125.44
235.817	134.44
236.051	145.44
236.285	137.44
236.519	138.44
236.753	142.44
236.987	148.44
237.221	150.44
237.455	144.44
237.689	147.44
237.922	131.44
238.156	146.44
238.39	150.44
238.624	166.44
238.858	155.44
239.091	154.44
239.325	141.44
239.559	142.44
239.793	175.44
240.027	163.44
240.26	175.44
240.494	153.44
240.728	145.44
240.961	149.44
241.195	154.44
241.429	146.44
241.662	158.44
241.896	161.44
242.13	173.44
242.363	181.44
242.597	174.44
242.83	176.44
243.064	167.44
243.298	176.44
243.531	175.44
243.765	188.44
243.998	191.44
244.232	189.44
244.465	176.44
244.699	191.44
244.932	190.44
245.166	205.44
245.399	185.44
245.633	206.44
245.866	192.44
246.099	174.44
246.333	190.44
246.566	206.44
246.8	193.44
247.033	185.44
247.266	200.44
247.5	212.44
247.733	199.44
247.966	184.44
248.2	190.44
248.433	201.44
248.666	195.44
248.899	204.44
249.133	195.44
249.366	220.44
249.599	223.44
249.832	219.44
250.066	205.44
250.299	210.44
250.532	222.44
250.765	226.44
250.998	215.44
251.231	219.44
251.465	218.44
251.698	226.44
251.931	209.44
252.164	225.44
252.397	233.44
252.63	241.44
252.863	237.44
253.096	225.44
253.329	251.44
253.562	231.44
253.795	247.44
254.028	240.44
254.261	241.44
254.494	251.44
254.727	241.44
254.96	247.44
255.193	247.44
255.426	251.44
255.659	239.44
255.892	249.44
256.124	248.44
256.357	233.44
256.59	258.44
256.823	241.44
257.056	255.44
257.289	269.44
257.521	268.44
257.754	263.44
257.987	241.44
258.22	267.44
258.452	273.44
258.685	271.44
258.918	272.44
259.151	254.44
259.383	267.44
259.616	271.44
259.849	263.44
260.081	289.44
260.314	273.44
260.547	276.44
260.779	283.44
261.012	295.44
261.244	255.44
261.477	288.44
261.71	297.44
261.942	285.44
262.175	290.44
262.407	286.44
262.64	288.44
262.872	287.44
263.105	293.44
263.337	283.44
263.57	293.44
263.802	298.44
264.035	301.44
264.267	311.44
264.499	302.44
264.732	298.44
264.964	307.44
265.197	320.44
265.429	322.44
265.661	319.44
265.894	315.44
266.126	323.44
266.358	291.44
266.591	306.44
266.823	313.44
267.055	309.44
267.287	323.44
267.52	283.44
267.752	321.44
267.984	317.44
268.216	325.44
268.448	337.44
268.681	319.44
268.913	329.44
269.145	322.44
269.377	318.44
269.609	334.44
269.841	319.44
270.073	319.44
270.306	322.44
270.538	323.44
270.77	335.44
271.002	343.44
271.234	331.44
271.466	323.44
271.698	311.44
271.93	336.44
272.162	322.44
272.394	349.44
272.626	323.44
272.858	360.44
273.09	339.44
273.322	350.44
273.553	353.44
273.785	336.44
274.017	356.44
274.249	331.44
274.481	346.44
274.713	355.44
274.945	362.44
275.176	369.44
275.408	365.44
275.64	356.44
275.872	371.44
276.104	373.44
276.335	363.44
276.567	366.44
276.799	355.44
277.031	362.44
277.262	355.44
277.494	375.44
277.726	365.44
277.957	355.44
278.189	368.44
278.421	379.44
278.652	383.44
278.884	356.44
279.115	413.44
279.347	393.44
279.579	393.44
279.81	377.44
280.042	371.44
280.273	380.44
280.505	400.44
280.736	387.44
280.968	377.44
281.199	392.44
281.431	410.44
281.662	399.44
281.894	406.44
282.125	409.44
282.356	429.44
282.588	398.44
282.819	386.44
283.051	412.44
283.282	393.44
283.513	401.44
283.745	414.44
283.976	430.44
284.207	411.44
284.439	415.44
284.67	424.44
284.901	418.44
285.132	419.44
285.364	418.44
285.595	415.44
285.826	399.44
286.057	440.44
286.288	431.44
286.52	431.44
286.751	429.44
286.982	440.44
287.213	422.44
287.444	443.44
287.675	445.44
287.906	416.44
288.138	448.44
288.369	415.44
288.6	449.44
288.831	427.44
289.062	461.44
289.293	461.44
289.524	445.44
289.755	455.44
289.986	440.44
290.217	416.44
290.448	433.44
290.679	460.44
290.91	425.44
291.141	441.44
291.371	442.44
291.602	466.44
291.833	448.44
292.064	435.44
292.295	452.44
292.526	440.44
292.757	443.44
292.987	453.44
293.218	441.44
293.449	475.44
293.68	454.44
293.91	448.44
294.141	450.44
294.372	435.44
294.603	436.44
294.833	451.44
295.064	453.44
295.295	464.44
295.525	450.44
295.756	462.44
295.987	465.44
296.217	467.44
296.448	461.44
296.679	467.44
296.909	486.44
297.14	466.44
297.37	468.44
297.601	504.44
297.831	484.44
298.062	479.44
298.292	518.44
298.523	491.44
298.753	500.44
298.984	495.44
299.214	503.44
299.445	491.44
299.675	486.44
299.905	476.44
300.136	481.44
300.366	495.44
300.597	494.44
300.827	518.44
301.057	497.44
301.288	509.44
301.518	511.44
301.748	502.44
301.979	515.44
302.209	523.44
302.439	495.44
302.669	515.44
302.9	509.44
303.13	516.44
303.36	504.44
303.59	511.44
303.82	513.44
304.051	509.44
304.281	521.44
304.511	518.44
304.741	509.44
304.971	509.44
305.201	513.44
305.431	497.44
305.661	506.44
305.891	523.44
306.121	512.44
306.352	513.44
306.582	497.44
306.812	499.44
307.042	529.44
307.272	497.44
307.502	493.44
307.731	491.44
307.961	498.44
308.191	495.44
308.421	478.44
308.651	501.44
308.881	505.44
309.111	522.44
309.341	485.44
309.571	502.44
309.8	506.44
310.03	513.44
310.26	509.44
310.49	512.44
310.72	498.44
310.949	494.44
311.179	516.44
311.409	525.44
311.639	511.44
311.868	529.44
312.098	505.44
312.328	521.44
312.557	521.44
312.787	532.44
313.017	516.44
313.246	527.44
313.476	536.44
313.706	531.44
313.935	534.44
314.165	560.44
314.394	559.44
314.624	547.44
314.853	514.44
315.083	552.44
315.312	537.44
315.542	574.44
315.771	525.44
316.001	531.44
316.23	529.44
316.46	530.44
316.689	557.44
316.919	520.44
317.148	551.44
317.377	521.44
317.607	539.44
317.836	532.44
318.065	533.44
318.295	514.44
318.524	538.44
318.753	521.44
318.983	546.44
319.212	543.44
319.441	519.44
319.67	535.44
319.9	541.44
320.129	535.44
320.358	537.44
320.587	505.44
320.816	537.44
321.046	543.44
321.275	538.44
321.504	532.44
321.733	547.44
321.962	552.44
322.191	540.44
322.42	545.44
322.649	547.44
322.878	524.44
323.108	538.44
323.337	558.44
323.566	545.44
323.795	543.44
324.024	577.44
324.253	544.44
324.482	539.44
324.71	556.44
324.939	547.44
325.168	557.44
325.397	567.44
325.626	580.44
325.855	584.44
326.084	584.44
326.313	586.44
326.542	591.44
326.77	599.44
326.999	596.44
327.228	585.44
327.457	570.44
327.686	579.44
327.914	598.44
328.143	566.44
328.372	577.44
328.6	608.44
328.829	588.44
329.058	594.44
329.287	620.44
329.515	611.44
329.744	600.44
329.972	614.44
330.201	619.44
330.43	622.44
330.658	603.44
330.887	634.44
331.115	603.44
331.344	635.44
331.572	631.44
331.801	651.44
332.03	638.44
332.258	697.44
332.486	673.44
332.715	703.44
332.943	741.44
333.172	790.44
333.4	818.44
333.629	817.44
333.857	806.44
334.085	792.44
334.314	801.44
334.542	777.44
334.771	765.44
334.999	746.44
335.227	735.44
335.455	765.44
335.684	738.44
335.912	738.44
336.14	750.44
336.369	724.44
336.597	736.44
336.825	733.44
337.053	699.44
337.281	733.44
337.51	705.44
337.738	693.44
337.966	673.44
338.194	667.44
338.422	649.44
338.65	651.44
338.878	666.44
339.106	661.44
339.334	651.44
339.562	652.44
339.79	642.44
340.018	633.44
340.246	650.44
340.474	622.44
340.702	643.44
340.93	650.44
341.158	642.44
341.386	656.44
341.614	643.44
341.842	639.44
342.07	618.44
342.298	610.44
342.526	617.44
342.754	612.44
342.981	617.44
343.209	638.44
343.437	685.44
343.665	726.44
343.893	776.44
344.12	801.44
344.348	762.44
344.576	725.44
344.804	689.44
345.031	713.44
345.259	659.44
345.487	638.44
345.714	615.44
345.942	627.44
346.17	644.44
346.397	613.44
346.625	612.44
346.853	638.44
347.08	621.44
347.308	599.44
347.535	582.44
347.763	621.44
347.99	631.44
348.218	619.44
348.445	610.44
348.673	623.44
348.9	613.44
349.128	608.44
349.355	606.44
349.583	626.44
349.81	593.44
350.037	567.44
350.265	601.44
350.492	592.44
350.72	577.44
350.947	600.44
351.174	618.44
351.402	573.44
351.629	586.44
351.856	581.44
352.083	586.44
352.311	594.44
352.538	581.44
352.765	567.44
352.992	575.44
353.22	594.44
353.447	569.44
353.674	564.44
353.901	583.44
354.128	582.44
354.355	600.44
354.583	594.44
354.81	598.44
355.037	593.44
355.264	588.44
355.491	598.44
355.718	594.44
355.945	608.44
356.172	609.44
356.399	586.44
356.626	591.44
356.853	593.44
357.08	584.44
357.307	591.44
357.534	568.44
357.761	604.44
357.988	598.44
358.215	573.44
358.441	603.44
358.668	583.44
358.895	588.44
359.122	594.44
359.349	581.44
359.576	604.44
359.802	606.44
360.029	588.44
360.256	592.44
360.483	577.44
360.709	571.44
360.936	586.44
361.163	609.44
361.39	583.44
361.616	596.44
361.843	580.44
362.07	593.44
362.296	601.44
362.523	592.44
362.749	604.44
362.976	583.44
363.203	628.44
363.429	585.44
363.656	579.44
363.882	591.44
364.109	579.44
364.335	584.44
364.562	597.44
364.788	570.44
365.015	573.44
365.241	591.44
365.468	625.44
365.694	573.44
365.92	583.44
366.147	582.44
366.373	579.44
366.599	585.44
366.826	593.44
367.052	582.44
367.278	591.44
367.505	593.44
367.731	594.44
367.957	583.44
368.184	593.44
368.41	597.44
368.636	585.44
368.862	586.44
369.089	598.44
369.315	592.44
369.541	614.44
369.767	623.44
369.993	611.44
370.219	607.44
370.445	614.44
370.672	627.44
370.898	641.44
371.124	633.44
371.35	651.44
371.576	642.44
371.802	659.44
372.028	644.44
372.254	629.44
372.48	626.44
372.706	662.44
372.932	669.44
373.158	651.44
373.384	661.44
373.61	639.44
373.835	646.44
374.061	633.44
374.287	647.44
374.513	669.44
374.739	635.44
374.965	709.44
375.191	706.44
375.416	691.44
375.642	693.44
375.868	699.44
376.094	659.44
376.319	611.44
376.545	663.44
376.771	671.44
376.997	643.44
377.222	635.44
377.448	633.44
377.674	663.44
377.899	622.44
378.125	618.44
378.35	629.44
378.576	629.44
378.802	646.44
379.027	605.44
379.253	616.44
379.478	616.44
379.704	626.44
379.929	632.44
380.155	630.44
380.38	602.44
380.606	640.44
380.831	625.44
381.057	645.44
381.282	624.44
381.507	625.44
381.733	607.44
381.958	641.44
382.184	641.44
382.409	657.44
382.634	680.44
382.86	687.44
383.085	678.44
383.31	681.44
383.535	710.44
383.761	680.44
383.986	695.44
384.211	732.44
384.436	721.44
384.662	779.44
384.887	770.44
385.112	772.44
385.337	776.44
385.562	782.44
385.787	769.44
386.013	767.44
386.238	751.44
386.463	771.44
386.688	756.44
386.913	772.44
387.138	738.44
387.363	735.44
387.588	750.44
387.813	753.44
388.038	750.44
388.263	756.44
388.488	765.44
388.713	762.44
388.938	745.44
389.163	714.44
389.387	750.44
389.612	738.44
389.837	732.44
390.062	741.44
390.287	755.44
390.512	744.44
390.736	752.44
390.961	760.44
391.186	756.44
391.411	795.44
391.636	831.44
391.86	825.44
392.085	876.44
392.31	877.44
392.534	853.44
392.759	803.44
392.984	800.44
393.208	799.44
393.433	783.44
393.658	813.44
393.882	820.44
394.107	804.44
394.331	804.44
394.556	798.44
394.78	824.44
395.005	824.44
395.229	825.44
395.454	861.44
395.678	862.44
395.903	872.44
396.127	854.44
396.352	826.44
396.576	786.44
396.801	801.44
397.025	804.44
397.249	811.44
397.474	846.44
397.698	853.44
397.922	878.44
398.147	842.44
398.371	881.44
398.595	907.44
398.82	927.44
399.044	998.44
399.268	1095.44
399.492	1297.44
399.717	1412.44
399.941	1454.44
400.165	1273.44
400.389	1131.44
400.613	1088.44
400.837	994.44
401.062	983.44
401.286	961.44
401.51	913.44
401.734	963.44
401.958	953.44
402.182	976.44
402.406	968.44
402.63	1011.44
402.854	1011.44
403.078	1045.44
403.302	1077.44
403.526	1098.44
403.75	1102.44
403.974	1113.44
404.198	1114.44
404.422	1099.44
404.645	1109.44
404.869	1088.44
405.093	1113.44
405.317	1074.44
405.541	1041.44
405.765	1048.44
405.988	1030.44
406.212	1032.44
406.436	1031.44
406.66	1111.44
406.883	1091.44
407.107	1150.44
407.331	1211.44
407.555	1244.44
407.778	1244.44
408.002	1219.44
408.226	1143.44
408.449	1145.44
408.673	1115.44
408.896	1071.44
409.12	1043.44
409.344	1104.44
409.567	1071.44
409.791	1107.44
410.014	1080.44
410.238	1069.44
410.461	1069.44
410.685	1057.44
410.908	1035.44
411.132	1018.44
411.355	982.44
411.578	966.44
411.802	988.44
412.025	1008.44
412.249	1019.44
412.472	994.44
412.695	975.44
412.919	975.44
413.142	959.44
413.365	959.44
413.589	949.44
413.812	955.44
414.035	964.44
414.258	955.44
414.482	948.44
414.705	945.44
414.928	967.44
415.151	970.44
415.374	968.44
415.597	970.44
415.821	931.44
416.044	935.44
416.267	937.44
416.49	919.44
416.713	925.44
416.936	939.44
417.159	947.44
417.382	929.44
417.605	938.44
417.828	914.44
418.051	957.44
418.274	949.44
418.497	928.44
418.72	979.44
418.943	999.44
419.166	1021.44
419.389	1083.44
419.611	1063.44
419.834	1029.44
420.057	1006.44
420.28	941.44
420.503	951.44
420.726	933.44
420.948	956.44
421.171	935.44
421.394	938.44
421.617	934.44
421.839	944.44
422.062	959.44
422.285	970.44
422.507	985.44
422.73	959.44
422.953	957.44
423.175	996.44
423.398	1011.44
423.621	1007.44
423.843	1028.44
424.066	1014.44
424.288	1018.44
424.511	1010.44
424.733	1000.44
424.956	996.44
425.178	971.44
425.401	954.44
425.623	965.44
425.846	928.44
426.068	910.44
426.291	918.44
426.513	909.44
426.735	885.44
426.958	889.44
427.18	851.44
427.402	850.44
427.625	886.44
427.847	871.44
428.069	883.44
428.292	882.44
428.514	833.44
428.736	836.44
428.958	864.44
429.181	821.44
429.403	829.44
429.625	833.44
429.847	825.44
430.069	836.44
430.292	842.44
430.514	829.44
430.736	825.44
430.958	836.44
431.18	846.44
431.402	837.44
431.624	837.44
431.846	833.44
432.068	872.44
432.29	881.44
432.512	856.44
432.734	867.44
432.956	825.44
433.178	852.44
433.4	872.44
433.622	867.44
433.844	881.44
434.066	863.44
434.287	861.44
434.509	896.44
434.731	938.44
434.953	997.44
435.175	963.44
435.397	967.44
435.618	882.44
435.84	891.44
436.062	879.44
436.284	878.44
436.505	866.44
436.727	877.44
436.949	865.44
437.17	857.44
437.392	844.44
437.614	824.44
437.835	822.44
438.057	816.44
438.278	828.44
438.5	797.44
438.721	818.44
438.943	823.44
439.165	829.44
439.386	835.44
439.608	869.44
439.829	843.44
440.05	871.44
440.272	872.44
440.493	865.44
440.715	892.44
440.936	886.44
441.158	884.44
441.379	928.44
441.6	998.44
441.822	975.44
442.043	963.44
442.264	931.44
442.486	927.44
442.707	965.44
442.928	971.44
443.149	934.44
443.371	969.44
443.592	943.44
443.813	970.44
444.034	978.44
444.255	994.44
444.476	1023.44
444.698	1118.44
444.919	1159.44
445.14	1235.44
445.361	1107.44
445.582	1012.44
445.803	944.44
446.024	935.44
446.245	877.44
446.466	914.44
446.687	873.44
446.908	880.44
447.129	835.44
447.35	819.44
447.571	833.44
447.792	806.44
448.013	837.44
448.234	808.44
448.455	810.44
448.675	804.44
448.896	799.44
449.117	767.44
449.338	796.44
449.559	784.44
449.779	761.44
450	766.44
450.221	765.44
450.442	791.44
450.662	803.44
450.883	818.44
451.104	805.44
451.324	847.44
451.545	794.44
451.766	824.44
451.986	795.44
452.207	797.44
452.428	787.44
452.648	806.44
452.869	779.44
453.089	747.44
453.31	762.44
453.53	753.44
453.751	744.44
453.971	740.44
454.192	750.44
454.412	727.44
454.633	755.44
454.853	772.44
455.073	741.44
455.294	752.44
455.514	715.44
455.734	729.44
455.955	742.44
456.175	748.44
456.395	737.44
456.616	733.44
456.836	739.44
457.056	720.44
457.276	749.44
457.497	759.44
457.717	729.44
457.937	736.44
458.157	729.44
458.377	760.44
458.598	775.44
458.818	774.44
459.038	781.44
459.258	829.44
459.478	859.44
459.698	878.44
459.918	911.44
460.138	945.44
460.358	967.44
460.578	978.44
460.798	1025.44
461.018	1032.44
461.238	978.44
461.458	1023.44
461.678	1008.44
461.898	1014.44
462.118	1021.44
462.338	1067.44
462.558	1082.44
462.777	1148.44
462.997	1248.44
463.217	1373.44
463.437	1379.44
463.657	1222.44
463.876	1190.44
464.096	1141.44
464.316	1167.44
464.536	1185.44
464.755	1151.44
464.975	1077.44
465.195	1050.44
465.414	995.44
465.634	935.44
465.854	903.44
466.073	890.44
466.293	872.44
466.512	863.44
466.732	856.44
466.951	842.44
467.171	805.44
467.391	819.44
467.61	834.44
467.829	850.44
468.049	805.44
468.268	825.44
468.488	778.44
468.707	798.44
468.927	786.44
469.146	786.44
469.365	802.44
469.585	794.44
469.804	860.44
470.023	835.44
470.243	833.44
470.462	860.44
470.681	846.44
470.901	811.44
471.12	838.44
471.339	823.44
471.558	801.44
471.777	809.44
471.997	810.44
472.216	793.44
472.435	797.44
472.654	778.44
472.873	755.44
473.092	742.44
473.311	763.44
473.53	762.44
473.749	752.44
473.968	765.44
474.187	777.44
474.406	744.44
474.625	764.44
474.844	755.44
475.063	761.44
475.282	767.44
475.501	780.44
475.72	795.44
475.939	795.44
476.158	808.44
476.377	809.44
476.596	816.44
476.814	815.44
477.033	836.44
477.252	801.44
477.471	855.44
477.69	870.44
477.908	883.44
478.127	897.44
478.346	915.44
478.564	912.44
478.783	940.44
479.002	947.44
479.22	988.44
479.439	964.44
479.658	923.44
479.876	953.44
480.095	969.44
480.313	985.44
480.532	1030.44
480.751	1026.44
480.969	1011.44
481.188	947.44
481.406	962.44
481.624	910.44
481.843	895.44
482.061	881.44
482.28	884.44
482.498	867.44
482.717	890.44
482.935	881.44
483.153	864.44
483.372	872.44
483.59	898.44
483.808	883.44
484.027	883.44
484.245	889.44
484.463	888.44
484.681	898.44
484.9	905.44
485.118	883.44
485.336	896.44
485.554	906.44
485.772	936.44
485.99	907.44
486.209	906.44
486.427	936.44
486.645	930.44
486.863	949.44
487.081	931.44
487.299	917.44
487.517	929.44
487.735	936.44
487.953	957.44
488.171	923.44
488.389	921.44
488.607	908.44
488.825	913.44
489.043	907.44
489.261	909.44
489.479	909.44
489.696	899.44
489.914	904.44
490.132	930.44
490.35	887.44
490.568	922.44
490.786	929.44
491.003	915.44
491.221	961.44
491.439	955.44
491.657	929.44
491.874	943.44
492.092	941.44
492.31	929.44
492.527	959.44
492.745	943.44
492.963	943.44
493.18	964.44
493.398	967.44
493.615	996.44
493.833	988.44
494.05	957.44
494.268	967.44
494.485	992.44
494.703	970.44
494.92	949.44
495.138	971.44
495.355	952.44
495.573	985.44
495.79	942.44
496.008	970.44
496.225	1018.44
496.442	1023.44
496.66	1030.44
496.877	1037.44
497.094	1034.44
497.312	1053.44
497.529	1097.44
497.746	1079.44
497.963	1147.44
498.181	1192.44
498.398	1237.44
498.615	1315.44
498.832	1396.44
499.049	1474.44
499.267	1606.44
499.484	1754.44
499.701	1923.44
499.918	2173.44
500.135	2477.44
500.352	2873.44
500.569	2987.44
500.786	3001.44
501.003	2725.44
501.22	2396.44
501.437	2121.44
501.654	1893.44
501.871	1694.44
502.088	1553.44
502.305	1433.44
502.522	1380.44
502.739	1336.44
502.956	1256.44
503.172	1207.44
503.389	1167.44
503.606	1115.44
503.823	1100.44
504.04	1124.44
504.256	1136.44
504.473	1134.44
504.69	1177.44
504.907	1125.44
505.123	1085.44
505.34	1020.44
505.557	967.44
505.773	952.44
505.99	926.44
506.207	906.44
506.423	900.44
506.64	889.44
506.856	862.44
507.073	879.44
507.289	862.44
507.506	868.44
507.722	855.44
507.939	863.44
508.155	835.44
508.372	853.44
508.588	817.44
508.805	818.44
509.021	831.44
509.238	843.44
509.454	802.44
509.67	769.44
509.887	802.44
510.103	781.44
510.319	771.44
510.536	781.44
510.752	766.44
510.968	773.44
511.184	767.44
511.401	767.44
511.617	778.44
511.833	777.44
512.049	794.44
512.265	822.44
512.481	790.44
512.698	796.44
512.914	771.44
513.13	769.44
513.346	805.44
513.562	767.44
513.778	787.44
513.994	789.44
514.21	775.44
514.426	807.44
514.642	820.44
514.858	793.44
515.074	832.44
515.29	818.44
515.506	801.44
515.721	821.44
515.937	830.44
516.153	858.44
516.369	884.44
516.585	872.44
516.801	937.44
517.016	959.44
517.232	986.44
517.448	1073.44
517.664	1072.44
517.879	1138.44
518.095	1131.44
518.311	1085.44
518.527	1030.44
518.742	960.44
518.958	961.44
519.173	923.44
519.389	885.44
519.605	858.44
519.82	844.44
520.036	818.44
520.251	825.44
520.467	811.44
520.682	784.44
520.898	813.44
521.113	771.44
521.329	779.44
521.544	754.44
521.76	741.44
521.975	763.44
522.19	754.44
522.406	731.44
522.621	751.44
522.836	729.44
523.052	749.44
523.267	731.44
523.482	713.44
523.698	701.44
523.913	736.44
524.128	722.44
524.343	727.44
524.559	711.44
524.774	714.44
524.989	719.44
525.204	725.44
525.419	725.44
525.634	744.44
525.849	741.44
526.064	723.44
526.28	722.44
526.495	706.44
526.71	713.44
526.925	691.44
527.14	703.44
527.355	687.44
527.57	711.44
527.785	711.44
527.999	715.44
528.214	725.44
528.429	718.44
528.644	703.44
528.859	719.44
529.074	733.44
529.289	720.44
529.503	752.44
529.718	730.44
529.933	674.44
530.148	715.44
530.363	711.44
530.577	695.44
530.792	731.44
531.007	706.44
531.221	722.44
531.436	731.44
531.651	718.44
531.865	715.44
532.08	730.44
532.295	722.44
532.509	681.44
532.724	687.44
532.938	695.44
533.153	696.44
533.367	721.44
533.582	702.44
533.796	711.44
534.011	695.44
534.225	708.44
534.44	674.44
534.654	675.44
534.868	680.44
535.083	693.44
535.297	674.44
535.511	704.44
535.726	670.44
535.94	682.44
536.154	674.44
536.369	673.44
536.583	678.44
536.797	656.44
537.011	661.44
537.225	650.44
537.44	659.44
537.654	659.44
537.868	654.44
538.082	639.44
538.296	640.44
538.51	641.44
538.724	663.44
538.938	623.44
539.153	621.44
539.367	646.44
539.581	647.44
539.795	635.44
540.009	647.44
540.222	662.44
540.436	629.44
540.65	631.44
540.864	625.44
541.078	641.44
541.292	665.44
541.506	641.44
541.72	638.44
541.934	655.44
542.147	632.44
542.361	639.44
542.575	628.44
542.789	649.44
543.002	650.44
543.216	635.44
543.43	625.44
543.644	640.44
543.857	613.44
544.071	647.44
544.285	640.44
544.498	645.44
544.712	657.44
544.925	645.44
545.139	650.44
545.352	650.44
545.566	645.44
545.779	671.44
545.993	647.44
546.206	652.44
546.42	641.44
546.633	668.44
546.847	641.44
547.06	674.44
547.274	663.44
547.487	632.44
547.7	649.44
547.914	648.44
548.127	657.44
548.34	689.44
548.554	670.44
548.767	679.44
548.98	662.44
549.193	669.44
549.407	676.44
549.62	665.44
549.833	687.44
550.046	679.44
550.259	661.44
550.473	646.44
550.686	677.44
550.899	660.44
551.112	623.44
551.325	653.44
551.538	633.44
551.751	640.44
551.964	641.44
552.177	631.44
552.39	680.44
552.603	668.44
552.816	690.44
553.029	700.44
553.242	701.44
553.455	728.44
553.667	741.44
553.88	695.44
554.093	710.44
554.306	696.44
554.519	666.44
554.732	661.44
554.944	635.44
555.157	632.44
555.37	620.44
555.583	617.44
555.795	611.44
556.008	611.44
556.221	577.44
556.433	604.44
556.646	575.44
556.859	555.44
557.071	582.44
557.284	551.44
557.496	571.44
557.709	549.44
557.921	570.44
558.134	548.44
558.346	571.44
558.559	554.44
558.771	551.44
558.984	531.44
559.196	561.44
559.409	543.44
559.621	537.44
559.833	535.44
560.046	548.44
560.258	546.44
560.47	538.44
560.683	539.44
560.895	532.44
561.107	551.44
561.32	535.44
561.532	542.44
561.744	549.44
561.956	544.44
562.168	546.44
562.381	533.44
562.593	527.44
562.805	522.44
563.017	544.44
563.229	544.44
563.441	554.44
563.653	570.44
563.865	557.44
564.077	560.44
564.289	565.44
564.501	563.44
564.713	576.44
564.925	551.44
565.137	576.44
565.349	591.44
565.561	593.44
565.773	635.44
565.985	647.44
566.197	685.44
566.408	736.44
566.62	799.44
566.832	891.44
567.044	901.44
567.255	865.44
567.467	910.44
567.679	943.44
567.891	1043.44
568.102	1077.44
568.314	1011.44
568.526	893.44
568.737	794.44
568.949	754.44
569.161	683.44
569.372	634.44
569.584	624.44
569.795	552.44
570.007	571.44
570.218	568.44
570.43	561.44
570.641	545.44
570.853	552.44
571.064	583.44
571.276	554.44
571.487	530.44
571.698	514.44
571.91	478.44
572.121	502.44
572.333	487.44
572.544	463.44
572.755	469.44
572.966	460.44
573.178	465.44
573.389	473.44
573.6	449.44
573.811	446.44
574.023	462.44
574.234	433.44
574.445	424.44
574.656	445.44
574.867	449.44
575.078	468.44
575.289	453.44
575.501	434.44
575.712	432.44
575.923	410.44
576.134	420.44
576.345	418.44
576.556	422.44
576.767	414.44
576.978	409.44
577.188	408.44
577.399	419.44
577.61	399.44
577.821	414.44
578.032	395.44
578.243	424.44
578.454	422.44
578.665	417.44
578.875	394.44
579.086	385.44
579.297	395.44
579.508	378.44
579.718	391.44
579.929	394.44
580.14	389.44
580.35	376.44
580.561	374.44
580.772	388.44
580.982	393.44
581.193	374.44
581.403	348.44
581.614	358.44
581.825	391.44
582.035	385.44
582.246	379.44
582.456	377.44
582.667	377.44
582.877	386.44
583.087	366.44
583.298	369.44
583.508	364.44
583.719	377.44
583.929	375.44
584.139	375.44
584.35	368.44
584.56	369.44
584.77	373.44
584.981	370.44
585.191	373.44
585.401	362.44
585.611	367.44
585.821	351.44
586.032	373.44
586.242	360.44
586.452	345.44
586.662	357.44
586.872	367.44
587.082	365.44
587.292	360.44
587.502	367.44
587.713	339.44
587.923	360.44
588.133	359.44
588.343	355.44
588.553	372.44
588.762	385.44
588.972	367.44
589.182	346.44
589.392	358.44
589.602	362.44
589.812	345.44
590.022	371.44
590.232	344.44
590.441	368.44
590.651	373.44
590.861	363.44
591.071	367.44
591.281	359.44
591.49	383.44
591.7	369.44
591.91	393.44
592.119	394.44
592.329	385.44
592.539	406.44
592.748	430.44
592.958	446.44
593.167	447.44
593.377	443.44
593.587	466.44
593.796	449.44
594.006	470.44
594.215	441.44
594.424	481.44
594.634	459.44
594.843	422.44
595.053	407.44
595.262	412.44
595.472	397.44
595.681	396.44
595.89	368.44
596.1	358.44
596.309	347.44
596.518	354.44
596.727	353.44
596.937	330.44
597.146	343.44
597.355	340.44
597.564	349.44
597.774	335.44
597.983	317.44
598.192	327.44
598.401	314.44
598.61	309.44
598.819	318.44
599.028	309.44
599.237	310.44
599.446	307.44
599.655	313.44
599.864	316.44
600.073	307.44
600.282	302.44
600.491	308.44
600.7	287.44
600.909	293.44
601.118	317.44
601.327	315.44
601.536	299.44
601.745	312.44
601.953	298.44
602.162	309.44
602.371	295.44
602.58	284.44
602.789	295.44
602.997	314.44
603.206	301.44
603.415	295.44
603.623	275.44
603.832	280.44
604.041	285.44
604.249	282.44
604.458	285.44
604.666	283.44
604.875	284.44
605.084	279.44
605.292	289.44
605.501	280.44
605.709	295.44
605.918	291.44
606.126	277.44
606.334	287.44
606.543	277.44
606.751	282.44
606.96	279.44
607.168	278.44
607.376	274.44
607.585	279.44
607.793	269.44
608.001	259.44
608.21	281.44
608.418	279.44
608.626	274.44
608.834	286.44
609.043	278.44
609.251	275.44
609.459	279.44
609.667	291.44
609.875	278.44
610.083	286.44
610.291	267.44
610.499	259.44
610.707	278.44
610.916	268.44
611.124	261.44
611.332	276.44
611.54	263.44
611.748	264.44
611.955	266.44
612.163	267.44
612.371	285.44
612.579	269.44
612.787	267.44
612.995	257.44
613.203	278.44
613.411	273.44
613.618	262.44
613.826	261.44
614.034	278.44
614.242	271.44
614.449	271.44
614.657	279.44
614.865	261.44
615.072	277.44
615.28	268.44
615.488	261.44
615.695	275.44
615.903	266.44
616.111	260.44
616.318	269.44
616.526	262.44
616.733	271.44
616.941	287.44
617.148	268.44
617.356	267.44
617.563	275.44
617.771	260.44
617.978	256.44
618.185	264.44
618.393	245.44
618.6	259.44
618.807	269.44
619.015	262.44
619.222	265.44
619.429	260.44
619.637	261.44
619.844	245.44
620.051	262.44
620.258	246.44
620.466	244.44
620.673	238.44
620.88	228.44
621.087	235.44
621.294	243.44
621.501	233.44
621.708	240.44
621.915	246.44
622.122	241.44
622.329	226.44
622.536	226.44
622.743	244.44
622.95	230.44
623.157	247.44
623.364	260.44
623.571	223.44
623.778	216.44
623.985	241.44
624.192	225.44
624.399	224.44
624.606	230.44
624.812	230.44
625.019	229.44
625.226	232.44
625.433	210.44
625.639	214.44
625.846	239.44
626.053	214.44
626.259	229.44
626.466	213.44
626.673	236.44
626.879	223.44
627.086	217.44
627.293	237.44
627.499	212.44
627.706	209.44
627.912	231.44
628.119	211.44
628.325	196.44
628.532	231.44
628.738	217.44
628.945	226.44
629.151	207.44
629.357	209.44
629.564	215.44
629.77	203.44
629.976	199.44
630.183	206.44
630.389	197.44
630.595	211.44
630.802	208.44
631.008	208.44
631.214	208.44
631.42	211.44
631.627	204.44
631.833	214.44
632.039	215.44
632.245	204.44
632.451	218.44
632.657	199.44
632.863	203.44
633.069	207.44
633.275	201.44
633.481	187.44
633.688	189.44
633.893	191.44
634.099	209.44
634.305	197.44
634.511	182.44
634.717	204.44
634.923	196.44
635.129	188.44
635.335	195.44
635.541	187.44
635.747	202.44
635.952	198.44
636.158	186.44
636.364	193.44
636.57	210.44
636.775	174.44
636.981	192.44
637.187	188.44
637.392	179.44
637.598	173.44
637.804	207.44
638.009	174.44
638.215	183.44
638.421	171.44
638.626	202.44
638.832	190.44
639.037	186.44
639.243	198.44
639.448	189.44
639.654	192.44
639.859	183.44
640.065	161.44
640.27	186.44
640.475	186.44
640.681	199.44
640.886	197.44
641.091	186.44
641.297	177.44
641.502	185.44
641.707	169.44
641.913	175.44
642.118	168.44
642.323	173.44
642.528	166.44
642.733	178.44
642.939	173.44
643.144	189.44
643.349	172.44
643.554	181.44
643.759	183.44
643.964	181.44
644.169	173.44
644.374	169.44
644.579	182.44
644.784	177.44
644.989	177.44
645.194	166.44
645.399	181.44
645.604	175.44
645.809	187.44
646.014	166.44
646.219	173.44
646.423	185.44
646.628	170.44
646.833	178.44
647.038	166.44
647.243	162.44
647.447	165.44
647.652	175.44
647.857	180.44
648.062	186.44
648.266	188.44
648.471	196.44
648.676	190.44
648.88	196.44
649.085	179.44
649.289	165.44
649.494	160.44
649.698	166.44
649.903	159.44
650.107	167.44
650.312	198.44
650.516	175.44
650.721	177.44
650.925	161.44
651.13	156.44
651.334	142.44
651.539	157.44
651.743	160.44
651.947	147.44
652.152	144.44
652.356	160.44
652.56	147.44
652.764	140.44
652.969	136.44
653.173	151.44
653.377	137.44
653.581	147.44
653.785	153.44
653.99	135.44
654.194	141.44
654.398	125.44
654.602	139.44
654.806	138.44
655.01	143.44
655.214	137.44
655.418	137.44
655.622	137.44
655.826	128.44
656.03	140.44
656.234	154.44
656.438	134.44
656.642	123.44
656.846	127.44
657.049	139.44
657.253	130.44
657.457	104.44
657.661	120.44
657.865	96.44
658.068	114.44
658.272	104.44
658.476	97.44
658.68	120.44
658.883	92.44
659.087	95.44
659.291	103.44
659.494	98.44
659.698	105.44
659.901	84.44
660.105	94.44
660.309	85.44
660.512	98.44
660.716	87.44
660.919	92.44
661.123	100.44
661.326	100.44
661.53	90.44
661.733	94.44
661.936	85.44
662.14	88.44
662.343	83.44
662.546	86.44
662.75	85.44
662.953	73.44
663.156	90.44
663.36	84.44
663.563	87.44
663.766	87.44
663.969	85.44
664.173	73.44
664.376	83.44
664.579	61.44
664.782	70.44
664.985	72.44
665.188	89.44
665.391	74.44
665.594	87.44
665.797	80.44
666	86.44
666.203	69.44
666.406	75.44
666.609	74.44
666.812	75.44
667.015	74.44
667.218	74.44
667.421	86.44
667.624	82.44
667.827	79.44
668.03	76.44
668.232	75.44
668.435	81.44
668.638	66.44
668.841	85.44
669.043	84.44
669.246	66.44
669.449	73.44
669.651	77.44
669.854	77.44
670.057	83.44
670.259	79.44
670.462	88.44
670.665	78.44
670.867	78.44
671.07	87.44
671.272	68.44
671.475	87.44
671.677	70.44
671.88	69.44
672.082	87.44
672.284	89.44
672.487	75.44
672.689	70.44
672.892	71.44
