Data from Ni(NO3)2@0.25M.TitratingCurve.Agarose3%dH2O.NegLispCup.LampEnergy10.LIBS07252019_HRD10591_18-05-40-566.txt Node
Date: Thu Jul 25 18:05:40 EDT 2019
User: cochatt
Spectrometer: HR+D1059
Trigger mode: 1
Integration Time (sec): 1.000000E-1
Scans to average: 1
Electric dark correction enabled: true
Nonlinearity correction enabled: false
Boxcar width: 0
XAxis mode: Wavelengths
Number of Pixels in Spectrum: 2048
>>>>>Begin Spectral Data<<<<<
223.165	-29.88
223.4	-29.88
223.635	-29.88
223.869	-18.88
224.104	-21.88
224.338	-5.88
224.573	-17.88
224.808	-22.88
225.042	2.12
225.277	-18.88
225.511	7.12
225.746	1.12
225.98	11.12
226.215	16.12
226.449	12.12
226.683	17.12
226.918	25.12
227.152	44.12
227.387	26.12
227.621	39.12
227.856	51.12
228.09	49.12
228.324	48.12
228.559	55.12
228.793	73.12
229.027	129.12
229.262	155.12
229.496	155.12
229.73	163.12
229.964	179.12
230.199	177.12
230.433	150.12
230.667	175.12
230.901	182.12
231.136	188.12
231.37	172.12
231.604	191.12
231.838	195.12
232.072	174.12
232.306	206.12
232.541	195.12
232.775	199.12
233.009	189.12
233.243	205.12
233.477	197.12
233.711	192.12
233.945	201.12
234.179	207.12
234.413	218.12
234.647	209.12
234.881	195.12
235.115	210.12
235.349	200.12
235.583	223.12
235.817	208.12
236.051	223.12
236.285	213.12
236.519	228.12
236.753	225.12
236.987	224.12
237.221	216.12
237.455	230.12
237.689	243.12
237.922	231.12
238.156	240.12
238.39	250.12
238.624	236.12
238.858	235.12
239.091	244.12
239.325	245.12
239.559	264.12
239.793	262.12
240.027	260.12
240.26	240.12
240.494	270.12
240.728	272.12
240.961	266.12
241.195	254.12
241.429	256.12
241.662	263.12
241.896	302.12
242.13	287.12
242.363	294.12
242.597	307.12
242.83	276.12
243.064	281.12
243.298	291.12
243.531	294.12
243.765	315.12
243.998	314.12
244.232	296.12
244.465	327.12
244.699	315.12
244.932	328.12
245.166	323.12
245.399	339.12
245.633	340.12
245.866	315.12
246.099	320.12
246.333	328.12
246.566	351.12
246.8	317.12
247.033	330.12
247.266	329.12
247.5	338.12
247.733	373.12
247.966	357.12
248.2	356.12
248.433	356.12
248.666	379.12
248.899	363.12
249.133	373.12
249.366	387.12
249.599	375.12
249.832	397.12
250.066	392.12
250.299	398.12
250.532	388.12
250.765	405.12
250.998	413.12
251.231	412.12
251.465	423.12
251.698	416.12
251.931	412.12
252.164	413.12
252.397	427.12
252.63	423.12
252.863	420.12
253.096	435.12
253.329	431.12
253.562	440.12
253.795	432.12
254.028	448.12
254.261	454.12
254.494	449.12
254.727	476.12
254.96	448.12
255.193	479.12
255.426	470.12
255.659	461.12
255.892	470.12
256.124	471.12
256.357	472.12
256.59	468.12
256.823	481.12
257.056	499.12
257.289	479.12
257.521	503.12
257.754	501.12
257.987	481.12
258.22	526.12
258.452	490.12
258.685	506.12
258.918	505.12
259.151	496.12
259.383	511.12
259.616	529.12
259.849	533.12
260.081	520.12
260.314	531.12
260.547	529.12
260.779	523.12
261.012	540.12
261.244	530.12
261.477	543.12
261.71	553.12
261.942	539.12
262.175	543.12
262.407	556.12
262.64	542.12
262.872	549.12
263.105	558.12
263.337	551.12
263.57	579.12
263.802	583.12
264.035	584.12
264.267	571.12
264.499	583.12
264.732	608.12
264.964	583.12
265.197	582.12
265.429	584.12
265.661	582.12
265.894	596.12
266.126	593.12
266.358	603.12
266.591	623.12
266.823	619.12
267.055	614.12
267.287	617.12
267.52	605.12
267.752	622.12
267.984	610.12
268.216	608.12
268.448	622.12
268.681	630.12
268.913	629.12
269.145	648.12
269.377	645.12
269.609	658.12
269.841	656.12
270.073	641.12
270.306	624.12
270.538	618.12
270.77	641.12
271.002	643.12
271.234	644.12
271.466	652.12
271.698	665.12
271.93	668.12
272.162	685.12
272.394	672.12
272.626	675.12
272.858	667.12
273.09	680.12
273.322	689.12
273.553	701.12
273.785	689.12
274.017	696.12
274.249	713.12
274.481	703.12
274.713	693.12
274.945	721.12
275.176	701.12
275.408	684.12
275.64	712.12
275.872	693.12
276.104	718.12
276.335	713.12
276.567	737.12
276.799	711.12
277.031	739.12
277.262	722.12
277.494	715.12
277.726	771.12
277.957	751.12
278.189	729.12
278.421	749.12
278.652	756.12
278.884	767.12
279.115	764.12
279.347	752.12
279.579	783.12
279.81	773.12
280.042	772.12
280.273	796.12
280.505	812.12
280.736	766.12
280.968	791.12
281.199	780.12
281.431	806.12
281.662	805.12
281.894	794.12
282.125	800.12
282.356	816.12
282.588	820.12
282.819	804.12
283.051	797.12
283.282	814.12
283.513	803.12
283.745	816.12
283.976	839.12
284.207	827.12
284.439	823.12
284.67	824.12
284.901	838.12
285.132	826.12
285.364	837.12
285.595	844.12
285.826	827.12
286.057	861.12
286.288	862.12
286.52	869.12
286.751	843.12
286.982	855.12
287.213	861.12
287.444	846.12
287.675	881.12
287.906	875.12
288.138	877.12
288.369	865.12
288.6	878.12
288.831	856.12
289.062	857.12
289.293	884.12
289.524	892.12
289.755	863.12
289.986	864.12
290.217	880.12
290.448	895.12
290.679	876.12
290.91	883.12
291.141	866.12
291.371	899.12
291.602	887.12
291.833	867.12
292.064	869.12
292.295	900.12
292.526	906.12
292.757	893.12
292.987	886.12
293.218	885.12
293.449	883.12
293.68	897.12
293.91	886.12
294.141	888.12
294.372	883.12
294.603	884.12
294.833	901.12
295.064	905.12
295.295	908.12
295.525	875.12
295.756	930.12
295.987	913.12
296.217	916.12
296.448	915.12
296.679	897.12
296.909	934.12
297.14	919.12
297.37	963.12
297.601	953.12
297.831	952.12
298.062	976.12
298.292	973.12
298.523	1004.12
298.753	990.12
298.984	972.12
299.214	951.12
299.445	955.12
299.675	971.12
299.905	957.12
300.136	972.12
300.366	960.12
300.597	991.12
300.827	1006.12
301.057	1012.12
301.288	1006.12
301.518	1041.12
301.748	1019.12
301.979	1062.12
302.209	1017.12
302.439	1029.12
302.669	1013.12
302.9	1016.12
303.13	1026.12
303.36	1014.12
303.59	1042.12
303.82	1031.12
304.051	1041.12
304.281	1051.12
304.511	1009.12
304.741	1014.12
304.971	1025.12
305.201	1047.12
305.431	1052.12
305.661	1029.12
305.891	1064.12
306.121	1026.12
306.352	1013.12
306.582	1009.12
306.812	1012.12
307.042	1001.12
307.272	997.12
307.502	1019.12
307.731	1033.12
307.961	1005.12
308.191	1009.12
308.421	1009.12
308.651	1042.12
308.881	1033.12
309.111	1009.12
309.341	986.12
309.571	1025.12
309.8	1022.12
310.03	1047.12
310.26	1027.12
310.49	1050.12
310.72	1045.12
310.949	1034.12
311.179	1031.12
311.409	1031.12
311.639	1033.12
311.868	1035.12
312.098	1059.12
312.328	1061.12
312.557	1041.12
312.787	1065.12
313.017	1085.12
313.246	1093.12
313.476	1132.12
313.706	1070.12
313.935	1101.12
314.165	1115.12
314.394	1147.12
314.624	1105.12
314.853	1119.12
315.083	1117.12
315.312	1091.12
315.542	1124.12
315.771	1093.12
316.001	1121.12
316.23	1121.12
316.46	1089.12
316.689	1093.12
316.919	1135.12
317.148	1094.12
317.377	1134.12
317.607	1116.12
317.836	1071.12
318.065	1109.12
318.295	1125.12
318.524	1102.12
318.753	1109.12
318.983	1123.12
319.212	1109.12
319.441	1097.12
319.67	1135.12
319.9	1108.12
320.129	1149.12
320.358	1163.12
320.587	1121.12
320.816	1112.12
321.046	1157.12
321.275	1120.12
321.504	1137.12
321.733	1141.12
321.962	1152.12
322.191	1180.12
322.42	1137.12
322.649	1146.12
322.878	1187.12
323.108	1184.12
323.337	1175.12
323.566	1153.12
323.795	1184.12
324.024	1176.12
324.253	1180.12
324.482	1173.12
324.71	1194.12
324.939	1201.12
325.168	1190.12
325.397	1205.12
325.626	1227.12
325.855	1249.12
326.084	1254.12
326.313	1250.12
326.542	1247.12
326.77	1281.12
326.999	1263.12
327.228	1258.12
327.457	1258.12
327.686	1264.12
327.914	1291.12
328.143	1260.12
328.372	1287.12
328.6	1274.12
328.829	1260.12
329.058	1290.12
329.287	1272.12
329.515	1322.12
329.744	1293.12
329.972	1304.12
330.201	1295.12
330.43	1323.12
330.658	1335.12
330.887	1326.12
331.115	1326.12
331.344	1352.12
331.572	1355.12
331.801	1379.12
332.03	1366.12
332.258	1412.12
332.486	1453.12
332.715	1464.12
332.943	1483.12
333.172	1551.12
333.4	1626.12
333.629	1595.12
333.857	1623.12
334.085	1677.12
334.314	1668.12
334.542	1678.12
334.771	1648.12
334.999	1623.12
335.227	1657.12
335.455	1641.12
335.684	1631.12
335.912	1600.12
336.14	1614.12
336.369	1616.12
336.597	1609.12
336.825	1568.12
337.053	1559.12
337.281	1562.12
337.51	1506.12
337.738	1512.12
337.966	1462.12
338.194	1497.12
338.422	1461.12
338.65	1459.12
338.878	1450.12
339.106	1426.12
339.334	1451.12
339.562	1413.12
339.79	1404.12
340.018	1432.12
340.246	1346.12
340.474	1369.12
340.702	1364.12
340.93	1384.12
341.158	1414.12
341.386	1376.12
341.614	1437.12
341.842	1413.12
342.07	1363.12
342.298	1397.12
342.526	1366.12
342.754	1369.12
342.981	1368.12
343.209	1412.12
343.437	1437.12
343.665	1523.12
343.893	1555.12
344.12	1592.12
344.348	1589.12
344.576	1562.12
344.804	1578.12
345.031	1488.12
345.259	1439.12
345.487	1411.12
345.714	1412.12
345.942	1395.12
346.17	1422.12
346.397	1345.12
346.625	1338.12
346.853	1342.12
347.08	1327.12
347.308	1328.12
347.535	1325.12
347.763	1319.12
347.99	1326.12
348.218	1321.12
348.445	1326.12
348.673	1339.12
348.9	1319.12
349.128	1316.12
349.355	1301.12
349.583	1315.12
349.81	1301.12
350.037	1280.12
350.265	1308.12
350.492	1306.12
350.72	1277.12
350.947	1267.12
351.174	1311.12
351.402	1293.12
351.629	1319.12
351.856	1316.12
352.083	1272.12
352.311	1283.12
352.538	1310.12
352.765	1310.12
352.992	1272.12
353.22	1276.12
353.447	1245.12
353.674	1239.12
353.901	1264.12
354.128	1206.12
354.355	1255.12
354.583	1255.12
354.81	1271.12
355.037	1260.12
355.264	1267.12
355.491	1287.12
355.718	1264.12
355.945	1254.12
356.172	1257.12
356.399	1264.12
356.626	1281.12
356.853	1331.12
357.08	1272.12
357.307	1268.12
357.534	1286.12
357.761	1278.12
357.988	1270.12
358.215	1292.12
358.441	1271.12
358.668	1246.12
358.895	1271.12
359.122	1274.12
359.349	1256.12
359.576	1244.12
359.802	1251.12
360.029	1261.12
360.256	1278.12
360.483	1307.12
360.709	1267.12
360.936	1286.12
361.163	1276.12
361.39	1271.12
361.616	1292.12
361.843	1309.12
362.07	1296.12
362.296	1333.12
362.523	1239.12
362.749	1266.12
362.976	1251.12
363.203	1270.12
363.429	1245.12
363.656	1299.12
363.882	1244.12
364.109	1257.12
364.335	1275.12
364.562	1242.12
364.788	1297.12
365.015	1264.12
365.241	1270.12
365.468	1268.12
365.694	1295.12
365.92	1243.12
366.147	1271.12
366.373	1272.12
366.599	1290.12
366.826	1236.12
367.052	1277.12
367.278	1299.12
367.505	1284.12
367.731	1307.12
367.957	1256.12
368.184	1272.12
368.41	1286.12
368.636	1271.12
368.862	1305.12
369.089	1308.12
369.315	1295.12
369.541	1283.12
369.767	1310.12
369.993	1290.12
370.219	1277.12
370.445	1312.12
370.672	1347.12
370.898	1365.12
371.124	1359.12
371.35	1377.12
371.576	1367.12
371.802	1361.12
372.028	1351.12
372.254	1358.12
372.48	1406.12
372.706	1395.12
372.932	1403.12
373.158	1392.12
373.384	1399.12
373.61	1357.12
373.835	1355.12
374.061	1397.12
374.287	1388.12
374.513	1405.12
374.739	1449.12
374.965	1483.12
375.191	1478.12
375.416	1473.12
375.642	1475.12
375.868	1437.12
376.094	1411.12
376.319	1374.12
376.545	1387.12
376.771	1377.12
376.997	1354.12
377.222	1353.12
377.448	1361.12
377.674	1360.12
377.899	1348.12
378.125	1316.12
378.35	1312.12
378.576	1351.12
378.802	1355.12
379.027	1352.12
379.253	1336.12
379.478	1368.12
379.704	1370.12
379.929	1328.12
380.155	1337.12
380.38	1348.12
380.606	1372.12
380.831	1357.12
381.057	1388.12
381.282	1340.12
381.507	1372.12
381.733	1368.12
381.958	1401.12
382.184	1386.12
382.409	1405.12
382.634	1423.12
382.86	1406.12
383.085	1435.12
383.31	1435.12
383.535	1446.12
383.761	1484.12
383.986	1493.12
384.211	1509.12
384.436	1477.12
384.662	1530.12
384.887	1547.12
385.112	1555.12
385.337	1604.12
385.562	1600.12
385.787	1628.12
386.013	1644.12
386.238	1629.12
386.463	1626.12
386.688	1627.12
386.913	1594.12
387.138	1605.12
387.363	1626.12
387.588	1631.12
387.813	1602.12
388.038	1661.12
388.263	1628.12
388.488	1647.12
388.713	1639.12
388.938	1619.12
389.163	1607.12
389.387	1646.12
389.612	1583.12
389.837	1620.12
390.062	1582.12
390.287	1644.12
390.512	1592.12
390.736	1646.12
390.961	1667.12
391.186	1681.12
391.411	1721.12
391.636	1737.12
391.86	1766.12
392.085	1797.12
392.31	1799.12
392.534	1779.12
392.759	1763.12
392.984	1760.12
393.208	1741.12
393.433	1729.12
393.658	1703.12
393.882	1727.12
394.107	1723.12
394.331	1725.12
394.556	1751.12
394.78	1754.12
395.005	1769.12
395.229	1757.12
395.454	1774.12
395.678	1829.12
395.903	1819.12
396.127	1805.12
396.352	1798.12
396.576	1771.12
396.801	1776.12
397.025	1795.12
397.249	1829.12
397.474	1849.12
397.698	1894.12
397.922	1896.12
398.147	1863.12
398.371	1942.12
398.595	1970.12
398.82	2030.12
399.044	2159.12
399.268	2317.12
399.492	2493.12
399.717	2690.12
399.941	2760.12
400.165	2661.12
400.389	2483.12
400.613	2335.12
400.837	2207.12
401.062	2168.12
401.286	2144.12
401.51	2127.12
401.734	2060.12
401.958	2122.12
402.182	2085.12
402.406	2082.12
402.63	2116.12
402.854	2120.12
403.078	2091.12
403.302	2163.12
403.526	2115.12
403.75	2170.12
403.974	2184.12
404.198	2175.12
404.422	2207.12
404.645	2156.12
404.869	2180.12
405.093	2161.12
405.317	2201.12
405.541	2216.12
405.765	2213.12
405.988	2200.12
406.212	2217.12
406.436	2219.12
406.66	2324.12
406.883	2339.12
407.107	2429.12
407.331	2477.12
407.555	2557.12
407.778	2587.12
408.002	2527.12
408.226	2498.12
408.449	2485.12
408.673	2369.12
408.896	2312.12
409.12	2292.12
409.344	2335.12
409.567	2331.12
409.791	2261.12
410.014	2259.12
410.238	2252.12
410.461	2225.12
410.685	2259.12
410.908	2237.12
411.132	2179.12
411.355	2120.12
411.578	2169.12
411.802	2143.12
412.025	2140.12
412.249	2170.12
412.472	2117.12
412.695	2143.12
412.919	2103.12
413.142	2143.12
413.365	2070.12
413.589	2111.12
413.812	2071.12
414.035	2009.12
414.258	2051.12
414.482	2040.12
414.705	2067.12
414.928	2117.12
415.151	2085.12
415.374	2089.12
415.597	2054.12
415.821	2001.12
416.044	1992.12
416.267	2032.12
416.49	1992.12
416.713	1989.12
416.936	1998.12
417.159	1977.12
417.382	1960.12
417.605	1950.12
417.828	1991.12
418.051	1998.12
418.274	1978.12
418.497	2010.12
418.72	2025.12
418.943	2017.12
419.166	2158.12
419.389	2361.12
419.611	2241.12
419.834	2133.12
420.057	2109.12
420.28	2030.12
420.503	2021.12
420.726	1976.12
420.948	1999.12
421.171	1993.12
421.394	1964.12
421.617	2010.12
421.839	2016.12
422.062	2037.12
422.285	1980.12
422.507	2043.12
422.73	2031.12
422.953	2010.12
423.175	2079.12
423.398	2083.12
423.621	2011.12
423.843	2047.12
424.066	1984.12
424.288	2016.12
424.511	2001.12
424.733	2016.12
424.956	1988.12
425.178	2020.12
425.401	2018.12
425.623	1998.12
425.846	1946.12
426.068	1957.12
426.291	1931.12
426.513	1960.12
426.735	1909.12
426.958	1945.12
427.18	1880.12
427.402	1894.12
427.625	1856.12
427.847	1879.12
428.069	1883.12
428.292	1883.12
428.514	1841.12
428.736	1826.12
428.958	1872.12
429.181	1806.12
429.403	1784.12
429.625	1822.12
429.847	1825.12
430.069	1782.12
430.292	1794.12
430.514	1780.12
430.736	1804.12
430.958	1806.12
431.18	1765.12
431.402	1832.12
431.624	1827.12
431.846	1823.12
432.068	1833.12
432.29	1855.12
432.512	1812.12
432.734	1835.12
432.956	1847.12
433.178	1849.12
433.4	1843.12
433.622	1885.12
433.844	1893.12
434.066	1857.12
434.287	1872.12
434.509	1898.12
434.731	1977.12
434.953	1970.12
435.175	2017.12
435.397	2028.12
435.618	1915.12
435.84	1920.12
436.062	1848.12
436.284	1856.12
436.505	1824.12
436.727	1869.12
436.949	1842.12
437.17	1788.12
437.392	1802.12
437.614	1758.12
437.835	1752.12
438.057	1782.12
438.278	1767.12
438.5	1768.12
438.721	1782.12
438.943	1803.12
439.165	1732.12
439.386	1801.12
439.608	1788.12
439.829	1803.12
440.05	1775.12
440.272	1813.12
440.493	1861.12
440.715	1840.12
440.936	1869.12
441.158	1913.12
441.379	1905.12
441.6	1999.12
441.822	1971.12
442.043	1996.12
442.264	2013.12
442.486	1979.12
442.707	1958.12
442.928	1939.12
443.149	1995.12
443.371	1946.12
443.592	2007.12
443.813	2023.12
444.034	2073.12
444.255	2102.12
444.476	2139.12
444.698	2202.12
444.919	2252.12
445.14	2349.12
445.361	2199.12
445.582	2110.12
445.803	2019.12
446.024	1968.12
446.245	1962.12
446.466	1931.12
446.687	1864.12
446.908	1871.12
447.129	1811.12
447.35	1824.12
447.571	1812.12
447.792	1723.12
448.013	1759.12
448.234	1731.12
448.455	1676.12
448.675	1707.12
448.896	1722.12
449.117	1639.12
449.338	1667.12
449.559	1681.12
449.779	1648.12
450	1685.12
450.221	1648.12
450.442	1664.12
450.662	1658.12
450.883	1680.12
451.104	1681.12
451.324	1692.12
451.545	1685.12
451.766	1687.12
451.986	1647.12
452.207	1641.12
452.428	1618.12
452.648	1603.12
452.869	1621.12
453.089	1562.12
453.31	1646.12
453.53	1596.12
453.751	1589.12
453.971	1583.12
454.192	1609.12
454.412	1547.12
454.633	1571.12
454.853	1569.12
455.073	1533.12
455.294	1599.12
455.514	1562.12
455.734	1527.12
455.955	1562.12
456.175	1579.12
456.395	1564.12
456.616	1560.12
456.836	1561.12
457.056	1538.12
457.276	1493.12
457.497	1631.12
457.717	1572.12
457.937	1595.12
458.157	1621.12
458.377	1614.12
458.598	1669.12
458.818	1701.12
459.038	1739.12
459.258	1769.12
459.478	1827.12
459.698	1859.12
459.918	1881.12
460.138	1949.12
460.358	1998.12
460.578	2072.12
460.798	2101.12
461.018	2116.12
461.238	2120.12
461.458	2039.12
461.678	2088.12
461.898	2145.12
462.118	2174.12
462.338	2211.12
462.558	2323.12
462.777	2372.12
462.997	2493.12
463.217	2613.12
463.437	2663.12
463.657	2535.12
463.876	2438.12
464.096	2406.12
464.316	2386.12
464.536	2320.12
464.755	2284.12
464.975	2246.12
465.195	2135.12
465.414	2053.12
465.634	1953.12
465.854	1957.12
466.073	1926.12
466.293	1819.12
466.512	1813.12
466.732	1779.12
466.951	1807.12
467.171	1767.12
467.391	1763.12
467.61	1734.12
467.829	1730.12
468.049	1759.12
468.268	1739.12
468.488	1681.12
468.707	1737.12
468.927	1719.12
469.146	1690.12
469.365	1719.12
469.585	1711.12
469.804	1769.12
470.023	1747.12
470.243	1760.12
470.462	1803.12
470.681	1766.12
470.901	1779.12
471.12	1753.12
471.339	1759.12
471.558	1748.12
471.777	1731.12
471.997	1691.12
472.216	1670.12
472.435	1661.12
472.654	1681.12
472.873	1620.12
473.092	1648.12
473.311	1611.12
473.53	1663.12
473.749	1624.12
473.968	1667.12
474.187	1655.12
474.406	1637.12
474.625	1648.12
474.844	1655.12
475.063	1651.12
475.282	1668.12
475.501	1680.12
475.72	1675.12
475.939	1679.12
476.158	1686.12
476.377	1730.12
476.596	1720.12
476.814	1754.12
477.033	1754.12
477.252	1798.12
477.471	1838.12
477.69	1864.12
477.908	1873.12
478.127	1941.12
478.346	1901.12
478.564	1991.12
478.783	1995.12
479.002	2006.12
479.22	2052.12
479.439	2081.12
479.658	2040.12
479.876	2061.12
480.095	2056.12
480.313	2101.12
480.532	2071.12
480.751	2119.12
480.969	2062.12
481.188	2040.12
481.406	2010.12
481.624	1960.12
481.843	1973.12
482.061	1938.12
482.28	1937.12
482.498	1912.12
482.717	1920.12
482.935	1889.12
483.153	1895.12
483.372	1891.12
483.59	1929.12
483.808	1895.12
484.027	1914.12
484.245	1923.12
484.463	1940.12
484.681	1972.12
484.9	1916.12
485.118	1980.12
485.336	1992.12
485.554	1947.12
485.772	1965.12
485.99	1975.12
486.209	1989.12
486.427	1994.12
486.645	2028.12
486.863	2012.12
487.081	1994.12
487.299	1990.12
487.517	1938.12
487.735	1959.12
487.953	2024.12
488.171	1975.12
488.389	1940.12
488.607	1954.12
488.825	1915.12
489.043	1908.12
489.261	1976.12
489.479	1906.12
489.696	1984.12
489.914	1981.12
490.132	2000.12
490.35	1999.12
490.568	2017.12
490.786	2026.12
491.003	1998.12
491.221	1995.12
491.439	2008.12
491.657	1959.12
491.874	2037.12
492.092	2051.12
492.31	2054.12
492.527	2063.12
492.745	2071.12
492.963	2115.12
493.18	2084.12
493.398	2084.12
493.615	2083.12
493.833	2109.12
494.05	2109.12
494.268	2115.12
494.485	2142.12
494.703	2142.12
494.92	2151.12
495.138	2121.12
495.355	2140.12
495.573	2152.12
495.79	2140.12
496.008	2167.12
496.225	2231.12
496.442	2225.12
496.66	2233.12
496.877	2314.12
497.094	2327.12
497.312	2418.12
497.529	2483.12
497.746	2549.12
497.963	2590.12
498.181	2703.12
498.398	2803.12
498.615	2951.12
498.832	3100.12
499.049	3307.12
499.267	3473.12
499.484	3776.12
499.701	4123.12
499.918	4357.12
500.135	4723.12
500.352	5166.12
500.569	5203.12
500.786	5153.12
501.003	4956.12
501.22	4754.12
501.437	4347.12
501.654	3942.12
501.871	3763.12
502.088	3504.12
502.305	3278.12
502.522	3106.12
502.739	2957.12
502.956	2851.12
503.172	2783.12
503.389	2647.12
503.606	2646.12
503.823	2526.12
504.04	2534.12
504.256	2515.12
504.473	2472.12
504.69	2455.12
504.907	2392.12
505.123	2333.12
505.34	2233.12
505.557	2139.12
505.773	2100.12
505.99	2081.12
506.207	1990.12
506.423	1958.12
506.64	1969.12
506.856	1935.12
507.073	1927.12
507.289	1937.12
507.506	1899.12
507.722	1836.12
507.939	1888.12
508.155	1852.12
508.372	1818.12
508.588	1840.12
508.805	1800.12
509.021	1802.12
509.238	1746.12
509.454	1733.12
509.67	1742.12
509.887	1719.12
510.103	1734.12
510.319	1762.12
510.536	1736.12
510.752	1730.12
510.968	1683.12
511.184	1663.12
511.401	1708.12
511.617	1691.12
511.833	1714.12
512.049	1688.12
512.265	1719.12
512.481	1705.12
512.698	1722.12
512.914	1695.12
513.13	1719.12
513.346	1717.12
513.562	1689.12
513.778	1732.12
513.994	1712.12
514.21	1715.12
514.426	1715.12
514.642	1740.12
514.858	1737.12
515.074	1760.12
515.29	1806.12
515.506	1815.12
515.721	1845.12
515.937	1836.12
516.153	1870.12
516.369	1916.12
516.585	1956.12
516.801	1990.12
517.016	2057.12
517.232	2122.12
517.448	2192.12
517.664	2171.12
517.879	2218.12
518.095	2217.12
518.311	2248.12
518.527	2123.12
518.742	2108.12
518.958	2012.12
519.173	1967.12
519.389	1889.12
519.605	1872.12
519.82	1837.12
520.036	1815.12
520.251	1748.12
520.467	1704.12
520.682	1759.12
520.898	1691.12
521.113	1659.12
521.329	1670.12
521.544	1642.12
521.76	1593.12
521.975	1622.12
522.19	1616.12
522.406	1620.12
522.621	1615.12
522.836	1558.12
523.052	1591.12
523.267	1593.12
523.482	1560.12
523.698	1566.12
523.913	1553.12
524.128	1559.12
524.343	1540.12
524.559	1546.12
524.774	1552.12
524.989	1543.12
525.204	1564.12
525.419	1543.12
525.634	1527.12
525.849	1511.12
526.064	1499.12
526.28	1494.12
526.495	1499.12
526.71	1544.12
526.925	1527.12
527.14	1528.12
527.355	1477.12
527.57	1467.12
527.785	1495.12
527.999	1482.12
528.214	1485.12
528.429	1511.12
528.644	1471.12
528.859	1514.12
529.074	1508.12
529.289	1519.12
529.503	1543.12
529.718	1523.12
529.933	1470.12
530.148	1491.12
530.363	1486.12
530.577	1487.12
530.792	1460.12
531.007	1497.12
531.221	1474.12
531.436	1470.12
531.651	1495.12
531.865	1456.12
532.08	1476.12
532.295	1478.12
532.509	1466.12
532.724	1486.12
532.938	1496.12
533.153	1470.12
533.367	1469.12
533.582	1473.12
533.796	1481.12
534.011	1487.12
534.225	1462.12
534.44	1451.12
534.654	1469.12
534.868	1471.12
535.083	1462.12
535.297	1474.12
535.511	1435.12
535.726	1423.12
535.94	1414.12
536.154	1416.12
536.369	1418.12
536.583	1392.12
536.797	1380.12
537.011	1389.12
537.225	1350.12
537.44	1376.12
537.654	1371.12
537.868	1377.12
538.082	1395.12
538.296	1388.12
538.51	1365.12
538.724	1361.12
538.938	1353.12
539.153	1352.12
539.367	1358.12
539.581	1356.12
539.795	1352.12
540.009	1325.12
540.222	1351.12
540.436	1364.12
540.65	1331.12
540.864	1316.12
541.078	1339.12
541.292	1337.12
541.506	1351.12
541.72	1317.12
541.934	1374.12
542.147	1347.12
542.361	1327.12
542.575	1310.12
542.789	1307.12
543.002	1309.12
543.216	1309.12
543.43	1325.12
543.644	1277.12
543.857	1308.12
544.071	1321.12
544.285	1335.12
544.498	1320.12
544.712	1299.12
544.925	1344.12
545.139	1363.12
545.352	1365.12
545.566	1357.12
545.779	1363.12
545.993	1356.12
546.206	1323.12
546.42	1364.12
546.633	1355.12
546.847	1349.12
547.06	1363.12
547.274	1368.12
547.487	1383.12
547.7	1358.12
547.914	1390.12
548.127	1352.12
548.34	1355.12
548.554	1376.12
548.767	1378.12
548.98	1394.12
549.193	1360.12
549.407	1340.12
549.62	1350.12
549.833	1371.12
550.046	1322.12
550.259	1355.12
550.473	1345.12
550.686	1360.12
550.899	1348.12
551.112	1306.12
551.325	1339.12
551.538	1319.12
551.751	1351.12
551.964	1367.12
552.177	1371.12
552.39	1363.12
552.603	1397.12
552.816	1450.12
553.029	1441.12
553.242	1421.12
553.455	1448.12
553.667	1421.12
553.88	1419.12
554.093	1407.12
554.306	1394.12
554.519	1349.12
554.732	1335.12
554.944	1322.12
555.157	1295.12
555.37	1285.12
555.583	1288.12
555.795	1237.12
556.008	1249.12
556.221	1229.12
556.433	1220.12
556.646	1204.12
556.859	1179.12
557.071	1174.12
557.284	1176.12
557.496	1183.12
557.709	1198.12
557.921	1144.12
558.134	1161.12
558.346	1136.12
558.559	1141.12
558.771	1136.12
558.984	1135.12
559.196	1126.12
559.409	1111.12
559.621	1111.12
559.833	1115.12
560.046	1116.12
560.258	1145.12
560.47	1087.12
560.683	1117.12
560.895	1085.12
561.107	1137.12
561.32	1109.12
561.532	1103.12
561.744	1103.12
561.956	1091.12
562.168	1117.12
562.381	1107.12
562.593	1108.12
562.805	1149.12
563.017	1121.12
563.229	1115.12
563.441	1113.12
563.653	1157.12
563.865	1137.12
564.077	1149.12
564.289	1185.12
564.501	1206.12
564.713	1199.12
564.925	1228.12
565.137	1262.12
565.349	1268.12
565.561	1303.12
565.773	1355.12
565.985	1389.12
566.197	1440.12
566.408	1519.12
566.62	1570.12
566.832	1644.12
567.044	1711.12
567.255	1759.12
567.467	1742.12
567.679	1795.12
567.891	1807.12
568.102	1826.12
568.314	1795.12
568.526	1688.12
568.737	1568.12
568.949	1486.12
569.161	1402.12
569.372	1355.12
569.584	1273.12
569.795	1252.12
570.007	1207.12
570.218	1156.12
570.43	1156.12
570.641	1136.12
570.853	1142.12
571.064	1099.12
571.276	1112.12
571.487	1074.12
571.698	1065.12
571.91	1045.12
572.121	993.12
572.333	1014.12
572.544	980.12
572.755	971.12
572.966	967.12
573.178	937.12
573.389	932.12
573.6	942.12
573.811	944.12
574.023	926.12
574.234	912.12
574.445	912.12
574.656	934.12
574.867	898.12
575.078	889.12
575.289	893.12
575.501	880.12
575.712	864.12
575.923	872.12
576.134	891.12
576.345	843.12
576.556	851.12
576.767	839.12
576.978	866.12
577.188	844.12
577.399	841.12
577.61	840.12
577.821	827.12
578.032	817.12
578.243	776.12
578.454	814.12
578.665	784.12
578.875	789.12
579.086	775.12
579.297	796.12
579.508	809.12
579.718	784.12
579.929	781.12
580.14	745.12
580.35	789.12
580.561	756.12
580.772	758.12
580.982	771.12
581.193	748.12
581.403	748.12
581.614	776.12
581.825	763.12
582.035	760.12
582.246	746.12
582.456	719.12
582.667	746.12
582.877	774.12
583.087	735.12
583.298	748.12
583.508	739.12
583.719	763.12
583.929	733.12
584.139	717.12
584.35	731.12
584.56	728.12
584.77	751.12
584.981	736.12
585.191	717.12
585.401	699.12
585.611	707.12
585.821	707.12
586.032	710.12
586.242	721.12
586.452	715.12
586.662	758.12
586.872	722.12
587.082	685.12
587.292	705.12
587.502	717.12
587.713	720.12
587.923	729.12
588.133	695.12
588.343	729.12
588.553	732.12
588.762	676.12
588.972	708.12
589.182	762.12
589.392	750.12
589.602	712.12
589.812	737.12
590.022	721.12
590.232	720.12
590.441	719.12
590.651	713.12
590.861	727.12
591.071	731.12
591.281	709.12
591.49	737.12
591.7	742.12
591.91	763.12
592.119	780.12
592.329	753.12
592.539	786.12
592.748	815.12
592.958	819.12
593.167	825.12
593.377	820.12
593.587	803.12
593.796	828.12
594.006	842.12
594.215	839.12
594.424	853.12
594.634	833.12
594.843	825.12
595.053	791.12
595.262	776.12
595.472	743.12
595.681	714.12
595.89	720.12
596.1	678.12
596.309	709.12
596.518	683.12
596.727	695.12
596.937	659.12
597.146	645.12
597.355	664.12
597.564	632.12
597.774	637.12
597.983	622.12
598.192	616.12
598.401	636.12
598.61	631.12
598.819	611.12
599.028	599.12
599.237	596.12
599.446	591.12
599.655	609.12
599.864	589.12
600.073	603.12
600.282	588.12
600.491	570.12
600.7	591.12
600.909	599.12
601.118	581.12
601.327	565.12
601.536	570.12
601.745	581.12
601.953	591.12
602.162	564.12
602.371	552.12
602.58	541.12
602.789	552.12
602.997	543.12
603.206	556.12
603.415	545.12
603.623	531.12
603.832	543.12
604.041	553.12
604.249	567.12
604.458	550.12
604.666	553.12
604.875	529.12
605.084	548.12
605.292	524.12
605.501	548.12
605.709	531.12
605.918	534.12
606.126	528.12
606.334	538.12
606.543	503.12
606.751	515.12
606.96	531.12
607.168	522.12
607.376	501.12
607.585	529.12
607.793	548.12
608.001	517.12
608.21	519.12
608.418	520.12
608.626	521.12
608.834	493.12
609.043	517.12
609.251	486.12
609.459	503.12
609.667	498.12
609.875	512.12
610.083	508.12
610.291	499.12
610.499	487.12
610.707	499.12
610.916	488.12
611.124	506.12
611.332	490.12
611.54	491.12
611.748	509.12
611.955	488.12
612.163	487.12
612.371	505.12
612.579	495.12
612.787	479.12
612.995	483.12
613.203	493.12
613.411	473.12
613.618	478.12
613.826	490.12
614.034	480.12
614.242	497.12
614.449	485.12
614.657	502.12
614.865	466.12
615.072	478.12
615.28	501.12
615.488	487.12
615.695	478.12
615.903	477.12
616.111	467.12
616.318	489.12
616.526	470.12
616.733	465.12
616.941	456.12
617.148	467.12
617.356	460.12
617.563	469.12
617.771	493.12
617.978	463.12
618.185	460.12
618.393	463.12
618.6	470.12
618.807	458.12
619.015	460.12
619.222	472.12
619.429	463.12
619.637	452.12
619.844	469.12
620.051	443.12
620.258	446.12
620.466	452.12
620.673	417.12
620.88	425.12
621.087	431.12
621.294	452.12
621.501	442.12
621.708	430.12
621.915	448.12
622.122	451.12
622.329	431.12
622.536	425.12
622.743	435.12
622.95	416.12
623.157	414.12
623.364	451.12
623.571	421.12
623.778	417.12
623.985	419.12
624.192	429.12
624.399	426.12
624.606	409.12
624.812	421.12
625.019	428.12
625.226	411.12
625.433	416.12
625.639	418.12
625.846	405.12
626.053	409.12
626.259	392.12
626.466	399.12
626.673	389.12
626.879	392.12
627.086	381.12
627.293	396.12
627.499	384.12
627.706	395.12
627.912	389.12
628.119	395.12
628.325	387.12
628.532	390.12
628.738	389.12
628.945	391.12
629.151	404.12
629.357	396.12
629.564	373.12
629.77	380.12
629.976	347.12
630.183	367.12
630.389	364.12
630.595	367.12
630.802	397.12
631.008	366.12
631.214	351.12
631.42	358.12
631.627	348.12
631.833	361.12
632.039	368.12
632.245	340.12
632.451	361.12
632.657	355.12
632.863	350.12
633.069	347.12
633.275	363.12
633.481	357.12
633.688	342.12
633.893	344.12
634.099	341.12
634.305	348.12
634.511	363.12
634.717	329.12
634.923	353.12
635.129	357.12
635.335	339.12
635.541	345.12
635.747	353.12
635.952	349.12
636.158	355.12
636.364	351.12
636.57	337.12
636.775	347.12
636.981	350.12
637.187	337.12
637.392	341.12
637.598	318.12
637.804	324.12
638.009	332.12
638.215	316.12
638.421	323.12
638.626	315.12
638.832	323.12
639.037	319.12
639.243	309.12
639.448	308.12
639.654	328.12
639.859	316.12
640.065	319.12
640.27	321.12
640.475	329.12
640.681	296.12
640.886	328.12
641.091	291.12
641.297	303.12
641.502	309.12
641.707	305.12
641.913	295.12
642.118	279.12
642.323	280.12
642.528	286.12
642.733	290.12
642.939	302.12
643.144	315.12
643.349	308.12
643.554	300.12
643.759	291.12
643.964	283.12
644.169	304.12
644.374	300.12
644.579	291.12
644.784	280.12
644.989	280.12
645.194	308.12
645.399	283.12
645.604	288.12
645.809	304.12
646.014	298.12
646.219	302.12
646.423	288.12
646.628	303.12
646.833	284.12
647.038	307.12
647.243	307.12
647.447	287.12
647.652	295.12
647.857	297.12
648.062	301.12
648.266	303.12
648.471	294.12
648.676	288.12
648.88	311.12
649.085	308.12
649.289	308.12
649.494	294.12
649.698	283.12
649.903	292.12
650.107	292.12
650.312	288.12
650.516	271.12
650.721	260.12
650.925	266.12
651.13	250.12
651.334	275.12
651.539	268.12
651.743	249.12
651.947	234.12
652.152	255.12
652.356	239.12
652.56	263.12
652.764	232.12
652.969	243.12
653.173	228.12
653.377	231.12
653.581	232.12
653.785	216.12
653.99	227.12
654.194	233.12
654.398	218.12
654.602	218.12
654.806	208.12
655.01	216.12
655.214	190.12
655.418	200.12
655.622	217.12
655.826	210.12
656.03	199.12
656.234	198.12
656.438	201.12
656.642	197.12
656.846	206.12
657.049	209.12
657.253	188.12
657.457	161.12
657.661	159.12
657.865	173.12
658.068	164.12
658.272	147.12
658.476	155.12
658.68	145.12
658.883	142.12
659.087	129.12
659.291	141.12
659.494	124.12
659.698	129.12
659.901	129.12
660.105	130.12
660.309	121.12
660.512	114.12
660.716	125.12
660.919	103.12
661.123	124.12
661.326	103.12
661.53	109.12
661.733	105.12
661.936	96.12
662.14	89.12
662.343	99.12
662.546	97.12
662.75	105.12
662.953	80.12
663.156	94.12
663.36	97.12
663.563	91.12
663.766	89.12
663.969	90.12
664.173	83.12
664.376	79.12
664.579	77.12
664.782	86.12
664.985	88.12
665.188	79.12
665.391	87.12
665.594	99.12
665.797	91.12
666	85.12
666.203	87.12
666.406	78.12
666.609	103.12
666.812	89.12
667.015	89.12
667.218	86.12
667.421	91.12
667.624	94.12
667.827	92.12
668.03	81.12
668.232	77.12
668.435	90.12
668.638	86.12
668.841	92.12
669.043	84.12
669.246	82.12
669.449	91.12
669.651	83.12
669.854	93.12
670.057	86.12
670.259	81.12
670.462	81.12
670.665	84.12
670.867	91.12
671.07	106.12
671.272	70.12
671.475	80.12
671.677	89.12
671.88	78.12
672.082	75.12
672.284	88.12
672.487	91.12
672.689	83.12
672.892	84.12
