Data from Ni(NO3)2@0.5M.TitratingCurve.Agarose3%dH2O.NegLispCup.LampEnergy10.LIBS07252019_HRD10591_17-59-59-565.txt Node
Date: Thu Jul 25 17:59:59 EDT 2019
User: cochatt
Spectrometer: HR+D1059
Trigger mode: 1
Integration Time (sec): 1.000000E-1
Scans to average: 1
Electric dark correction enabled: true
Nonlinearity correction enabled: false
Boxcar width: 0
XAxis mode: Wavelengths
Number of Pixels in Spectrum: 2048
>>>>>Begin Spectral Data<<<<<
223.165	-18.25
223.4	-18.25
223.635	-18.25
223.869	-25.25
224.104	-17.25
224.338	-1.25
224.573	-12.25
224.808	-6.25
225.042	-13.25
225.277	-8.25
225.511	-1.25
225.746	-0.25
225.98	11.75
226.215	16.75
226.449	9.75
226.683	9.75
226.918	18.75
227.152	36.75
227.387	31.75
227.621	48.75
227.856	43.75
228.09	49.75
228.324	56.75
228.559	71.75
228.793	70.75
229.027	139.75
229.262	160.75
229.496	141.75
229.73	158.75
229.964	185.75
230.199	215.75
230.433	218.75
230.667	186.75
230.901	188.75
231.136	165.75
231.37	176.75
231.604	186.75
231.838	188.75
232.072	201.75
232.306	202.75
232.541	190.75
232.775	177.75
233.009	179.75
233.243	186.75
233.477	168.75
233.711	186.75
233.945	197.75
234.179	190.75
234.413	176.75
234.647	203.75
234.881	180.75
235.115	198.75
235.349	199.75
235.583	194.75
235.817	192.75
236.051	185.75
236.285	191.75
236.519	194.75
236.753	205.75
236.987	187.75
237.221	198.75
237.455	187.75
237.689	185.75
237.922	195.75
238.156	199.75
238.39	179.75
238.624	187.75
238.858	209.75
239.091	199.75
239.325	197.75
239.559	223.75
239.793	250.75
240.027	247.75
240.26	243.75
240.494	211.75
240.728	209.75
240.961	220.75
241.195	212.75
241.429	210.75
241.662	222.75
241.896	230.75
242.13	249.75
242.363	222.75
242.597	223.75
242.83	226.75
243.064	231.75
243.298	238.75
243.531	247.75
243.765	233.75
243.998	253.75
244.232	241.75
244.465	269.75
244.699	253.75
244.932	249.75
245.166	275.75
245.399	260.75
245.633	258.75
245.866	242.75
246.099	270.75
246.333	261.75
246.566	269.75
246.8	241.75
247.033	261.75
247.266	255.75
247.5	295.75
247.733	288.75
247.966	266.75
248.2	281.75
248.433	277.75
248.666	294.75
248.899	293.75
249.133	274.75
249.366	287.75
249.599	294.75
249.832	286.75
250.066	307.75
250.299	301.75
250.532	290.75
250.765	299.75
250.998	298.75
251.231	335.75
251.465	324.75
251.698	350.75
251.931	323.75
252.164	314.75
252.397	311.75
252.63	329.75
252.863	321.75
253.096	341.75
253.329	335.75
253.562	320.75
253.795	339.75
254.028	341.75
254.261	325.75
254.494	345.75
254.727	358.75
254.96	330.75
255.193	337.75
255.426	362.75
255.659	335.75
255.892	358.75
256.124	352.75
256.357	357.75
256.59	389.75
256.823	360.75
257.056	350.75
257.289	352.75
257.521	381.75
257.754	367.75
257.987	360.75
258.22	391.75
258.452	367.75
258.685	383.75
258.918	382.75
259.151	379.75
259.383	385.75
259.616	393.75
259.849	390.75
260.081	399.75
260.314	403.75
260.547	407.75
260.779	389.75
261.012	406.75
261.244	395.75
261.477	417.75
261.71	413.75
261.942	403.75
262.175	393.75
262.407	406.75
262.64	402.75
262.872	407.75
263.105	406.75
263.337	419.75
263.57	414.75
263.802	401.75
264.035	425.75
264.267	428.75
264.499	439.75
264.732	425.75
264.964	439.75
265.197	439.75
265.429	435.75
265.661	458.75
265.894	467.75
266.126	422.75
266.358	416.75
266.591	434.75
266.823	474.75
267.055	455.75
267.287	447.75
267.52	443.75
267.752	449.75
267.984	478.75
268.216	478.75
268.448	476.75
268.681	472.75
268.913	478.75
269.145	471.75
269.377	445.75
269.609	460.75
269.841	485.75
270.073	455.75
270.306	465.75
270.538	474.75
270.77	463.75
271.002	473.75
271.234	472.75
271.466	483.75
271.698	502.75
271.93	491.75
272.162	499.75
272.394	498.75
272.626	505.75
272.858	490.75
273.09	479.75
273.322	517.75
273.553	496.75
273.785	503.75
274.017	493.75
274.249	528.75
274.481	518.75
274.713	507.75
274.945	530.75
275.176	529.75
275.408	507.75
275.64	545.75
275.872	522.75
276.104	541.75
276.335	521.75
276.567	537.75
276.799	527.75
277.031	533.75
277.262	518.75
277.494	530.75
277.726	553.75
277.957	569.75
278.189	532.75
278.421	543.75
278.652	559.75
278.884	573.75
279.115	551.75
279.347	581.75
279.579	558.75
279.81	551.75
280.042	561.75
280.273	553.75
280.505	572.75
280.736	579.75
280.968	552.75
281.199	573.75
281.431	585.75
281.662	556.75
281.894	565.75
282.125	581.75
282.356	591.75
282.588	571.75
282.819	586.75
283.051	599.75
283.282	579.75
283.513	573.75
283.745	586.75
283.976	595.75
284.207	594.75
284.439	595.75
284.67	588.75
284.901	632.75
285.132	628.75
285.364	620.75
285.595	605.75
285.826	607.75
286.057	613.75
286.288	613.75
286.52	625.75
286.751	622.75
286.982	632.75
287.213	616.75
287.444	645.75
287.675	625.75
287.906	642.75
288.138	601.75
288.369	631.75
288.6	655.75
288.831	624.75
289.062	630.75
289.293	623.75
289.524	623.75
289.755	616.75
289.986	640.75
290.217	641.75
290.448	648.75
290.679	642.75
290.91	639.75
291.141	637.75
291.371	642.75
291.602	675.75
291.833	650.75
292.064	657.75
292.295	672.75
292.526	674.75
292.757	645.75
292.987	645.75
293.218	636.75
293.449	672.75
293.68	654.75
293.91	621.75
294.141	647.75
294.372	649.75
294.603	675.75
294.833	668.75
295.064	664.75
295.295	659.75
295.525	632.75
295.756	670.75
295.987	658.75
296.217	673.75
296.448	684.75
296.679	659.75
296.909	670.75
297.14	672.75
297.37	683.75
297.601	677.75
297.831	688.75
298.062	694.75
298.292	695.75
298.523	686.75
298.753	690.75
298.984	704.75
299.214	725.75
299.445	720.75
299.675	723.75
299.905	738.75
300.136	709.75
300.366	715.75
300.597	712.75
300.827	711.75
301.057	718.75
301.288	749.75
301.518	735.75
301.748	707.75
301.979	729.75
302.209	738.75
302.439	729.75
302.669	757.75
302.9	735.75
303.13	729.75
303.36	713.75
303.59	730.75
303.82	750.75
304.051	759.75
304.281	785.75
304.511	736.75
304.741	741.75
304.971	750.75
305.201	745.75
305.431	751.75
305.661	758.75
305.891	768.75
306.121	742.75
306.352	762.75
306.582	748.75
306.812	726.75
307.042	771.75
307.272	715.75
307.502	730.75
307.731	769.75
307.961	757.75
308.191	736.75
308.421	743.75
308.651	781.75
308.881	750.75
309.111	747.75
309.341	751.75
309.571	766.75
309.8	794.75
310.03	773.75
310.26	779.75
310.49	787.75
310.72	768.75
310.949	762.75
311.179	787.75
311.409	760.75
311.639	795.75
311.868	756.75
312.098	767.75
312.328	792.75
312.557	799.75
312.787	802.75
313.017	795.75
313.246	794.75
313.476	801.75
313.706	817.75
313.935	811.75
314.165	813.75
314.394	794.75
314.624	799.75
314.853	814.75
315.083	813.75
315.312	823.75
315.542	800.75
315.771	821.75
316.001	831.75
316.23	814.75
316.46	804.75
316.689	826.75
316.919	839.75
317.148	823.75
317.377	833.75
317.607	800.75
317.836	826.75
318.065	802.75
318.295	832.75
318.524	835.75
318.753	815.75
318.983	842.75
319.212	839.75
319.441	815.75
319.67	823.75
319.9	848.75
320.129	832.75
320.358	853.75
320.587	812.75
320.816	814.75
321.046	834.75
321.275	824.75
321.504	828.75
321.733	855.75
321.962	831.75
322.191	869.75
322.42	880.75
322.649	864.75
322.878	851.75
323.108	831.75
323.337	871.75
323.566	836.75
323.795	871.75
324.024	869.75
324.253	876.75
324.482	892.75
324.71	865.75
324.939	885.75
325.168	882.75
325.397	878.75
325.626	896.75
325.855	898.75
326.084	907.75
326.313	904.75
326.542	907.75
326.77	907.75
326.999	902.75
327.228	909.75
327.457	891.75
327.686	890.75
327.914	902.75
328.143	908.75
328.372	914.75
328.6	906.75
328.829	891.75
329.058	914.75
329.287	937.75
329.515	925.75
329.744	886.75
329.972	948.75
330.201	954.75
330.43	951.75
330.658	933.75
330.887	972.75
331.115	971.75
331.344	963.75
331.572	963.75
331.801	1006.75
332.03	1010.75
332.258	1013.75
332.486	992.75
332.715	991.75
332.943	1014.75
333.172	1045.75
333.4	1063.75
333.629	1063.75
333.857	1111.75
334.085	1116.75
334.314	1095.75
334.542	1083.75
334.771	1113.75
334.999	1068.75
335.227	1086.75
335.455	1099.75
335.684	1085.75
335.912	1066.75
336.14	1074.75
336.369	1102.75
336.597	1081.75
336.825	1087.75
337.053	1072.75
337.281	1071.75
337.51	1079.75
337.738	1037.75
337.966	1063.75
338.194	1026.75
338.422	1052.75
338.65	1033.75
338.878	1020.75
339.106	1031.75
339.334	1019.75
339.562	1010.75
339.79	972.75
340.018	975.75
340.246	1017.75
340.474	991.75
340.702	970.75
340.93	1004.75
341.158	1017.75
341.386	1015.75
341.614	1021.75
341.842	1014.75
342.07	975.75
342.298	979.75
342.526	989.75
342.754	971.75
342.981	998.75
343.209	1009.75
343.437	1036.75
343.665	1032.75
343.893	1074.75
344.12	1079.75
344.348	1094.75
344.576	1081.75
344.804	1085.75
345.031	1039.75
345.259	1017.75
345.487	995.75
345.714	1025.75
345.942	1022.75
346.17	1050.75
346.397	1016.75
346.625	993.75
346.853	939.75
347.08	934.75
347.308	959.75
347.535	965.75
347.763	954.75
347.99	951.75
348.218	952.75
348.445	962.75
348.673	969.75
348.9	947.75
349.128	957.75
349.355	950.75
349.583	971.75
349.81	957.75
350.037	929.75
350.265	929.75
350.492	933.75
350.72	950.75
350.947	936.75
351.174	936.75
351.402	979.75
351.629	970.75
351.856	965.75
352.083	964.75
352.311	940.75
352.538	992.75
352.765	990.75
352.992	929.75
353.22	911.75
353.447	870.75
353.674	899.75
353.901	904.75
354.128	901.75
354.355	935.75
354.583	940.75
354.81	906.75
355.037	892.75
355.264	920.75
355.491	907.75
355.718	915.75
355.945	903.75
356.172	904.75
356.399	925.75
356.626	965.75
356.853	976.75
357.08	946.75
357.307	932.75
357.534	911.75
357.761	934.75
357.988	954.75
358.215	924.75
358.441	913.75
358.668	925.75
358.895	906.75
359.122	926.75
359.349	909.75
359.576	941.75
359.802	928.75
360.029	934.75
360.256	923.75
360.483	938.75
360.709	939.75
360.936	950.75
361.163	939.75
361.39	937.75
361.616	953.75
361.843	962.75
362.07	1006.75
362.296	1001.75
362.523	933.75
362.749	897.75
362.976	930.75
363.203	915.75
363.429	914.75
363.656	939.75
363.882	926.75
364.109	953.75
364.335	923.75
364.562	909.75
364.788	935.75
365.015	939.75
365.241	959.75
365.468	943.75
365.694	934.75
365.92	944.75
366.147	889.75
366.373	936.75
366.599	923.75
366.826	945.75
367.052	935.75
367.278	958.75
367.505	930.75
367.731	938.75
367.957	957.75
368.184	931.75
368.41	955.75
368.636	949.75
368.862	979.75
369.089	973.75
369.315	946.75
369.541	947.75
369.767	962.75
369.993	972.75
370.219	977.75
370.445	976.75
370.672	985.75
370.898	977.75
371.124	962.75
371.35	993.75
371.576	993.75
371.802	999.75
372.028	1012.75
372.254	998.75
372.48	998.75
372.706	995.75
372.932	1018.75
373.158	993.75
373.384	1019.75
373.61	1019.75
373.835	1025.75
374.061	1027.75
374.287	1012.75
374.513	1027.75
374.739	1041.75
374.965	1036.75
375.191	1038.75
375.416	1048.75
375.642	1049.75
375.868	1035.75
376.094	1016.75
376.319	1001.75
376.545	994.75
376.771	990.75
376.997	1001.75
377.222	1001.75
377.448	998.75
377.674	1002.75
377.899	982.75
378.125	1001.75
378.35	1029.75
378.576	987.75
378.802	949.75
379.027	992.75
379.253	978.75
379.478	990.75
379.704	1003.75
379.929	992.75
380.155	974.75
380.38	1002.75
380.606	1000.75
380.831	975.75
381.057	987.75
381.282	969.75
381.507	1002.75
381.733	1016.75
381.958	1010.75
382.184	988.75
382.409	1007.75
382.634	1024.75
382.86	1042.75
383.085	1039.75
383.31	1022.75
383.535	1051.75
383.761	1036.75
383.986	1037.75
384.211	1036.75
384.436	1101.75
384.662	1077.75
384.887	1115.75
385.112	1111.75
385.337	1096.75
385.562	1113.75
385.787	1147.75
386.013	1147.75
386.238	1145.75
386.463	1167.75
386.688	1147.75
386.913	1129.75
387.138	1127.75
387.363	1150.75
387.588	1142.75
387.813	1170.75
388.038	1172.75
388.263	1136.75
388.488	1144.75
388.713	1143.75
388.938	1148.75
389.163	1127.75
389.387	1126.75
389.612	1083.75
389.837	1157.75
390.062	1148.75
390.287	1154.75
390.512	1151.75
390.736	1168.75
390.961	1149.75
391.186	1165.75
391.411	1179.75
391.636	1185.75
391.86	1209.75
392.085	1225.75
392.31	1199.75
392.534	1191.75
392.759	1208.75
392.984	1189.75
393.208	1203.75
393.433	1199.75
393.658	1206.75
393.882	1192.75
394.107	1169.75
394.331	1190.75
394.556	1211.75
394.78	1194.75
395.005	1175.75
395.229	1188.75
395.454	1241.75
395.678	1229.75
395.903	1221.75
396.127	1241.75
396.352	1201.75
396.576	1223.75
396.801	1206.75
397.025	1254.75
397.249	1248.75
397.474	1261.75
397.698	1264.75
397.922	1285.75
398.147	1278.75
398.371	1304.75
398.595	1320.75
398.82	1366.75
399.044	1413.75
399.268	1513.75
399.492	1575.75
399.717	1654.75
399.941	1612.75
400.165	1592.75
400.389	1519.75
400.613	1440.75
400.837	1406.75
401.062	1403.75
401.286	1391.75
401.51	1401.75
401.734	1341.75
401.958	1350.75
402.182	1331.75
402.406	1340.75
402.63	1372.75
402.854	1372.75
403.078	1380.75
403.302	1375.75
403.526	1378.75
403.75	1434.75
403.974	1421.75
404.198	1389.75
404.422	1404.75
404.645	1412.75
404.869	1406.75
405.093	1445.75
405.317	1406.75
405.541	1437.75
405.765	1422.75
405.988	1447.75
406.212	1482.75
406.436	1451.75
406.66	1488.75
406.883	1492.75
407.107	1552.75
407.331	1559.75
407.555	1616.75
407.778	1642.75
408.002	1577.75
408.226	1577.75
408.449	1554.75
408.673	1545.75
408.896	1507.75
409.12	1479.75
409.344	1475.75
409.567	1461.75
409.791	1463.75
410.014	1473.75
410.238	1482.75
410.461	1476.75
410.685	1437.75
410.908	1443.75
411.132	1426.75
411.355	1387.75
411.578	1433.75
411.802	1413.75
412.025	1422.75
412.249	1447.75
412.472	1423.75
412.695	1391.75
412.919	1390.75
413.142	1379.75
413.365	1387.75
413.589	1407.75
413.812	1393.75
414.035	1360.75
414.258	1375.75
414.482	1381.75
414.705	1365.75
414.928	1382.75
415.151	1359.75
415.374	1330.75
415.597	1334.75
415.821	1319.75
416.044	1319.75
416.267	1325.75
416.49	1351.75
416.713	1325.75
416.936	1343.75
417.159	1320.75
417.382	1305.75
417.605	1303.75
417.828	1310.75
418.051	1313.75
418.274	1320.75
418.497	1346.75
418.72	1350.75
418.943	1350.75
419.166	1382.75
419.389	1475.75
419.611	1435.75
419.834	1409.75
420.057	1337.75
420.28	1359.75
420.503	1304.75
420.726	1317.75
420.948	1303.75
421.171	1295.75
421.394	1311.75
421.617	1331.75
421.839	1319.75
422.062	1332.75
422.285	1293.75
422.507	1310.75
422.73	1313.75
422.953	1311.75
423.175	1321.75
423.398	1364.75
423.621	1321.75
423.843	1331.75
424.066	1320.75
424.288	1308.75
424.511	1307.75
424.733	1303.75
424.956	1320.75
425.178	1297.75
425.401	1304.75
425.623	1296.75
425.846	1261.75
426.068	1297.75
426.291	1266.75
426.513	1257.75
426.735	1275.75
426.958	1268.75
427.18	1237.75
427.402	1299.75
427.625	1275.75
427.847	1213.75
428.069	1194.75
428.292	1251.75
428.514	1233.75
428.736	1235.75
428.958	1240.75
429.181	1223.75
429.403	1231.75
429.625	1219.75
429.847	1234.75
430.069	1222.75
430.292	1237.75
430.514	1223.75
430.736	1233.75
430.958	1236.75
431.18	1230.75
431.402	1248.75
431.624	1224.75
431.846	1263.75
432.068	1265.75
432.29	1281.75
432.512	1241.75
432.734	1260.75
432.956	1253.75
433.178	1248.75
433.4	1274.75
433.622	1305.75
433.844	1275.75
434.066	1294.75
434.287	1327.75
434.509	1290.75
434.731	1321.75
434.953	1325.75
435.175	1363.75
435.397	1347.75
435.618	1326.75
435.84	1271.75
436.062	1247.75
436.284	1242.75
436.505	1264.75
436.727	1215.75
436.949	1234.75
437.17	1286.75
437.392	1269.75
437.614	1207.75
437.835	1218.75
438.057	1194.75
438.278	1187.75
438.5	1177.75
438.721	1207.75
438.943	1201.75
439.165	1207.75
439.386	1189.75
439.608	1226.75
439.829	1194.75
440.05	1228.75
440.272	1244.75
440.493	1223.75
440.715	1229.75
440.936	1266.75
441.158	1274.75
441.379	1257.75
441.6	1336.75
441.822	1305.75
442.043	1306.75
442.264	1275.75
442.486	1287.75
442.707	1283.75
442.928	1272.75
443.149	1308.75
443.371	1310.75
443.592	1367.75
443.813	1373.75
444.034	1325.75
444.255	1330.75
444.476	1395.75
444.698	1399.75
444.919	1449.75
445.14	1543.75
445.361	1419.75
445.582	1351.75
445.803	1326.75
446.024	1276.75
446.245	1288.75
446.466	1216.75
446.687	1214.75
446.908	1213.75
447.129	1196.75
447.35	1190.75
447.571	1160.75
447.792	1178.75
448.013	1159.75
448.234	1155.75
448.455	1130.75
448.675	1142.75
448.896	1155.75
449.117	1132.75
449.338	1147.75
449.559	1123.75
449.779	1109.75
450	1128.75
450.221	1114.75
450.442	1112.75
450.662	1142.75
450.883	1120.75
451.104	1141.75
451.324	1135.75
451.545	1127.75
451.766	1114.75
451.986	1106.75
452.207	1072.75
452.428	1105.75
452.648	1080.75
452.869	1085.75
453.089	1097.75
453.31	1108.75
453.53	1087.75
453.751	1083.75
453.971	1071.75
454.192	1134.75
454.412	1127.75
454.633	1090.75
454.853	1087.75
455.073	1088.75
455.294	1098.75
455.514	1089.75
455.734	1115.75
455.955	1138.75
456.175	1116.75
456.395	1057.75
456.616	1073.75
456.836	1060.75
457.056	1065.75
457.276	1052.75
457.497	1102.75
457.717	1117.75
457.937	1119.75
458.157	1101.75
458.377	1127.75
458.598	1141.75
458.818	1121.75
459.038	1183.75
459.258	1185.75
459.478	1256.75
459.698	1363.75
459.918	1345.75
460.138	1322.75
460.358	1329.75
460.578	1336.75
460.798	1403.75
461.018	1413.75
461.238	1380.75
461.458	1339.75
461.678	1318.75
461.898	1402.75
462.118	1391.75
462.338	1405.75
462.558	1451.75
462.777	1509.75
462.997	1557.75
463.217	1584.75
463.437	1635.75
463.657	1610.75
463.876	1532.75
464.096	1505.75
464.316	1483.75
464.536	1459.75
464.755	1453.75
464.975	1402.75
465.195	1349.75
465.414	1343.75
465.634	1273.75
465.854	1298.75
466.073	1223.75
466.293	1249.75
466.512	1215.75
466.732	1224.75
466.951	1214.75
467.171	1185.75
467.391	1191.75
467.61	1195.75
467.829	1173.75
468.049	1172.75
468.268	1150.75
468.488	1173.75
468.707	1153.75
468.927	1199.75
469.146	1192.75
469.365	1210.75
469.585	1168.75
469.804	1210.75
470.023	1206.75
470.243	1156.75
470.462	1225.75
470.681	1176.75
470.901	1217.75
471.12	1170.75
471.339	1190.75
471.558	1181.75
471.777	1185.75
471.997	1173.75
472.216	1172.75
472.435	1156.75
472.654	1145.75
472.873	1127.75
473.092	1168.75
473.311	1181.75
473.53	1162.75
473.749	1173.75
473.968	1156.75
474.187	1144.75
474.406	1166.75
474.625	1155.75
474.844	1181.75
475.063	1179.75
475.282	1183.75
475.501	1193.75
475.72	1185.75
475.939	1205.75
476.158	1213.75
476.377	1209.75
476.596	1212.75
476.814	1212.75
477.033	1267.75
477.252	1261.75
477.471	1273.75
477.69	1299.75
477.908	1322.75
478.127	1326.75
478.346	1320.75
478.564	1375.75
478.783	1382.75
479.002	1432.75
479.22	1457.75
479.439	1433.75
479.658	1394.75
479.876	1388.75
480.095	1399.75
480.313	1437.75
480.532	1468.75
480.751	1449.75
480.969	1431.75
481.188	1416.75
481.406	1423.75
481.624	1381.75
481.843	1351.75
482.061	1369.75
482.28	1382.75
482.498	1366.75
482.717	1367.75
482.935	1390.75
483.153	1417.75
483.372	1449.75
483.59	1426.75
483.808	1433.75
484.027	1431.75
484.245	1424.75
484.463	1426.75
484.681	1421.75
484.9	1430.75
485.118	1408.75
485.336	1398.75
485.554	1471.75
485.772	1413.75
485.99	1446.75
486.209	1424.75
486.427	1430.75
486.645	1410.75
486.863	1456.75
487.081	1471.75
487.299	1434.75
487.517	1470.75
487.735	1445.75
487.953	1463.75
488.171	1459.75
488.389	1450.75
488.607	1444.75
488.825	1417.75
489.043	1459.75
489.261	1431.75
489.479	1437.75
489.696	1414.75
489.914	1465.75
490.132	1437.75
490.35	1431.75
490.568	1453.75
490.786	1439.75
491.003	1415.75
491.221	1436.75
491.439	1470.75
491.657	1453.75
491.874	1478.75
492.092	1486.75
492.31	1473.75
492.527	1495.75
492.745	1470.75
492.963	1463.75
493.18	1479.75
493.398	1456.75
493.615	1480.75
493.833	1466.75
494.05	1480.75
494.268	1492.75
494.485	1482.75
494.703	1456.75
494.92	1484.75
495.138	1455.75
495.355	1493.75
495.573	1532.75
495.79	1493.75
496.008	1510.75
496.225	1473.75
496.442	1541.75
496.66	1548.75
496.877	1575.75
497.094	1582.75
497.312	1581.75
497.529	1625.75
497.746	1640.75
497.963	1697.75
498.181	1770.75
498.398	1772.75
498.615	1857.75
498.832	1927.75
499.049	1979.75
499.267	2071.75
499.484	2195.75
499.701	2310.75
499.918	2429.75
500.135	2650.75
500.352	2729.75
500.569	2806.75
500.786	2774.75
501.003	2690.75
501.22	2561.75
501.437	2410.75
501.654	2265.75
501.871	2182.75
502.088	2071.75
502.305	2007.75
502.522	1931.75
502.739	1854.75
502.956	1782.75
503.172	1735.75
503.389	1701.75
503.606	1650.75
503.823	1609.75
504.04	1634.75
504.256	1584.75
504.473	1619.75
504.69	1594.75
504.907	1528.75
505.123	1508.75
505.34	1479.75
505.557	1449.75
505.773	1415.75
505.99	1389.75
506.207	1371.75
506.423	1370.75
506.64	1335.75
506.856	1296.75
507.073	1258.75
507.289	1291.75
507.506	1305.75
507.722	1269.75
507.939	1273.75
508.155	1297.75
508.372	1246.75
508.588	1227.75
508.805	1229.75
509.021	1204.75
509.238	1229.75
509.454	1202.75
509.67	1185.75
509.887	1184.75
510.103	1185.75
510.319	1179.75
510.536	1172.75
510.752	1185.75
510.968	1199.75
511.184	1134.75
511.401	1167.75
511.617	1185.75
511.833	1165.75
512.049	1195.75
512.265	1182.75
512.481	1179.75
512.698	1136.75
512.914	1145.75
513.13	1151.75
513.346	1171.75
513.562	1159.75
513.778	1165.75
513.994	1173.75
514.21	1172.75
514.426	1187.75
514.642	1155.75
514.858	1173.75
515.074	1182.75
515.29	1195.75
515.506	1214.75
515.721	1193.75
515.937	1230.75
516.153	1230.75
516.369	1216.75
516.585	1259.75
516.801	1258.75
517.016	1302.75
517.232	1367.75
517.448	1351.75
517.664	1353.75
517.879	1377.75
518.095	1386.75
518.311	1382.75
518.527	1290.75
518.742	1287.75
518.958	1272.75
519.173	1233.75
519.389	1233.75
519.605	1222.75
519.82	1208.75
520.036	1197.75
520.251	1207.75
520.467	1150.75
520.682	1131.75
520.898	1124.75
521.113	1125.75
521.329	1117.75
521.544	1098.75
521.76	1092.75
521.975	1122.75
522.19	1112.75
522.406	1090.75
522.621	1096.75
522.836	1053.75
523.052	1082.75
523.267	1065.75
523.482	1069.75
523.698	1038.75
523.913	1027.75
524.128	1052.75
524.343	1052.75
524.559	1053.75
524.774	1042.75
524.989	1058.75
525.204	1036.75
525.419	1069.75
525.634	1041.75
525.849	1055.75
526.064	1017.75
526.28	1023.75
526.495	1002.75
526.71	1043.75
526.925	1010.75
527.14	1011.75
527.355	1005.75
527.57	1008.75
527.785	1007.75
527.999	1000.75
528.214	1011.75
528.429	1003.75
528.644	1014.75
528.859	1041.75
529.074	1031.75
529.289	1018.75
529.503	1018.75
529.718	1019.75
529.933	984.75
530.148	1007.75
530.363	1016.75
530.577	990.75
530.792	1011.75
531.007	998.75
531.221	1005.75
531.436	994.75
531.651	1005.75
531.865	969.75
532.08	989.75
532.295	976.75
532.509	992.75
532.724	985.75
532.938	1008.75
533.153	983.75
533.367	1021.75
533.582	988.75
533.796	967.75
534.011	998.75
534.225	1006.75
534.44	964.75
534.654	959.75
534.868	957.75
535.083	982.75
535.297	976.75
535.511	941.75
535.726	940.75
535.94	968.75
536.154	949.75
536.369	930.75
536.583	918.75
536.797	937.75
537.011	937.75
537.225	935.75
537.44	914.75
537.654	928.75
537.868	930.75
538.082	933.75
538.296	918.75
538.51	925.75
538.724	918.75
538.938	911.75
539.153	905.75
539.367	924.75
539.581	911.75
539.795	894.75
540.009	892.75
540.222	901.75
540.436	901.75
540.65	880.75
540.864	913.75
541.078	907.75
541.292	902.75
541.506	891.75
541.72	894.75
541.934	912.75
542.147	867.75
542.361	893.75
542.575	886.75
542.789	893.75
543.002	898.75
543.216	911.75
543.43	892.75
543.644	895.75
543.857	866.75
544.071	903.75
544.285	896.75
544.498	901.75
544.712	888.75
544.925	913.75
545.139	914.75
545.352	895.75
545.566	850.75
545.779	928.75
545.993	901.75
546.206	893.75
546.42	917.75
546.633	885.75
546.847	874.75
547.06	886.75
547.274	910.75
547.487	870.75
547.7	901.75
547.914	893.75
548.127	934.75
548.34	881.75
548.554	903.75
548.767	887.75
548.98	897.75
549.193	912.75
549.407	902.75
549.62	898.75
549.833	934.75
550.046	895.75
550.259	906.75
550.473	883.75
550.686	909.75
550.899	905.75
551.112	900.75
551.325	868.75
551.538	914.75
551.751	869.75
551.964	880.75
552.177	902.75
552.39	891.75
552.603	888.75
552.816	902.75
553.029	883.75
553.242	913.75
553.455	903.75
553.667	925.75
553.88	898.75
554.093	861.75
554.306	877.75
554.519	848.75
554.732	854.75
554.944	828.75
555.157	827.75
555.37	830.75
555.583	816.75
555.795	839.75
556.008	829.75
556.221	798.75
556.433	792.75
556.646	796.75
556.859	805.75
557.071	782.75
557.284	791.75
557.496	770.75
557.709	753.75
557.921	762.75
558.134	789.75
558.346	777.75
558.559	781.75
558.771	751.75
558.984	752.75
559.196	764.75
559.409	746.75
559.621	777.75
559.833	748.75
560.046	744.75
560.258	747.75
560.47	745.75
560.683	744.75
560.895	754.75
561.107	745.75
561.32	736.75
561.532	760.75
561.744	756.75
561.956	743.75
562.168	738.75
562.381	734.75
562.593	751.75
562.805	785.75
563.017	786.75
563.229	757.75
563.441	758.75
563.653	767.75
563.865	745.75
564.077	759.75
564.289	784.75
564.501	790.75
564.713	781.75
564.925	778.75
565.137	788.75
565.349	831.75
565.561	815.75
565.773	855.75
565.985	877.75
566.197	866.75
566.408	921.75
566.62	954.75
566.832	950.75
567.044	990.75
567.255	994.75
567.467	1040.75
567.679	1023.75
567.891	1051.75
568.102	1026.75
568.314	997.75
568.526	971.75
568.737	909.75
568.949	888.75
569.161	869.75
569.372	837.75
569.584	769.75
569.795	786.75
570.007	757.75
570.218	749.75
570.43	748.75
570.641	713.75
570.853	729.75
571.064	735.75
571.276	711.75
571.487	719.75
571.698	681.75
571.91	673.75
572.121	663.75
572.333	659.75
572.544	664.75
572.755	644.75
572.966	659.75
573.178	617.75
573.389	614.75
573.6	617.75
573.811	626.75
574.023	611.75
574.234	629.75
574.445	599.75
574.656	597.75
574.867	607.75
575.078	625.75
575.289	594.75
575.501	598.75
575.712	593.75
575.923	578.75
576.134	575.75
576.345	565.75
576.556	553.75
576.767	557.75
576.978	575.75
577.188	550.75
577.399	560.75
577.61	543.75
577.821	569.75
578.032	549.75
578.243	550.75
578.454	551.75
578.665	526.75
578.875	523.75
579.086	540.75
579.297	541.75
579.508	546.75
579.718	543.75
579.929	537.75
580.14	531.75
580.35	540.75
580.561	513.75
580.772	532.75
580.982	515.75
581.193	533.75
581.403	517.75
581.614	502.75
581.825	499.75
582.035	527.75
582.246	526.75
582.456	485.75
582.667	491.75
582.877	516.75
583.087	502.75
583.298	508.75
583.508	485.75
583.719	520.75
583.929	504.75
584.139	497.75
584.35	491.75
584.56	506.75
584.77	503.75
584.981	498.75
585.191	501.75
585.401	505.75
585.611	488.75
585.821	513.75
586.032	498.75
586.242	482.75
586.452	500.75
586.662	504.75
586.872	480.75
587.082	479.75
587.292	472.75
587.502	471.75
587.713	474.75
587.923	498.75
588.133	490.75
588.343	485.75
588.553	499.75
588.762	487.75
588.972	493.75
589.182	513.75
589.392	483.75
589.602	499.75
589.812	503.75
590.022	485.75
590.232	478.75
590.441	486.75
590.651	471.75
590.861	484.75
591.071	482.75
591.281	483.75
591.49	523.75
591.7	499.75
591.91	507.75
592.119	494.75
592.329	517.75
592.539	511.75
592.748	523.75
592.958	522.75
593.167	527.75
593.377	545.75
593.587	537.75
593.796	539.75
594.006	522.75
594.215	529.75
594.424	545.75
594.634	522.75
594.843	512.75
595.053	515.75
595.262	514.75
595.472	508.75
595.681	487.75
595.89	483.75
596.1	470.75
596.309	433.75
596.518	465.75
596.727	476.75
596.937	454.75
597.146	451.75
597.355	448.75
597.564	450.75
597.774	437.75
597.983	450.75
598.192	408.75
598.401	415.75
598.61	399.75
598.819	406.75
599.028	405.75
599.237	435.75
599.446	394.75
599.655	439.75
599.864	431.75
600.073	397.75
600.282	393.75
600.491	404.75
600.7	422.75
600.909	409.75
601.118	390.75
601.327	407.75
601.536	384.75
601.745	384.75
601.953	400.75
602.162	384.75
602.371	413.75
602.58	411.75
602.789	385.75
602.997	402.75
603.206	378.75
603.415	385.75
603.623	383.75
603.832	377.75
604.041	373.75
604.249	379.75
604.458	367.75
604.666	365.75
604.875	365.75
605.084	391.75
605.292	389.75
605.501	381.75
605.709	383.75
605.918	390.75
606.126	388.75
606.334	384.75
606.543	379.75
606.751	371.75
606.96	369.75
607.168	381.75
607.376	371.75
607.585	377.75
607.793	382.75
608.001	371.75
608.21	381.75
608.418	352.75
608.626	376.75
608.834	367.75
609.043	387.75
609.251	370.75
609.459	356.75
609.667	363.75
609.875	369.75
610.083	385.75
610.291	376.75
610.499	360.75
610.707	353.75
610.916	354.75
611.124	358.75
611.332	352.75
611.54	356.75
611.748	363.75
611.955	360.75
612.163	358.75
612.371	350.75
612.579	355.75
612.787	351.75
612.995	354.75
613.203	341.75
613.411	344.75
613.618	343.75
613.826	343.75
614.034	373.75
614.242	342.75
614.449	338.75
614.657	341.75
614.865	349.75
615.072	365.75
615.28	349.75
615.488	345.75
615.695	352.75
615.903	351.75
616.111	344.75
616.318	338.75
616.526	354.75
616.733	342.75
616.941	342.75
617.148	357.75
617.356	338.75
617.563	339.75
617.771	344.75
617.978	319.75
618.185	334.75
618.393	352.75
618.6	335.75
618.807	337.75
619.015	342.75
619.222	334.75
619.429	324.75
619.637	330.75
619.844	335.75
620.051	328.75
620.258	330.75
620.466	319.75
620.673	316.75
620.88	312.75
621.087	302.75
621.294	322.75
621.501	328.75
621.708	328.75
621.915	333.75
622.122	336.75
622.329	315.75
622.536	326.75
622.743	310.75
622.95	336.75
623.157	327.75
623.364	326.75
623.571	320.75
623.778	322.75
623.985	310.75
624.192	315.75
624.399	303.75
624.606	328.75
624.812	309.75
625.019	299.75
625.226	315.75
625.433	302.75
625.639	295.75
625.846	322.75
626.053	311.75
626.259	301.75
626.466	307.75
626.673	304.75
626.879	301.75
627.086	292.75
627.293	302.75
627.499	320.75
627.706	294.75
627.912	319.75
628.119	326.75
628.325	293.75
628.532	287.75
628.738	278.75
628.945	301.75
629.151	305.75
629.357	307.75
629.564	281.75
629.77	285.75
629.976	294.75
630.183	299.75
630.389	281.75
630.595	273.75
630.802	281.75
631.008	280.75
631.214	271.75
631.42	280.75
631.627	263.75
631.833	279.75
632.039	275.75
632.245	281.75
632.451	285.75
632.657	279.75
632.863	288.75
633.069	281.75
633.275	260.75
633.481	281.75
633.688	283.75
633.893	286.75
634.099	263.75
634.305	281.75
634.511	286.75
634.717	278.75
634.923	288.75
635.129	263.75
635.335	253.75
635.541	272.75
635.747	277.75
635.952	265.75
636.158	256.75
636.364	268.75
636.57	273.75
636.775	272.75
636.981	273.75
637.187	268.75
637.392	249.75
637.598	261.75
637.804	243.75
638.009	255.75
638.215	258.75
638.421	269.75
638.626	250.75
638.832	269.75
639.037	260.75
639.243	252.75
639.448	263.75
639.654	270.75
639.859	253.75
640.065	258.75
640.27	255.75
640.475	256.75
640.681	258.75
640.886	273.75
641.091	266.75
641.297	262.75
641.502	246.75
641.707	241.75
641.913	272.75
642.118	236.75
642.323	262.75
642.528	267.75
642.733	254.75
642.939	249.75
643.144	240.75
643.349	255.75
643.554	274.75
643.759	268.75
643.964	244.75
644.169	245.75
644.374	248.75
644.579	253.75
644.784	269.75
644.989	268.75
645.194	259.75
645.399	256.75
645.604	251.75
645.809	255.75
646.014	275.75
646.219	245.75
646.423	250.75
646.628	254.75
646.833	266.75
647.038	266.75
647.243	259.75
647.447	273.75
647.652	265.75
647.857	256.75
648.062	270.75
648.266	266.75
648.471	285.75
648.676	269.75
648.88	282.75
649.085	251.75
649.289	276.75
649.494	266.75
649.698	269.75
649.903	257.75
650.107	241.75
650.312	286.75
650.516	269.75
650.721	280.75
650.925	254.75
651.13	253.75
651.334	281.75
651.539	259.75
651.743	258.75
651.947	258.75
652.152	258.75
652.356	265.75
652.56	253.75
652.764	253.75
652.969	272.75
653.173	273.75
653.377	255.75
653.581	263.75
653.785	265.75
653.99	253.75
654.194	249.75
654.398	267.75
654.602	269.75
654.806	259.75
655.01	237.75
655.214	263.75
655.418	275.75
655.622	262.75
655.826	270.75
656.03	273.75
656.234	275.75
656.438	281.75
656.642	282.75
656.846	275.75
657.049	271.75
657.253	246.75
657.457	226.75
657.661	225.75
657.865	210.75
658.068	201.75
658.272	187.75
658.476	196.75
658.68	179.75
658.883	167.75
659.087	165.75
659.291	166.75
659.494	143.75
659.698	154.75
659.901	131.75
660.105	142.75
660.309	135.75
660.512	136.75
660.716	113.75
660.919	120.75
661.123	121.75
661.326	115.75
661.53	110.75
661.733	117.75
661.936	104.75
662.14	109.75
662.343	97.75
662.546	102.75
662.75	87.75
662.953	88.75
663.156	99.75
663.36	95.75
663.563	97.75
663.766	97.75
663.969	104.75
664.173	87.75
664.376	70.75
664.579	86.75
664.782	98.75
664.985	105.75
665.188	81.75
665.391	106.75
665.594	95.75
665.797	89.75
666	92.75
666.203	95.75
666.406	98.75
666.609	83.75
666.812	83.75
667.015	81.75
667.218	88.75
667.421	89.75
667.624	84.75
667.827	82.75
668.03	84.75
668.232	92.75
668.435	74.75
668.638	84.75
668.841	105.75
669.043	91.75
669.246	78.75
669.449	81.75
669.651	92.75
669.854	83.75
670.057	89.75
670.259	82.75
670.462	90.75
670.665	90.75
670.867	97.75
671.07	100.75
671.272	79.75
671.475	82.75
671.677	81.75
671.88	86.75
672.082	94.75
672.284	87.75
672.487	93.75
672.689	86.75
672.892	82.75
