Data from Ni(NO3)2@0.25M.TitratingCurve.Agarose3%dH2O.NegLispCup.LampEnergy10.LIBS07252019_HRD10591_18-03-54-566.txt Node
Date: Thu Jul 25 18:03:54 EDT 2019
User: cochatt
Spectrometer: HR+D1059
Trigger mode: 1
Integration Time (sec): 1.000000E-1
Scans to average: 1
Electric dark correction enabled: true
Nonlinearity correction enabled: false
Boxcar width: 0
XAxis mode: Wavelengths
Number of Pixels in Spectrum: 2048
>>>>>Begin Spectral Data<<<<<
223.165	-6.25
223.4	-6.25
223.635	-6.25
223.869	-21.25
224.104	-29.25
224.338	-17.25
224.573	-11.25
224.808	-13.25
225.042	0.75
225.277	-4.25
225.511	-7.25
225.746	-4.25
225.98	10.75
226.215	5.75
226.449	22.75
226.683	20.75
226.918	21.75
227.152	31.75
227.387	29.75
227.621	34.75
227.856	62.75
228.09	47.75
228.324	56.75
228.559	61.75
228.793	80.75
229.027	87.75
229.262	106.75
229.496	102.75
229.73	103.75
229.964	120.75
230.199	120.75
230.433	105.75
230.667	123.75
230.901	108.75
231.136	108.75
231.37	123.75
231.604	124.75
231.838	123.75
232.072	132.75
232.306	124.75
232.541	143.75
232.775	126.75
233.009	131.75
233.243	136.75
233.477	118.75
233.711	145.75
233.945	139.75
234.179	136.75
234.413	130.75
234.647	135.75
234.881	123.75
235.115	138.75
235.349	141.75
235.583	140.75
235.817	135.75
236.051	132.75
236.285	154.75
236.519	138.75
236.753	129.75
236.987	127.75
237.221	131.75
237.455	140.75
237.689	137.75
237.922	145.75
238.156	138.75
238.39	157.75
238.624	145.75
238.858	139.75
239.091	150.75
239.325	134.75
239.559	161.75
239.793	158.75
240.027	139.75
240.26	156.75
240.494	145.75
240.728	147.75
240.961	142.75
241.195	154.75
241.429	151.75
241.662	146.75
241.896	162.75
242.13	164.75
242.363	153.75
242.597	159.75
242.83	158.75
243.064	165.75
243.298	179.75
243.531	156.75
243.765	174.75
243.998	190.75
244.232	183.75
244.465	181.75
244.699	148.75
244.932	179.75
245.166	167.75
245.399	165.75
245.633	178.75
245.866	167.75
246.099	168.75
246.333	188.75
246.566	175.75
246.8	187.75
247.033	194.75
247.266	180.75
247.5	182.75
247.733	197.75
247.966	201.75
248.2	185.75
248.433	207.75
248.666	201.75
248.899	204.75
249.133	211.75
249.366	203.75
249.599	208.75
249.832	194.75
250.066	211.75
250.299	210.75
250.532	218.75
250.765	232.75
250.998	239.75
251.231	238.75
251.465	234.75
251.698	236.75
251.931	227.75
252.164	228.75
252.397	236.75
252.63	255.75
252.863	234.75
253.096	253.75
253.329	254.75
253.562	280.75
253.795	278.75
254.028	255.75
254.261	260.75
254.494	270.75
254.727	267.75
254.96	245.75
255.193	267.75
255.426	268.75
255.659	274.75
255.892	291.75
256.124	290.75
256.357	291.75
256.59	291.75
256.823	287.75
257.056	289.75
257.289	278.75
257.521	299.75
257.754	276.75
257.987	296.75
258.22	322.75
258.452	307.75
258.685	312.75
258.918	308.75
259.151	318.75
259.383	310.75
259.616	279.75
259.849	327.75
260.081	326.75
260.314	329.75
260.547	312.75
260.779	335.75
261.012	351.75
261.244	346.75
261.477	310.75
261.71	327.75
261.942	316.75
262.175	344.75
262.407	325.75
262.64	342.75
262.872	341.75
263.105	340.75
263.337	344.75
263.57	323.75
263.802	318.75
264.035	358.75
264.267	358.75
264.499	344.75
264.732	332.75
264.964	354.75
265.197	347.75
265.429	332.75
265.661	330.75
265.894	366.75
266.126	355.75
266.358	344.75
266.591	382.75
266.823	364.75
267.055	353.75
267.287	386.75
267.52	366.75
267.752	357.75
267.984	345.75
268.216	358.75
268.448	383.75
268.681	378.75
268.913	368.75
269.145	374.75
269.377	380.75
269.609	366.75
269.841	355.75
270.073	371.75
270.306	378.75
270.538	374.75
270.77	385.75
271.002	397.75
271.234	385.75
271.466	390.75
271.698	379.75
271.93	370.75
272.162	390.75
272.394	399.75
272.626	391.75
272.858	390.75
273.09	386.75
273.322	407.75
273.553	410.75
273.785	411.75
274.017	404.75
274.249	407.75
274.481	408.75
274.713	392.75
274.945	375.75
275.176	400.75
275.408	405.75
275.64	417.75
275.872	420.75
276.104	388.75
276.335	395.75
276.567	424.75
276.799	400.75
277.031	419.75
277.262	436.75
277.494	417.75
277.726	405.75
277.957	419.75
278.189	392.75
278.421	412.75
278.652	428.75
278.884	410.75
279.115	414.75
279.347	426.75
279.579	416.75
279.81	420.75
280.042	419.75
280.273	418.75
280.505	429.75
280.736	431.75
280.968	409.75
281.199	407.75
281.431	424.75
281.662	442.75
281.894	431.75
282.125	415.75
282.356	440.75
282.588	429.75
282.819	458.75
283.051	436.75
283.282	435.75
283.513	441.75
283.745	420.75
283.976	440.75
284.207	429.75
284.439	446.75
284.67	451.75
284.901	448.75
285.132	433.75
285.364	413.75
285.595	461.75
285.826	448.75
286.057	453.75
286.288	435.75
286.52	440.75
286.751	441.75
286.982	455.75
287.213	444.75
287.444	448.75
287.675	453.75
287.906	444.75
288.138	446.75
288.369	444.75
288.6	460.75
288.831	454.75
289.062	462.75
289.293	457.75
289.524	455.75
289.755	447.75
289.986	456.75
290.217	455.75
290.448	460.75
290.679	444.75
290.91	431.75
291.141	469.75
291.371	461.75
291.602	468.75
291.833	450.75
292.064	459.75
292.295	434.75
292.526	466.75
292.757	444.75
292.987	457.75
293.218	461.75
293.449	480.75
293.68	459.75
293.91	455.75
294.141	450.75
294.372	450.75
294.603	470.75
294.833	469.75
295.064	446.75
295.295	464.75
295.525	453.75
295.756	476.75
295.987	452.75
296.217	459.75
296.448	475.75
296.679	486.75
296.909	472.75
297.14	457.75
297.37	476.75
297.601	495.75
297.831	477.75
298.062	483.75
298.292	471.75
298.523	502.75
298.753	506.75
298.984	482.75
299.214	496.75
299.445	468.75
299.675	472.75
299.905	510.75
300.136	494.75
300.366	516.75
300.597	500.75
300.827	501.75
301.057	498.75
301.288	524.75
301.518	532.75
301.748	520.75
301.979	516.75
302.209	522.75
302.439	525.75
302.669	506.75
302.9	497.75
303.13	507.75
303.36	516.75
303.59	494.75
303.82	514.75
304.051	557.75
304.281	522.75
304.511	525.75
304.741	533.75
304.971	521.75
305.201	543.75
305.431	527.75
305.661	537.75
305.891	544.75
306.121	527.75
306.352	510.75
306.582	520.75
306.812	527.75
307.042	509.75
307.272	555.75
307.502	518.75
307.731	497.75
307.961	541.75
308.191	530.75
308.421	512.75
308.651	508.75
308.881	514.75
309.111	522.75
309.341	512.75
309.571	540.75
309.8	548.75
310.03	537.75
310.26	547.75
310.49	554.75
310.72	538.75
310.949	550.75
311.179	541.75
311.409	553.75
311.639	574.75
311.868	556.75
312.098	566.75
312.328	585.75
312.557	570.75
312.787	574.75
313.017	557.75
313.246	578.75
313.476	596.75
313.706	590.75
313.935	585.75
314.165	607.75
314.394	584.75
314.624	571.75
314.853	588.75
315.083	602.75
315.312	597.75
315.542	602.75
315.771	596.75
316.001	626.75
316.23	618.75
316.46	619.75
316.689	605.75
316.919	616.75
317.148	616.75
317.377	633.75
317.607	589.75
317.836	584.75
318.065	628.75
318.295	619.75
318.524	616.75
318.753	610.75
318.983	629.75
319.212	621.75
319.441	634.75
319.67	636.75
319.9	620.75
320.129	634.75
320.358	634.75
320.587	635.75
320.816	665.75
321.046	680.75
321.275	667.75
321.504	680.75
321.733	682.75
321.962	660.75
322.191	675.75
322.42	686.75
322.649	677.75
322.878	672.75
323.108	693.75
323.337	694.75
323.566	696.75
323.795	713.75
324.024	704.75
324.253	689.75
324.482	732.75
324.71	716.75
324.939	710.75
325.168	727.75
325.397	725.75
325.626	730.75
325.855	746.75
326.084	776.75
326.313	780.75
326.542	746.75
326.77	763.75
326.999	758.75
327.228	759.75
327.457	760.75
327.686	740.75
327.914	786.75
328.143	754.75
328.372	779.75
328.6	772.75
328.829	779.75
329.058	808.75
329.287	784.75
329.515	814.75
329.744	813.75
329.972	792.75
330.201	827.75
330.43	807.75
330.658	841.75
330.887	815.75
331.115	820.75
331.344	865.75
331.572	854.75
331.801	861.75
332.03	886.75
332.258	900.75
332.486	886.75
332.715	900.75
332.943	932.75
333.172	927.75
333.4	980.75
333.629	957.75
333.857	1018.75
334.085	1001.75
334.314	990.75
334.542	1005.75
334.771	998.75
334.999	1022.75
335.227	999.75
335.455	1029.75
335.684	1013.75
335.912	1001.75
336.14	1024.75
336.369	992.75
336.597	1004.75
336.825	1007.75
337.053	1025.75
337.281	1019.75
337.51	962.75
337.738	948.75
337.966	975.75
338.194	972.75
338.422	942.75
338.65	925.75
338.878	920.75
339.106	955.75
339.334	952.75
339.562	903.75
339.79	916.75
340.018	921.75
340.246	879.75
340.474	883.75
340.702	908.75
340.93	894.75
341.158	906.75
341.386	941.75
341.614	960.75
341.842	919.75
342.07	900.75
342.298	890.75
342.526	917.75
342.754	882.75
342.981	913.75
343.209	925.75
343.437	950.75
343.665	980.75
343.893	1025.75
344.12	1004.75
344.348	1013.75
344.576	956.75
344.804	988.75
345.031	972.75
345.259	920.75
345.487	948.75
345.714	916.75
345.942	908.75
346.17	951.75
346.397	934.75
346.625	906.75
346.853	871.75
347.08	862.75
347.308	882.75
347.535	895.75
347.763	856.75
347.99	853.75
348.218	876.75
348.445	868.75
348.673	833.75
348.9	858.75
349.128	869.75
349.355	895.75
349.583	896.75
349.81	850.75
350.037	848.75
350.265	850.75
350.492	834.75
350.72	838.75
350.947	872.75
351.174	896.75
351.402	882.75
351.629	891.75
351.856	889.75
352.083	850.75
352.311	858.75
352.538	870.75
352.765	896.75
352.992	843.75
353.22	847.75
353.447	851.75
353.674	832.75
353.901	834.75
354.128	827.75
354.355	828.75
354.583	837.75
354.81	831.75
355.037	832.75
355.264	820.75
355.491	821.75
355.718	843.75
355.945	854.75
356.172	808.75
356.399	850.75
356.626	847.75
356.853	869.75
357.08	864.75
357.307	849.75
357.534	820.75
357.761	808.75
357.988	816.75
358.215	807.75
358.441	814.75
358.668	830.75
358.895	803.75
359.122	822.75
359.349	852.75
359.576	819.75
359.802	852.75
360.029	836.75
360.256	826.75
360.483	815.75
360.709	847.75
360.936	830.75
361.163	831.75
361.39	822.75
361.616	837.75
361.843	882.75
362.07	882.75
362.296	873.75
362.523	812.75
362.749	851.75
362.976	828.75
363.203	851.75
363.429	822.75
363.656	828.75
363.882	796.75
364.109	813.75
364.335	822.75
364.562	840.75
364.788	830.75
365.015	824.75
365.241	815.75
365.468	809.75
365.694	827.75
365.92	826.75
366.147	807.75
366.373	810.75
366.599	809.75
366.826	825.75
367.052	810.75
367.278	807.75
367.505	826.75
367.731	822.75
367.957	818.75
368.184	803.75
368.41	818.75
368.636	834.75
368.862	830.75
369.089	846.75
369.315	821.75
369.541	800.75
369.767	850.75
369.993	836.75
370.219	844.75
370.445	837.75
370.672	829.75
370.898	809.75
371.124	853.75
371.35	875.75
371.576	837.75
371.802	858.75
372.028	853.75
372.254	872.75
372.48	852.75
372.706	894.75
372.932	861.75
373.158	869.75
373.384	840.75
373.61	842.75
373.835	853.75
374.061	830.75
374.287	843.75
374.513	854.75
374.739	891.75
374.965	870.75
375.191	886.75
375.416	867.75
375.642	875.75
375.868	897.75
376.094	864.75
376.319	826.75
376.545	857.75
376.771	841.75
376.997	815.75
377.222	838.75
377.448	834.75
377.674	824.75
377.899	820.75
378.125	852.75
378.35	816.75
378.576	844.75
378.802	820.75
379.027	810.75
379.253	835.75
379.478	826.75
379.704	826.75
379.929	810.75
380.155	827.75
380.38	807.75
380.606	823.75
380.831	844.75
381.057	826.75
381.282	790.75
381.507	798.75
381.733	821.75
381.958	832.75
382.184	832.75
382.409	822.75
382.634	838.75
382.86	824.75
383.085	851.75
383.31	841.75
383.535	831.75
383.761	857.75
383.986	877.75
384.211	854.75
384.436	872.75
384.662	903.75
384.887	894.75
385.112	915.75
385.337	909.75
385.562	915.75
385.787	923.75
386.013	913.75
386.238	938.75
386.463	930.75
386.688	932.75
386.913	933.75
387.138	903.75
387.363	932.75
387.588	938.75
387.813	923.75
388.038	946.75
388.263	931.75
388.488	947.75
388.713	920.75
388.938	931.75
389.163	936.75
389.387	927.75
389.612	940.75
389.837	894.75
390.062	930.75
390.287	918.75
390.512	936.75
390.736	941.75
390.961	940.75
391.186	960.75
391.411	970.75
391.636	950.75
391.86	975.75
392.085	995.75
392.31	950.75
392.534	993.75
392.759	995.75
392.984	974.75
393.208	956.75
393.433	957.75
393.658	950.75
393.882	957.75
394.107	983.75
394.331	978.75
394.556	967.75
394.78	981.75
395.005	982.75
395.229	984.75
395.454	1004.75
395.678	998.75
395.903	1018.75
396.127	995.75
396.352	1014.75
396.576	1002.75
396.801	1007.75
397.025	1036.75
397.249	1005.75
397.474	1051.75
397.698	1036.75
397.922	1057.75
398.147	1060.75
398.371	1085.75
398.595	1112.75
398.82	1133.75
399.044	1190.75
399.268	1242.75
399.492	1374.75
399.717	1424.75
399.941	1456.75
400.165	1403.75
400.389	1334.75
400.613	1282.75
400.837	1231.75
401.062	1190.75
401.286	1160.75
401.51	1167.75
401.734	1150.75
401.958	1155.75
402.182	1178.75
402.406	1202.75
402.63	1144.75
402.854	1172.75
403.078	1159.75
403.302	1170.75
403.526	1149.75
403.75	1172.75
403.974	1228.75
404.198	1209.75
404.422	1207.75
404.645	1232.75
404.869	1231.75
405.093	1214.75
405.317	1229.75
405.541	1221.75
405.765	1230.75
405.988	1215.75
406.212	1255.75
406.436	1259.75
406.66	1283.75
406.883	1257.75
407.107	1296.75
407.331	1335.75
407.555	1374.75
407.778	1398.75
408.002	1347.75
408.226	1335.75
408.449	1335.75
408.673	1310.75
408.896	1273.75
409.12	1262.75
409.344	1301.75
409.567	1290.75
409.791	1272.75
410.014	1275.75
410.238	1256.75
410.461	1242.75
410.685	1226.75
410.908	1243.75
411.132	1196.75
411.355	1199.75
411.578	1200.75
411.802	1197.75
412.025	1231.75
412.249	1221.75
412.472	1206.75
412.695	1186.75
412.919	1205.75
413.142	1218.75
413.365	1206.75
413.589	1188.75
413.812	1174.75
414.035	1170.75
414.258	1178.75
414.482	1184.75
414.705	1205.75
414.928	1220.75
415.151	1182.75
415.374	1178.75
415.597	1164.75
415.821	1184.75
416.044	1168.75
416.267	1168.75
416.49	1170.75
416.713	1186.75
416.936	1176.75
417.159	1166.75
417.382	1162.75
417.605	1156.75
417.828	1189.75
418.051	1180.75
418.274	1186.75
418.497	1152.75
418.72	1202.75
418.943	1160.75
419.166	1223.75
419.389	1361.75
419.611	1333.75
419.834	1235.75
420.057	1208.75
420.28	1209.75
420.503	1144.75
420.726	1174.75
420.948	1163.75
421.171	1172.75
421.394	1201.75
421.617	1169.75
421.839	1154.75
422.062	1178.75
422.285	1145.75
422.507	1196.75
422.73	1197.75
422.953	1198.75
423.175	1172.75
423.398	1207.75
423.621	1212.75
423.843	1215.75
424.066	1199.75
424.288	1217.75
424.511	1233.75
424.733	1198.75
424.956	1198.75
425.178	1203.75
425.401	1211.75
425.623	1223.75
425.846	1190.75
426.068	1216.75
426.291	1181.75
426.513	1180.75
426.735	1140.75
426.958	1170.75
427.18	1150.75
427.402	1174.75
427.625	1143.75
427.847	1121.75
428.069	1126.75
428.292	1172.75
428.514	1147.75
428.736	1110.75
428.958	1133.75
429.181	1114.75
429.403	1112.75
429.625	1116.75
429.847	1115.75
430.069	1143.75
430.292	1124.75
430.514	1074.75
430.736	1129.75
430.958	1157.75
431.18	1115.75
431.402	1120.75
431.624	1121.75
431.846	1142.75
432.068	1143.75
432.29	1158.75
432.512	1147.75
432.734	1142.75
432.956	1120.75
433.178	1131.75
433.4	1161.75
433.622	1168.75
433.844	1181.75
434.066	1176.75
434.287	1165.75
434.509	1189.75
434.731	1195.75
434.953	1212.75
435.175	1234.75
435.397	1216.75
435.618	1203.75
435.84	1155.75
436.062	1158.75
436.284	1151.75
436.505	1146.75
436.727	1156.75
436.949	1143.75
437.17	1160.75
437.392	1126.75
437.614	1120.75
437.835	1128.75
438.057	1114.75
438.278	1110.75
438.5	1090.75
438.721	1131.75
438.943	1103.75
439.165	1094.75
439.386	1114.75
439.608	1134.75
439.829	1150.75
440.05	1127.75
440.272	1141.75
440.493	1134.75
440.715	1156.75
440.936	1202.75
441.158	1178.75
441.379	1176.75
441.6	1237.75
441.822	1256.75
442.043	1225.75
442.264	1243.75
442.486	1213.75
442.707	1231.75
442.928	1198.75
443.149	1228.75
443.371	1211.75
443.592	1285.75
443.813	1251.75
444.034	1231.75
444.255	1261.75
444.476	1300.75
444.698	1331.75
444.919	1355.75
445.14	1475.75
445.361	1355.75
445.582	1303.75
445.803	1238.75
446.024	1242.75
446.245	1221.75
446.466	1189.75
446.687	1139.75
446.908	1174.75
447.129	1116.75
447.35	1135.75
447.571	1145.75
447.792	1118.75
448.013	1119.75
448.234	1074.75
448.455	1115.75
448.675	1082.75
448.896	1052.75
449.117	1057.75
449.338	1090.75
449.559	1058.75
449.779	1072.75
450	1081.75
450.221	1064.75
450.442	1094.75
450.662	1070.75
450.883	1064.75
451.104	1067.75
451.324	1101.75
451.545	1050.75
451.766	1045.75
451.986	1055.75
452.207	1053.75
452.428	1055.75
452.648	1023.75
452.869	1014.75
453.089	1006.75
453.31	1028.75
453.53	1029.75
453.751	1017.75
453.971	1002.75
454.192	1008.75
454.412	995.75
454.633	1005.75
454.853	1011.75
455.073	973.75
455.294	1021.75
455.514	1000.75
455.734	1006.75
455.955	1010.75
456.175	987.75
456.395	991.75
456.616	985.75
456.836	1018.75
457.056	1026.75
457.276	984.75
457.497	1018.75
457.717	1017.75
457.937	1028.75
458.157	1053.75
458.377	1030.75
458.598	1067.75
458.818	1088.75
459.038	1086.75
459.258	1114.75
459.478	1149.75
459.698	1186.75
459.918	1167.75
460.138	1225.75
460.358	1270.75
460.578	1259.75
460.798	1292.75
461.018	1293.75
461.238	1288.75
461.458	1261.75
461.678	1308.75
461.898	1328.75
462.118	1327.75
462.338	1414.75
462.558	1410.75
462.777	1451.75
462.997	1499.75
463.217	1521.75
463.437	1552.75
463.657	1519.75
463.876	1475.75
464.096	1507.75
464.316	1444.75
464.536	1453.75
464.755	1387.75
464.975	1356.75
465.195	1333.75
465.414	1296.75
465.634	1228.75
465.854	1176.75
466.073	1195.75
466.293	1153.75
466.512	1149.75
466.732	1132.75
466.951	1126.75
467.171	1121.75
467.391	1126.75
467.61	1119.75
467.829	1104.75
468.049	1111.75
468.268	1047.75
468.488	1082.75
468.707	1064.75
468.927	1069.75
469.146	1058.75
469.365	1094.75
469.585	1082.75
469.804	1104.75
470.023	1161.75
470.243	1127.75
470.462	1097.75
470.681	1154.75
470.901	1128.75
471.12	1112.75
471.339	1148.75
471.558	1113.75
471.777	1100.75
471.997	1109.75
472.216	1082.75
472.435	1093.75
472.654	1081.75
472.873	1079.75
473.092	1079.75
473.311	1065.75
473.53	1095.75
473.749	1092.75
473.968	1090.75
474.187	1088.75
474.406	1093.75
474.625	1064.75
474.844	1068.75
475.063	1110.75
475.282	1095.75
475.501	1089.75
475.72	1091.75
475.939	1120.75
476.158	1106.75
476.377	1142.75
476.596	1117.75
476.814	1166.75
477.033	1128.75
477.252	1152.75
477.471	1169.75
477.69	1210.75
477.908	1194.75
478.127	1224.75
478.346	1262.75
478.564	1296.75
478.783	1286.75
479.002	1311.75
479.22	1292.75
479.439	1285.75
479.658	1290.75
479.876	1314.75
480.095	1318.75
480.313	1327.75
480.532	1346.75
480.751	1341.75
480.969	1322.75
481.188	1262.75
481.406	1275.75
481.624	1243.75
481.843	1233.75
482.061	1231.75
482.28	1218.75
482.498	1271.75
482.717	1213.75
482.935	1234.75
483.153	1251.75
483.372	1246.75
483.59	1251.75
483.808	1250.75
484.027	1243.75
484.245	1290.75
484.463	1246.75
484.681	1273.75
484.9	1234.75
485.118	1251.75
485.336	1281.75
485.554	1277.75
485.772	1288.75
485.99	1274.75
486.209	1295.75
486.427	1278.75
486.645	1284.75
486.863	1298.75
487.081	1279.75
487.299	1282.75
487.517	1314.75
487.735	1278.75
487.953	1328.75
488.171	1316.75
488.389	1287.75
488.607	1272.75
488.825	1298.75
489.043	1263.75
489.261	1282.75
489.479	1275.75
489.696	1260.75
489.914	1275.75
490.132	1281.75
490.35	1322.75
490.568	1316.75
490.786	1345.75
491.003	1300.75
491.221	1335.75
491.439	1343.75
491.657	1358.75
491.874	1339.75
492.092	1360.75
492.31	1352.75
492.527	1375.75
492.745	1341.75
492.963	1386.75
493.18	1385.75
493.398	1375.75
493.615	1366.75
493.833	1370.75
494.05	1362.75
494.268	1414.75
494.485	1401.75
494.703	1405.75
494.92	1400.75
495.138	1410.75
495.355	1420.75
495.573	1474.75
495.79	1458.75
496.008	1477.75
496.225	1425.75
496.442	1430.75
496.66	1477.75
496.877	1499.75
497.094	1564.75
497.312	1583.75
497.529	1597.75
497.746	1621.75
497.963	1668.75
498.181	1711.75
498.398	1827.75
498.615	1847.75
498.832	1947.75
499.049	2014.75
499.267	2135.75
499.484	2283.75
499.701	2436.75
499.918	2607.75
500.135	2770.75
500.352	2904.75
500.569	2972.75
500.786	2969.75
501.003	2859.75
501.22	2733.75
501.437	2590.75
501.654	2342.75
501.871	2254.75
502.088	2137.75
502.305	2082.75
502.522	1977.75
502.739	1833.75
502.956	1800.75
503.172	1745.75
503.389	1705.75
503.606	1675.75
503.823	1647.75
504.04	1613.75
504.256	1615.75
504.473	1579.75
504.69	1626.75
504.907	1556.75
505.123	1500.75
505.34	1480.75
505.557	1418.75
505.773	1387.75
505.99	1373.75
506.207	1339.75
506.423	1313.75
506.64	1314.75
506.856	1314.75
507.073	1240.75
507.289	1243.75
507.506	1248.75
507.722	1289.75
507.939	1241.75
508.155	1238.75
508.372	1229.75
508.588	1207.75
508.805	1194.75
509.021	1204.75
509.238	1164.75
509.454	1182.75
509.67	1196.75
509.887	1163.75
510.103	1162.75
510.319	1165.75
510.536	1126.75
510.752	1094.75
510.968	1134.75
511.184	1140.75
511.401	1144.75
511.617	1135.75
511.833	1126.75
512.049	1134.75
512.265	1130.75
512.481	1155.75
512.698	1135.75
512.914	1132.75
513.13	1118.75
513.346	1159.75
513.562	1132.75
513.778	1136.75
513.994	1126.75
514.21	1158.75
514.426	1171.75
514.642	1129.75
514.858	1170.75
515.074	1175.75
515.29	1193.75
515.506	1188.75
515.721	1204.75
515.937	1217.75
516.153	1230.75
516.369	1217.75
516.585	1320.75
516.801	1306.75
517.016	1303.75
517.232	1317.75
517.448	1360.75
517.664	1403.75
517.879	1383.75
518.095	1372.75
518.311	1357.75
518.527	1334.75
518.742	1300.75
518.958	1300.75
519.173	1266.75
519.389	1246.75
519.605	1239.75
519.82	1218.75
520.036	1214.75
520.251	1114.75
520.467	1132.75
520.682	1108.75
520.898	1135.75
521.113	1085.75
521.329	1103.75
521.544	1098.75
521.76	1094.75
521.975	1122.75
522.19	1106.75
522.406	1072.75
522.621	1095.75
522.836	1061.75
523.052	1078.75
523.267	1080.75
523.482	1063.75
523.698	1056.75
523.913	1044.75
524.128	1076.75
524.343	1083.75
524.559	1059.75
524.774	1037.75
524.989	1055.75
525.204	1038.75
525.419	1018.75
525.634	1015.75
525.849	1019.75
526.064	1040.75
526.28	1036.75
526.495	1026.75
526.71	1041.75
526.925	1004.75
527.14	1007.75
527.355	985.75
527.57	1011.75
527.785	968.75
527.999	982.75
528.214	975.75
528.429	1015.75
528.644	1006.75
528.859	1039.75
529.074	1023.75
529.289	1027.75
529.503	1044.75
529.718	987.75
529.933	1032.75
530.148	974.75
530.363	999.75
530.577	994.75
530.792	974.75
531.007	995.75
531.221	991.75
531.436	994.75
531.651	1010.75
531.865	991.75
532.08	981.75
532.295	1002.75
532.509	992.75
532.724	966.75
532.938	978.75
533.153	991.75
533.367	1003.75
533.582	1002.75
533.796	996.75
534.011	995.75
534.225	987.75
534.44	942.75
534.654	992.75
534.868	986.75
535.083	986.75
535.297	951.75
535.511	969.75
535.726	942.75
535.94	958.75
536.154	930.75
536.369	939.75
536.583	941.75
536.797	941.75
537.011	922.75
537.225	931.75
537.44	919.75
537.654	933.75
537.868	893.75
538.082	884.75
538.296	903.75
538.51	919.75
538.724	936.75
538.938	923.75
539.153	906.75
539.367	932.75
539.581	915.75
539.795	878.75
540.009	906.75
540.222	891.75
540.436	909.75
540.65	908.75
540.864	902.75
541.078	888.75
541.292	924.75
541.506	925.75
541.72	916.75
541.934	935.75
542.147	922.75
542.361	946.75
542.575	912.75
542.789	891.75
543.002	895.75
543.216	895.75
543.43	883.75
543.644	869.75
543.857	898.75
544.071	892.75
544.285	926.75
544.498	924.75
544.712	913.75
544.925	946.75
545.139	928.75
545.352	919.75
545.566	923.75
545.779	922.75
545.993	943.75
546.206	959.75
546.42	907.75
546.633	910.75
546.847	924.75
547.06	915.75
547.274	947.75
547.487	930.75
547.7	911.75
547.914	949.75
548.127	935.75
548.34	931.75
548.554	923.75
548.767	938.75
548.98	937.75
549.193	921.75
549.407	921.75
549.62	931.75
549.833	949.75
550.046	922.75
550.259	946.75
550.473	938.75
550.686	922.75
550.899	900.75
551.112	900.75
551.325	906.75
551.538	915.75
551.751	897.75
551.964	903.75
552.177	929.75
552.39	929.75
552.603	935.75
552.816	944.75
553.029	929.75
553.242	959.75
553.455	953.75
553.667	933.75
553.88	956.75
554.093	923.75
554.306	915.75
554.519	904.75
554.732	903.75
554.944	906.75
555.157	870.75
555.37	856.75
555.583	853.75
555.795	855.75
556.008	830.75
556.221	823.75
556.433	831.75
556.646	824.75
556.859	803.75
557.071	806.75
557.284	828.75
557.496	794.75
557.709	828.75
557.921	790.75
558.134	794.75
558.346	759.75
558.559	766.75
558.771	779.75
558.984	748.75
559.196	783.75
559.409	755.75
559.621	814.75
559.833	792.75
560.046	777.75
560.258	763.75
560.47	769.75
560.683	771.75
560.895	774.75
561.107	752.75
561.32	766.75
561.532	766.75
561.744	760.75
561.956	761.75
562.168	764.75
562.381	759.75
562.593	786.75
562.805	763.75
563.017	740.75
563.229	787.75
563.441	764.75
563.653	786.75
563.865	782.75
564.077	797.75
564.289	785.75
564.501	814.75
564.713	826.75
564.925	826.75
565.137	848.75
565.349	874.75
565.561	868.75
565.773	903.75
565.985	912.75
566.197	939.75
566.408	987.75
566.62	1023.75
566.832	1044.75
567.044	1060.75
567.255	1090.75
567.467	1095.75
567.679	1108.75
567.891	1117.75
568.102	1110.75
568.314	1063.75
568.526	1020.75
568.737	993.75
568.949	928.75
569.161	885.75
569.372	859.75
569.584	825.75
569.795	822.75
570.007	790.75
570.218	781.75
570.43	804.75
570.641	761.75
570.853	767.75
571.064	744.75
571.276	748.75
571.487	712.75
571.698	714.75
571.91	694.75
572.121	670.75
572.333	695.75
572.544	664.75
572.755	663.75
572.966	647.75
573.178	625.75
573.389	630.75
573.6	634.75
573.811	629.75
574.023	628.75
574.234	621.75
574.445	601.75
574.656	630.75
574.867	606.75
575.078	619.75
575.289	632.75
575.501	615.75
575.712	568.75
575.923	594.75
576.134	583.75
576.345	586.75
576.556	584.75
576.767	583.75
576.978	575.75
577.188	571.75
577.399	589.75
577.61	572.75
577.821	564.75
578.032	565.75
578.243	564.75
578.454	571.75
578.665	554.75
578.875	550.75
579.086	573.75
579.297	550.75
579.508	524.75
579.718	532.75
579.929	543.75
580.14	516.75
580.35	546.75
580.561	548.75
580.772	520.75
580.982	539.75
581.193	511.75
581.403	531.75
581.614	527.75
581.825	537.75
582.035	504.75
582.246	502.75
582.456	519.75
582.667	536.75
582.877	512.75
583.087	489.75
583.298	536.75
583.508	497.75
583.719	524.75
583.929	538.75
584.139	534.75
584.35	524.75
584.56	485.75
584.77	495.75
584.981	496.75
585.191	486.75
585.401	517.75
585.611	477.75
585.821	487.75
586.032	497.75
586.242	498.75
586.452	492.75
586.662	480.75
586.872	500.75
587.082	504.75
587.292	488.75
587.502	489.75
587.713	470.75
587.923	492.75
588.133	493.75
588.343	483.75
588.553	483.75
588.762	481.75
588.972	509.75
589.182	528.75
589.392	510.75
589.602	503.75
589.812	529.75
590.022	498.75
590.232	496.75
590.441	487.75
590.651	480.75
590.861	487.75
591.071	500.75
591.281	484.75
591.49	506.75
591.7	523.75
591.91	522.75
592.119	524.75
592.329	501.75
592.539	508.75
592.748	519.75
592.958	539.75
593.167	542.75
593.377	550.75
593.587	550.75
593.796	540.75
594.006	551.75
594.215	539.75
594.424	548.75
594.634	536.75
594.843	522.75
595.053	519.75
595.262	518.75
595.472	499.75
595.681	499.75
595.89	487.75
596.1	472.75
596.309	468.75
596.518	449.75
596.727	446.75
596.937	443.75
597.146	460.75
597.355	444.75
597.564	444.75
597.774	434.75
597.983	450.75
598.192	427.75
598.401	444.75
598.61	418.75
598.819	425.75
599.028	432.75
599.237	421.75
599.446	414.75
599.655	412.75
599.864	394.75
600.073	419.75
600.282	414.75
600.491	403.75
600.7	422.75
600.909	415.75
601.118	414.75
601.327	390.75
601.536	393.75
601.745	398.75
601.953	422.75
602.162	393.75
602.371	393.75
602.58	409.75
602.789	388.75
602.997	382.75
603.206	373.75
603.415	397.75
603.623	358.75
603.832	377.75
604.041	394.75
604.249	377.75
604.458	370.75
604.666	376.75
604.875	376.75
605.084	359.75
605.292	364.75
605.501	359.75
605.709	366.75
605.918	365.75
606.126	384.75
606.334	355.75
606.543	375.75
606.751	359.75
606.96	352.75
607.168	361.75
607.376	358.75
607.585	384.75
607.793	380.75
608.001	354.75
608.21	355.75
608.418	359.75
608.626	367.75
608.834	360.75
609.043	351.75
609.251	357.75
609.459	357.75
609.667	352.75
609.875	354.75
610.083	366.75
610.291	364.75
610.499	371.75
610.707	361.75
610.916	351.75
611.124	356.75
611.332	345.75
611.54	354.75
611.748	342.75
611.955	370.75
612.163	352.75
612.371	333.75
612.579	353.75
612.787	360.75
612.995	341.75
613.203	335.75
613.411	336.75
613.618	324.75
613.826	331.75
614.034	362.75
614.242	346.75
614.449	360.75
614.657	346.75
614.865	333.75
615.072	333.75
615.28	330.75
615.488	349.75
615.695	348.75
615.903	339.75
616.111	339.75
616.318	335.75
616.526	360.75
616.733	340.75
616.941	325.75
617.148	339.75
617.356	338.75
617.563	323.75
617.771	315.75
617.978	323.75
618.185	338.75
618.393	328.75
618.6	327.75
618.807	346.75
619.015	330.75
619.222	324.75
619.429	319.75
619.637	318.75
619.844	310.75
620.051	300.75
620.258	310.75
620.466	310.75
620.673	307.75
620.88	281.75
621.087	317.75
621.294	301.75
621.501	307.75
621.708	324.75
621.915	312.75
622.122	318.75
622.329	311.75
622.536	295.75
622.743	312.75
622.95	293.75
623.157	308.75
623.364	309.75
623.571	292.75
623.778	318.75
623.985	310.75
624.192	319.75
624.399	313.75
624.606	311.75
624.812	299.75
625.019	294.75
625.226	310.75
625.433	300.75
625.639	285.75
625.846	291.75
626.053	298.75
626.259	284.75
626.466	297.75
626.673	290.75
626.879	288.75
627.086	277.75
627.293	281.75
627.499	295.75
627.706	284.75
627.912	286.75
628.119	289.75
628.325	282.75
628.532	273.75
628.738	288.75
628.945	294.75
629.151	286.75
629.357	279.75
629.564	287.75
629.77	269.75
629.976	276.75
630.183	271.75
630.389	276.75
630.595	264.75
630.802	260.75
631.008	273.75
631.214	258.75
631.42	275.75
631.627	273.75
631.833	269.75
632.039	282.75
632.245	262.75
632.451	252.75
632.657	266.75
632.863	265.75
633.069	247.75
633.275	246.75
633.481	250.75
633.688	243.75
633.893	268.75
634.099	261.75
634.305	254.75
634.511	259.75
634.717	234.75
634.923	233.75
635.129	246.75
635.335	268.75
635.541	243.75
635.747	237.75
635.952	254.75
636.158	257.75
636.364	254.75
636.57	261.75
636.775	236.75
636.981	250.75
637.187	249.75
637.392	231.75
637.598	234.75
637.804	252.75
638.009	241.75
638.215	223.75
638.421	252.75
638.626	245.75
638.832	233.75
639.037	232.75
639.243	245.75
639.448	236.75
639.654	246.75
639.859	235.75
640.065	229.75
640.27	237.75
640.475	228.75
640.681	227.75
640.886	214.75
641.091	228.75
641.297	218.75
641.502	228.75
641.707	242.75
641.913	240.75
642.118	238.75
642.323	220.75
642.528	226.75
642.733	221.75
642.939	235.75
643.144	219.75
643.349	216.75
643.554	223.75
643.759	223.75
643.964	213.75
644.169	207.75
644.374	203.75
644.579	223.75
644.784	206.75
644.989	198.75
645.194	230.75
645.399	236.75
645.604	203.75
645.809	218.75
646.014	210.75
646.219	225.75
646.423	222.75
646.628	227.75
646.833	227.75
647.038	231.75
647.243	204.75
647.447	222.75
647.652	229.75
647.857	242.75
648.062	236.75
648.266	214.75
648.471	219.75
648.676	224.75
648.88	227.75
649.085	222.75
649.289	211.75
649.494	206.75
649.698	202.75
649.903	203.75
650.107	211.75
650.312	216.75
650.516	209.75
650.721	215.75
650.925	187.75
651.13	195.75
651.334	171.75
651.539	201.75
651.743	191.75
651.947	198.75
652.152	184.75
652.356	181.75
652.56	186.75
652.764	193.75
652.969	189.75
653.173	196.75
653.377	181.75
653.581	171.75
653.785	176.75
653.99	180.75
654.194	164.75
654.398	177.75
654.602	174.75
654.806	161.75
655.01	168.75
655.214	173.75
655.418	145.75
655.622	173.75
655.826	159.75
656.03	149.75
656.234	150.75
656.438	154.75
656.642	156.75
656.846	158.75
657.049	159.75
657.253	142.75
657.457	151.75
657.661	144.75
657.865	140.75
658.068	141.75
658.272	129.75
658.476	126.75
658.68	124.75
658.883	124.75
659.087	127.75
659.291	119.75
659.494	118.75
659.698	108.75
659.901	116.75
660.105	99.75
660.309	103.75
660.512	101.75
660.716	105.75
660.919	107.75
661.123	116.75
661.326	103.75
661.53	89.75
661.733	96.75
661.936	96.75
662.14	90.75
662.343	89.75
662.546	83.75
662.75	73.75
662.953	80.75
663.156	75.75
663.36	89.75
663.563	104.75
663.766	93.75
663.969	80.75
664.173	81.75
664.376	80.75
664.579	94.75
664.782	96.75
664.985	75.75
665.188	102.75
665.391	81.75
665.594	83.75
665.797	87.75
666	101.75
666.203	86.75
666.406	82.75
666.609	71.75
666.812	94.75
667.015	82.75
667.218	86.75
667.421	89.75
667.624	88.75
667.827	88.75
668.03	83.75
668.232	72.75
668.435	82.75
668.638	91.75
668.841	91.75
669.043	83.75
669.246	91.75
669.449	61.75
669.651	90.75
669.854	91.75
670.057	86.75
670.259	84.75
670.462	80.75
670.665	83.75
670.867	79.75
671.07	84.75
671.272	66.75
671.475	81.75
671.677	84.75
671.88	81.75
672.082	86.75
672.284	87.75
672.487	83.75
672.689	78.75
672.892	84.75
