Data from Ni(NO3)2@0.0625M.TitratingCurve.Agarose3%dH2O.NegLispCup.LampEnergy10.LIBS07252019_HRD10591_18-14-54-569.txt Node
Date: Thu Jul 25 18:14:54 EDT 2019
User: cochatt
Spectrometer: HR+D1059
Trigger mode: 1
Integration Time (sec): 1.000000E-1
Scans to average: 1
Electric dark correction enabled: true
Nonlinearity correction enabled: false
Boxcar width: 0
XAxis mode: Wavelengths
Number of Pixels in Spectrum: 2048
>>>>>Begin Spectral Data<<<<<
223.165	-17.19
223.4	-17.19
223.635	-17.19
223.869	-3.19
224.104	-13.19
224.338	-11.19
224.573	-19.19
224.808	-15.19
225.042	-10.19
225.277	-10.19
225.511	-9.19
225.746	1.81
225.98	2.81
226.215	2.81
226.449	16.81
226.683	22.81
226.918	20.81
227.152	40.81
227.387	31.81
227.621	31.81
227.856	38.81
228.09	49.81
228.324	47.81
228.559	55.81
228.793	63.81
229.027	92.81
229.262	94.81
229.496	85.81
229.73	102.81
229.964	117.81
230.199	120.81
230.433	129.81
230.667	118.81
230.901	120.81
231.136	99.81
231.37	122.81
231.604	127.81
231.838	115.81
232.072	130.81
232.306	124.81
232.541	147.81
232.775	123.81
233.009	120.81
233.243	138.81
233.477	132.81
233.711	121.81
233.945	106.81
234.179	125.81
234.413	106.81
234.647	135.81
234.881	121.81
235.115	129.81
235.349	129.81
235.583	120.81
235.817	131.81
236.051	129.81
236.285	123.81
236.519	139.81
236.753	130.81
236.987	134.81
237.221	141.81
237.455	121.81
237.689	134.81
237.922	142.81
238.156	132.81
238.39	134.81
238.624	125.81
238.858	123.81
239.091	140.81
239.325	131.81
239.559	128.81
239.793	149.81
240.027	142.81
240.26	132.81
240.494	131.81
240.728	151.81
240.961	157.81
241.195	128.81
241.429	141.81
241.662	145.81
241.896	159.81
242.13	141.81
242.363	153.81
242.597	140.81
242.83	148.81
243.064	164.81
243.298	166.81
243.531	149.81
243.765	154.81
243.998	151.81
244.232	161.81
244.465	156.81
244.699	171.81
244.932	167.81
245.166	156.81
245.399	166.81
245.633	189.81
245.866	162.81
246.099	177.81
246.333	158.81
246.566	148.81
246.8	159.81
247.033	167.81
247.266	168.81
247.5	183.81
247.733	169.81
247.966	162.81
248.2	180.81
248.433	155.81
248.666	170.81
248.899	175.81
249.133	187.81
249.366	187.81
249.599	173.81
249.832	198.81
250.066	193.81
250.299	185.81
250.532	189.81
250.765	187.81
250.998	177.81
251.231	198.81
251.465	202.81
251.698	198.81
251.931	200.81
252.164	211.81
252.397	196.81
252.63	207.81
252.863	199.81
253.096	211.81
253.329	193.81
253.562	198.81
253.795	208.81
254.028	200.81
254.261	204.81
254.494	191.81
254.727	209.81
254.96	206.81
255.193	197.81
255.426	205.81
255.659	205.81
255.892	209.81
256.124	216.81
256.357	196.81
256.59	229.81
256.823	218.81
257.056	212.81
257.289	218.81
257.521	213.81
257.754	226.81
257.987	224.81
258.22	221.81
258.452	217.81
258.685	233.81
258.918	237.81
259.151	214.81
259.383	215.81
259.616	225.81
259.849	229.81
260.081	231.81
260.314	227.81
260.547	235.81
260.779	222.81
261.012	218.81
261.244	223.81
261.477	247.81
261.71	221.81
261.942	207.81
262.175	236.81
262.407	234.81
262.64	221.81
262.872	227.81
263.105	240.81
263.337	235.81
263.57	259.81
263.802	232.81
264.035	243.81
264.267	247.81
264.499	255.81
264.732	251.81
264.964	245.81
265.197	261.81
265.429	250.81
265.661	243.81
265.894	254.81
266.126	257.81
266.358	260.81
266.591	249.81
266.823	246.81
267.055	252.81
267.287	251.81
267.52	261.81
267.752	287.81
267.984	250.81
268.216	259.81
268.448	267.81
268.681	276.81
268.913	267.81
269.145	255.81
269.377	260.81
269.609	261.81
269.841	268.81
270.073	241.81
270.306	274.81
270.538	275.81
270.77	264.81
271.002	259.81
271.234	275.81
271.466	279.81
271.698	269.81
271.93	283.81
272.162	276.81
272.394	305.81
272.626	282.81
272.858	273.81
273.09	273.81
273.322	266.81
273.553	265.81
273.785	279.81
274.017	278.81
274.249	267.81
274.481	277.81
274.713	273.81
274.945	296.81
275.176	290.81
275.408	297.81
275.64	305.81
275.872	317.81
276.104	313.81
276.335	310.81
276.567	309.81
276.799	275.81
277.031	314.81
277.262	302.81
277.494	314.81
277.726	291.81
277.957	318.81
278.189	301.81
278.421	303.81
278.652	319.81
278.884	316.81
279.115	306.81
279.347	305.81
279.579	310.81
279.81	317.81
280.042	300.81
280.273	319.81
280.505	313.81
280.736	331.81
280.968	314.81
281.199	321.81
281.431	319.81
281.662	320.81
281.894	329.81
282.125	324.81
282.356	315.81
282.588	328.81
282.819	320.81
283.051	331.81
283.282	327.81
283.513	337.81
283.745	337.81
283.976	297.81
284.207	325.81
284.439	342.81
284.67	335.81
284.901	330.81
285.132	317.81
285.364	339.81
285.595	324.81
285.826	328.81
286.057	364.81
286.288	344.81
286.52	342.81
286.751	336.81
286.982	355.81
287.213	337.81
287.444	357.81
287.675	367.81
287.906	355.81
288.138	371.81
288.369	340.81
288.6	356.81
288.831	358.81
289.062	356.81
289.293	380.81
289.524	360.81
289.755	362.81
289.986	359.81
290.217	360.81
290.448	351.81
290.679	369.81
290.91	362.81
291.141	362.81
291.371	374.81
291.602	367.81
291.833	381.81
292.064	374.81
292.295	351.81
292.526	363.81
292.757	363.81
292.987	358.81
293.218	352.81
293.449	370.81
293.68	369.81
293.91	386.81
294.141	394.81
294.372	363.81
294.603	358.81
294.833	379.81
295.064	383.81
295.295	367.81
295.525	378.81
295.756	363.81
295.987	398.81
296.217	395.81
296.448	391.81
296.679	395.81
296.909	381.81
297.14	392.81
297.37	394.81
297.601	410.81
297.831	400.81
298.062	407.81
298.292	400.81
298.523	427.81
298.753	409.81
298.984	397.81
299.214	403.81
299.445	424.81
299.675	390.81
299.905	418.81
300.136	410.81
300.366	412.81
300.597	432.81
300.827	429.81
301.057	427.81
301.288	440.81
301.518	424.81
301.748	416.81
301.979	417.81
302.209	430.81
302.439	405.81
302.669	426.81
302.9	412.81
303.13	396.81
303.36	402.81
303.59	417.81
303.82	422.81
304.051	413.81
304.281	432.81
304.511	418.81
304.741	415.81
304.971	420.81
305.201	428.81
305.431	416.81
305.661	409.81
305.891	435.81
306.121	417.81
306.352	414.81
306.582	390.81
306.812	407.81
307.042	406.81
307.272	422.81
307.502	401.81
307.731	416.81
307.961	419.81
308.191	410.81
308.421	416.81
308.651	419.81
308.881	402.81
309.111	419.81
309.341	402.81
309.571	411.81
309.8	387.81
310.03	416.81
310.26	431.81
310.49	444.81
310.72	416.81
310.949	435.81
311.179	405.81
311.409	422.81
311.639	434.81
311.868	417.81
312.098	403.81
312.328	429.81
312.557	419.81
312.787	422.81
313.017	422.81
313.246	447.81
313.476	442.81
313.706	448.81
313.935	437.81
314.165	435.81
314.394	453.81
314.624	427.81
314.853	439.81
315.083	449.81
315.312	431.81
315.542	433.81
315.771	435.81
316.001	411.81
316.23	444.81
316.46	407.81
316.689	418.81
316.919	427.81
317.148	439.81
317.377	439.81
317.607	418.81
317.836	431.81
318.065	404.81
318.295	430.81
318.524	435.81
318.753	424.81
318.983	411.81
319.212	406.81
319.441	405.81
319.67	425.81
319.9	435.81
320.129	425.81
320.358	425.81
320.587	425.81
320.816	429.81
321.046	442.81
321.275	437.81
321.504	430.81
321.733	422.81
321.962	457.81
322.191	434.81
322.42	415.81
322.649	443.81
322.878	438.81
323.108	445.81
323.337	478.81
323.566	415.81
323.795	454.81
324.024	440.81
324.253	441.81
324.482	418.81
324.71	467.81
324.939	465.81
325.168	441.81
325.397	464.81
325.626	463.81
325.855	454.81
326.084	471.81
326.313	478.81
326.542	462.81
326.77	471.81
326.999	504.81
327.228	468.81
327.457	482.81
327.686	468.81
327.914	476.81
328.143	479.81
328.372	460.81
328.6	473.81
328.829	451.81
329.058	484.81
329.287	466.81
329.515	479.81
329.744	461.81
329.972	478.81
330.201	475.81
330.43	496.81
330.658	485.81
330.887	487.81
331.115	485.81
331.344	498.81
331.572	471.81
331.801	518.81
332.03	529.81
332.258	534.81
332.486	546.81
332.715	552.81
332.943	584.81
333.172	615.81
333.4	618.81
333.629	660.81
333.857	647.81
334.085	659.81
334.314	614.81
334.542	608.81
334.771	589.81
334.999	592.81
335.227	603.81
335.455	576.81
335.684	573.81
335.912	580.81
336.14	577.81
336.369	559.81
336.597	573.81
336.825	579.81
337.053	563.81
337.281	552.81
337.51	571.81
337.738	544.81
337.966	563.81
338.194	546.81
338.422	529.81
338.65	503.81
338.878	528.81
339.106	527.81
339.334	546.81
339.562	526.81
339.79	498.81
340.018	488.81
340.246	490.81
340.474	485.81
340.702	494.81
340.93	504.81
341.158	519.81
341.386	532.81
341.614	538.81
341.842	519.81
342.07	492.81
342.298	489.81
342.526	499.81
342.754	493.81
342.981	514.81
343.209	507.81
343.437	535.81
343.665	579.81
343.893	615.81
344.12	600.81
344.348	584.81
344.576	557.81
344.804	552.81
345.031	532.81
345.259	499.81
345.487	515.81
345.714	512.81
345.942	497.81
346.17	540.81
346.397	525.81
346.625	487.81
346.853	487.81
347.08	474.81
347.308	494.81
347.535	507.81
347.763	494.81
347.99	507.81
348.218	522.81
348.445	501.81
348.673	504.81
348.9	497.81
349.128	485.81
349.355	482.81
349.583	489.81
349.81	511.81
350.037	477.81
350.265	498.81
350.492	455.81
350.72	458.81
350.947	462.81
351.174	463.81
351.402	483.81
351.629	476.81
351.856	470.81
352.083	475.81
352.311	465.81
352.538	491.81
352.765	501.81
352.992	473.81
353.22	443.81
353.447	468.81
353.674	436.81
353.901	456.81
354.128	459.81
354.355	445.81
354.583	467.81
354.81	472.81
355.037	492.81
355.264	469.81
355.491	466.81
355.718	462.81
355.945	469.81
356.172	479.81
356.399	468.81
356.626	481.81
356.853	473.81
357.08	478.81
357.307	468.81
357.534	473.81
357.761	450.81
357.988	501.81
358.215	474.81
358.441	451.81
358.668	465.81
358.895	466.81
359.122	459.81
359.349	474.81
359.576	465.81
359.802	479.81
360.029	485.81
360.256	461.81
360.483	477.81
360.709	464.81
360.936	475.81
361.163	482.81
361.39	469.81
361.616	477.81
361.843	460.81
362.07	492.81
362.296	501.81
362.523	460.81
362.749	457.81
362.976	475.81
363.203	442.81
363.429	475.81
363.656	483.81
363.882	445.81
364.109	493.81
364.335	495.81
364.562	472.81
364.788	466.81
365.015	455.81
365.241	457.81
365.468	476.81
365.694	470.81
365.92	467.81
366.147	463.81
366.373	491.81
366.599	477.81
366.826	478.81
367.052	469.81
367.278	464.81
367.505	465.81
367.731	472.81
367.957	451.81
368.184	465.81
368.41	480.81
368.636	499.81
368.862	481.81
369.089	480.81
369.315	475.81
369.541	484.81
369.767	497.81
369.993	488.81
370.219	498.81
370.445	499.81
370.672	502.81
370.898	487.81
371.124	503.81
371.35	489.81
371.576	522.81
371.802	504.81
372.028	499.81
372.254	517.81
372.48	507.81
372.706	511.81
372.932	520.81
373.158	519.81
373.384	515.81
373.61	513.81
373.835	500.81
374.061	499.81
374.287	490.81
374.513	506.81
374.739	531.81
374.965	573.81
375.191	566.81
375.416	564.81
375.642	564.81
375.868	549.81
376.094	542.81
376.319	522.81
376.545	516.81
376.771	510.81
376.997	525.81
377.222	499.81
377.448	533.81
377.674	517.81
377.899	526.81
378.125	487.81
378.35	501.81
378.576	514.81
378.802	498.81
379.027	499.81
379.253	511.81
379.478	497.81
379.704	480.81
379.929	482.81
380.155	500.81
380.38	481.81
380.606	479.81
380.831	501.81
381.057	483.81
381.282	503.81
381.507	512.81
381.733	515.81
381.958	499.81
382.184	502.81
382.409	514.81
382.634	548.81
382.86	532.81
383.085	531.81
383.31	547.81
383.535	565.81
383.761	575.81
383.986	590.81
384.211	588.81
384.436	579.81
384.662	611.81
384.887	621.81
385.112	605.81
385.337	609.81
385.562	589.81
385.787	608.81
386.013	618.81
386.238	613.81
386.463	615.81
386.688	620.81
386.913	577.81
387.138	607.81
387.363	609.81
387.588	609.81
387.813	593.81
388.038	575.81
388.263	597.81
388.488	612.81
388.713	597.81
388.938	594.81
389.163	584.81
389.387	588.81
389.612	599.81
389.837	581.81
390.062	585.81
390.287	603.81
390.512	586.81
390.736	610.81
390.961	607.81
391.186	641.81
391.411	633.81
391.636	656.81
391.86	668.81
392.085	688.81
392.31	705.81
392.534	665.81
392.759	631.81
392.984	607.81
393.208	632.81
393.433	631.81
393.658	640.81
393.882	659.81
394.107	649.81
394.331	655.81
394.556	653.81
394.78	641.81
395.005	671.81
395.229	655.81
395.454	673.81
395.678	694.81
395.903	680.81
396.127	677.81
396.352	634.81
396.576	646.81
396.801	600.81
397.025	615.81
397.249	646.81
397.474	643.81
397.698	679.81
397.922	667.81
398.147	669.81
398.371	698.81
398.595	692.81
398.82	707.81
399.044	807.81
399.268	891.81
399.492	1021.81
399.717	1151.81
399.941	1160.81
400.165	973.81
400.389	913.81
400.613	849.81
400.837	764.81
401.062	743.81
401.286	749.81
401.51	738.81
401.734	738.81
401.958	764.81
402.182	764.81
402.406	770.81
402.63	784.81
402.854	806.81
403.078	810.81
403.302	824.81
403.526	858.81
403.75	881.81
403.974	891.81
404.198	883.81
404.422	922.81
404.645	893.81
404.869	894.81
405.093	839.81
405.317	825.81
405.541	835.81
405.765	808.81
405.988	807.81
406.212	852.81
406.436	830.81
406.66	843.81
406.883	825.81
407.107	907.81
407.331	929.81
407.555	996.81
407.778	991.81
408.002	969.81
408.226	934.81
408.449	882.81
408.673	845.81
408.896	843.81
409.12	855.81
409.344	890.81
409.567	883.81
409.791	883.81
410.014	875.81
410.238	838.81
410.461	845.81
410.685	856.81
410.908	820.81
411.132	808.81
411.355	791.81
411.578	803.81
411.802	786.81
412.025	764.81
412.249	810.81
412.472	792.81
412.695	793.81
412.919	724.81
413.142	740.81
413.365	731.81
413.589	739.81
413.812	774.81
414.035	742.81
414.258	754.81
414.482	765.81
414.705	790.81
414.928	777.81
415.151	767.81
415.374	744.81
415.597	758.81
415.821	742.81
416.044	749.81
416.267	715.81
416.49	717.81
416.713	757.81
416.936	765.81
417.159	733.81
417.382	745.81
417.605	747.81
417.828	736.81
418.051	744.81
418.274	748.81
418.497	739.81
418.72	785.81
418.943	787.81
419.166	843.81
419.389	870.81
419.611	851.81
419.834	818.81
420.057	812.81
420.28	760.81
420.503	717.81
420.726	738.81
420.948	741.81
421.171	716.81
421.394	728.81
421.617	723.81
421.839	762.81
422.062	741.81
422.285	724.81
422.507	769.81
422.73	783.81
422.953	764.81
423.175	815.81
423.398	822.81
423.621	831.81
423.843	810.81
424.066	823.81
424.288	803.81
424.511	780.81
424.733	808.81
424.956	775.81
425.178	756.81
425.401	771.81
425.623	757.81
425.846	728.81
426.068	709.81
426.291	709.81
426.513	717.81
426.735	693.81
426.958	682.81
427.18	676.81
427.402	693.81
427.625	697.81
427.847	676.81
428.069	657.81
428.292	661.81
428.514	647.81
428.736	649.81
428.958	675.81
429.181	641.81
429.403	657.81
429.625	647.81
429.847	652.81
430.069	661.81
430.292	662.81
430.514	648.81
430.736	660.81
430.958	663.81
431.18	637.81
431.402	657.81
431.624	647.81
431.846	663.81
432.068	696.81
432.29	715.81
432.512	678.81
432.734	708.81
432.956	668.81
433.178	708.81
433.4	679.81
433.622	689.81
433.844	683.81
434.066	687.81
434.287	689.81
434.509	709.81
434.731	746.81
434.953	765.81
435.175	777.81
435.397	754.81
435.618	721.81
435.84	693.81
436.062	688.81
436.284	676.81
436.505	692.81
436.727	681.81
436.949	688.81
437.17	671.81
437.392	676.81
437.614	667.81
437.835	653.81
438.057	654.81
438.278	653.81
438.5	651.81
438.721	665.81
438.943	669.81
439.165	669.81
439.386	669.81
439.608	665.81
439.829	667.81
440.05	674.81
440.272	684.81
440.493	699.81
440.715	683.81
440.936	712.81
441.158	735.81
441.379	746.81
441.6	772.81
441.822	804.81
442.043	778.81
442.264	752.81
442.486	747.81
442.707	761.81
442.928	737.81
443.149	756.81
443.371	769.81
443.592	748.81
443.813	771.81
444.034	781.81
444.255	832.81
444.476	807.81
444.698	881.81
444.919	949.81
445.14	967.81
445.361	866.81
445.582	797.81
445.803	729.81
446.024	724.81
446.245	714.81
446.466	711.81
446.687	690.81
446.908	703.81
447.129	672.81
447.35	663.81
447.571	639.81
447.792	634.81
448.013	636.81
448.234	650.81
448.455	637.81
448.675	620.81
448.896	625.81
449.117	585.81
449.338	605.81
449.559	598.81
449.779	604.81
450	623.81
450.221	626.81
450.442	629.81
450.662	632.81
450.883	649.81
451.104	670.81
451.324	681.81
451.545	650.81
451.766	640.81
451.986	633.81
452.207	628.81
452.428	638.81
452.648	645.81
452.869	647.81
453.089	642.81
453.31	641.81
453.53	625.81
453.751	604.81
453.971	610.81
454.192	619.81
454.412	597.81
454.633	594.81
454.853	633.81
455.073	611.81
455.294	601.81
455.514	599.81
455.734	587.81
455.955	597.81
456.175	583.81
456.395	597.81
456.616	581.81
456.836	593.81
457.056	574.81
457.276	577.81
457.497	584.81
457.717	600.81
457.937	595.81
458.157	602.81
458.377	559.81
458.598	646.81
458.818	631.81
459.038	633.81
459.258	674.81
459.478	712.81
459.698	731.81
459.918	753.81
460.138	770.81
460.358	821.81
460.578	837.81
460.798	808.81
461.018	832.81
461.238	819.81
461.458	806.81
461.678	783.81
461.898	820.81
462.118	820.81
462.338	862.81
462.558	884.81
462.777	899.81
462.997	995.81
463.217	1115.81
463.437	1136.81
463.657	1023.81
463.876	981.81
464.096	940.81
464.316	936.81
464.536	986.81
464.755	924.81
464.975	879.81
465.195	831.81
465.414	794.81
465.634	749.81
465.854	740.81
466.073	701.81
466.293	705.81
466.512	667.81
466.732	650.81
466.951	660.81
467.171	663.81
467.391	658.81
467.61	654.81
467.829	669.81
468.049	656.81
468.268	623.81
468.488	632.81
468.707	610.81
468.927	641.81
469.146	633.81
469.365	655.81
469.585	637.81
469.804	663.81
470.023	675.81
470.243	677.81
470.462	705.81
470.681	705.81
470.901	683.81
471.12	694.81
471.339	645.81
471.558	677.81
471.777	667.81
471.997	632.81
472.216	649.81
472.435	618.81
472.654	611.81
472.873	609.81
473.092	601.81
473.311	617.81
473.53	628.81
473.749	609.81
473.968	620.81
474.187	588.81
474.406	617.81
474.625	636.81
474.844	608.81
475.063	620.81
475.282	605.81
475.501	626.81
475.72	614.81
475.939	651.81
476.158	639.81
476.377	648.81
476.596	636.81
476.814	657.81
477.033	663.81
477.252	664.81
477.471	667.81
477.69	691.81
477.908	700.81
478.127	748.81
478.346	741.81
478.564	748.81
478.783	731.81
479.002	792.81
479.22	818.81
479.439	777.81
479.658	782.81
479.876	757.81
480.095	778.81
480.313	822.81
480.532	835.81
480.751	863.81
480.969	805.81
481.188	768.81
481.406	761.81
481.624	733.81
481.843	711.81
482.061	709.81
482.28	706.81
482.498	690.81
482.717	706.81
482.935	728.81
483.153	712.81
483.372	748.81
483.59	733.81
483.808	720.81
484.027	739.81
484.245	740.81
484.463	730.81
484.681	752.81
484.9	732.81
485.118	759.81
485.336	753.81
485.554	737.81
485.772	787.81
485.99	787.81
486.209	801.81
486.427	771.81
486.645	772.81
486.863	734.81
487.081	758.81
487.299	755.81
487.517	766.81
487.735	747.81
487.953	761.81
488.171	738.81
488.389	744.81
488.607	751.81
488.825	739.81
489.043	721.81
489.261	742.81
489.479	743.81
489.696	727.81
489.914	761.81
490.132	744.81
490.35	759.81
490.568	742.81
490.786	755.81
491.003	747.81
491.221	754.81
491.439	743.81
491.657	751.81
491.874	750.81
492.092	750.81
492.31	765.81
492.527	794.81
492.745	760.81
492.963	767.81
493.18	780.81
493.398	779.81
493.615	764.81
493.833	798.81
494.05	755.81
494.268	780.81
494.485	788.81
494.703	779.81
494.92	816.81
495.138	774.81
495.355	786.81
495.573	787.81
495.79	786.81
496.008	812.81
496.225	797.81
496.442	818.81
496.66	789.81
496.877	821.81
497.094	835.81
497.312	840.81
497.529	825.81
497.746	855.81
497.963	866.81
498.181	905.81
498.398	969.81
498.615	1021.81
498.832	1064.81
499.049	1162.81
499.267	1275.81
499.484	1417.81
499.701	1555.81
499.918	1729.81
500.135	1998.81
500.352	2291.81
500.569	2443.81
500.786	2425.81
501.003	2201.81
501.22	1901.81
501.437	1703.81
501.654	1491.81
501.871	1312.81
502.088	1203.81
502.305	1185.81
502.522	1082.81
502.739	1073.81
502.956	1035.81
503.172	964.81
503.389	893.81
503.606	857.81
503.823	845.81
504.04	899.81
504.256	885.81
504.473	945.81
504.69	935.81
504.907	892.81
505.123	830.81
505.34	799.81
505.557	768.81
505.773	767.81
505.99	732.81
506.207	715.81
506.423	715.81
506.64	717.81
506.856	689.81
507.073	698.81
507.289	699.81
507.506	695.81
507.722	687.81
507.939	690.81
508.155	700.81
508.372	680.81
508.588	650.81
508.805	648.81
509.021	664.81
509.238	662.81
509.454	650.81
509.67	650.81
509.887	642.81
510.103	639.81
510.319	669.81
510.536	647.81
510.752	630.81
510.968	643.81
511.184	623.81
511.401	642.81
511.617	638.81
511.833	637.81
512.049	625.81
512.265	620.81
512.481	631.81
512.698	641.81
512.914	633.81
513.13	631.81
513.346	641.81
513.562	623.81
513.778	635.81
513.994	647.81
514.21	641.81
514.426	652.81
514.642	651.81
514.858	660.81
515.074	637.81
515.29	661.81
515.506	643.81
515.721	667.81
515.937	680.81
516.153	687.81
516.369	712.81
516.585	731.81
516.801	742.81
517.016	769.81
517.232	826.81
517.448	847.81
517.664	862.81
517.879	905.81
518.095	897.81
518.311	866.81
518.527	831.81
518.742	801.81
518.958	764.81
519.173	731.81
519.389	696.81
519.605	704.81
519.82	668.81
520.036	665.81
520.251	667.81
520.467	665.81
520.682	612.81
520.898	635.81
521.113	627.81
521.329	643.81
521.544	623.81
521.76	616.81
521.975	614.81
522.19	637.81
522.406	604.81
522.621	585.81
522.836	608.81
523.052	612.81
523.267	611.81
523.482	609.81
523.698	590.81
523.913	569.81
524.128	567.81
524.343	580.81
524.559	608.81
524.774	581.81
524.989	591.81
525.204	604.81
525.419	583.81
525.634	597.81
525.849	575.81
526.064	587.81
526.28	566.81
526.495	577.81
526.71	584.81
526.925	592.81
527.14	549.81
527.355	585.81
527.57	576.81
527.785	598.81
527.999	588.81
528.214	553.81
528.429	596.81
528.644	571.81
528.859	593.81
529.074	570.81
529.289	575.81
529.503	569.81
529.718	570.81
529.933	588.81
530.148	585.81
530.363	559.81
530.577	571.81
530.792	575.81
531.007	584.81
531.221	583.81
531.436	603.81
531.651	584.81
531.865	580.81
532.08	581.81
532.295	583.81
532.509	581.81
532.724	594.81
532.938	588.81
533.153	574.81
533.367	571.81
533.582	545.81
533.796	584.81
534.011	567.81
534.225	589.81
534.44	567.81
534.654	591.81
534.868	553.81
535.083	572.81
535.297	575.81
535.511	559.81
535.726	570.81
535.94	555.81
536.154	565.81
536.369	531.81
536.583	566.81
536.797	551.81
537.011	568.81
537.225	559.81
537.44	556.81
537.654	521.81
537.868	537.81
538.082	551.81
538.296	550.81
538.51	548.81
538.724	531.81
538.938	551.81
539.153	534.81
539.367	548.81
539.581	521.81
539.795	498.81
540.009	532.81
540.222	521.81
540.436	523.81
540.65	527.81
540.864	530.81
541.078	524.81
541.292	520.81
541.506	511.81
541.72	532.81
541.934	552.81
542.147	518.81
542.361	526.81
542.575	531.81
542.789	515.81
543.002	521.81
543.216	521.81
543.43	524.81
543.644	513.81
543.857	509.81
544.071	512.81
544.285	505.81
544.498	509.81
544.712	528.81
544.925	535.81
545.139	525.81
545.352	520.81
545.566	534.81
545.779	541.81
545.993	539.81
546.206	538.81
546.42	524.81
546.633	534.81
546.847	539.81
547.06	523.81
547.274	544.81
547.487	531.81
547.7	533.81
547.914	535.81
548.127	524.81
548.34	506.81
548.554	553.81
548.767	550.81
548.98	511.81
549.193	540.81
549.407	535.81
549.62	556.81
549.833	543.81
550.046	548.81
550.259	539.81
550.473	540.81
550.686	513.81
550.899	517.81
551.112	499.81
551.325	515.81
551.538	516.81
551.751	543.81
551.964	529.81
552.177	521.81
552.39	540.81
552.603	563.81
552.816	543.81
553.029	576.81
553.242	572.81
553.455	572.81
553.667	600.81
553.88	580.81
554.093	578.81
554.306	561.81
554.519	545.81
554.732	507.81
554.944	522.81
555.157	514.81
555.37	501.81
555.583	492.81
555.795	480.81
556.008	485.81
556.221	452.81
556.433	480.81
556.646	485.81
556.859	453.81
557.071	459.81
557.284	459.81
557.496	452.81
557.709	445.81
557.921	424.81
558.134	461.81
558.346	465.81
558.559	435.81
558.771	446.81
558.984	463.81
559.196	442.81
559.409	467.81
559.621	460.81
559.833	451.81
560.046	437.81
560.258	444.81
560.47	423.81
560.683	438.81
560.895	439.81
561.107	469.81
561.32	428.81
561.532	436.81
561.744	457.81
561.956	452.81
562.168	430.81
562.381	457.81
562.593	443.81
562.805	454.81
563.017	445.81
563.229	468.81
563.441	452.81
563.653	442.81
563.865	429.81
564.077	443.81
564.289	443.81
564.501	442.81
564.713	466.81
564.925	480.81
565.137	481.81
565.349	500.81
565.561	503.81
565.773	539.81
565.985	524.81
566.197	555.81
566.408	607.81
566.62	653.81
566.832	704.81
567.044	716.81
567.255	701.81
567.467	709.81
567.679	775.81
567.891	844.81
568.102	896.81
568.314	848.81
568.526	744.81
568.737	671.81
568.949	633.81
569.161	554.81
569.372	533.81
569.584	485.81
569.795	484.81
570.007	466.81
570.218	445.81
570.43	456.81
570.641	480.81
570.853	461.81
571.064	464.81
571.276	479.81
571.487	445.81
571.698	429.81
571.91	421.81
572.121	409.81
572.333	388.81
572.544	381.81
572.755	406.81
572.966	388.81
573.178	387.81
573.389	377.81
573.6	389.81
573.811	368.81
574.023	387.81
574.234	389.81
574.445	372.81
574.656	377.81
574.867	371.81
575.078	381.81
575.289	388.81
575.501	371.81
575.712	369.81
575.923	369.81
576.134	375.81
576.345	375.81
576.556	358.81
576.767	351.81
576.978	346.81
577.188	360.81
577.399	353.81
577.61	346.81
577.821	359.81
578.032	348.81
578.243	335.81
578.454	332.81
578.665	326.81
578.875	329.81
579.086	327.81
579.297	346.81
579.508	343.81
579.718	328.81
579.929	340.81
580.14	325.81
580.35	336.81
580.561	330.81
580.772	330.81
580.982	336.81
581.193	338.81
581.403	324.81
581.614	334.81
581.825	327.81
582.035	313.81
582.246	344.81
582.456	328.81
582.667	315.81
582.877	349.81
583.087	334.81
583.298	325.81
583.508	303.81
583.719	311.81
583.929	324.81
584.139	318.81
584.35	307.81
584.56	307.81
584.77	319.81
584.981	319.81
585.191	307.81
585.401	328.81
585.611	316.81
585.821	324.81
586.032	317.81
586.242	301.81
586.452	303.81
586.662	297.81
586.872	314.81
587.082	305.81
587.292	298.81
587.502	309.81
587.713	299.81
587.923	298.81
588.133	310.81
588.343	315.81
588.553	312.81
588.762	299.81
588.972	307.81
589.182	308.81
589.392	298.81
589.602	307.81
589.812	322.81
590.022	309.81
590.232	308.81
590.441	333.81
590.651	303.81
590.861	309.81
591.071	302.81
591.281	306.81
591.49	296.81
591.7	325.81
591.91	317.81
592.119	323.81
592.329	343.81
592.539	343.81
592.748	357.81
592.958	377.81
593.167	376.81
593.377	393.81
593.587	407.81
593.796	373.81
594.006	407.81
594.215	383.81
594.424	392.81
594.634	403.81
594.843	386.81
595.053	344.81
595.262	344.81
595.472	342.81
595.681	316.81
595.89	326.81
596.1	315.81
596.309	305.81
596.518	289.81
596.727	312.81
596.937	290.81
597.146	267.81
597.355	273.81
597.564	276.81
597.774	263.81
597.983	261.81
598.192	270.81
598.401	273.81
598.61	271.81
598.819	264.81
599.028	257.81
599.237	272.81
599.446	263.81
599.655	281.81
599.864	267.81
600.073	270.81
600.282	276.81
600.491	267.81
600.7	294.81
600.909	267.81
601.118	270.81
601.327	234.81
601.536	261.81
601.745	271.81
601.953	257.81
602.162	252.81
602.371	274.81
602.58	260.81
602.789	255.81
602.997	263.81
603.206	259.81
603.415	252.81
603.623	250.81
603.832	239.81
604.041	273.81
604.249	247.81
604.458	252.81
604.666	253.81
604.875	253.81
605.084	246.81
605.292	224.81
605.501	248.81
605.709	253.81
605.918	239.81
606.126	253.81
606.334	240.81
606.543	241.81
606.751	237.81
606.96	241.81
607.168	242.81
607.376	239.81
607.585	242.81
607.793	245.81
608.001	243.81
608.21	234.81
608.418	239.81
608.626	239.81
608.834	244.81
609.043	257.81
609.251	254.81
609.459	244.81
609.667	236.81
609.875	246.81
610.083	252.81
610.291	230.81
610.499	226.81
610.707	231.81
610.916	242.81
611.124	218.81
611.332	234.81
611.54	235.81
611.748	240.81
611.955	223.81
612.163	235.81
612.371	246.81
612.579	214.81
612.787	226.81
612.995	236.81
613.203	220.81
613.411	233.81
613.618	221.81
613.826	228.81
614.034	230.81
614.242	227.81
614.449	234.81
614.657	217.81
614.865	230.81
615.072	217.81
615.28	230.81
615.488	224.81
615.695	245.81
615.903	239.81
616.111	219.81
616.318	225.81
616.526	230.81
616.733	234.81
616.941	221.81
617.148	226.81
617.356	225.81
617.563	249.81
617.771	231.81
617.978	227.81
618.185	230.81
618.393	216.81
618.6	233.81
618.807	221.81
619.015	238.81
619.222	220.81
619.429	227.81
619.637	226.81
619.844	205.81
620.051	226.81
620.258	231.81
620.466	204.81
620.673	210.81
620.88	210.81
621.087	223.81
621.294	221.81
621.501	217.81
621.708	209.81
621.915	211.81
622.122	223.81
622.329	211.81
622.536	205.81
622.743	217.81
622.95	204.81
623.157	215.81
623.364	195.81
623.571	226.81
623.778	216.81
623.985	211.81
624.192	213.81
624.399	214.81
624.606	205.81
624.812	218.81
625.019	202.81
625.226	195.81
625.433	184.81
625.639	190.81
625.846	209.81
626.053	211.81
626.259	190.81
626.466	208.81
626.673	202.81
626.879	222.81
627.086	194.81
627.293	191.81
627.499	207.81
627.706	187.81
627.912	193.81
628.119	215.81
628.325	220.81
628.532	177.81
628.738	200.81
628.945	188.81
629.151	191.81
629.357	204.81
629.564	204.81
629.77	206.81
629.976	187.81
630.183	195.81
630.389	175.81
630.595	211.81
630.802	184.81
631.008	186.81
631.214	194.81
631.42	183.81
631.627	179.81
631.833	172.81
632.039	185.81
632.245	169.81
632.451	180.81
632.657	188.81
632.863	174.81
633.069	174.81
633.275	189.81
633.481	171.81
633.688	173.81
633.893	186.81
634.099	175.81
634.305	177.81
634.511	172.81
634.717	203.81
634.923	178.81
635.129	173.81
635.335	167.81
635.541	169.81
635.747	179.81
635.952	170.81
636.158	187.81
636.364	175.81
636.57	173.81
636.775	177.81
636.981	187.81
637.187	189.81
637.392	179.81
637.598	167.81
637.804	186.81
638.009	167.81
638.215	182.81
638.421	163.81
638.626	190.81
638.832	174.81
639.037	173.81
639.243	155.81
639.448	171.81
639.654	178.81
639.859	179.81
640.065	179.81
640.27	168.81
640.475	164.81
640.681	170.81
640.886	179.81
641.091	153.81
641.297	176.81
641.502	163.81
641.707	162.81
641.913	163.81
642.118	171.81
642.323	167.81
642.528	165.81
642.733	159.81
642.939	157.81
643.144	153.81
643.349	165.81
643.554	159.81
643.759	168.81
643.964	173.81
644.169	168.81
644.374	157.81
644.579	166.81
644.784	165.81
644.989	162.81
645.194	158.81
645.399	167.81
645.604	159.81
645.809	172.81
646.014	163.81
646.219	160.81
646.423	164.81
646.628	156.81
646.833	180.81
647.038	170.81
647.243	180.81
647.447	172.81
647.652	176.81
647.857	185.81
648.062	173.81
648.266	165.81
648.471	162.81
648.676	170.81
648.88	165.81
649.085	150.81
649.289	165.81
649.494	161.81
649.698	155.81
649.903	145.81
650.107	163.81
650.312	147.81
650.516	158.81
650.721	144.81
650.925	157.81
651.13	159.81
651.334	159.81
651.539	140.81
651.743	127.81
651.947	142.81
652.152	146.81
652.356	154.81
652.56	147.81
652.764	141.81
652.969	152.81
653.173	160.81
653.377	131.81
653.581	131.81
653.785	150.81
653.99	143.81
654.194	139.81
654.398	152.81
654.602	143.81
654.806	150.81
655.01	142.81
655.214	131.81
655.418	141.81
655.622	143.81
655.826	141.81
656.03	135.81
656.234	148.81
656.438	150.81
656.642	155.81
656.846	129.81
657.049	139.81
657.253	135.81
657.457	115.81
657.661	131.81
657.865	115.81
658.068	118.81
658.272	123.81
658.476	119.81
658.68	107.81
658.883	123.81
659.087	104.81
659.291	102.81
659.494	113.81
659.698	114.81
659.901	106.81
660.105	87.81
660.309	96.81
660.512	101.81
660.716	101.81
660.919	93.81
661.123	97.81
661.326	91.81
661.53	80.81
661.733	80.81
661.936	93.81
662.14	84.81
662.343	85.81
662.546	71.81
662.75	85.81
662.953	90.81
663.156	96.81
663.36	89.81
663.563	72.81
663.766	90.81
663.969	78.81
664.173	92.81
664.376	66.81
664.579	79.81
664.782	89.81
664.985	89.81
665.188	82.81
665.391	78.81
665.594	82.81
665.797	86.81
666	77.81
666.203	77.81
666.406	83.81
666.609	84.81
666.812	79.81
667.015	86.81
667.218	84.81
667.421	91.81
667.624	82.81
667.827	95.81
668.03	83.81
668.232	88.81
668.435	83.81
668.638	63.81
668.841	79.81
669.043	90.81
669.246	83.81
669.449	87.81
669.651	86.81
669.854	71.81
670.057	67.81
670.259	81.81
670.462	75.81
670.665	73.81
670.867	67.81
671.07	91.81
671.272	75.81
671.475	87.81
671.677	72.81
671.88	76.81
672.082	77.81
672.284	74.81
672.487	75.81
672.689	89.81
672.892	103.81
