Data from Ni(NO3)2@0.0625M.TitratingCurve.Agarose3%dH2O.NegLispCup.LampEnergy10.LIBS07252019_HRD10591_18-15-12-570.txt Node
Date: Thu Jul 25 18:15:12 EDT 2019
User: cochatt
Spectrometer: HR+D1059
Trigger mode: 1
Integration Time (sec): 1.000000E-1
Scans to average: 1
Electric dark correction enabled: true
Nonlinearity correction enabled: false
Boxcar width: 0
XAxis mode: Wavelengths
Number of Pixels in Spectrum: 2048
>>>>>Begin Spectral Data<<<<<
223.165	-11.62
223.4	-11.62
223.635	-11.62
223.869	-14.62
224.104	-10.62
224.338	-20.62
224.573	-1.62
224.808	-7.62
225.042	-14.62
225.277	-17.62
225.511	-6.62
225.746	15.38
225.98	-1.62
226.215	6.38
226.449	6.38
226.683	12.38
226.918	31.38
227.152	35.38
227.387	52.38
227.621	38.38
227.856	50.38
228.09	36.38
228.324	51.38
228.559	54.38
228.793	65.38
229.027	101.38
229.262	107.38
229.496	102.38
229.73	110.38
229.964	124.38
230.199	114.38
230.433	123.38
230.667	126.38
230.901	114.38
231.136	134.38
231.37	121.38
231.604	136.38
231.838	133.38
232.072	127.38
232.306	135.38
232.541	139.38
232.775	134.38
233.009	128.38
233.243	143.38
233.477	138.38
233.711	128.38
233.945	134.38
234.179	139.38
234.413	131.38
234.647	124.38
234.881	131.38
235.115	144.38
235.349	123.38
235.583	130.38
235.817	133.38
236.051	124.38
236.285	141.38
236.519	142.38
236.753	144.38
236.987	150.38
237.221	139.38
237.455	126.38
237.689	138.38
237.922	143.38
238.156	152.38
238.39	152.38
238.624	155.38
238.858	132.38
239.091	145.38
239.325	148.38
239.559	152.38
239.793	157.38
240.027	156.38
240.26	145.38
240.494	156.38
240.728	155.38
240.961	156.38
241.195	158.38
241.429	164.38
241.662	165.38
241.896	168.38
242.13	180.38
242.363	180.38
242.597	175.38
242.83	173.38
243.064	165.38
243.298	174.38
243.531	174.38
243.765	174.38
243.998	168.38
244.232	173.38
244.465	181.38
244.699	174.38
244.932	162.38
245.166	192.38
245.399	177.38
245.633	185.38
245.866	198.38
246.099	185.38
246.333	190.38
246.566	172.38
246.8	198.38
247.033	195.38
247.266	199.38
247.5	171.38
247.733	200.38
247.966	200.38
248.2	202.38
248.433	196.38
248.666	203.38
248.899	205.38
249.133	181.38
249.366	206.38
249.599	189.38
249.832	198.38
250.066	202.38
250.299	200.38
250.532	184.38
250.765	217.38
250.998	220.38
251.231	207.38
251.465	217.38
251.698	207.38
251.931	230.38
252.164	223.38
252.397	223.38
252.63	212.38
252.863	222.38
253.096	234.38
253.329	218.38
253.562	213.38
253.795	222.38
254.028	231.38
254.261	217.38
254.494	228.38
254.727	233.38
254.96	236.38
255.193	233.38
255.426	227.38
255.659	231.38
255.892	245.38
256.124	234.38
256.357	210.38
256.59	237.38
256.823	246.38
257.056	230.38
257.289	225.38
257.521	250.38
257.754	259.38
257.987	246.38
258.22	253.38
258.452	260.38
258.685	241.38
258.918	252.38
259.151	250.38
259.383	266.38
259.616	263.38
259.849	246.38
260.081	256.38
260.314	251.38
260.547	266.38
260.779	238.38
261.012	264.38
261.244	266.38
261.477	259.38
261.71	271.38
261.942	263.38
262.175	266.38
262.407	278.38
262.64	270.38
262.872	266.38
263.105	271.38
263.337	275.38
263.57	278.38
263.802	306.38
264.035	278.38
264.267	286.38
264.499	298.38
264.732	300.38
264.964	279.38
265.197	280.38
265.429	303.38
265.661	289.38
265.894	282.38
266.126	297.38
266.358	284.38
266.591	281.38
266.823	293.38
267.055	294.38
267.287	289.38
267.52	291.38
267.752	304.38
267.984	290.38
268.216	292.38
268.448	296.38
268.681	307.38
268.913	270.38
269.145	298.38
269.377	296.38
269.609	295.38
269.841	303.38
270.073	302.38
270.306	311.38
270.538	306.38
270.77	304.38
271.002	300.38
271.234	301.38
271.466	306.38
271.698	319.38
271.93	319.38
272.162	323.38
272.394	326.38
272.626	309.38
272.858	301.38
273.09	305.38
273.322	318.38
273.553	300.38
273.785	311.38
274.017	313.38
274.249	340.38
274.481	347.38
274.713	310.38
274.945	322.38
275.176	330.38
275.408	317.38
275.64	331.38
275.872	312.38
276.104	356.38
276.335	328.38
276.567	330.38
276.799	349.38
277.031	332.38
277.262	355.38
277.494	353.38
277.726	330.38
277.957	345.38
278.189	343.38
278.421	359.38
278.652	359.38
278.884	349.38
279.115	314.38
279.347	322.38
279.579	354.38
279.81	334.38
280.042	372.38
280.273	372.38
280.505	353.38
280.736	360.38
280.968	362.38
281.199	368.38
281.431	377.38
281.662	355.38
281.894	375.38
282.125	374.38
282.356	390.38
282.588	374.38
282.819	381.38
283.051	364.38
283.282	386.38
283.513	375.38
283.745	380.38
283.976	372.38
284.207	384.38
284.439	383.38
284.67	386.38
284.901	386.38
285.132	404.38
285.364	389.38
285.595	383.38
285.826	380.38
286.057	402.38
286.288	398.38
286.52	404.38
286.751	402.38
286.982	395.38
287.213	399.38
287.444	408.38
287.675	413.38
287.906	417.38
288.138	398.38
288.369	445.38
288.6	421.38
288.831	401.38
289.062	407.38
289.293	419.38
289.524	424.38
289.755	413.38
289.986	416.38
290.217	417.38
290.448	423.38
290.679	429.38
290.91	434.38
291.141	419.38
291.371	403.38
291.602	425.38
291.833	412.38
292.064	415.38
292.295	437.38
292.526	412.38
292.757	410.38
292.987	426.38
293.218	416.38
293.449	432.38
293.68	427.38
293.91	431.38
294.141	436.38
294.372	437.38
294.603	429.38
294.833	445.38
295.064	430.38
295.295	436.38
295.525	438.38
295.756	426.38
295.987	419.38
296.217	437.38
296.448	431.38
296.679	455.38
296.909	434.38
297.14	421.38
297.37	456.38
297.601	447.38
297.831	446.38
298.062	463.38
298.292	457.38
298.523	460.38
298.753	479.38
298.984	451.38
299.214	480.38
299.445	488.38
299.675	471.38
299.905	485.38
300.136	478.38
300.366	456.38
300.597	486.38
300.827	488.38
301.057	489.38
301.288	512.38
301.518	486.38
301.748	478.38
301.979	493.38
302.209	473.38
302.439	475.38
302.669	485.38
302.9	491.38
303.13	461.38
303.36	474.38
303.59	466.38
303.82	460.38
304.051	483.38
304.281	482.38
304.511	462.38
304.741	465.38
304.971	465.38
305.201	484.38
305.431	464.38
305.661	463.38
305.891	488.38
306.121	451.38
306.352	463.38
306.582	479.38
306.812	455.38
307.042	475.38
307.272	432.38
307.502	452.38
307.731	462.38
307.961	453.38
308.191	462.38
308.421	456.38
308.651	473.38
308.881	461.38
309.111	463.38
309.341	448.38
309.571	454.38
309.8	468.38
310.03	454.38
310.26	453.38
310.49	439.38
310.72	449.38
310.949	472.38
311.179	469.38
311.409	486.38
311.639	459.38
311.868	474.38
312.098	475.38
312.328	474.38
312.557	492.38
312.787	495.38
313.017	481.38
313.246	525.38
313.476	502.38
313.706	511.38
313.935	497.38
314.165	482.38
314.394	482.38
314.624	509.38
314.853	483.38
315.083	507.38
315.312	511.38
315.542	478.38
315.771	491.38
316.001	453.38
316.23	484.38
316.46	464.38
316.689	466.38
316.919	473.38
317.148	483.38
317.377	480.38
317.607	500.38
317.836	494.38
318.065	457.38
318.295	455.38
318.524	457.38
318.753	492.38
318.983	499.38
319.212	475.38
319.441	468.38
319.67	491.38
319.9	493.38
320.129	494.38
320.358	490.38
320.587	478.38
320.816	492.38
321.046	495.38
321.275	479.38
321.504	502.38
321.733	521.38
321.962	486.38
322.191	497.38
322.42	490.38
322.649	501.38
322.878	487.38
323.108	488.38
323.337	509.38
323.566	498.38
323.795	504.38
324.024	501.38
324.253	482.38
324.482	510.38
324.71	489.38
324.939	520.38
325.168	520.38
325.397	511.38
325.626	520.38
325.855	532.38
326.084	552.38
326.313	533.38
326.542	525.38
326.77	552.38
326.999	543.38
327.228	521.38
327.457	528.38
327.686	534.38
327.914	556.38
328.143	549.38
328.372	514.38
328.6	537.38
328.829	534.38
329.058	528.38
329.287	523.38
329.515	531.38
329.744	547.38
329.972	528.38
330.201	547.38
330.43	542.38
330.658	536.38
330.887	547.38
331.115	573.38
331.344	582.38
331.572	567.38
331.801	581.38
332.03	604.38
332.258	617.38
332.486	603.38
332.715	632.38
332.943	653.38
333.172	693.38
333.4	732.38
333.629	738.38
333.857	736.38
334.085	720.38
334.314	703.38
334.542	688.38
334.771	645.38
334.999	667.38
335.227	650.38
335.455	663.38
335.684	666.38
335.912	655.38
336.14	637.38
336.369	646.38
336.597	636.38
336.825	646.38
337.053	652.38
337.281	627.38
337.51	626.38
337.738	613.38
337.966	605.38
338.194	597.38
338.422	581.38
338.65	577.38
338.878	574.38
339.106	582.38
339.334	592.38
339.562	572.38
339.79	569.38
340.018	583.38
340.246	562.38
340.474	534.38
340.702	548.38
340.93	546.38
341.158	583.38
341.386	568.38
341.614	580.38
341.842	571.38
342.07	558.38
342.298	534.38
342.526	552.38
342.754	552.38
342.981	551.38
343.209	566.38
343.437	578.38
343.665	643.38
343.893	676.38
344.12	719.38
344.348	679.38
344.576	618.38
344.804	614.38
345.031	592.38
345.259	589.38
345.487	561.38
345.714	566.38
345.942	578.38
346.17	573.38
346.397	572.38
346.625	546.38
346.853	525.38
347.08	553.38
347.308	545.38
347.535	534.38
347.763	548.38
347.99	544.38
348.218	580.38
348.445	540.38
348.673	558.38
348.9	563.38
349.128	580.38
349.355	514.38
349.583	546.38
349.81	544.38
350.037	522.38
350.265	526.38
350.492	552.38
350.72	519.38
350.947	531.38
351.174	512.38
351.402	538.38
351.629	528.38
351.856	532.38
352.083	530.38
352.311	515.38
352.538	504.38
352.765	529.38
352.992	495.38
353.22	501.38
353.447	528.38
353.674	525.38
353.901	519.38
354.128	508.38
354.355	513.38
354.583	546.38
354.81	502.38
355.037	531.38
355.264	510.38
355.491	528.38
355.718	535.38
355.945	520.38
356.172	516.38
356.399	533.38
356.626	543.38
356.853	525.38
357.08	542.38
357.307	520.38
357.534	538.38
357.761	522.38
357.988	528.38
358.215	527.38
358.441	536.38
358.668	529.38
358.895	538.38
359.122	528.38
359.349	522.38
359.576	536.38
359.802	539.38
360.029	530.38
360.256	542.38
360.483	524.38
360.709	493.38
360.936	532.38
361.163	534.38
361.39	534.38
361.616	522.38
361.843	533.38
362.07	536.38
362.296	536.38
362.523	526.38
362.749	535.38
362.976	531.38
363.203	502.38
363.429	518.38
363.656	524.38
363.882	516.38
364.109	516.38
364.335	500.38
364.562	497.38
364.788	524.38
365.015	512.38
365.241	511.38
365.468	507.38
365.694	530.38
365.92	532.38
366.147	499.38
366.373	510.38
366.599	496.38
366.826	532.38
367.052	522.38
367.278	523.38
367.505	530.38
367.731	544.38
367.957	554.38
368.184	497.38
368.41	537.38
368.636	550.38
368.862	520.38
369.089	548.38
369.315	546.38
369.541	541.38
369.767	539.38
369.993	568.38
370.219	556.38
370.445	568.38
370.672	567.38
370.898	571.38
371.124	576.38
371.35	569.38
371.576	571.38
371.802	583.38
372.028	574.38
372.254	559.38
372.48	579.38
372.706	582.38
372.932	605.38
373.158	575.38
373.384	591.38
373.61	553.38
373.835	566.38
374.061	579.38
374.287	578.38
374.513	582.38
374.739	620.38
374.965	619.38
375.191	654.38
375.416	624.38
375.642	628.38
375.868	630.38
376.094	622.38
376.319	589.38
376.545	568.38
376.771	598.38
376.997	579.38
377.222	597.38
377.448	559.38
377.674	574.38
377.899	555.38
378.125	583.38
378.35	571.38
378.576	575.38
378.802	569.38
379.027	591.38
379.253	568.38
379.478	557.38
379.704	562.38
379.929	580.38
380.155	568.38
380.38	573.38
380.606	565.38
380.831	578.38
381.057	560.38
381.282	562.38
381.507	564.38
381.733	584.38
381.958	571.38
382.184	569.38
382.409	605.38
382.634	617.38
382.86	606.38
383.085	614.38
383.31	635.38
383.535	626.38
383.761	628.38
383.986	641.38
384.211	678.38
384.436	677.38
384.662	687.38
384.887	691.38
385.112	657.38
385.337	702.38
385.562	696.38
385.787	708.38
386.013	684.38
386.238	697.38
386.463	704.38
386.688	682.38
386.913	696.38
387.138	670.38
387.363	678.38
387.588	675.38
387.813	676.38
388.038	664.38
388.263	673.38
388.488	682.38
388.713	661.38
388.938	656.38
389.163	647.38
389.387	655.38
389.612	638.38
389.837	676.38
390.062	654.38
390.287	702.38
390.512	654.38
390.736	665.38
390.961	674.38
391.186	701.38
391.411	718.38
391.636	741.38
391.86	740.38
392.085	780.38
392.31	757.38
392.534	770.38
392.759	731.38
392.984	710.38
393.208	708.38
393.433	719.38
393.658	735.38
393.882	718.38
394.107	726.38
394.331	741.38
394.556	750.38
394.78	730.38
395.005	751.38
395.229	740.38
395.454	769.38
395.678	782.38
395.903	785.38
396.127	777.38
396.352	714.38
396.576	710.38
396.801	707.38
397.025	694.38
397.249	728.38
397.474	760.38
397.698	751.38
397.922	749.38
398.147	749.38
398.371	787.38
398.595	792.38
398.82	847.38
399.044	886.38
399.268	993.38
399.492	1186.38
399.717	1398.38
399.941	1364.38
400.165	1186.38
400.389	1034.38
400.613	969.38
400.837	913.38
401.062	880.38
401.286	873.38
401.51	849.38
401.734	840.38
401.958	877.38
402.182	852.38
402.406	886.38
402.63	901.38
402.854	926.38
403.078	944.38
403.302	956.38
403.526	996.38
403.75	1002.38
403.974	1035.38
404.198	1013.38
404.422	1018.38
404.645	1022.38
404.869	1011.38
405.093	986.38
405.317	964.38
405.541	982.38
405.765	987.38
405.988	949.38
406.212	959.38
406.436	951.38
406.66	968.38
406.883	957.38
407.107	1067.38
407.331	1102.38
407.555	1160.38
407.778	1094.38
408.002	1118.38
408.226	1076.38
408.449	1036.38
408.673	995.38
408.896	980.38
409.12	966.38
409.344	972.38
409.567	998.38
409.791	1034.38
410.014	1046.38
410.238	991.38
410.461	993.38
410.685	966.38
410.908	966.38
411.132	926.38
411.355	887.38
411.578	927.38
411.802	896.38
412.025	899.38
412.249	932.38
412.472	917.38
412.695	896.38
412.919	863.38
413.142	879.38
413.365	873.38
413.589	867.38
413.812	853.38
414.035	837.38
414.258	860.38
414.482	874.38
414.705	866.38
414.928	886.38
415.151	874.38
415.374	863.38
415.597	852.38
415.821	822.38
416.044	852.38
416.267	855.38
416.49	838.38
416.713	852.38
416.936	852.38
417.159	856.38
417.382	851.38
417.605	838.38
417.828	849.38
418.051	846.38
418.274	863.38
418.497	870.38
418.72	883.38
418.943	893.38
419.166	925.38
419.389	981.38
419.611	954.38
419.834	940.38
420.057	912.38
420.28	883.38
420.503	853.38
420.726	840.38
420.948	818.38
421.171	839.38
421.394	851.38
421.617	842.38
421.839	836.38
422.062	862.38
422.285	862.38
422.507	895.38
422.73	882.38
422.953	912.38
423.175	931.38
423.398	921.38
423.621	957.38
423.843	946.38
424.066	938.38
424.288	941.38
424.511	912.38
424.733	912.38
424.956	906.38
425.178	898.38
425.401	881.38
425.623	870.38
425.846	820.38
426.068	800.38
426.291	807.38
426.513	795.38
426.735	810.38
426.958	794.38
427.18	786.38
427.402	799.38
427.625	780.38
427.847	752.38
428.069	732.38
428.292	737.38
428.514	754.38
428.736	768.38
428.958	788.38
429.181	750.38
429.403	724.38
429.625	747.38
429.847	732.38
430.069	733.38
430.292	745.38
430.514	747.38
430.736	719.38
430.958	745.38
431.18	743.38
431.402	761.38
431.624	752.38
431.846	770.38
432.068	783.38
432.29	780.38
432.512	754.38
432.734	781.38
432.956	742.38
433.178	751.38
433.4	748.38
433.622	773.38
433.844	751.38
434.066	771.38
434.287	804.38
434.509	790.38
434.731	841.38
434.953	891.38
435.175	889.38
435.397	894.38
435.618	859.38
435.84	798.38
436.062	796.38
436.284	753.38
436.505	746.38
436.727	788.38
436.949	768.38
437.17	761.38
437.392	765.38
437.614	748.38
437.835	747.38
438.057	725.38
438.278	726.38
438.5	747.38
438.721	764.38
438.943	766.38
439.165	733.38
439.386	733.38
439.608	752.38
439.829	762.38
440.05	762.38
440.272	746.38
440.493	791.38
440.715	766.38
440.936	775.38
441.158	804.38
441.379	822.38
441.6	863.38
441.822	883.38
442.043	886.38
442.264	875.38
442.486	846.38
442.707	894.38
442.928	873.38
443.149	844.38
443.371	856.38
443.592	857.38
443.813	873.38
444.034	892.38
444.255	906.38
444.476	939.38
444.698	983.38
444.919	1040.38
445.14	1125.38
445.361	970.38
445.582	912.38
445.803	815.38
446.024	822.38
446.245	799.38
446.466	782.38
446.687	789.38
446.908	797.38
447.129	775.38
447.35	759.38
447.571	744.38
447.792	718.38
448.013	718.38
448.234	707.38
448.455	697.38
448.675	717.38
448.896	718.38
449.117	694.38
449.338	686.38
449.559	711.38
449.779	706.38
450	706.38
450.221	679.38
450.442	724.38
450.662	707.38
450.883	750.38
451.104	759.38
451.324	756.38
451.545	740.38
451.766	747.38
451.986	698.38
452.207	731.38
452.428	743.38
452.648	705.38
452.869	724.38
453.089	717.38
453.31	719.38
453.53	676.38
453.751	696.38
453.971	678.38
454.192	681.38
454.412	677.38
454.633	685.38
454.853	682.38
455.073	682.38
455.294	711.38
455.514	662.38
455.734	662.38
455.955	664.38
456.175	655.38
456.395	632.38
456.616	672.38
456.836	665.38
457.056	678.38
457.276	636.38
457.497	652.38
457.717	636.38
457.937	655.38
458.157	681.38
458.377	694.38
458.598	699.38
458.818	712.38
459.038	741.38
459.258	782.38
459.478	788.38
459.698	840.38
459.918	832.38
460.138	870.38
460.358	896.38
460.578	910.38
460.798	938.38
461.018	949.38
461.238	914.38
461.458	908.38
461.678	935.38
461.898	935.38
462.118	937.38
462.338	994.38
462.558	1017.38
462.777	1028.38
462.997	1132.38
463.217	1310.38
463.437	1290.38
463.657	1166.38
463.876	1096.38
464.096	1093.38
464.316	1131.38
464.536	1150.38
464.755	1062.38
464.975	995.38
465.195	965.38
465.414	874.38
465.634	844.38
465.854	843.38
466.073	778.38
466.293	787.38
466.512	738.38
466.732	738.38
466.951	736.38
467.171	743.38
467.391	743.38
467.61	727.38
467.829	749.38
468.049	735.38
468.268	742.38
468.488	718.38
468.707	699.38
468.927	703.38
469.146	719.38
469.365	717.38
469.585	708.38
469.804	730.38
470.023	757.38
470.243	764.38
470.462	765.38
470.681	778.38
470.901	791.38
471.12	746.38
471.339	743.38
471.558	703.38
471.777	730.38
471.997	740.38
472.216	721.38
472.435	704.38
472.654	687.38
472.873	677.38
473.092	691.38
473.311	690.38
473.53	694.38
473.749	694.38
473.968	685.38
474.187	668.38
474.406	668.38
474.625	696.38
474.844	710.38
475.063	691.38
475.282	697.38
475.501	692.38
475.72	694.38
475.939	704.38
476.158	691.38
476.377	706.38
476.596	728.38
476.814	742.38
477.033	706.38
477.252	719.38
477.471	750.38
477.69	777.38
477.908	798.38
478.127	830.38
478.346	813.38
478.564	862.38
478.783	846.38
479.002	864.38
479.22	870.38
479.439	884.38
479.658	827.38
479.876	877.38
480.095	882.38
480.313	919.38
480.532	955.38
480.751	944.38
480.969	908.38
481.188	863.38
481.406	836.38
481.624	806.38
481.843	796.38
482.061	812.38
482.28	801.38
482.498	776.38
482.717	798.38
482.935	779.38
483.153	798.38
483.372	806.38
483.59	813.38
483.808	763.38
484.027	803.38
484.245	815.38
484.463	802.38
484.681	827.38
484.9	798.38
485.118	849.38
485.336	832.38
485.554	853.38
485.772	835.38
485.99	855.38
486.209	867.38
486.427	887.38
486.645	862.38
486.863	850.38
487.081	831.38
487.299	843.38
487.517	842.38
487.735	844.38
487.953	842.38
488.171	841.38
488.389	829.38
488.607	815.38
488.825	835.38
489.043	820.38
489.261	812.38
489.479	842.38
489.696	844.38
489.914	827.38
490.132	846.38
490.35	843.38
490.568	808.38
490.786	831.38
491.003	818.38
491.221	826.38
491.439	836.38
491.657	840.38
491.874	846.38
492.092	856.38
492.31	821.38
492.527	828.38
492.745	842.38
492.963	840.38
493.18	861.38
493.398	854.38
493.615	869.38
493.833	860.38
494.05	872.38
494.268	865.38
494.485	888.38
494.703	873.38
494.92	866.38
495.138	854.38
495.355	851.38
495.573	877.38
495.79	856.38
496.008	851.38
496.225	880.38
496.442	905.38
496.66	908.38
496.877	919.38
497.094	913.38
497.312	909.38
497.529	928.38
497.746	959.38
497.963	1026.38
498.181	1063.38
498.398	1074.38
498.615	1135.38
498.832	1230.38
499.049	1306.38
499.267	1451.38
499.484	1580.38
499.701	1765.38
499.918	1961.38
500.135	2291.38
500.352	2723.38
500.569	2846.38
500.786	2804.38
501.003	2580.38
501.22	2284.38
501.437	1954.38
501.654	1722.38
501.871	1553.38
502.088	1394.38
502.305	1310.38
502.522	1261.38
502.739	1199.38
502.956	1146.38
503.172	1126.38
503.389	1045.38
503.606	992.38
503.823	996.38
504.04	1015.38
504.256	968.38
504.473	1033.38
504.69	1071.38
504.907	1034.38
505.123	975.38
505.34	925.38
505.557	864.38
505.773	872.38
505.99	864.38
506.207	826.38
506.423	818.38
506.64	816.38
506.856	795.38
507.073	788.38
507.289	749.38
507.506	780.38
507.722	812.38
507.939	762.38
508.155	720.38
508.372	747.38
508.588	747.38
508.805	727.38
509.021	740.38
509.238	747.38
509.454	716.38
509.67	737.38
509.887	731.38
510.103	729.38
510.319	708.38
510.536	714.38
510.752	716.38
510.968	723.38
511.184	698.38
511.401	719.38
511.617	744.38
511.833	710.38
512.049	717.38
512.265	726.38
512.481	717.38
512.698	706.38
512.914	704.38
513.13	723.38
513.346	703.38
513.562	703.38
513.778	695.38
513.994	717.38
514.21	703.38
514.426	719.38
514.642	728.38
514.858	726.38
515.074	738.38
515.29	739.38
515.506	736.38
515.721	740.38
515.937	754.38
516.153	789.38
516.369	806.38
516.585	813.38
516.801	824.38
517.016	918.38
517.232	954.38
517.448	985.38
517.664	1013.38
517.879	1032.38
518.095	1022.38
518.311	994.38
518.527	954.38
518.742	906.38
518.958	870.38
519.173	802.38
519.389	823.38
519.605	797.38
519.82	749.38
520.036	740.38
520.251	710.38
520.467	732.38
520.682	722.38
520.898	715.38
521.113	718.38
521.329	694.38
521.544	709.38
521.76	692.38
521.975	698.38
522.19	692.38
522.406	686.38
522.621	656.38
522.836	684.38
523.052	664.38
523.267	678.38
523.482	663.38
523.698	656.38
523.913	656.38
524.128	652.38
524.343	639.38
524.559	668.38
524.774	663.38
524.989	670.38
525.204	650.38
525.419	675.38
525.634	659.38
525.849	661.38
526.064	669.38
526.28	642.38
526.495	632.38
526.71	658.38
526.925	649.38
527.14	649.38
527.355	667.38
527.57	636.38
527.785	638.38
527.999	632.38
528.214	631.38
528.429	644.38
528.644	678.38
528.859	670.38
529.074	652.38
529.289	650.38
529.503	649.38
529.718	650.38
529.933	629.38
530.148	628.38
530.363	660.38
530.577	661.38
530.792	652.38
531.007	646.38
531.221	661.38
531.436	647.38
531.651	661.38
531.865	669.38
532.08	662.38
532.295	648.38
532.509	653.38
532.724	646.38
532.938	661.38
533.153	641.38
533.367	638.38
533.582	642.38
533.796	667.38
534.011	660.38
534.225	669.38
534.44	640.38
534.654	620.38
534.868	614.38
535.083	629.38
535.297	641.38
535.511	646.38
535.726	621.38
535.94	622.38
536.154	611.38
536.369	627.38
536.583	619.38
536.797	610.38
537.011	595.38
537.225	620.38
537.44	616.38
537.654	612.38
537.868	608.38
538.082	601.38
538.296	601.38
538.51	598.38
538.724	598.38
538.938	586.38
539.153	572.38
539.367	590.38
539.581	608.38
539.795	577.38
540.009	623.38
540.222	600.38
540.436	584.38
540.65	585.38
540.864	581.38
541.078	610.38
541.292	600.38
541.506	580.38
541.72	568.38
541.934	583.38
542.147	601.38
542.361	589.38
542.575	580.38
542.789	580.38
543.002	587.38
543.216	575.38
543.43	587.38
543.644	566.38
543.857	586.38
544.071	595.38
544.285	604.38
544.498	582.38
544.712	574.38
544.925	584.38
545.139	599.38
545.352	574.38
545.566	602.38
545.779	606.38
545.993	587.38
546.206	582.38
546.42	598.38
546.633	593.38
546.847	607.38
547.06	590.38
547.274	572.38
547.487	582.38
547.7	586.38
547.914	595.38
548.127	586.38
548.34	610.38
548.554	615.38
548.767	611.38
548.98	622.38
549.193	590.38
549.407	614.38
549.62	611.38
549.833	632.38
550.046	637.38
550.259	605.38
550.473	590.38
550.686	587.38
550.899	584.38
551.112	582.38
551.325	561.38
551.538	595.38
551.751	582.38
551.964	570.38
552.177	579.38
552.39	603.38
552.603	629.38
552.816	653.38
553.029	632.38
553.242	692.38
553.455	670.38
553.667	670.38
553.88	662.38
554.093	633.38
554.306	623.38
554.519	582.38
554.732	582.38
554.944	586.38
555.157	604.38
555.37	580.38
555.583	564.38
555.795	555.38
556.008	527.38
556.221	536.38
556.433	542.38
556.646	509.38
556.859	523.38
557.071	514.38
557.284	518.38
557.496	520.38
557.709	518.38
557.921	511.38
558.134	505.38
558.346	518.38
558.559	499.38
558.771	510.38
558.984	487.38
559.196	502.38
559.409	506.38
559.621	509.38
559.833	508.38
560.046	493.38
560.258	509.38
560.47	485.38
560.683	492.38
560.895	496.38
561.107	516.38
561.32	515.38
561.532	513.38
561.744	485.38
561.956	487.38
562.168	492.38
562.381	524.38
562.593	509.38
562.805	526.38
563.017	515.38
563.229	504.38
563.441	496.38
563.653	500.38
563.865	499.38
564.077	501.38
564.289	531.38
564.501	523.38
564.713	539.38
564.925	532.38
565.137	539.38
565.349	562.38
565.561	573.38
565.773	579.38
565.985	599.38
566.197	643.38
566.408	692.38
566.62	745.38
566.832	815.38
567.044	851.38
567.255	836.38
567.467	852.38
567.679	910.38
567.891	965.38
568.102	1053.38
568.314	991.38
568.526	847.38
568.737	756.38
568.949	716.38
569.161	661.38
569.372	594.38
569.584	565.38
569.795	541.38
570.007	534.38
570.218	533.38
570.43	518.38
570.641	508.38
570.853	524.38
571.064	531.38
571.276	527.38
571.487	502.38
571.698	487.38
571.91	485.38
572.121	457.38
572.333	468.38
572.544	456.38
572.755	433.38
572.966	430.38
573.178	421.38
573.389	448.38
573.6	429.38
573.811	404.38
574.023	440.38
574.234	421.38
574.445	422.38
574.656	406.38
574.867	415.38
575.078	417.38
575.289	426.38
575.501	428.38
575.712	423.38
575.923	394.38
576.134	406.38
576.345	398.38
576.556	409.38
576.767	411.38
576.978	407.38
577.188	399.38
577.399	408.38
577.61	380.38
577.821	392.38
578.032	398.38
578.243	373.38
578.454	387.38
578.665	384.38
578.875	370.38
579.086	372.38
579.297	348.38
579.508	384.38
579.718	375.38
579.929	372.38
580.14	355.38
580.35	364.38
580.561	375.38
580.772	362.38
580.982	373.38
581.193	354.38
581.403	360.38
581.614	373.38
581.825	354.38
582.035	364.38
582.246	363.38
582.456	356.38
582.667	349.38
582.877	357.38
583.087	356.38
583.298	358.38
583.508	355.38
583.719	348.38
583.929	358.38
584.139	351.38
584.35	354.38
584.56	351.38
584.77	338.38
584.981	356.38
585.191	360.38
585.401	373.38
585.611	359.38
585.821	344.38
586.032	336.38
586.242	357.38
586.452	335.38
586.662	361.38
586.872	333.38
587.082	337.38
587.292	331.38
587.502	349.38
587.713	343.38
587.923	329.38
588.133	350.38
588.343	348.38
588.553	334.38
588.762	344.38
588.972	332.38
589.182	345.38
589.392	327.38
589.602	326.38
589.812	331.38
590.022	333.38
590.232	321.38
590.441	355.38
590.651	358.38
590.861	347.38
591.071	335.38
591.281	351.38
591.49	364.38
591.7	348.38
591.91	365.38
592.119	376.38
592.329	371.38
592.539	366.38
592.748	404.38
592.958	414.38
593.167	435.38
593.377	427.38
593.587	450.38
593.796	429.38
594.006	452.38
594.215	458.38
594.424	460.38
594.634	432.38
594.843	427.38
595.053	386.38
595.262	390.38
595.472	380.38
595.681	346.38
595.89	350.38
596.1	350.38
596.309	340.38
596.518	355.38
596.727	347.38
596.937	314.38
597.146	318.38
597.355	320.38
597.564	303.38
597.774	304.38
597.983	304.38
598.192	307.38
598.401	309.38
598.61	302.38
598.819	298.38
599.028	280.38
599.237	294.38
599.446	296.38
599.655	291.38
599.864	311.38
600.073	280.38
600.282	285.38
600.491	307.38
600.7	295.38
600.909	292.38
601.118	302.38
601.327	272.38
601.536	281.38
601.745	294.38
601.953	309.38
602.162	299.38
602.371	291.38
602.58	286.38
602.789	280.38
602.997	291.38
603.206	278.38
603.415	289.38
603.623	298.38
603.832	271.38
604.041	279.38
604.249	285.38
604.458	278.38
604.666	273.38
604.875	300.38
605.084	291.38
605.292	276.38
605.501	281.38
605.709	246.38
605.918	276.38
606.126	281.38
606.334	273.38
606.543	286.38
606.751	270.38
606.96	272.38
607.168	286.38
607.376	256.38
607.585	256.38
607.793	270.38
608.001	240.38
608.21	266.38
608.418	264.38
608.626	269.38
608.834	252.38
609.043	270.38
609.251	257.38
609.459	255.38
609.667	245.38
609.875	264.38
610.083	266.38
610.291	259.38
610.499	263.38
610.707	257.38
610.916	267.38
611.124	265.38
611.332	278.38
611.54	248.38
611.748	264.38
611.955	248.38
612.163	277.38
612.371	268.38
612.579	265.38
612.787	233.38
612.995	248.38
613.203	260.38
613.411	256.38
613.618	269.38
613.826	254.38
614.034	248.38
614.242	248.38
614.449	246.38
614.657	264.38
614.865	260.38
615.072	254.38
615.28	264.38
615.488	250.38
615.695	251.38
615.903	262.38
616.111	258.38
616.318	249.38
616.526	261.38
616.733	257.38
616.941	245.38
617.148	254.38
617.356	264.38
617.563	256.38
617.771	255.38
617.978	272.38
618.185	276.38
618.393	250.38
618.6	247.38
618.807	243.38
619.015	275.38
619.222	260.38
619.429	250.38
619.637	263.38
619.844	249.38
620.051	266.38
620.258	252.38
620.466	246.38
620.673	244.38
620.88	233.38
621.087	230.38
621.294	233.38
621.501	246.38
621.708	248.38
621.915	250.38
622.122	244.38
622.329	253.38
622.536	234.38
622.743	213.38
622.95	222.38
623.157	226.38
623.364	225.38
623.571	246.38
623.778	235.38
623.985	230.38
624.192	232.38
624.399	214.38
624.606	236.38
624.812	202.38
625.019	207.38
625.226	227.38
625.433	220.38
625.639	218.38
625.846	213.38
626.053	210.38
626.259	202.38
626.466	207.38
626.673	209.38
626.879	204.38
627.086	214.38
627.293	201.38
627.499	223.38
627.706	207.38
627.912	227.38
628.119	207.38
628.325	213.38
628.532	218.38
628.738	212.38
628.945	227.38
629.151	208.38
629.357	217.38
629.564	215.38
629.77	214.38
629.976	219.38
630.183	186.38
630.389	201.38
630.595	193.38
630.802	195.38
631.008	215.38
631.214	203.38
631.42	194.38
631.627	222.38
631.833	208.38
632.039	210.38
632.245	181.38
632.451	212.38
632.657	197.38
632.863	180.38
633.069	210.38
633.275	199.38
633.481	193.38
633.688	200.38
633.893	197.38
634.099	196.38
634.305	208.38
634.511	200.38
634.717	211.38
634.923	188.38
635.129	189.38
635.335	183.38
635.541	187.38
635.747	191.38
635.952	193.38
636.158	202.38
636.364	194.38
636.57	180.38
636.775	195.38
636.981	193.38
637.187	184.38
637.392	200.38
637.598	194.38
637.804	187.38
638.009	184.38
638.215	172.38
638.421	187.38
638.626	185.38
638.832	196.38
639.037	188.38
639.243	173.38
639.448	201.38
639.654	188.38
639.859	184.38
640.065	194.38
640.27	190.38
640.475	172.38
640.681	161.38
640.886	184.38
641.091	178.38
641.297	181.38
641.502	191.38
641.707	159.38
641.913	187.38
642.118	156.38
642.323	174.38
642.528	159.38
642.733	181.38
642.939	174.38
643.144	182.38
643.349	179.38
643.554	191.38
643.759	163.38
643.964	180.38
644.169	180.38
644.374	168.38
644.579	178.38
644.784	166.38
644.989	179.38
645.194	179.38
645.399	169.38
645.604	174.38
645.809	186.38
646.014	185.38
646.219	171.38
646.423	169.38
646.628	178.38
646.833	165.38
647.038	172.38
647.243	183.38
647.447	184.38
647.652	172.38
647.857	189.38
648.062	181.38
648.266	186.38
648.471	180.38
648.676	180.38
648.88	194.38
649.085	181.38
649.289	180.38
649.494	184.38
649.698	172.38
649.903	157.38
650.107	178.38
650.312	174.38
650.516	154.38
650.721	165.38
650.925	166.38
651.13	168.38
651.334	154.38
651.539	149.38
651.743	156.38
651.947	162.38
652.152	175.38
652.356	164.38
652.56	153.38
652.764	150.38
652.969	144.38
653.173	150.38
653.377	154.38
653.581	127.38
653.785	136.38
653.99	137.38
654.194	132.38
654.398	135.38
654.602	144.38
654.806	149.38
655.01	148.38
655.214	148.38
655.418	132.38
655.622	139.38
655.826	130.38
656.03	139.38
656.234	131.38
656.438	139.38
656.642	131.38
656.846	129.38
657.049	125.38
657.253	119.38
657.457	110.38
657.661	116.38
657.865	111.38
658.068	118.38
658.272	121.38
658.476	115.38
658.68	92.38
658.883	105.38
659.087	108.38
659.291	87.38
659.494	95.38
659.698	90.38
659.901	98.38
660.105	92.38
660.309	110.38
660.512	102.38
660.716	86.38
660.919	81.38
661.123	87.38
661.326	89.38
661.53	89.38
661.733	105.38
661.936	96.38
662.14	84.38
662.343	81.38
662.546	80.38
662.75	86.38
662.953	83.38
663.156	75.38
663.36	95.38
663.563	95.38
663.766	75.38
663.969	85.38
664.173	85.38
664.376	107.38
664.579	104.38
664.782	84.38
664.985	78.38
665.188	98.38
665.391	92.38
665.594	91.38
665.797	94.38
666	79.38
666.203	84.38
666.406	82.38
666.609	91.38
666.812	85.38
667.015	77.38
667.218	90.38
667.421	95.38
667.624	77.38
667.827	72.38
668.03	77.38
668.232	92.38
668.435	71.38
668.638	86.38
668.841	92.38
669.043	72.38
669.246	78.38
669.449	88.38
669.651	100.38
669.854	81.38
670.057	79.38
670.259	95.38
670.462	83.38
670.665	77.38
670.867	78.38
671.07	80.38
671.272	73.38
671.475	76.38
671.677	76.38
671.88	77.38
672.082	84.38
672.284	76.38
672.487	73.38
672.689	80.38
672.892	80.38
