Data from Ni(NO3)2@0.125M.TitratingCurve.Agarose3%dH2O.NegLispCup.LampEnergy10.LIBS07252019_HRD10591_18-11-31-568.txt Node
Date: Thu Jul 25 18:11:31 EDT 2019
User: cochatt
Spectrometer: HR+D1059
Trigger mode: 1
Integration Time (sec): 1.000000E-1
Scans to average: 1
Electric dark correction enabled: true
Nonlinearity correction enabled: false
Boxcar width: 0
XAxis mode: Wavelengths
Number of Pixels in Spectrum: 2048
>>>>>Begin Spectral Data<<<<<
223.165	-16.75
223.4	-16.75
223.635	-16.75
223.869	-4.75
224.104	-19.75
224.338	-21.75
224.573	-12.75
224.808	-18.75
225.042	-8.75
225.277	-2.75
225.511	-3.75
225.746	3.25
225.98	4.25
226.215	13.25
226.449	19.25
226.683	23.25
226.918	23.25
227.152	23.25
227.387	37.25
227.621	41.25
227.856	48.25
228.09	53.25
228.324	47.25
228.559	63.25
228.793	76.25
229.027	128.25
229.262	124.25
229.496	135.25
229.73	148.25
229.964	150.25
230.199	160.25
230.433	150.25
230.667	156.25
230.901	154.25
231.136	148.25
231.37	157.25
231.604	149.25
231.838	163.25
232.072	170.25
232.306	174.25
232.541	168.25
232.775	160.25
233.009	176.25
233.243	166.25
233.477	170.25
233.711	170.25
233.945	166.25
234.179	178.25
234.413	187.25
234.647	172.25
234.881	179.25
235.115	183.25
235.349	167.25
235.583	180.25
235.817	174.25
236.051	187.25
236.285	175.25
236.519	177.25
236.753	177.25
236.987	184.25
237.221	197.25
237.455	196.25
237.689	181.25
237.922	189.25
238.156	191.25
238.39	181.25
238.624	202.25
238.858	202.25
239.091	202.25
239.325	193.25
239.559	208.25
239.793	202.25
240.027	209.25
240.26	217.25
240.494	208.25
240.728	203.25
240.961	222.25
241.195	217.25
241.429	229.25
241.662	216.25
241.896	219.25
242.13	231.25
242.363	225.25
242.597	237.25
242.83	240.25
243.064	233.25
243.298	237.25
243.531	238.25
243.765	253.25
243.998	255.25
244.232	243.25
244.465	270.25
244.699	248.25
244.932	263.25
245.166	252.25
245.399	251.25
245.633	262.25
245.866	257.25
246.099	263.25
246.333	257.25
246.566	262.25
246.8	267.25
247.033	256.25
247.266	262.25
247.5	283.25
247.733	278.25
247.966	288.25
248.2	278.25
248.433	298.25
248.666	282.25
248.899	285.25
249.133	295.25
249.366	289.25
249.599	301.25
249.832	297.25
250.066	295.25
250.299	314.25
250.532	313.25
250.765	310.25
250.998	304.25
251.231	304.25
251.465	324.25
251.698	304.25
251.931	326.25
252.164	327.25
252.397	344.25
252.63	343.25
252.863	332.25
253.096	342.25
253.329	339.25
253.562	345.25
253.795	348.25
254.028	339.25
254.261	317.25
254.494	352.25
254.727	335.25
254.96	364.25
255.193	345.25
255.426	333.25
255.659	358.25
255.892	374.25
256.124	359.25
256.357	349.25
256.59	353.25
256.823	338.25
257.056	348.25
257.289	354.25
257.521	372.25
257.754	371.25
257.987	362.25
258.22	375.25
258.452	365.25
258.685	366.25
258.918	382.25
259.151	381.25
259.383	382.25
259.616	365.25
259.849	375.25
260.081	391.25
260.314	382.25
260.547	391.25
260.779	383.25
261.012	376.25
261.244	378.25
261.477	389.25
261.71	392.25
261.942	408.25
262.175	407.25
262.407	402.25
262.64	388.25
262.872	383.25
263.105	416.25
263.337	419.25
263.57	407.25
263.802	432.25
264.035	415.25
264.267	436.25
264.499	414.25
264.732	438.25
264.964	414.25
265.197	426.25
265.429	440.25
265.661	439.25
265.894	437.25
266.126	425.25
266.358	444.25
266.591	445.25
266.823	455.25
267.055	429.25
267.287	470.25
267.52	439.25
267.752	444.25
267.984	434.25
268.216	439.25
268.448	473.25
268.681	474.25
268.913	452.25
269.145	462.25
269.377	471.25
269.609	462.25
269.841	443.25
270.073	439.25
270.306	470.25
270.538	472.25
270.77	473.25
271.002	463.25
271.234	484.25
271.466	471.25
271.698	465.25
271.93	483.25
272.162	483.25
272.394	476.25
272.626	504.25
272.858	487.25
273.09	492.25
273.322	487.25
273.553	504.25
273.785	487.25
274.017	502.25
274.249	515.25
274.481	496.25
274.713	494.25
274.945	506.25
275.176	513.25
275.408	515.25
275.64	489.25
275.872	519.25
276.104	525.25
276.335	521.25
276.567	537.25
276.799	534.25
277.031	537.25
277.262	521.25
277.494	534.25
277.726	528.25
277.957	523.25
278.189	535.25
278.421	517.25
278.652	547.25
278.884	550.25
279.115	541.25
279.347	545.25
279.579	559.25
279.81	553.25
280.042	533.25
280.273	563.25
280.505	564.25
280.736	548.25
280.968	577.25
281.199	572.25
281.431	572.25
281.662	577.25
281.894	586.25
282.125	581.25
282.356	571.25
282.588	561.25
282.819	571.25
283.051	607.25
283.282	595.25
283.513	594.25
283.745	590.25
283.976	600.25
284.207	594.25
284.439	600.25
284.67	599.25
284.901	599.25
285.132	589.25
285.364	618.25
285.595	599.25
285.826	622.25
286.057	611.25
286.288	607.25
286.52	632.25
286.751	636.25
286.982	630.25
287.213	632.25
287.444	652.25
287.675	635.25
287.906	673.25
288.138	617.25
288.369	639.25
288.6	643.25
288.831	671.25
289.062	640.25
289.293	630.25
289.524	642.25
289.755	639.25
289.986	615.25
290.217	649.25
290.448	639.25
290.679	637.25
290.91	661.25
291.141	661.25
291.371	655.25
291.602	670.25
291.833	663.25
292.064	652.25
292.295	665.25
292.526	658.25
292.757	638.25
292.987	636.25
293.218	638.25
293.449	656.25
293.68	663.25
293.91	659.25
294.141	677.25
294.372	679.25
294.603	658.25
294.833	671.25
295.064	678.25
295.295	680.25
295.525	657.25
295.756	652.25
295.987	651.25
296.217	686.25
296.448	698.25
296.679	700.25
296.909	698.25
297.14	672.25
297.37	688.25
297.601	711.25
297.831	703.25
298.062	692.25
298.292	725.25
298.523	737.25
298.753	725.25
298.984	728.25
299.214	711.25
299.445	710.25
299.675	720.25
299.905	724.25
300.136	708.25
300.366	721.25
300.597	712.25
300.827	758.25
301.057	783.25
301.288	788.25
301.518	761.25
301.748	753.25
301.979	780.25
302.209	738.25
302.439	769.25
302.669	729.25
302.9	723.25
303.13	725.25
303.36	748.25
303.59	716.25
303.82	752.25
304.051	740.25
304.281	727.25
304.511	733.25
304.741	747.25
304.971	725.25
305.201	759.25
305.431	745.25
305.661	755.25
305.891	741.25
306.121	738.25
306.352	754.25
306.582	723.25
306.812	719.25
307.042	709.25
307.272	732.25
307.502	724.25
307.731	716.25
307.961	730.25
308.191	739.25
308.421	714.25
308.651	718.25
308.881	719.25
309.111	745.25
309.341	717.25
309.571	728.25
309.8	721.25
310.03	747.25
310.26	742.25
310.49	746.25
310.72	762.25
310.949	727.25
311.179	744.25
311.409	765.25
311.639	771.25
311.868	745.25
312.098	734.25
312.328	771.25
312.557	767.25
312.787	756.25
313.017	753.25
313.246	751.25
313.476	772.25
313.706	810.25
313.935	779.25
314.165	788.25
314.394	799.25
314.624	783.25
314.853	777.25
315.083	798.25
315.312	778.25
315.542	770.25
315.771	790.25
316.001	761.25
316.23	788.25
316.46	769.25
316.689	793.25
316.919	795.25
317.148	781.25
317.377	767.25
317.607	789.25
317.836	780.25
318.065	774.25
318.295	778.25
318.524	779.25
318.753	759.25
318.983	777.25
319.212	791.25
319.441	761.25
319.67	786.25
319.9	771.25
320.129	796.25
320.358	765.25
320.587	789.25
320.816	783.25
321.046	799.25
321.275	803.25
321.504	791.25
321.733	766.25
321.962	798.25
322.191	799.25
322.42	758.25
322.649	796.25
322.878	786.25
323.108	804.25
323.337	797.25
323.566	799.25
323.795	834.25
324.024	819.25
324.253	791.25
324.482	811.25
324.71	792.25
324.939	828.25
325.168	831.25
325.397	815.25
325.626	844.25
325.855	853.25
326.084	839.25
326.313	860.25
326.542	875.25
326.77	892.25
326.999	855.25
327.228	879.25
327.457	863.25
327.686	853.25
327.914	863.25
328.143	851.25
328.372	883.25
328.6	857.25
328.829	886.25
329.058	889.25
329.287	871.25
329.515	883.25
329.744	871.25
329.972	881.25
330.201	885.25
330.43	887.25
330.658	889.25
330.887	912.25
331.115	929.25
331.344	890.25
331.572	899.25
331.801	930.25
332.03	958.25
332.258	996.25
332.486	1018.25
332.715	1038.25
332.943	1113.25
333.172	1132.25
333.4	1190.25
333.629	1204.25
333.857	1207.25
334.085	1186.25
334.314	1157.25
334.542	1140.25
334.771	1088.25
334.999	1130.25
335.227	1110.25
335.455	1089.25
335.684	1080.25
335.912	1073.25
336.14	1039.25
336.369	1051.25
336.597	1081.25
336.825	1056.25
337.053	1033.25
337.281	1017.25
337.51	996.25
337.738	1000.25
337.966	972.25
338.194	945.25
338.422	944.25
338.65	938.25
338.878	962.25
339.106	946.25
339.334	926.25
339.562	896.25
339.79	899.25
340.018	923.25
340.246	922.25
340.474	890.25
340.702	907.25
340.93	883.25
341.158	914.25
341.386	901.25
341.614	927.25
341.842	901.25
342.07	894.25
342.298	880.25
342.526	898.25
342.754	905.25
342.981	932.25
343.209	916.25
343.437	970.25
343.665	1030.25
343.893	1083.25
344.12	1179.25
344.348	1055.25
344.576	1035.25
344.804	974.25
345.031	949.25
345.259	941.25
345.487	915.25
345.714	900.25
345.942	869.25
346.17	901.25
346.397	867.25
346.625	901.25
346.853	878.25
347.08	868.25
347.308	887.25
347.535	881.25
347.763	890.25
347.99	867.25
348.218	910.25
348.445	897.25
348.673	879.25
348.9	849.25
349.128	850.25
349.355	859.25
349.583	881.25
349.81	855.25
350.037	833.25
350.265	838.25
350.492	852.25
350.72	840.25
350.947	835.25
351.174	833.25
351.402	852.25
351.629	836.25
351.856	859.25
352.083	844.25
352.311	839.25
352.538	819.25
352.765	837.25
352.992	844.25
353.22	840.25
353.447	855.25
353.674	835.25
353.901	835.25
354.128	817.25
354.355	843.25
354.583	871.25
354.81	833.25
355.037	848.25
355.264	841.25
355.491	846.25
355.718	848.25
355.945	847.25
356.172	829.25
356.399	861.25
356.626	846.25
356.853	832.25
357.08	841.25
357.307	831.25
357.534	869.25
357.761	823.25
357.988	839.25
358.215	832.25
358.441	859.25
358.668	833.25
358.895	833.25
359.122	846.25
359.349	845.25
359.576	837.25
359.802	850.25
360.029	849.25
360.256	842.25
360.483	856.25
360.709	889.25
360.936	840.25
361.163	839.25
361.39	835.25
361.616	817.25
361.843	829.25
362.07	861.25
362.296	849.25
362.523	830.25
362.749	816.25
362.976	826.25
363.203	830.25
363.429	832.25
363.656	845.25
363.882	828.25
364.109	815.25
364.335	822.25
364.562	798.25
364.788	842.25
365.015	833.25
365.241	838.25
365.468	812.25
365.694	845.25
365.92	841.25
366.147	821.25
366.373	849.25
366.599	843.25
366.826	846.25
367.052	839.25
367.278	856.25
367.505	869.25
367.731	844.25
367.957	845.25
368.184	833.25
368.41	860.25
368.636	836.25
368.862	843.25
369.089	872.25
369.315	857.25
369.541	839.25
369.767	842.25
369.993	879.25
370.219	881.25
370.445	888.25
370.672	903.25
370.898	891.25
371.124	913.25
371.35	898.25
371.576	951.25
371.802	897.25
372.028	906.25
372.254	923.25
372.48	942.25
372.706	951.25
372.932	963.25
373.158	953.25
373.384	904.25
373.61	918.25
373.835	910.25
374.061	928.25
374.287	911.25
374.513	940.25
374.739	979.25
374.965	1008.25
375.191	984.25
375.416	1004.25
375.642	968.25
375.868	949.25
376.094	949.25
376.319	900.25
376.545	940.25
376.771	936.25
376.997	936.25
377.222	909.25
377.448	907.25
377.674	886.25
377.899	903.25
378.125	899.25
378.35	917.25
378.576	890.25
378.802	885.25
379.027	892.25
379.253	914.25
379.478	889.25
379.704	909.25
379.929	879.25
380.155	877.25
380.38	892.25
380.606	939.25
380.831	911.25
381.057	937.25
381.282	904.25
381.507	934.25
381.733	936.25
381.958	928.25
382.184	956.25
382.409	968.25
382.634	950.25
382.86	987.25
383.085	981.25
383.31	985.25
383.535	1000.25
383.761	1015.25
383.986	1035.25
384.211	1070.25
384.436	1094.25
384.662	1097.25
384.887	1131.25
385.112	1131.25
385.337	1129.25
385.562	1116.25
385.787	1091.25
386.013	1102.25
386.238	1132.25
386.463	1119.25
386.688	1116.25
386.913	1118.25
387.138	1106.25
387.363	1095.25
387.588	1095.25
387.813	1110.25
388.038	1080.25
388.263	1126.25
388.488	1117.25
388.713	1118.25
388.938	1071.25
389.163	1056.25
389.387	1088.25
389.612	1055.25
389.837	1064.25
390.062	1069.25
390.287	1078.25
390.512	1086.25
390.736	1082.25
390.961	1147.25
391.186	1129.25
391.411	1124.25
391.636	1186.25
391.86	1231.25
392.085	1271.25
392.31	1231.25
392.534	1191.25
392.759	1186.25
392.984	1151.25
393.208	1144.25
393.433	1106.25
393.658	1156.25
393.882	1196.25
394.107	1185.25
394.331	1200.25
394.556	1195.25
394.78	1179.25
395.005	1188.25
395.229	1168.25
395.454	1221.25
395.678	1262.25
395.903	1244.25
396.127	1242.25
396.352	1212.25
396.576	1161.25
396.801	1167.25
397.025	1185.25
397.249	1226.25
397.474	1227.25
397.698	1233.25
397.922	1207.25
398.147	1204.25
398.371	1282.25
398.595	1287.25
398.82	1376.25
399.044	1455.25
399.268	1677.25
399.492	1895.25
399.717	2187.25
399.941	2195.25
400.165	1892.25
400.389	1662.25
400.613	1537.25
400.837	1469.25
401.062	1396.25
401.286	1385.25
401.51	1379.25
401.734	1400.25
401.958	1388.25
402.182	1425.25
402.406	1426.25
402.63	1451.25
402.854	1480.25
403.078	1486.25
403.302	1556.25
403.526	1577.25
403.75	1630.25
403.974	1691.25
404.198	1639.25
404.422	1647.25
404.645	1665.25
404.869	1592.25
405.093	1535.25
405.317	1560.25
405.541	1569.25
405.765	1512.25
405.988	1545.25
406.212	1514.25
406.436	1515.25
406.66	1563.25
406.883	1565.25
407.107	1699.25
407.331	1801.25
407.555	1801.25
407.778	1820.25
408.002	1773.25
408.226	1709.25
408.449	1684.25
408.673	1612.25
408.896	1552.25
409.12	1581.25
409.344	1593.25
409.567	1580.25
409.791	1590.25
410.014	1581.25
410.238	1575.25
410.461	1555.25
410.685	1526.25
410.908	1519.25
411.132	1504.25
411.355	1488.25
411.578	1434.25
411.802	1431.25
412.025	1440.25
412.249	1467.25
412.472	1446.25
412.695	1405.25
412.919	1404.25
413.142	1406.25
413.365	1395.25
413.589	1402.25
413.812	1385.25
414.035	1355.25
414.258	1367.25
414.482	1398.25
414.705	1416.25
414.928	1417.25
415.151	1398.25
415.374	1415.25
415.597	1402.25
415.821	1338.25
416.044	1331.25
416.267	1352.25
416.49	1341.25
416.713	1375.25
416.936	1379.25
417.159	1378.25
417.382	1326.25
417.605	1320.25
417.828	1358.25
418.051	1390.25
418.274	1376.25
418.497	1379.25
418.72	1399.25
418.943	1418.25
419.166	1486.25
419.389	1589.25
419.611	1578.25
419.834	1485.25
420.057	1413.25
420.28	1389.25
420.503	1363.25
420.726	1340.25
420.948	1350.25
421.171	1378.25
421.394	1385.25
421.617	1372.25
421.839	1381.25
422.062	1393.25
422.285	1360.25
422.507	1439.25
422.73	1429.25
422.953	1408.25
423.175	1439.25
423.398	1482.25
423.621	1480.25
423.843	1462.25
424.066	1487.25
424.288	1504.25
424.511	1481.25
424.733	1434.25
424.956	1392.25
425.178	1405.25
425.401	1359.25
425.623	1406.25
425.846	1311.25
426.068	1304.25
426.291	1302.25
426.513	1269.25
426.735	1295.25
426.958	1260.25
427.18	1223.25
427.402	1249.25
427.625	1232.25
427.847	1203.25
428.069	1194.25
428.292	1223.25
428.514	1198.25
428.736	1148.25
428.958	1230.25
429.181	1198.25
429.403	1165.25
429.625	1155.25
429.847	1173.25
430.069	1150.25
430.292	1175.25
430.514	1134.25
430.736	1175.25
430.958	1164.25
431.18	1186.25
431.402	1185.25
431.624	1186.25
431.846	1235.25
432.068	1229.25
432.29	1235.25
432.512	1191.25
432.734	1197.25
432.956	1178.25
433.178	1229.25
433.4	1235.25
433.622	1200.25
433.844	1253.25
434.066	1243.25
434.287	1255.25
434.509	1301.25
434.731	1353.25
434.953	1378.25
435.175	1393.25
435.397	1387.25
435.618	1296.25
435.84	1260.25
436.062	1240.25
436.284	1222.25
436.505	1210.25
436.727	1187.25
436.949	1200.25
437.17	1229.25
437.392	1217.25
437.614	1232.25
437.835	1153.25
438.057	1173.25
438.278	1141.25
438.5	1144.25
438.721	1165.25
438.943	1191.25
439.165	1163.25
439.386	1199.25
439.608	1234.25
439.829	1183.25
440.05	1187.25
440.272	1224.25
440.493	1209.25
440.715	1250.25
440.936	1276.25
441.158	1297.25
441.379	1320.25
441.6	1374.25
441.822	1402.25
442.043	1388.25
442.264	1365.25
442.486	1317.25
442.707	1341.25
442.928	1335.25
443.149	1355.25
443.371	1345.25
443.592	1377.25
443.813	1383.25
444.034	1405.25
444.255	1432.25
444.476	1495.25
444.698	1564.25
444.919	1639.25
445.14	1701.25
445.361	1545.25
445.582	1409.25
445.803	1348.25
446.024	1285.25
446.245	1260.25
446.466	1270.25
446.687	1200.25
446.908	1228.25
447.129	1206.25
447.35	1160.25
447.571	1171.25
447.792	1159.25
448.013	1145.25
448.234	1104.25
448.455	1128.25
448.675	1100.25
448.896	1121.25
449.117	1071.25
449.338	1084.25
449.559	1109.25
449.779	1102.25
450	1094.25
450.221	1093.25
450.442	1103.25
450.662	1138.25
450.883	1121.25
451.104	1121.25
451.324	1118.25
451.545	1160.25
451.766	1120.25
451.986	1111.25
452.207	1125.25
452.428	1084.25
452.648	1101.25
452.869	1102.25
453.089	1069.25
453.31	1100.25
453.53	1070.25
453.751	1096.25
453.971	1049.25
454.192	1059.25
454.412	1055.25
454.633	1055.25
454.853	1067.25
455.073	1014.25
455.294	1037.25
455.514	1023.25
455.734	1063.25
455.955	1030.25
456.175	1037.25
456.395	1039.25
456.616	986.25
456.836	1005.25
457.056	1004.25
457.276	1024.25
457.497	1040.25
457.717	1034.25
457.937	1028.25
458.157	1063.25
458.377	1032.25
458.598	1107.25
458.818	1121.25
459.038	1123.25
459.258	1157.25
459.478	1239.25
459.698	1279.25
459.918	1289.25
460.138	1365.25
460.358	1436.25
460.578	1464.25
460.798	1459.25
461.018	1425.25
461.238	1439.25
461.458	1429.25
461.678	1431.25
461.898	1434.25
462.118	1460.25
462.338	1563.25
462.558	1565.25
462.777	1613.25
462.997	1790.25
463.217	2011.25
463.437	1951.25
463.657	1791.25
463.876	1685.25
464.096	1703.25
464.316	1654.25
464.536	1716.25
464.755	1593.25
464.975	1580.25
465.195	1473.25
465.414	1410.25
465.634	1308.25
465.854	1258.25
466.073	1221.25
466.293	1185.25
466.512	1189.25
466.732	1178.25
466.951	1169.25
467.171	1166.25
467.391	1167.25
467.61	1171.25
467.829	1151.25
468.049	1154.25
468.268	1132.25
468.488	1085.25
468.707	1107.25
468.927	1094.25
469.146	1123.25
469.365	1124.25
469.585	1123.25
469.804	1141.25
470.023	1141.25
470.243	1195.25
470.462	1221.25
470.681	1218.25
470.901	1228.25
471.12	1187.25
471.339	1190.25
471.558	1098.25
471.777	1112.25
471.997	1134.25
472.216	1128.25
472.435	1112.25
472.654	1075.25
472.873	1089.25
473.092	1051.25
473.311	1067.25
473.53	1108.25
473.749	1064.25
473.968	1064.25
474.187	1078.25
474.406	1071.25
474.625	1080.25
474.844	1031.25
475.063	1097.25
475.282	1087.25
475.501	1084.25
475.72	1108.25
475.939	1105.25
476.158	1131.25
476.377	1112.25
476.596	1122.25
476.814	1136.25
477.033	1120.25
477.252	1150.25
477.471	1189.25
477.69	1205.25
477.908	1203.25
478.127	1270.25
478.346	1291.25
478.564	1322.25
478.783	1364.25
479.002	1403.25
479.22	1365.25
479.439	1375.25
479.658	1372.25
479.876	1360.25
480.095	1347.25
480.313	1493.25
480.532	1485.25
480.751	1504.25
480.969	1428.25
481.188	1325.25
481.406	1353.25
481.624	1281.25
481.843	1245.25
482.061	1279.25
482.28	1240.25
482.498	1227.25
482.717	1225.25
482.935	1259.25
483.153	1235.25
483.372	1232.25
483.59	1267.25
483.808	1203.25
484.027	1255.25
484.245	1233.25
484.463	1268.25
484.681	1285.25
484.9	1304.25
485.118	1279.25
485.336	1323.25
485.554	1315.25
485.772	1310.25
485.99	1333.25
486.209	1349.25
486.427	1349.25
486.645	1343.25
486.863	1325.25
487.081	1293.25
487.299	1320.25
487.517	1303.25
487.735	1319.25
487.953	1345.25
488.171	1342.25
488.389	1350.25
488.607	1314.25
488.825	1275.25
489.043	1262.25
489.261	1259.25
489.479	1280.25
489.696	1297.25
489.914	1309.25
490.132	1307.25
490.35	1302.25
490.568	1312.25
490.786	1321.25
491.003	1317.25
491.221	1294.25
491.439	1297.25
491.657	1289.25
491.874	1292.25
492.092	1296.25
492.31	1312.25
492.527	1294.25
492.745	1346.25
492.963	1304.25
493.18	1309.25
493.398	1332.25
493.615	1318.25
493.833	1383.25
494.05	1351.25
494.268	1382.25
494.485	1377.25
494.703	1387.25
494.92	1369.25
495.138	1342.25
495.355	1371.25
495.573	1376.25
495.79	1352.25
496.008	1377.25
496.225	1379.25
496.442	1407.25
496.66	1409.25
496.877	1431.25
497.094	1454.25
497.312	1462.25
497.529	1498.25
497.746	1569.25
497.963	1597.25
498.181	1672.25
498.398	1747.25
498.615	1850.25
498.832	1991.25
499.049	2127.25
499.267	2297.25
499.484	2582.25
499.701	2824.25
499.918	3160.25
500.135	3581.25
500.352	4259.25
500.569	4401.25
500.786	4372.25
501.003	4033.25
501.22	3491.25
501.437	3042.25
501.654	2648.25
501.871	2449.25
502.088	2183.25
502.305	2083.25
502.522	1979.25
502.739	1892.25
502.956	1755.25
503.172	1699.25
503.389	1611.25
503.606	1566.25
503.823	1568.25
504.04	1542.25
504.256	1594.25
504.473	1606.25
504.69	1680.25
504.907	1628.25
505.123	1520.25
505.34	1447.25
505.557	1374.25
505.773	1325.25
505.99	1308.25
506.207	1275.25
506.423	1253.25
506.64	1252.25
506.856	1256.25
507.073	1212.25
507.289	1219.25
507.506	1195.25
507.722	1222.25
507.939	1175.25
508.155	1189.25
508.372	1153.25
508.588	1173.25
508.805	1157.25
509.021	1181.25
509.238	1150.25
509.454	1151.25
509.67	1105.25
509.887	1109.25
510.103	1100.25
510.319	1139.25
510.536	1125.25
510.752	1101.25
510.968	1113.25
511.184	1110.25
511.401	1126.25
511.617	1091.25
511.833	1093.25
512.049	1068.25
512.265	1088.25
512.481	1115.25
512.698	1067.25
512.914	1077.25
513.13	1083.25
513.346	1069.25
513.562	1115.25
513.778	1100.25
513.994	1092.25
514.21	1109.25
514.426	1125.25
514.642	1135.25
514.858	1120.25
515.074	1136.25
515.29	1162.25
515.506	1129.25
515.721	1162.25
515.937	1187.25
516.153	1204.25
516.369	1214.25
516.585	1280.25
516.801	1296.25
517.016	1348.25
517.232	1474.25
517.448	1493.25
517.664	1567.25
517.879	1594.25
518.095	1574.25
518.311	1545.25
518.527	1462.25
518.742	1381.25
518.958	1340.25
519.173	1278.25
519.389	1256.25
519.605	1198.25
519.82	1183.25
520.036	1155.25
520.251	1140.25
520.467	1137.25
520.682	1112.25
520.898	1089.25
521.113	1090.25
521.329	1083.25
521.544	1055.25
521.76	1075.25
521.975	1072.25
522.19	1063.25
522.406	1039.25
522.621	1053.25
522.836	1004.25
523.052	1025.25
523.267	1019.25
523.482	1001.25
523.698	1004.25
523.913	998.25
524.128	982.25
524.343	1019.25
524.559	999.25
524.774	1013.25
524.989	995.25
525.204	998.25
525.419	1004.25
525.634	988.25
525.849	993.25
526.064	995.25
526.28	958.25
526.495	985.25
526.71	965.25
526.925	978.25
527.14	960.25
527.355	959.25
527.57	955.25
527.785	964.25
527.999	971.25
528.214	1023.25
528.429	995.25
528.644	1008.25
528.859	993.25
529.074	989.25
529.289	1010.25
529.503	1002.25
529.718	979.25
529.933	989.25
530.148	956.25
530.363	969.25
530.577	987.25
530.792	975.25
531.007	974.25
531.221	1013.25
531.436	994.25
531.651	998.25
531.865	1009.25
532.08	989.25
532.295	1019.25
532.509	995.25
532.724	986.25
532.938	957.25
533.153	977.25
533.367	994.25
533.582	985.25
533.796	961.25
534.011	952.25
534.225	986.25
534.44	967.25
534.654	996.25
534.868	953.25
535.083	957.25
535.297	971.25
535.511	947.25
535.726	936.25
535.94	933.25
536.154	942.25
536.369	949.25
536.583	935.25
536.797	892.25
537.011	906.25
537.225	895.25
537.44	894.25
537.654	918.25
537.868	894.25
538.082	885.25
538.296	918.25
538.51	916.25
538.724	913.25
538.938	879.25
539.153	893.25
539.367	880.25
539.581	880.25
539.795	872.25
540.009	899.25
540.222	880.25
540.436	920.25
540.65	839.25
540.864	850.25
541.078	867.25
541.292	876.25
541.506	863.25
541.72	859.25
541.934	873.25
542.147	873.25
542.361	853.25
542.575	881.25
542.789	871.25
543.002	860.25
543.216	859.25
543.43	862.25
543.644	819.25
543.857	870.25
544.071	884.25
544.285	873.25
544.498	844.25
544.712	888.25
544.925	909.25
545.139	870.25
545.352	887.25
545.566	899.25
545.779	892.25
545.993	911.25
546.206	924.25
546.42	892.25
546.633	902.25
546.847	897.25
547.06	896.25
547.274	864.25
547.487	901.25
547.7	903.25
547.914	904.25
548.127	897.25
548.34	904.25
548.554	900.25
548.767	880.25
548.98	891.25
549.193	907.25
549.407	903.25
549.62	915.25
549.833	934.25
550.046	900.25
550.259	896.25
550.473	873.25
550.686	891.25
550.899	862.25
551.112	863.25
551.325	874.25
551.538	875.25
551.751	884.25
551.964	901.25
552.177	895.25
552.39	916.25
552.603	902.25
552.816	973.25
553.029	982.25
553.242	986.25
553.455	957.25
553.667	1021.25
553.88	989.25
554.093	944.25
554.306	919.25
554.519	909.25
554.732	886.25
554.944	877.25
555.157	837.25
555.37	862.25
555.583	823.25
555.795	811.25
556.008	831.25
556.221	811.25
556.433	775.25
556.646	778.25
556.859	804.25
557.071	775.25
557.284	775.25
557.496	758.25
557.709	786.25
557.921	759.25
558.134	746.25
558.346	742.25
558.559	748.25
558.771	746.25
558.984	752.25
559.196	731.25
559.409	720.25
559.621	726.25
559.833	740.25
560.046	728.25
560.258	727.25
560.47	726.25
560.683	740.25
560.895	716.25
561.107	737.25
561.32	726.25
561.532	742.25
561.744	744.25
561.956	736.25
562.168	721.25
562.381	720.25
562.593	737.25
562.805	720.25
563.017	747.25
563.229	752.25
563.441	755.25
563.653	758.25
563.865	748.25
564.077	771.25
564.289	757.25
564.501	769.25
564.713	780.25
564.925	801.25
565.137	793.25
565.349	831.25
565.561	843.25
565.773	872.25
565.985	937.25
566.197	951.25
566.408	1051.25
566.62	1119.25
566.832	1242.25
567.044	1259.25
567.255	1235.25
567.467	1268.25
567.679	1367.25
567.891	1470.25
568.102	1533.25
568.314	1471.25
568.526	1286.25
568.737	1161.25
568.949	1049.25
569.161	961.25
569.372	876.25
569.584	873.25
569.795	826.25
570.007	789.25
570.218	769.25
570.43	750.25
570.641	766.25
570.853	783.25
571.064	767.25
571.276	767.25
571.487	749.25
571.698	707.25
571.91	679.25
572.121	656.25
572.333	673.25
572.544	649.25
572.755	638.25
572.966	632.25
573.178	641.25
573.389	591.25
573.6	602.25
573.811	599.25
574.023	610.25
574.234	619.25
574.445	608.25
574.656	616.25
574.867	610.25
575.078	587.25
575.289	616.25
575.501	578.25
575.712	575.25
575.923	570.25
576.134	550.25
576.345	594.25
576.556	568.25
576.767	569.25
576.978	599.25
577.188	581.25
577.399	565.25
577.61	559.25
577.821	533.25
578.032	545.25
578.243	541.25
578.454	555.25
578.665	521.25
578.875	535.25
579.086	519.25
579.297	532.25
579.508	535.25
579.718	524.25
579.929	535.25
580.14	519.25
580.35	517.25
580.561	531.25
580.772	519.25
580.982	516.25
581.193	501.25
581.403	547.25
581.614	499.25
581.825	495.25
582.035	499.25
582.246	524.25
582.456	517.25
582.667	527.25
582.877	506.25
583.087	519.25
583.298	495.25
583.508	512.25
583.719	480.25
583.929	494.25
584.139	487.25
584.35	486.25
584.56	505.25
584.77	486.25
584.981	511.25
585.191	496.25
585.401	462.25
585.611	496.25
585.821	479.25
586.032	493.25
586.242	474.25
586.452	481.25
586.662	473.25
586.872	485.25
587.082	471.25
587.292	471.25
587.502	471.25
587.713	483.25
587.923	490.25
588.133	474.25
588.343	478.25
588.553	484.25
588.762	463.25
588.972	464.25
589.182	487.25
589.392	492.25
589.602	492.25
589.812	483.25
590.022	476.25
590.232	506.25
590.441	491.25
590.651	482.25
590.861	489.25
591.071	485.25
591.281	480.25
591.49	508.25
591.7	538.25
591.91	500.25
592.119	530.25
592.329	539.25
592.539	570.25
592.748	590.25
592.958	584.25
593.167	623.25
593.377	628.25
593.587	655.25
593.796	639.25
594.006	614.25
594.215	647.25
594.424	657.25
594.634	641.25
594.843	595.25
595.053	569.25
595.262	559.25
595.472	524.25
595.681	510.25
595.89	488.25
596.1	483.25
596.309	503.25
596.518	461.25
596.727	438.25
596.937	462.25
597.146	452.25
597.355	467.25
597.564	445.25
597.774	447.25
597.983	432.25
598.192	413.25
598.401	408.25
598.61	432.25
598.819	426.25
599.028	397.25
599.237	419.25
599.446	401.25
599.655	414.25
599.864	386.25
600.073	416.25
600.282	415.25
600.491	410.25
600.7	414.25
600.909	402.25
601.118	402.25
601.327	400.25
601.536	407.25
601.745	415.25
601.953	398.25
602.162	390.25
602.371	414.25
602.58	399.25
602.789	407.25
602.997	389.25
603.206	400.25
603.415	388.25
603.623	381.25
603.832	394.25
604.041	383.25
604.249	398.25
604.458	394.25
604.666	373.25
604.875	356.25
605.084	369.25
605.292	375.25
605.501	374.25
605.709	386.25
605.918	381.25
606.126	379.25
606.334	372.25
606.543	363.25
606.751	355.25
606.96	361.25
607.168	374.25
607.376	345.25
607.585	369.25
607.793	361.25
608.001	355.25
608.21	359.25
608.418	384.25
608.626	355.25
608.834	367.25
609.043	378.25
609.251	362.25
609.459	339.25
609.667	373.25
609.875	353.25
610.083	343.25
610.291	359.25
610.499	352.25
610.707	355.25
610.916	357.25
611.124	361.25
611.332	356.25
611.54	362.25
611.748	365.25
611.955	359.25
612.163	329.25
612.371	326.25
612.579	337.25
612.787	348.25
612.995	342.25
613.203	343.25
613.411	346.25
613.618	330.25
613.826	357.25
614.034	346.25
614.242	335.25
614.449	335.25
614.657	341.25
614.865	351.25
615.072	344.25
615.28	329.25
615.488	353.25
615.695	357.25
615.903	340.25
616.111	350.25
616.318	355.25
616.526	361.25
616.733	366.25
616.941	366.25
617.148	355.25
617.356	360.25
617.563	371.25
617.771	362.25
617.978	354.25
618.185	351.25
618.393	350.25
618.6	358.25
618.807	337.25
619.015	347.25
619.222	347.25
619.429	347.25
619.637	333.25
619.844	328.25
620.051	335.25
620.258	328.25
620.466	318.25
620.673	339.25
620.88	315.25
621.087	321.25
621.294	319.25
621.501	326.25
621.708	332.25
621.915	333.25
622.122	329.25
622.329	315.25
622.536	299.25
622.743	323.25
622.95	308.25
623.157	317.25
623.364	304.25
623.571	304.25
623.778	298.25
623.985	299.25
624.192	307.25
624.399	312.25
624.606	300.25
624.812	304.25
625.019	292.25
625.226	291.25
625.433	297.25
625.639	291.25
625.846	291.25
626.053	284.25
626.259	308.25
626.466	278.25
626.673	289.25
626.879	301.25
627.086	291.25
627.293	296.25
627.499	275.25
627.706	279.25
627.912	265.25
628.119	277.25
628.325	291.25
628.532	277.25
628.738	298.25
628.945	283.25
629.151	255.25
629.357	276.25
629.564	261.25
629.77	273.25
629.976	279.25
630.183	281.25
630.389	273.25
630.595	272.25
630.802	266.25
631.008	264.25
631.214	269.25
631.42	267.25
631.627	259.25
631.833	276.25
632.039	259.25
632.245	270.25
632.451	247.25
632.657	268.25
632.863	261.25
633.069	256.25
633.275	251.25
633.481	252.25
633.688	238.25
633.893	232.25
634.099	245.25
634.305	249.25
634.511	255.25
634.717	242.25
634.923	249.25
635.129	241.25
635.335	245.25
635.541	244.25
635.747	245.25
635.952	262.25
636.158	238.25
636.364	240.25
636.57	260.25
636.775	237.25
636.981	246.25
637.187	243.25
637.392	241.25
637.598	247.25
637.804	241.25
638.009	255.25
638.215	227.25
638.421	236.25
638.626	240.25
638.832	235.25
639.037	246.25
639.243	229.25
639.448	249.25
639.654	229.25
639.859	220.25
640.065	225.25
640.27	234.25
640.475	236.25
640.681	221.25
640.886	213.25
641.091	217.25
641.297	213.25
641.502	220.25
641.707	224.25
641.913	220.25
642.118	224.25
642.323	225.25
642.528	214.25
642.733	220.25
642.939	248.25
643.144	225.25
643.349	217.25
643.554	219.25
643.759	227.25
643.964	207.25
644.169	217.25
644.374	211.25
644.579	224.25
644.784	215.25
644.989	199.25
645.194	223.25
645.399	224.25
645.604	222.25
645.809	211.25
646.014	216.25
646.219	223.25
646.423	218.25
646.628	223.25
646.833	235.25
647.038	222.25
647.243	224.25
647.447	239.25
647.652	232.25
647.857	243.25
648.062	243.25
648.266	246.25
648.471	248.25
648.676	241.25
648.88	247.25
649.085	241.25
649.289	223.25
649.494	245.25
649.698	232.25
649.903	216.25
650.107	214.25
650.312	225.25
650.516	224.25
650.721	201.25
650.925	201.25
651.13	216.25
651.334	217.25
651.539	203.25
651.743	203.25
651.947	208.25
652.152	203.25
652.356	197.25
652.56	202.25
652.764	166.25
652.969	192.25
653.173	192.25
653.377	183.25
653.581	179.25
653.785	183.25
653.99	187.25
654.194	177.25
654.398	165.25
654.602	172.25
654.806	176.25
655.01	166.25
655.214	174.25
655.418	177.25
655.622	192.25
655.826	165.25
656.03	181.25
656.234	192.25
656.438	176.25
656.642	183.25
656.846	196.25
657.049	192.25
657.253	192.25
657.457	152.25
657.661	151.25
657.865	150.25
658.068	125.25
658.272	120.25
658.476	128.25
658.68	121.25
658.883	129.25
659.087	119.25
659.291	110.25
659.494	115.25
659.698	110.25
659.901	116.25
660.105	115.25
660.309	104.25
660.512	112.25
660.716	122.25
660.919	112.25
661.123	92.25
661.326	98.25
661.53	95.25
661.733	88.25
661.936	90.25
662.14	90.25
662.343	88.25
662.546	87.25
662.75	87.25
662.953	99.25
663.156	82.25
663.36	86.25
663.563	93.25
663.766	82.25
663.969	91.25
664.173	80.25
664.376	83.25
664.579	76.25
664.782	92.25
664.985	86.25
665.188	93.25
665.391	89.25
665.594	82.25
665.797	80.25
666	79.25
666.203	89.25
666.406	85.25
666.609	74.25
666.812	73.25
667.015	84.25
667.218	82.25
667.421	93.25
667.624	73.25
667.827	78.25
668.03	82.25
668.232	80.25
668.435	87.25
668.638	66.25
668.841	77.25
669.043	83.25
669.246	89.25
669.449	84.25
669.651	79.25
669.854	80.25
670.057	85.25
670.259	79.25
670.462	82.25
670.665	92.25
670.867	82.25
671.07	87.25
671.272	84.25
671.475	83.25
671.677	86.25
671.88	76.25
672.082	79.25
672.284	95.25
672.487	87.25
672.689	83.25
672.892	71.25
