Data from Ni(NO3)2@0.125M.TitratingCurve.Agarose3%dH2O.NegLispCup.LampEnergy10.LIBS07252019_HRD10591_18-09-25-567.txt Node
Date: Thu Jul 25 18:09:25 EDT 2019
User: cochatt
Spectrometer: HR+D1059
Trigger mode: 1
Integration Time (sec): 1.000000E-1
Scans to average: 1
Electric dark correction enabled: true
Nonlinearity correction enabled: false
Boxcar width: 0
XAxis mode: Wavelengths
Number of Pixels in Spectrum: 2048
>>>>>Begin Spectral Data<<<<<
223.165	-20.44
223.4	-20.44
223.635	-20.44
223.869	-11.44
224.104	-24.44
224.338	-18.44
224.573	-26.44
224.808	1.56
225.042	4.56
225.277	-8.44
225.511	9.56
225.746	-8.44
225.98	-5.44
226.215	18.56
226.449	17.56
226.683	14.56
226.918	25.56
227.152	31.56
227.387	34.56
227.621	40.56
227.856	54.56
228.09	46.56
228.324	29.56
228.559	45.56
228.793	44.56
229.027	78.56
229.262	98.56
229.496	100.56
229.73	100.56
229.964	96.56
230.199	115.56
230.433	106.56
230.667	101.56
230.901	120.56
231.136	124.56
231.37	131.56
231.604	112.56
231.838	130.56
232.072	121.56
232.306	134.56
232.541	130.56
232.775	126.56
233.009	133.56
233.243	133.56
233.477	139.56
233.711	125.56
233.945	139.56
234.179	131.56
234.413	138.56
234.647	150.56
234.881	136.56
235.115	125.56
235.349	127.56
235.583	135.56
235.817	137.56
236.051	137.56
236.285	146.56
236.519	126.56
236.753	133.56
236.987	137.56
237.221	128.56
237.455	150.56
237.689	132.56
237.922	137.56
238.156	125.56
238.39	147.56
238.624	141.56
238.858	136.56
239.091	142.56
239.325	139.56
239.559	161.56
239.793	155.56
240.027	145.56
240.26	152.56
240.494	146.56
240.728	141.56
240.961	157.56
241.195	165.56
241.429	160.56
241.662	137.56
241.896	158.56
242.13	156.56
242.363	164.56
242.597	182.56
242.83	159.56
243.064	162.56
243.298	167.56
243.531	167.56
243.765	160.56
243.998	171.56
244.232	160.56
244.465	183.56
244.699	172.56
244.932	169.56
245.166	189.56
245.399	187.56
245.633	190.56
245.866	177.56
246.099	176.56
246.333	181.56
246.566	177.56
246.8	179.56
247.033	200.56
247.266	193.56
247.5	210.56
247.733	184.56
247.966	186.56
248.2	199.56
248.433	198.56
248.666	193.56
248.899	200.56
249.133	202.56
249.366	201.56
249.599	211.56
249.832	213.56
250.066	209.56
250.299	204.56
250.532	224.56
250.765	207.56
250.998	213.56
251.231	217.56
251.465	220.56
251.698	209.56
251.931	220.56
252.164	228.56
252.397	221.56
252.63	211.56
252.863	234.56
253.096	221.56
253.329	230.56
253.562	225.56
253.795	223.56
254.028	228.56
254.261	224.56
254.494	231.56
254.727	234.56
254.96	232.56
255.193	237.56
255.426	244.56
255.659	237.56
255.892	243.56
256.124	227.56
256.357	229.56
256.59	233.56
256.823	243.56
257.056	244.56
257.289	254.56
257.521	245.56
257.754	239.56
257.987	257.56
258.22	244.56
258.452	262.56
258.685	254.56
258.918	255.56
259.151	256.56
259.383	264.56
259.616	262.56
259.849	268.56
260.081	259.56
260.314	257.56
260.547	264.56
260.779	260.56
261.012	263.56
261.244	267.56
261.477	277.56
261.71	291.56
261.942	277.56
262.175	288.56
262.407	259.56
262.64	265.56
262.872	290.56
263.105	292.56
263.337	269.56
263.57	285.56
263.802	290.56
264.035	282.56
264.267	280.56
264.499	284.56
264.732	286.56
264.964	280.56
265.197	305.56
265.429	284.56
265.661	299.56
265.894	283.56
266.126	292.56
266.358	294.56
266.591	302.56
266.823	309.56
267.055	313.56
267.287	292.56
267.52	318.56
267.752	310.56
267.984	304.56
268.216	317.56
268.448	304.56
268.681	299.56
268.913	301.56
269.145	309.56
269.377	306.56
269.609	305.56
269.841	293.56
270.073	324.56
270.306	317.56
270.538	310.56
270.77	306.56
271.002	300.56
271.234	310.56
271.466	323.56
271.698	317.56
271.93	345.56
272.162	311.56
272.394	327.56
272.626	330.56
272.858	331.56
273.09	316.56
273.322	313.56
273.553	316.56
273.785	339.56
274.017	320.56
274.249	330.56
274.481	349.56
274.713	339.56
274.945	313.56
275.176	328.56
275.408	343.56
275.64	349.56
275.872	339.56
276.104	331.56
276.335	328.56
276.567	334.56
276.799	326.56
277.031	353.56
277.262	328.56
277.494	341.56
277.726	343.56
277.957	352.56
278.189	352.56
278.421	346.56
278.652	357.56
278.884	378.56
279.115	344.56
279.347	343.56
279.579	350.56
279.81	358.56
280.042	365.56
280.273	346.56
280.505	373.56
280.736	363.56
280.968	368.56
281.199	378.56
281.431	384.56
281.662	375.56
281.894	363.56
282.125	390.56
282.356	390.56
282.588	381.56
282.819	375.56
283.051	378.56
283.282	391.56
283.513	393.56
283.745	373.56
283.976	381.56
284.207	378.56
284.439	398.56
284.67	405.56
284.901	388.56
285.132	397.56
285.364	385.56
285.595	397.56
285.826	388.56
286.057	413.56
286.288	392.56
286.52	395.56
286.751	390.56
286.982	417.56
287.213	404.56
287.444	399.56
287.675	398.56
287.906	402.56
288.138	427.56
288.369	415.56
288.6	405.56
288.831	428.56
289.062	427.56
289.293	402.56
289.524	410.56
289.755	429.56
289.986	424.56
290.217	428.56
290.448	423.56
290.679	412.56
290.91	420.56
291.141	412.56
291.371	428.56
291.602	430.56
291.833	421.56
292.064	422.56
292.295	427.56
292.526	432.56
292.757	421.56
292.987	427.56
293.218	442.56
293.449	440.56
293.68	450.56
293.91	434.56
294.141	416.56
294.372	426.56
294.603	437.56
294.833	442.56
295.064	439.56
295.295	444.56
295.525	409.56
295.756	456.56
295.987	423.56
296.217	436.56
296.448	446.56
296.679	433.56
296.909	433.56
297.14	456.56
297.37	437.56
297.601	449.56
297.831	440.56
298.062	465.56
298.292	478.56
298.523	487.56
298.753	480.56
298.984	488.56
299.214	455.56
299.445	466.56
299.675	468.56
299.905	461.56
300.136	455.56
300.366	483.56
300.597	485.56
300.827	499.56
301.057	469.56
301.288	506.56
301.518	514.56
301.748	466.56
301.979	483.56
302.209	506.56
302.439	485.56
302.669	493.56
302.9	512.56
303.13	460.56
303.36	476.56
303.59	459.56
303.82	457.56
304.051	476.56
304.281	500.56
304.511	480.56
304.741	479.56
304.971	473.56
305.201	471.56
305.431	456.56
305.661	484.56
305.891	488.56
306.121	448.56
306.352	463.56
306.582	486.56
306.812	462.56
307.042	465.56
307.272	488.56
307.502	474.56
307.731	454.56
307.961	459.56
308.191	473.56
308.421	456.56
308.651	464.56
308.881	471.56
309.111	466.56
309.341	453.56
309.571	439.56
309.8	455.56
310.03	477.56
310.26	479.56
310.49	471.56
310.72	464.56
310.949	483.56
311.179	476.56
311.409	474.56
311.639	482.56
311.868	497.56
312.098	506.56
312.328	514.56
312.557	492.56
312.787	478.56
313.017	494.56
313.246	481.56
313.476	511.56
313.706	510.56
313.935	505.56
314.165	510.56
314.394	510.56
314.624	496.56
314.853	477.56
315.083	490.56
315.312	515.56
315.542	524.56
315.771	502.56
316.001	496.56
316.23	513.56
316.46	484.56
316.689	506.56
316.919	493.56
317.148	474.56
317.377	494.56
317.607	497.56
317.836	496.56
318.065	481.56
318.295	480.56
318.524	499.56
318.753	478.56
318.983	475.56
319.212	478.56
319.441	498.56
319.67	502.56
319.9	490.56
320.129	478.56
320.358	482.56
320.587	466.56
320.816	476.56
321.046	509.56
321.275	506.56
321.504	502.56
321.733	504.56
321.962	496.56
322.191	484.56
322.42	492.56
322.649	505.56
322.878	503.56
323.108	492.56
323.337	501.56
323.566	501.56
323.795	515.56
324.024	534.56
324.253	508.56
324.482	510.56
324.71	516.56
324.939	525.56
325.168	515.56
325.397	512.56
325.626	524.56
325.855	518.56
326.084	545.56
326.313	546.56
326.542	541.56
326.77	577.56
326.999	550.56
327.228	551.56
327.457	549.56
327.686	550.56
327.914	565.56
328.143	563.56
328.372	572.56
328.6	558.56
328.829	541.56
329.058	554.56
329.287	564.56
329.515	554.56
329.744	566.56
329.972	553.56
330.201	552.56
330.43	570.56
330.658	563.56
330.887	570.56
331.115	568.56
331.344	575.56
331.572	583.56
331.801	573.56
332.03	630.56
332.258	642.56
332.486	664.56
332.715	695.56
332.943	720.56
333.172	711.56
333.4	760.56
333.629	768.56
333.857	795.56
334.085	740.56
334.314	734.56
334.542	708.56
334.771	709.56
334.999	679.56
335.227	702.56
335.455	693.56
335.684	704.56
335.912	674.56
336.14	667.56
336.369	664.56
336.597	687.56
336.825	681.56
337.053	690.56
337.281	672.56
337.51	649.56
337.738	634.56
337.966	629.56
338.194	621.56
338.422	581.56
338.65	598.56
338.878	597.56
339.106	606.56
339.334	620.56
339.562	592.56
339.79	573.56
340.018	616.56
340.246	590.56
340.474	590.56
340.702	603.56
340.93	597.56
341.158	574.56
341.386	590.56
341.614	581.56
341.842	587.56
342.07	571.56
342.298	584.56
342.526	562.56
342.754	584.56
342.981	575.56
343.209	597.56
343.437	605.56
343.665	690.56
343.893	712.56
344.12	758.56
344.348	692.56
344.576	638.56
344.804	638.56
345.031	611.56
345.259	612.56
345.487	590.56
345.714	590.56
345.942	583.56
346.17	577.56
346.397	594.56
346.625	582.56
346.853	562.56
347.08	585.56
347.308	587.56
347.535	589.56
347.763	570.56
347.99	574.56
348.218	575.56
348.445	584.56
348.673	580.56
348.9	586.56
349.128	570.56
349.355	569.56
349.583	573.56
349.81	549.56
350.037	538.56
350.265	558.56
350.492	556.56
350.72	555.56
350.947	549.56
351.174	542.56
351.402	565.56
351.629	551.56
351.856	562.56
352.083	551.56
352.311	578.56
352.538	548.56
352.765	530.56
352.992	531.56
353.22	517.56
353.447	539.56
353.674	528.56
353.901	521.56
354.128	546.56
354.355	543.56
354.583	535.56
354.81	530.56
355.037	553.56
355.264	559.56
355.491	572.56
355.718	552.56
355.945	561.56
356.172	562.56
356.399	563.56
356.626	553.56
356.853	556.56
357.08	541.56
357.307	532.56
357.534	560.56
357.761	565.56
357.988	538.56
358.215	546.56
358.441	578.56
358.668	551.56
358.895	541.56
359.122	532.56
359.349	555.56
359.576	546.56
359.802	538.56
360.029	565.56
360.256	530.56
360.483	553.56
360.709	530.56
360.936	548.56
361.163	551.56
361.39	558.56
361.616	552.56
361.843	548.56
362.07	564.56
362.296	547.56
362.523	541.56
362.749	551.56
362.976	547.56
363.203	548.56
363.429	540.56
363.656	542.56
363.882	537.56
364.109	525.56
364.335	537.56
364.562	542.56
364.788	566.56
365.015	555.56
365.241	528.56
365.468	545.56
365.694	557.56
365.92	551.56
366.147	543.56
366.373	534.56
366.599	553.56
366.826	548.56
367.052	520.56
367.278	537.56
367.505	554.56
367.731	560.56
367.957	555.56
368.184	541.56
368.41	558.56
368.636	552.56
368.862	553.56
369.089	552.56
369.315	565.56
369.541	585.56
369.767	567.56
369.993	557.56
370.219	557.56
370.445	553.56
370.672	587.56
370.898	582.56
371.124	582.56
371.35	614.56
371.576	587.56
371.802	600.56
372.028	597.56
372.254	603.56
372.48	579.56
372.706	615.56
372.932	625.56
373.158	610.56
373.384	591.56
373.61	596.56
373.835	597.56
374.061	590.56
374.287	611.56
374.513	621.56
374.739	618.56
374.965	662.56
375.191	642.56
375.416	667.56
375.642	652.56
375.868	636.56
376.094	632.56
376.319	618.56
376.545	605.56
376.771	591.56
376.997	598.56
377.222	609.56
377.448	590.56
377.674	628.56
377.899	598.56
378.125	599.56
378.35	596.56
378.576	593.56
378.802	582.56
379.027	568.56
379.253	582.56
379.478	580.56
379.704	579.56
379.929	567.56
380.155	574.56
380.38	577.56
380.606	580.56
380.831	576.56
381.057	577.56
381.282	589.56
381.507	582.56
381.733	601.56
381.958	601.56
382.184	602.56
382.409	621.56
382.634	636.56
382.86	634.56
383.085	642.56
383.31	628.56
383.535	621.56
383.761	652.56
383.986	692.56
384.211	685.56
384.436	708.56
384.662	715.56
384.887	720.56
385.112	699.56
385.337	691.56
385.562	720.56
385.787	704.56
386.013	729.56
386.238	713.56
386.463	734.56
386.688	696.56
386.913	698.56
387.138	685.56
387.363	702.56
387.588	723.56
387.813	692.56
388.038	700.56
388.263	737.56
388.488	716.56
388.713	685.56
388.938	709.56
389.163	692.56
389.387	673.56
389.612	690.56
389.837	684.56
390.062	700.56
390.287	684.56
390.512	674.56
390.736	684.56
390.961	690.56
391.186	735.56
391.411	764.56
391.636	744.56
391.86	808.56
392.085	827.56
392.31	833.56
392.534	771.56
392.759	765.56
392.984	753.56
393.208	729.56
393.433	733.56
393.658	754.56
393.882	788.56
394.107	758.56
394.331	744.56
394.556	740.56
394.78	775.56
395.005	766.56
395.229	761.56
395.454	798.56
395.678	801.56
395.903	810.56
396.127	765.56
396.352	749.56
396.576	747.56
396.801	742.56
397.025	737.56
397.249	730.56
397.474	776.56
397.698	776.56
397.922	767.56
398.147	773.56
398.371	768.56
398.595	848.56
398.82	847.56
399.044	895.56
399.268	1003.56
399.492	1198.56
399.717	1385.56
399.941	1357.56
400.165	1164.56
400.389	1057.56
400.613	973.56
400.837	918.56
401.062	888.56
401.286	860.56
401.51	847.56
401.734	882.56
401.958	871.56
402.182	907.56
402.406	904.56
402.63	905.56
402.854	957.56
403.078	970.56
403.302	996.56
403.526	1004.56
403.75	1046.56
403.974	1040.56
404.198	1093.56
404.422	1076.56
404.645	1047.56
404.869	1051.56
405.093	1017.56
405.317	987.56
405.541	1011.56
405.765	957.56
405.988	985.56
406.212	983.56
406.436	960.56
406.66	985.56
406.883	998.56
407.107	1074.56
407.331	1134.56
407.555	1145.56
407.778	1186.56
408.002	1126.56
408.226	1077.56
408.449	1060.56
408.673	1008.56
408.896	994.56
409.12	1032.56
409.344	1020.56
409.567	1029.56
409.791	1013.56
410.014	1060.56
410.238	1020.56
410.461	1022.56
410.685	1020.56
410.908	975.56
411.132	946.56
411.355	915.56
411.578	940.56
411.802	905.56
412.025	904.56
412.249	944.56
412.472	942.56
412.695	904.56
412.919	891.56
413.142	883.56
413.365	890.56
413.589	906.56
413.812	881.56
414.035	886.56
414.258	884.56
414.482	891.56
414.705	906.56
414.928	896.56
415.151	890.56
415.374	881.56
415.597	887.56
415.821	892.56
416.044	891.56
416.267	868.56
416.49	866.56
416.713	899.56
416.936	870.56
417.159	894.56
417.382	899.56
417.605	878.56
417.828	892.56
418.051	896.56
418.274	918.56
418.497	911.56
418.72	911.56
418.943	937.56
419.166	969.56
419.389	1042.56
419.611	983.56
419.834	971.56
420.057	910.56
420.28	910.56
420.503	860.56
420.726	871.56
420.948	860.56
421.171	875.56
421.394	891.56
421.617	876.56
421.839	890.56
422.062	888.56
422.285	884.56
422.507	917.56
422.73	916.56
422.953	890.56
423.175	948.56
423.398	939.56
423.621	980.56
423.843	972.56
424.066	980.56
424.288	976.56
424.511	985.56
424.733	978.56
424.956	946.56
425.178	919.56
425.401	896.56
425.623	925.56
425.846	877.56
426.068	888.56
426.291	882.56
426.513	864.56
426.735	841.56
426.958	835.56
427.18	798.56
427.402	812.56
427.625	832.56
427.847	795.56
428.069	795.56
428.292	801.56
428.514	794.56
428.736	781.56
428.958	804.56
429.181	781.56
429.403	782.56
429.625	773.56
429.847	781.56
430.069	796.56
430.292	775.56
430.514	768.56
430.736	772.56
430.958	771.56
431.18	773.56
431.402	807.56
431.624	793.56
431.846	829.56
432.068	799.56
432.29	800.56
432.512	794.56
432.734	808.56
432.956	803.56
433.178	808.56
433.4	809.56
433.622	781.56
433.844	801.56
434.066	823.56
434.287	807.56
434.509	855.56
434.731	907.56
434.953	903.56
435.175	932.56
435.397	934.56
435.618	883.56
435.84	840.56
436.062	811.56
436.284	788.56
436.505	792.56
436.727	841.56
436.949	818.56
437.17	828.56
437.392	801.56
437.614	794.56
437.835	776.56
438.057	785.56
438.278	776.56
438.5	766.56
438.721	770.56
438.943	773.56
439.165	777.56
439.386	780.56
439.608	797.56
439.829	820.56
440.05	823.56
440.272	790.56
440.493	807.56
440.715	829.56
440.936	844.56
441.158	865.56
441.379	886.56
441.6	908.56
441.822	950.56
442.043	944.56
442.264	930.56
442.486	898.56
442.707	896.56
442.928	911.56
443.149	891.56
443.371	900.56
443.592	922.56
443.813	913.56
444.034	933.56
444.255	954.56
444.476	1016.56
444.698	1065.56
444.919	1125.56
445.14	1210.56
445.361	1066.56
445.582	951.56
445.803	896.56
446.024	867.56
446.245	865.56
446.466	854.56
446.687	836.56
446.908	837.56
447.129	815.56
447.35	805.56
447.571	813.56
447.792	798.56
448.013	788.56
448.234	756.56
448.455	749.56
448.675	766.56
448.896	768.56
449.117	738.56
449.338	747.56
449.559	737.56
449.779	745.56
450	718.56
450.221	730.56
450.442	760.56
450.662	744.56
450.883	807.56
451.104	788.56
451.324	778.56
451.545	788.56
451.766	793.56
451.986	772.56
452.207	786.56
452.428	769.56
452.648	750.56
452.869	747.56
453.089	756.56
453.31	753.56
453.53	732.56
453.751	720.56
453.971	730.56
454.192	723.56
454.412	702.56
454.633	703.56
454.853	727.56
455.073	692.56
455.294	719.56
455.514	704.56
455.734	702.56
455.955	685.56
456.175	683.56
456.395	684.56
456.616	676.56
456.836	697.56
457.056	704.56
457.276	698.56
457.497	703.56
457.717	707.56
457.937	696.56
458.157	711.56
458.377	712.56
458.598	721.56
458.818	736.56
459.038	762.56
459.258	780.56
459.478	796.56
459.698	830.56
459.918	874.56
460.138	924.56
460.358	962.56
460.578	972.56
460.798	989.56
461.018	992.56
461.238	982.56
461.458	947.56
461.678	981.56
461.898	932.56
462.118	959.56
462.338	1046.56
462.558	1058.56
462.777	1073.56
462.997	1160.56
463.217	1317.56
463.437	1365.56
463.657	1227.56
463.876	1155.56
464.096	1148.56
464.316	1125.56
464.536	1172.56
464.755	1115.56
464.975	1066.56
465.195	1005.56
465.414	922.56
465.634	884.56
465.854	854.56
466.073	838.56
466.293	827.56
466.512	795.56
466.732	806.56
466.951	790.56
467.171	830.56
467.391	801.56
467.61	793.56
467.829	774.56
468.049	756.56
468.268	727.56
468.488	766.56
468.707	742.56
468.927	758.56
469.146	726.56
469.365	743.56
469.585	765.56
469.804	782.56
470.023	803.56
470.243	806.56
470.462	813.56
470.681	825.56
470.901	800.56
471.12	802.56
471.339	775.56
471.558	787.56
471.777	792.56
471.997	772.56
472.216	770.56
472.435	737.56
472.654	738.56
472.873	732.56
473.092	725.56
473.311	732.56
473.53	716.56
473.749	712.56
473.968	737.56
474.187	728.56
474.406	731.56
474.625	718.56
474.844	743.56
475.063	734.56
475.282	736.56
475.501	744.56
475.72	756.56
475.939	742.56
476.158	736.56
476.377	765.56
476.596	771.56
476.814	754.56
477.033	765.56
477.252	808.56
477.471	793.56
477.69	834.56
477.908	851.56
478.127	877.56
478.346	877.56
478.564	907.56
478.783	900.56
479.002	928.56
479.22	900.56
479.439	898.56
479.658	897.56
479.876	903.56
480.095	896.56
480.313	932.56
480.532	977.56
480.751	966.56
480.969	931.56
481.188	885.56
481.406	865.56
481.624	871.56
481.843	845.56
482.061	828.56
482.28	840.56
482.498	832.56
482.717	846.56
482.935	812.56
483.153	828.56
483.372	839.56
483.59	828.56
483.808	835.56
484.027	824.56
484.245	829.56
484.463	840.56
484.681	854.56
484.9	845.56
485.118	874.56
485.336	859.56
485.554	852.56
485.772	868.56
485.99	904.56
486.209	912.56
486.427	893.56
486.645	873.56
486.863	919.56
487.081	859.56
487.299	898.56
487.517	898.56
487.735	868.56
487.953	880.56
488.171	879.56
488.389	887.56
488.607	846.56
488.825	851.56
489.043	813.56
489.261	877.56
489.479	875.56
489.696	869.56
489.914	874.56
490.132	885.56
490.35	894.56
490.568	899.56
490.786	880.56
491.003	880.56
491.221	881.56
491.439	895.56
491.657	904.56
491.874	922.56
492.092	896.56
492.31	892.56
492.527	893.56
492.745	924.56
492.963	900.56
493.18	894.56
493.398	916.56
493.615	911.56
493.833	919.56
494.05	915.56
494.268	908.56
494.485	914.56
494.703	951.56
494.92	933.56
495.138	909.56
495.355	927.56
495.573	933.56
495.79	906.56
496.008	919.56
496.225	950.56
496.442	932.56
496.66	968.56
496.877	973.56
497.094	992.56
497.312	1025.56
497.529	1013.56
497.746	1020.56
497.963	1064.56
498.181	1108.56
498.398	1122.56
498.615	1193.56
498.832	1300.56
499.049	1385.56
499.267	1525.56
499.484	1658.56
499.701	1878.56
499.918	2120.56
500.135	2461.56
500.352	2845.56
500.569	3013.56
500.786	2959.56
501.003	2698.56
501.22	2345.56
501.437	2044.56
501.654	1807.56
501.871	1608.56
502.088	1478.56
502.305	1386.56
502.522	1281.56
502.739	1245.56
502.956	1165.56
503.172	1167.56
503.389	1060.56
503.606	1062.56
503.823	1010.56
504.04	1041.56
504.256	1027.56
504.473	1069.56
504.69	1127.56
504.907	1065.56
505.123	994.56
505.34	986.56
505.557	907.56
505.773	898.56
505.99	863.56
506.207	851.56
506.423	855.56
506.64	848.56
506.856	837.56
507.073	807.56
507.289	851.56
507.506	835.56
507.722	797.56
507.939	793.56
508.155	808.56
508.372	782.56
508.588	773.56
508.805	806.56
509.021	763.56
509.238	777.56
509.454	780.56
509.67	785.56
509.887	746.56
510.103	744.56
510.319	738.56
510.536	766.56
510.752	784.56
510.968	748.56
511.184	738.56
511.401	731.56
511.617	766.56
511.833	747.56
512.049	738.56
512.265	745.56
512.481	744.56
512.698	724.56
512.914	747.56
513.13	762.56
513.346	756.56
513.562	756.56
513.778	745.56
513.994	754.56
514.21	731.56
514.426	729.56
514.642	764.56
514.858	782.56
515.074	779.56
515.29	744.56
515.506	771.56
515.721	793.56
515.937	808.56
516.153	782.56
516.369	842.56
516.585	863.56
516.801	869.56
517.016	941.56
517.232	985.56
517.448	1012.56
517.664	1063.56
517.879	1118.56
518.095	1088.56
518.311	1061.56
518.527	978.56
518.742	964.56
518.958	914.56
519.173	881.56
519.389	857.56
519.605	803.56
519.82	783.56
520.036	763.56
520.251	752.56
520.467	753.56
520.682	742.56
520.898	742.56
521.113	763.56
521.329	740.56
521.544	746.56
521.76	741.56
521.975	722.56
522.19	711.56
522.406	718.56
522.621	712.56
522.836	722.56
523.052	696.56
523.267	681.56
523.482	694.56
523.698	692.56
523.913	707.56
524.128	708.56
524.343	712.56
524.559	701.56
524.774	688.56
524.989	714.56
525.204	695.56
525.419	691.56
525.634	677.56
525.849	690.56
526.064	692.56
526.28	688.56
526.495	663.56
526.71	677.56
526.925	694.56
527.14	703.56
527.355	672.56
527.57	707.56
527.785	676.56
527.999	709.56
528.214	680.56
528.429	702.56
528.644	701.56
528.859	669.56
529.074	696.56
529.289	700.56
529.503	703.56
529.718	681.56
529.933	697.56
530.148	702.56
530.363	662.56
530.577	699.56
530.792	678.56
531.007	677.56
531.221	697.56
531.436	708.56
531.651	684.56
531.865	696.56
532.08	694.56
532.295	697.56
532.509	686.56
532.724	665.56
532.938	684.56
533.153	663.56
533.367	698.56
533.582	660.56
533.796	684.56
534.011	685.56
534.225	685.56
534.44	678.56
534.654	673.56
534.868	673.56
535.083	667.56
535.297	682.56
535.511	662.56
535.726	634.56
535.94	650.56
536.154	650.56
536.369	636.56
536.583	642.56
536.797	641.56
537.011	654.56
537.225	646.56
537.44	621.56
537.654	648.56
537.868	624.56
538.082	609.56
538.296	620.56
538.51	636.56
538.724	640.56
538.938	636.56
539.153	631.56
539.367	620.56
539.581	624.56
539.795	625.56
540.009	616.56
540.222	611.56
540.436	628.56
540.65	620.56
540.864	614.56
541.078	619.56
541.292	648.56
541.506	650.56
541.72	629.56
541.934	597.56
542.147	644.56
542.361	600.56
542.575	607.56
542.789	634.56
543.002	609.56
543.216	628.56
543.43	585.56
543.644	602.56
543.857	600.56
544.071	604.56
544.285	616.56
544.498	617.56
544.712	619.56
544.925	636.56
545.139	633.56
545.352	616.56
545.566	652.56
545.779	613.56
545.993	608.56
546.206	647.56
546.42	643.56
546.633	639.56
546.847	626.56
547.06	625.56
547.274	597.56
547.487	642.56
547.7	658.56
547.914	651.56
548.127	644.56
548.34	631.56
548.554	647.56
548.767	627.56
548.98	638.56
549.193	629.56
549.407	636.56
549.62	657.56
549.833	667.56
550.046	655.56
550.259	626.56
550.473	625.56
550.686	650.56
550.899	603.56
551.112	604.56
551.325	594.56
551.538	625.56
551.751	595.56
551.964	623.56
552.177	651.56
552.39	634.56
552.603	655.56
552.816	654.56
553.029	685.56
553.242	678.56
553.455	691.56
553.667	734.56
553.88	690.56
554.093	685.56
554.306	650.56
554.519	645.56
554.732	636.56
554.944	632.56
555.157	609.56
555.37	618.56
555.583	594.56
555.795	584.56
556.008	577.56
556.221	593.56
556.433	568.56
556.646	556.56
556.859	557.56
557.071	542.56
557.284	529.56
557.496	538.56
557.709	566.56
557.921	542.56
558.134	521.56
558.346	540.56
558.559	554.56
558.771	532.56
558.984	533.56
559.196	540.56
559.409	534.56
559.621	531.56
559.833	543.56
560.046	500.56
560.258	516.56
560.47	526.56
560.683	520.56
560.895	523.56
561.107	521.56
561.32	519.56
561.532	512.56
561.744	518.56
561.956	527.56
562.168	526.56
562.381	509.56
562.593	526.56
562.805	508.56
563.017	512.56
563.229	528.56
563.441	515.56
563.653	539.56
563.865	530.56
564.077	541.56
564.289	512.56
564.501	529.56
564.713	543.56
564.925	565.56
565.137	569.56
565.349	558.56
565.561	591.56
565.773	610.56
565.985	637.56
566.197	659.56
566.408	734.56
566.62	781.56
566.832	878.56
567.044	882.56
567.255	862.56
567.467	901.56
567.679	934.56
567.891	1027.56
568.102	1072.56
568.314	994.56
568.526	906.56
568.737	795.56
568.949	725.56
569.161	678.56
569.372	615.56
569.584	571.56
569.795	588.56
570.007	530.56
570.218	524.56
570.43	532.56
570.641	527.56
570.853	518.56
571.064	571.56
571.276	557.56
571.487	519.56
571.698	512.56
571.91	508.56
572.121	483.56
572.333	484.56
572.544	458.56
572.755	460.56
572.966	445.56
573.178	452.56
573.389	450.56
573.6	430.56
573.811	458.56
574.023	433.56
574.234	438.56
574.445	419.56
574.656	429.56
574.867	434.56
575.078	445.56
575.289	428.56
575.501	429.56
575.712	404.56
575.923	416.56
576.134	408.56
576.345	410.56
576.556	405.56
576.767	398.56
576.978	433.56
577.188	386.56
577.399	399.56
577.61	427.56
577.821	400.56
578.032	387.56
578.243	390.56
578.454	399.56
578.665	400.56
578.875	373.56
579.086	380.56
579.297	383.56
579.508	388.56
579.718	370.56
579.929	386.56
580.14	378.56
580.35	361.56
580.561	359.56
580.772	373.56
580.982	378.56
581.193	363.56
581.403	372.56
581.614	396.56
581.825	371.56
582.035	386.56
582.246	375.56
582.456	368.56
582.667	382.56
582.877	382.56
583.087	368.56
583.298	357.56
583.508	361.56
583.719	371.56
583.929	356.56
584.139	364.56
584.35	348.56
584.56	378.56
584.77	361.56
584.981	357.56
585.191	364.56
585.401	361.56
585.611	374.56
585.821	356.56
586.032	353.56
586.242	348.56
586.452	334.56
586.662	354.56
586.872	352.56
587.082	349.56
587.292	347.56
587.502	337.56
587.713	356.56
587.923	355.56
588.133	349.56
588.343	341.56
588.553	364.56
588.762	347.56
588.972	358.56
589.182	343.56
589.392	354.56
589.602	340.56
589.812	347.56
590.022	370.56
590.232	355.56
590.441	368.56
590.651	342.56
590.861	346.56
591.071	354.56
591.281	363.56
591.49	347.56
591.7	377.56
591.91	385.56
592.119	400.56
592.329	396.56
592.539	392.56
592.748	406.56
592.958	436.56
593.167	451.56
593.377	435.56
593.587	456.56
593.796	467.56
594.006	447.56
594.215	459.56
594.424	473.56
594.634	460.56
594.843	422.56
595.053	402.56
595.262	392.56
595.472	366.56
595.681	379.56
595.89	378.56
596.1	372.56
596.309	359.56
596.518	352.56
596.727	336.56
596.937	341.56
597.146	330.56
597.355	340.56
597.564	312.56
597.774	321.56
597.983	326.56
598.192	306.56
598.401	326.56
598.61	302.56
598.819	308.56
599.028	306.56
599.237	293.56
599.446	289.56
599.655	299.56
599.864	304.56
600.073	297.56
600.282	304.56
600.491	286.56
600.7	298.56
600.909	289.56
601.118	278.56
601.327	305.56
601.536	274.56
601.745	328.56
601.953	316.56
602.162	300.56
602.371	290.56
602.58	291.56
602.789	295.56
602.997	294.56
603.206	291.56
603.415	312.56
603.623	298.56
603.832	290.56
604.041	270.56
604.249	281.56
604.458	280.56
604.666	274.56
604.875	278.56
605.084	297.56
605.292	302.56
605.501	267.56
605.709	281.56
605.918	284.56
606.126	284.56
606.334	283.56
606.543	270.56
606.751	284.56
606.96	285.56
607.168	281.56
607.376	285.56
607.585	283.56
607.793	268.56
608.001	280.56
608.21	284.56
608.418	273.56
608.626	281.56
608.834	263.56
609.043	270.56
609.251	276.56
609.459	270.56
609.667	289.56
609.875	276.56
610.083	261.56
610.291	268.56
610.499	266.56
610.707	287.56
610.916	264.56
611.124	272.56
611.332	292.56
611.54	252.56
611.748	273.56
611.955	276.56
612.163	268.56
612.371	275.56
612.579	266.56
612.787	256.56
612.995	270.56
613.203	271.56
613.411	266.56
613.618	270.56
613.826	265.56
614.034	273.56
614.242	263.56
614.449	266.56
614.657	274.56
614.865	275.56
615.072	266.56
615.28	272.56
615.488	236.56
615.695	248.56
615.903	265.56
616.111	278.56
616.318	262.56
616.526	268.56
616.733	253.56
616.941	255.56
617.148	274.56
617.356	257.56
617.563	274.56
617.771	275.56
617.978	265.56
618.185	268.56
618.393	266.56
618.6	254.56
618.807	247.56
619.015	268.56
619.222	256.56
619.429	268.56
619.637	269.56
619.844	253.56
620.051	256.56
620.258	259.56
620.466	250.56
620.673	240.56
620.88	242.56
621.087	235.56
621.294	256.56
621.501	250.56
621.708	228.56
621.915	248.56
622.122	250.56
622.329	243.56
622.536	230.56
622.743	242.56
622.95	227.56
623.157	233.56
623.364	244.56
623.571	253.56
623.778	244.56
623.985	231.56
624.192	225.56
624.399	226.56
624.606	228.56
624.812	236.56
625.019	234.56
625.226	240.56
625.433	222.56
625.639	212.56
625.846	216.56
626.053	214.56
626.259	229.56
626.466	235.56
626.673	219.56
626.879	214.56
627.086	206.56
627.293	230.56
627.499	224.56
627.706	223.56
627.912	207.56
628.119	209.56
628.325	225.56
628.532	229.56
628.738	240.56
628.945	207.56
629.151	198.56
629.357	204.56
629.564	224.56
629.77	228.56
629.976	199.56
630.183	202.56
630.389	204.56
630.595	211.56
630.802	206.56
631.008	209.56
631.214	199.56
631.42	208.56
631.627	202.56
631.833	209.56
632.039	189.56
632.245	199.56
632.451	197.56
632.657	196.56
632.863	190.56
633.069	209.56
633.275	214.56
633.481	195.56
633.688	204.56
633.893	203.56
634.099	195.56
634.305	200.56
634.511	201.56
634.717	210.56
634.923	212.56
635.129	192.56
635.335	203.56
635.541	192.56
635.747	197.56
635.952	199.56
636.158	191.56
636.364	187.56
636.57	184.56
636.775	183.56
636.981	205.56
637.187	193.56
637.392	188.56
637.598	181.56
637.804	196.56
638.009	186.56
638.215	185.56
638.421	184.56
638.626	195.56
638.832	182.56
639.037	187.56
639.243	187.56
639.448	180.56
639.654	173.56
639.859	178.56
640.065	190.56
640.27	187.56
640.475	175.56
640.681	185.56
640.886	171.56
641.091	170.56
641.297	180.56
641.502	178.56
641.707	170.56
641.913	185.56
642.118	174.56
642.323	175.56
642.528	194.56
642.733	182.56
642.939	185.56
643.144	176.56
643.349	168.56
643.554	172.56
643.759	166.56
643.964	182.56
644.169	170.56
644.374	180.56
644.579	174.56
644.784	173.56
644.989	194.56
645.194	166.56
645.399	179.56
645.604	186.56
645.809	176.56
646.014	181.56
646.219	169.56
646.423	162.56
646.628	158.56
646.833	172.56
647.038	185.56
647.243	176.56
647.447	178.56
647.652	174.56
647.857	169.56
648.062	183.56
648.266	179.56
648.471	186.56
648.676	166.56
648.88	176.56
649.085	192.56
649.289	177.56
649.494	184.56
649.698	183.56
649.903	179.56
650.107	164.56
650.312	172.56
650.516	175.56
650.721	182.56
650.925	160.56
651.13	163.56
651.334	162.56
651.539	142.56
651.743	157.56
651.947	157.56
652.152	170.56
652.356	142.56
652.56	151.56
652.764	153.56
652.969	132.56
653.173	141.56
653.377	128.56
653.581	144.56
653.785	154.56
653.99	138.56
654.194	139.56
654.398	146.56
654.602	136.56
654.806	136.56
655.01	134.56
655.214	121.56
655.418	126.56
655.622	123.56
655.826	134.56
656.03	120.56
656.234	146.56
656.438	123.56
656.642	125.56
656.846	125.56
657.049	124.56
657.253	125.56
657.457	130.56
657.661	114.56
657.865	123.56
658.068	112.56
658.272	102.56
658.476	105.56
658.68	105.56
658.883	116.56
659.087	106.56
659.291	89.56
659.494	87.56
659.698	96.56
659.901	84.56
660.105	101.56
660.309	92.56
660.512	93.56
660.716	86.56
660.919	85.56
661.123	94.56
661.326	103.56
661.53	95.56
661.733	115.56
661.936	97.56
662.14	84.56
662.343	83.56
662.546	94.56
662.75	82.56
662.953	86.56
663.156	89.56
663.36	79.56
663.563	90.56
663.766	79.56
663.969	87.56
664.173	94.56
664.376	77.56
664.579	78.56
664.782	81.56
664.985	86.56
665.188	92.56
665.391	84.56
665.594	77.56
665.797	84.56
666	92.56
666.203	82.56
666.406	92.56
666.609	84.56
666.812	89.56
667.015	69.56
667.218	73.56
667.421	86.56
667.624	90.56
667.827	77.56
668.03	83.56
668.232	70.56
668.435	84.56
668.638	85.56
668.841	86.56
669.043	96.56
669.246	82.56
669.449	72.56
669.651	77.56
669.854	91.56
670.057	82.56
670.259	81.56
670.462	85.56
670.665	93.56
670.867	74.56
671.07	74.56
671.272	87.56
671.475	86.56
671.677	82.56
671.88	93.56
672.082	86.56
672.284	91.56
672.487	90.56
672.689	88.56
672.892	88.56
