Data from Ni(NO3)2@0.5M.TitratingCurve.Agarose3%dH2O.NegLispCup.LampEnergy10.LIBS07252019_HRD10591_17-59-22-564.txt Node
Date: Thu Jul 25 17:59:22 EDT 2019
User: cochatt
Spectrometer: HR+D1059
Trigger mode: 1
Integration Time (sec): 1.000000E-1
Scans to average: 1
Electric dark correction enabled: true
Nonlinearity correction enabled: false
Boxcar width: 0
XAxis mode: Wavelengths
Number of Pixels in Spectrum: 2048
>>>>>Begin Spectral Data<<<<<
223.165	-13.94
223.4	-13.94
223.635	-13.94
223.869	-16.94
224.104	-26.94
224.338	-12.94
224.573	-7.94
224.808	-7.94
225.042	-7.94
225.277	-17.94
225.511	-7.94
225.746	0.06
225.98	7.06
226.215	14.06
226.449	12.06
226.683	23.06
226.918	26.06
227.152	38.06
227.387	30.06
227.621	40.06
227.856	45.06
228.09	46.06
228.324	55.06
228.559	50.06
228.793	69.06
229.027	141.06
229.262	156.06
229.496	151.06
229.73	166.06
229.964	189.06
230.199	220.06
230.433	206.06
230.667	200.06
230.901	178.06
231.136	171.06
231.37	169.06
231.604	198.06
231.838	211.06
232.072	220.06
232.306	215.06
232.541	173.06
232.775	176.06
233.009	175.06
233.243	167.06
233.477	174.06
233.711	172.06
233.945	180.06
234.179	181.06
234.413	163.06
234.647	184.06
234.881	186.06
235.115	186.06
235.349	180.06
235.583	178.06
235.817	180.06
236.051	159.06
236.285	179.06
236.519	178.06
236.753	181.06
236.987	172.06
237.221	172.06
237.455	187.06
237.689	192.06
237.922	201.06
238.156	178.06
238.39	173.06
238.624	180.06
238.858	196.06
239.091	194.06
239.325	206.06
239.559	191.06
239.793	242.06
240.027	246.06
240.26	198.06
240.494	203.06
240.728	191.06
240.961	189.06
241.195	199.06
241.429	217.06
241.662	226.06
241.896	250.06
242.13	262.06
242.363	217.06
242.597	212.06
242.83	218.06
243.064	215.06
243.298	215.06
243.531	223.06
243.765	244.06
243.998	240.06
244.232	235.06
244.465	241.06
244.699	228.06
244.932	234.06
245.166	223.06
245.399	231.06
245.633	222.06
245.866	237.06
246.099	239.06
246.333	253.06
246.566	243.06
246.8	242.06
247.033	238.06
247.266	252.06
247.5	229.06
247.733	262.06
247.966	246.06
248.2	262.06
248.433	253.06
248.666	241.06
248.899	280.06
249.133	260.06
249.366	280.06
249.599	272.06
249.832	255.06
250.066	270.06
250.299	273.06
250.532	267.06
250.765	276.06
250.998	280.06
251.231	290.06
251.465	351.06
251.698	304.06
251.931	310.06
252.164	298.06
252.397	299.06
252.63	290.06
252.863	293.06
253.096	282.06
253.329	304.06
253.562	310.06
253.795	298.06
254.028	319.06
254.261	307.06
254.494	337.06
254.727	331.06
254.96	336.06
255.193	321.06
255.426	313.06
255.659	301.06
255.892	322.06
256.124	315.06
256.357	320.06
256.59	326.06
256.823	331.06
257.056	335.06
257.289	319.06
257.521	325.06
257.754	340.06
257.987	336.06
258.22	340.06
258.452	336.06
258.685	334.06
258.918	339.06
259.151	340.06
259.383	346.06
259.616	352.06
259.849	354.06
260.081	372.06
260.314	361.06
260.547	366.06
260.779	373.06
261.012	358.06
261.244	370.06
261.477	388.06
261.71	371.06
261.942	375.06
262.175	381.06
262.407	389.06
262.64	359.06
262.872	364.06
263.105	362.06
263.337	382.06
263.57	374.06
263.802	383.06
264.035	392.06
264.267	388.06
264.499	388.06
264.732	388.06
264.964	406.06
265.197	406.06
265.429	374.06
265.661	383.06
265.894	387.06
266.126	382.06
266.358	401.06
266.591	399.06
266.823	410.06
267.055	408.06
267.287	407.06
267.52	419.06
267.752	401.06
267.984	419.06
268.216	408.06
268.448	437.06
268.681	446.06
268.913	420.06
269.145	422.06
269.377	413.06
269.609	431.06
269.841	451.06
270.073	443.06
270.306	416.06
270.538	443.06
270.77	428.06
271.002	446.06
271.234	464.06
271.466	448.06
271.698	426.06
271.93	438.06
272.162	456.06
272.394	436.06
272.626	466.06
272.858	446.06
273.09	455.06
273.322	467.06
273.553	440.06
273.785	440.06
274.017	447.06
274.249	437.06
274.481	484.06
274.713	469.06
274.945	472.06
275.176	477.06
275.408	477.06
275.64	458.06
275.872	472.06
276.104	473.06
276.335	478.06
276.567	467.06
276.799	489.06
277.031	505.06
277.262	491.06
277.494	507.06
277.726	488.06
277.957	492.06
278.189	507.06
278.421	489.06
278.652	490.06
278.884	504.06
279.115	484.06
279.347	507.06
279.579	528.06
279.81	524.06
280.042	514.06
280.273	510.06
280.505	498.06
280.736	531.06
280.968	511.06
281.199	522.06
281.431	510.06
281.662	497.06
281.894	517.06
282.125	525.06
282.356	514.06
282.588	512.06
282.819	523.06
283.051	519.06
283.282	546.06
283.513	548.06
283.745	555.06
283.976	565.06
284.207	538.06
284.439	520.06
284.67	527.06
284.901	547.06
285.132	540.06
285.364	550.06
285.595	543.06
285.826	547.06
286.057	555.06
286.288	555.06
286.52	562.06
286.751	556.06
286.982	567.06
287.213	565.06
287.444	563.06
287.675	583.06
287.906	563.06
288.138	575.06
288.369	580.06
288.6	571.06
288.831	567.06
289.062	543.06
289.293	576.06
289.524	584.06
289.755	592.06
289.986	562.06
290.217	555.06
290.448	587.06
290.679	572.06
290.91	575.06
291.141	576.06
291.371	577.06
291.602	592.06
291.833	585.06
292.064	581.06
292.295	579.06
292.526	582.06
292.757	572.06
292.987	588.06
293.218	551.06
293.449	594.06
293.68	582.06
293.91	596.06
294.141	597.06
294.372	588.06
294.603	594.06
294.833	606.06
295.064	595.06
295.295	590.06
295.525	596.06
295.756	580.06
295.987	603.06
296.217	602.06
296.448	596.06
296.679	617.06
296.909	607.06
297.14	596.06
297.37	603.06
297.601	627.06
297.831	613.06
298.062	611.06
298.292	640.06
298.523	634.06
298.753	620.06
298.984	624.06
299.214	621.06
299.445	645.06
299.675	654.06
299.905	657.06
300.136	648.06
300.366	699.06
300.597	715.06
300.827	648.06
301.057	654.06
301.288	675.06
301.518	683.06
301.748	660.06
301.979	657.06
302.209	675.06
302.439	652.06
302.669	663.06
302.9	667.06
303.13	663.06
303.36	685.06
303.59	657.06
303.82	679.06
304.051	702.06
304.281	667.06
304.511	698.06
304.741	680.06
304.971	706.06
305.201	674.06
305.431	710.06
305.661	701.06
305.891	706.06
306.121	700.06
306.352	688.06
306.582	682.06
306.812	676.06
307.042	678.06
307.272	672.06
307.502	682.06
307.731	678.06
307.961	678.06
308.191	692.06
308.421	694.06
308.651	670.06
308.881	693.06
309.111	692.06
309.341	686.06
309.571	679.06
309.8	715.06
310.03	729.06
310.26	770.06
310.49	727.06
310.72	718.06
310.949	684.06
311.179	699.06
311.409	708.06
311.639	718.06
311.868	723.06
312.098	688.06
312.328	705.06
312.557	698.06
312.787	720.06
313.017	739.06
313.246	739.06
313.476	720.06
313.706	750.06
313.935	727.06
314.165	772.06
314.394	723.06
314.624	751.06
314.853	696.06
315.083	730.06
315.312	715.06
315.542	747.06
315.771	734.06
316.001	743.06
316.23	740.06
316.46	744.06
316.689	744.06
316.919	765.06
317.148	727.06
317.377	757.06
317.607	780.06
317.836	756.06
318.065	746.06
318.295	770.06
318.524	774.06
318.753	732.06
318.983	730.06
319.212	770.06
319.441	758.06
319.67	783.06
319.9	776.06
320.129	739.06
320.358	762.06
320.587	764.06
320.816	773.06
321.046	783.06
321.275	763.06
321.504	798.06
321.733	784.06
321.962	796.06
322.191	790.06
322.42	788.06
322.649	781.06
322.878	796.06
323.108	768.06
323.337	794.06
323.566	803.06
323.795	820.06
324.024	822.06
324.253	802.06
324.482	823.06
324.71	808.06
324.939	835.06
325.168	845.06
325.397	824.06
325.626	794.06
325.855	826.06
326.084	827.06
326.313	836.06
326.542	851.06
326.77	837.06
326.999	840.06
327.228	820.06
327.457	843.06
327.686	812.06
327.914	849.06
328.143	856.06
328.372	839.06
328.6	829.06
328.829	841.06
329.058	840.06
329.287	835.06
329.515	843.06
329.744	858.06
329.972	853.06
330.201	844.06
330.43	854.06
330.658	872.06
330.887	854.06
331.115	875.06
331.344	869.06
331.572	885.06
331.801	877.06
332.03	910.06
332.258	906.06
332.486	892.06
332.715	918.06
332.943	937.06
333.172	937.06
333.4	934.06
333.629	952.06
333.857	977.06
334.085	996.06
334.314	948.06
334.542	983.06
334.771	993.06
334.999	975.06
335.227	975.06
335.455	972.06
335.684	976.06
335.912	1005.06
336.14	996.06
336.369	1000.06
336.597	999.06
336.825	991.06
337.053	1006.06
337.281	998.06
337.51	983.06
337.738	950.06
337.966	992.06
338.194	995.06
338.422	939.06
338.65	933.06
338.878	925.06
339.106	967.06
339.334	1016.06
339.562	966.06
339.79	939.06
340.018	924.06
340.246	920.06
340.474	911.06
340.702	911.06
340.93	960.06
341.158	941.06
341.386	975.06
341.614	997.06
341.842	960.06
342.07	906.06
342.298	917.06
342.526	949.06
342.754	918.06
342.981	966.06
343.209	921.06
343.437	952.06
343.665	991.06
343.893	975.06
344.12	1006.06
344.348	988.06
344.576	982.06
344.804	1007.06
345.031	973.06
345.259	943.06
345.487	932.06
345.714	935.06
345.942	975.06
346.17	1000.06
346.397	963.06
346.625	922.06
346.853	878.06
347.08	916.06
347.308	918.06
347.535	921.06
347.763	878.06
347.99	895.06
348.218	878.06
348.445	865.06
348.673	892.06
348.9	851.06
349.128	924.06
349.355	928.06
349.583	936.06
349.81	893.06
350.037	866.06
350.265	902.06
350.492	884.06
350.72	885.06
350.947	890.06
351.174	909.06
351.402	928.06
351.629	948.06
351.856	939.06
352.083	920.06
352.311	932.06
352.538	948.06
352.765	950.06
352.992	906.06
353.22	896.06
353.447	843.06
353.674	861.06
353.901	867.06
354.128	839.06
354.355	842.06
354.583	852.06
354.81	846.06
355.037	873.06
355.264	868.06
355.491	846.06
355.718	852.06
355.945	859.06
356.172	856.06
356.399	878.06
356.626	902.06
356.853	942.06
357.08	880.06
357.307	882.06
357.534	838.06
357.761	872.06
357.988	862.06
358.215	893.06
358.441	861.06
358.668	875.06
358.895	865.06
359.122	859.06
359.349	864.06
359.576	867.06
359.802	893.06
360.029	868.06
360.256	839.06
360.483	875.06
360.709	881.06
360.936	892.06
361.163	897.06
361.39	871.06
361.616	887.06
361.843	934.06
362.07	949.06
362.296	938.06
362.523	863.06
362.749	888.06
362.976	863.06
363.203	844.06
363.429	866.06
363.656	877.06
363.882	867.06
364.109	868.06
364.335	850.06
364.562	870.06
364.788	859.06
365.015	878.06
365.241	871.06
365.468	875.06
365.694	866.06
365.92	883.06
366.147	866.06
366.373	883.06
366.599	864.06
366.826	884.06
367.052	866.06
367.278	863.06
367.505	873.06
367.731	889.06
367.957	879.06
368.184	897.06
368.41	892.06
368.636	894.06
368.862	883.06
369.089	882.06
369.315	898.06
369.541	902.06
369.767	939.06
369.993	908.06
370.219	885.06
370.445	914.06
370.672	902.06
370.898	930.06
371.124	932.06
371.35	911.06
371.576	923.06
371.802	922.06
372.028	944.06
372.254	940.06
372.48	946.06
372.706	926.06
372.932	949.06
373.158	934.06
373.384	928.06
373.61	914.06
373.835	960.06
374.061	926.06
374.287	957.06
374.513	948.06
374.739	970.06
374.965	976.06
375.191	951.06
375.416	958.06
375.642	964.06
375.868	948.06
376.094	909.06
376.319	960.06
376.545	923.06
376.771	956.06
376.997	931.06
377.222	919.06
377.448	929.06
377.674	926.06
377.899	919.06
378.125	928.06
378.35	912.06
378.576	914.06
378.802	909.06
379.027	926.06
379.253	921.06
379.478	908.06
379.704	927.06
379.929	906.06
380.155	918.06
380.38	900.06
380.606	935.06
380.831	922.06
381.057	920.06
381.282	926.06
381.507	938.06
381.733	938.06
381.958	921.06
382.184	951.06
382.409	965.06
382.634	966.06
382.86	946.06
383.085	948.06
383.31	975.06
383.535	984.06
383.761	974.06
383.986	986.06
384.211	981.06
384.436	980.06
384.662	1006.06
384.887	991.06
385.112	1005.06
385.337	1030.06
385.562	1026.06
385.787	1039.06
386.013	1067.06
386.238	1068.06
386.463	1028.06
386.688	1051.06
386.913	1049.06
387.138	1065.06
387.363	1020.06
387.588	1027.06
387.813	1035.06
388.038	1051.06
388.263	1062.06
388.488	1069.06
388.713	1088.06
388.938	1054.06
389.163	1030.06
389.387	1055.06
389.612	1050.06
389.837	1037.06
390.062	1038.06
390.287	1047.06
390.512	1072.06
390.736	1083.06
390.961	1100.06
391.186	1068.06
391.411	1104.06
391.636	1100.06
391.86	1127.06
392.085	1122.06
392.31	1128.06
392.534	1101.06
392.759	1119.06
392.984	1127.06
393.208	1109.06
393.433	1103.06
393.658	1082.06
393.882	1095.06
394.107	1109.06
394.331	1093.06
394.556	1097.06
394.78	1101.06
395.005	1100.06
395.229	1126.06
395.454	1111.06
395.678	1122.06
395.903	1122.06
396.127	1113.06
396.352	1154.06
396.576	1124.06
396.801	1109.06
397.025	1112.06
397.249	1161.06
397.474	1176.06
397.698	1169.06
397.922	1188.06
398.147	1166.06
398.371	1215.06
398.595	1220.06
398.82	1253.06
399.044	1270.06
399.268	1331.06
399.492	1426.06
399.717	1453.06
399.941	1442.06
400.165	1434.06
400.389	1425.06
400.613	1373.06
400.837	1308.06
401.062	1274.06
401.286	1261.06
401.51	1248.06
401.734	1259.06
401.958	1244.06
402.182	1248.06
402.406	1215.06
402.63	1261.06
402.854	1234.06
403.078	1255.06
403.302	1273.06
403.526	1288.06
403.75	1299.06
403.974	1282.06
404.198	1248.06
404.422	1269.06
404.645	1265.06
404.869	1260.06
405.093	1303.06
405.317	1289.06
405.541	1294.06
405.765	1306.06
405.988	1299.06
406.212	1354.06
406.436	1325.06
406.66	1338.06
406.883	1365.06
407.107	1420.06
407.331	1396.06
407.555	1443.06
407.778	1453.06
408.002	1422.06
408.226	1408.06
408.449	1442.06
408.673	1404.06
408.896	1369.06
409.12	1354.06
409.344	1362.06
409.567	1354.06
409.791	1339.06
410.014	1331.06
410.238	1337.06
410.461	1345.06
410.685	1310.06
410.908	1282.06
411.132	1305.06
411.355	1275.06
411.578	1305.06
411.802	1286.06
412.025	1300.06
412.249	1303.06
412.472	1353.06
412.695	1285.06
412.919	1299.06
413.142	1279.06
413.365	1263.06
413.589	1287.06
413.812	1241.06
414.035	1263.06
414.258	1260.06
414.482	1243.06
414.705	1284.06
414.928	1259.06
415.151	1245.06
415.374	1240.06
415.597	1223.06
415.821	1206.06
416.044	1210.06
416.267	1216.06
416.49	1184.06
416.713	1212.06
416.936	1214.06
417.159	1204.06
417.382	1179.06
417.605	1222.06
417.828	1178.06
418.051	1240.06
418.274	1170.06
418.497	1174.06
418.72	1183.06
418.943	1224.06
419.166	1257.06
419.389	1357.06
419.611	1273.06
419.834	1269.06
420.057	1231.06
420.28	1219.06
420.503	1204.06
420.726	1184.06
420.948	1179.06
421.171	1214.06
421.394	1197.06
421.617	1183.06
421.839	1198.06
422.062	1196.06
422.285	1173.06
422.507	1199.06
422.73	1202.06
422.953	1210.06
423.175	1181.06
423.398	1198.06
423.621	1196.06
423.843	1199.06
424.066	1196.06
424.288	1168.06
424.511	1189.06
424.733	1203.06
424.956	1197.06
425.178	1198.06
425.401	1206.06
425.623	1170.06
425.846	1151.06
426.068	1219.06
426.291	1182.06
426.513	1174.06
426.735	1171.06
426.958	1150.06
427.18	1158.06
427.402	1145.06
427.625	1175.06
427.847	1152.06
428.069	1117.06
428.292	1134.06
428.514	1142.06
428.736	1166.06
428.958	1162.06
429.181	1138.06
429.403	1138.06
429.625	1131.06
429.847	1112.06
430.069	1144.06
430.292	1138.06
430.514	1120.06
430.736	1143.06
430.958	1151.06
431.18	1166.06
431.402	1144.06
431.624	1107.06
431.846	1120.06
432.068	1116.06
432.29	1176.06
432.512	1142.06
432.734	1146.06
432.956	1151.06
433.178	1166.06
433.4	1207.06
433.622	1216.06
433.844	1206.06
434.066	1182.06
434.287	1181.06
434.509	1215.06
434.731	1203.06
434.953	1217.06
435.175	1269.06
435.397	1281.06
435.618	1192.06
435.84	1192.06
436.062	1157.06
436.284	1150.06
436.505	1169.06
436.727	1163.06
436.949	1149.06
437.17	1174.06
437.392	1140.06
437.614	1140.06
437.835	1111.06
438.057	1112.06
438.278	1095.06
438.5	1086.06
438.721	1100.06
438.943	1119.06
439.165	1110.06
439.386	1106.06
439.608	1103.06
439.829	1116.06
440.05	1102.06
440.272	1141.06
440.493	1148.06
440.715	1168.06
440.936	1125.06
441.158	1152.06
441.379	1164.06
441.6	1227.06
441.822	1201.06
442.043	1245.06
442.264	1182.06
442.486	1205.06
442.707	1182.06
442.928	1186.06
443.149	1183.06
443.371	1235.06
443.592	1323.06
443.813	1255.06
444.034	1209.06
444.255	1239.06
444.476	1274.06
444.698	1308.06
444.919	1315.06
445.14	1388.06
445.361	1308.06
445.582	1261.06
445.803	1198.06
446.024	1164.06
446.245	1176.06
446.466	1152.06
446.687	1114.06
446.908	1100.06
447.129	1083.06
447.35	1092.06
447.571	1113.06
447.792	1071.06
448.013	1077.06
448.234	1046.06
448.455	1054.06
448.675	1038.06
448.896	1062.06
449.117	1039.06
449.338	1032.06
449.559	1031.06
449.779	1052.06
450	1006.06
450.221	1048.06
450.442	1014.06
450.662	1047.06
450.883	1056.06
451.104	1101.06
451.324	1063.06
451.545	1051.06
451.766	1032.06
451.986	1005.06
452.207	1002.06
452.428	999.06
452.648	1030.06
452.869	983.06
453.089	1019.06
453.31	1035.06
453.53	1005.06
453.751	988.06
453.971	1021.06
454.192	1047.06
454.412	1062.06
454.633	1019.06
454.853	1014.06
455.073	996.06
455.294	1020.06
455.514	1032.06
455.734	1086.06
455.955	1019.06
456.175	1055.06
456.395	1019.06
456.616	982.06
456.836	1010.06
457.056	1003.06
457.276	987.06
457.497	1081.06
457.717	1069.06
457.937	1038.06
458.157	1044.06
458.377	1007.06
458.598	1061.06
458.818	1035.06
459.038	1088.06
459.258	1158.06
459.478	1217.06
459.698	1290.06
459.918	1293.06
460.138	1244.06
460.358	1264.06
460.578	1243.06
460.798	1321.06
461.018	1271.06
461.238	1242.06
461.458	1227.06
461.678	1253.06
461.898	1242.06
462.118	1258.06
462.338	1303.06
462.558	1328.06
462.777	1400.06
462.997	1412.06
463.217	1452.06
463.437	1514.06
463.657	1480.06
463.876	1378.06
464.096	1394.06
464.316	1374.06
464.536	1371.06
464.755	1310.06
464.975	1302.06
465.195	1285.06
465.414	1258.06
465.634	1163.06
465.854	1156.06
466.073	1131.06
466.293	1136.06
466.512	1132.06
466.732	1090.06
466.951	1158.06
467.171	1134.06
467.391	1137.06
467.61	1118.06
467.829	1073.06
468.049	1103.06
468.268	1078.06
468.488	1086.06
468.707	1080.06
468.927	1099.06
469.146	1099.06
469.365	1160.06
469.585	1144.06
469.804	1123.06
470.023	1104.06
470.243	1105.06
470.462	1140.06
470.681	1117.06
470.901	1116.06
471.12	1133.06
471.339	1117.06
471.558	1091.06
471.777	1127.06
471.997	1097.06
472.216	1112.06
472.435	1115.06
472.654	1066.06
472.873	1068.06
473.092	1077.06
473.311	1099.06
473.53	1074.06
473.749	1077.06
473.968	1084.06
474.187	1086.06
474.406	1086.06
474.625	1088.06
474.844	1101.06
475.063	1130.06
475.282	1115.06
475.501	1109.06
475.72	1152.06
475.939	1138.06
476.158	1122.06
476.377	1156.06
476.596	1138.06
476.814	1156.06
477.033	1135.06
477.252	1166.06
477.471	1194.06
477.69	1244.06
477.908	1205.06
478.127	1238.06
478.346	1217.06
478.564	1246.06
478.783	1251.06
479.002	1353.06
479.22	1375.06
479.439	1343.06
479.658	1312.06
479.876	1300.06
480.095	1310.06
480.313	1335.06
480.532	1363.06
480.751	1336.06
480.969	1319.06
481.188	1304.06
481.406	1305.06
481.624	1303.06
481.843	1259.06
482.061	1294.06
482.28	1296.06
482.498	1273.06
482.717	1292.06
482.935	1313.06
483.153	1303.06
483.372	1347.06
483.59	1366.06
483.808	1349.06
484.027	1321.06
484.245	1316.06
484.463	1338.06
484.681	1350.06
484.9	1331.06
485.118	1327.06
485.336	1319.06
485.554	1336.06
485.772	1350.06
485.99	1317.06
486.209	1338.06
486.427	1324.06
486.645	1294.06
486.863	1331.06
487.081	1348.06
487.299	1330.06
487.517	1352.06
487.735	1349.06
487.953	1330.06
488.171	1366.06
488.389	1356.06
488.607	1303.06
488.825	1310.06
489.043	1315.06
489.261	1318.06
489.479	1332.06
489.696	1338.06
489.914	1292.06
490.132	1349.06
490.35	1354.06
490.568	1370.06
490.786	1341.06
491.003	1345.06
491.221	1348.06
491.439	1372.06
491.657	1401.06
491.874	1389.06
492.092	1377.06
492.31	1345.06
492.527	1355.06
492.745	1390.06
492.963	1401.06
493.18	1383.06
493.398	1389.06
493.615	1374.06
493.833	1388.06
494.05	1377.06
494.268	1409.06
494.485	1357.06
494.703	1397.06
494.92	1378.06
495.138	1410.06
495.355	1406.06
495.573	1397.06
495.79	1419.06
496.008	1436.06
496.225	1443.06
496.442	1459.06
496.66	1449.06
496.877	1474.06
497.094	1509.06
497.312	1497.06
497.529	1508.06
497.746	1540.06
497.963	1571.06
498.181	1619.06
498.398	1641.06
498.615	1714.06
498.832	1741.06
499.049	1820.06
499.267	1887.06
499.484	2002.06
499.701	2080.06
499.918	2194.06
500.135	2300.06
500.352	2386.06
500.569	2452.06
500.786	2427.06
501.003	2338.06
501.22	2298.06
501.437	2168.06
501.654	2027.06
501.871	1978.06
502.088	1907.06
502.305	1862.06
502.522	1803.06
502.739	1689.06
502.956	1658.06
503.172	1582.06
503.389	1583.06
503.606	1558.06
503.823	1460.06
504.04	1487.06
504.256	1493.06
504.473	1495.06
504.69	1464.06
504.907	1423.06
505.123	1451.06
505.34	1386.06
505.557	1341.06
505.773	1330.06
505.99	1312.06
506.207	1286.06
506.423	1284.06
506.64	1259.06
506.856	1222.06
507.073	1206.06
507.289	1213.06
507.506	1210.06
507.722	1227.06
507.939	1206.06
508.155	1208.06
508.372	1182.06
508.588	1150.06
508.805	1191.06
509.021	1161.06
509.238	1148.06
509.454	1155.06
509.67	1128.06
509.887	1126.06
510.103	1114.06
510.319	1127.06
510.536	1101.06
510.752	1082.06
510.968	1115.06
511.184	1122.06
511.401	1091.06
511.617	1123.06
511.833	1106.06
512.049	1080.06
512.265	1114.06
512.481	1092.06
512.698	1080.06
512.914	1083.06
513.13	1089.06
513.346	1101.06
513.562	1099.06
513.778	1097.06
513.994	1109.06
514.21	1069.06
514.426	1082.06
514.642	1104.06
514.858	1096.06
515.074	1130.06
515.29	1124.06
515.506	1102.06
515.721	1154.06
515.937	1141.06
516.153	1144.06
516.369	1150.06
516.585	1166.06
516.801	1159.06
517.016	1214.06
517.232	1219.06
517.448	1206.06
517.664	1260.06
517.879	1233.06
518.095	1226.06
518.311	1220.06
518.527	1217.06
518.742	1186.06
518.958	1158.06
519.173	1148.06
519.389	1141.06
519.605	1150.06
519.82	1119.06
520.036	1108.06
520.251	1099.06
520.467	1072.06
520.682	1069.06
520.898	1071.06
521.113	1063.06
521.329	1044.06
521.544	1026.06
521.76	1054.06
521.975	1010.06
522.19	1021.06
522.406	1014.06
522.621	1047.06
522.836	1036.06
523.052	1024.06
523.267	1004.06
523.482	1014.06
523.698	1002.06
523.913	960.06
524.128	985.06
524.343	969.06
524.559	957.06
524.774	988.06
524.989	970.06
525.204	958.06
525.419	972.06
525.634	986.06
525.849	953.06
526.064	953.06
526.28	990.06
526.495	958.06
526.71	949.06
526.925	970.06
527.14	921.06
527.355	939.06
527.57	933.06
527.785	962.06
527.999	944.06
528.214	937.06
528.429	922.06
528.644	923.06
528.859	904.06
529.074	949.06
529.289	965.06
529.503	952.06
529.718	924.06
529.933	913.06
530.148	922.06
530.363	916.06
530.577	935.06
530.792	925.06
531.007	928.06
531.221	907.06
531.436	914.06
531.651	914.06
531.865	926.06
532.08	912.06
532.295	907.06
532.509	912.06
532.724	919.06
532.938	930.06
533.153	933.06
533.367	939.06
533.582	934.06
533.796	903.06
534.011	904.06
534.225	909.06
534.44	901.06
534.654	904.06
534.868	928.06
535.083	931.06
535.297	903.06
535.511	889.06
535.726	902.06
535.94	884.06
536.154	891.06
536.369	879.06
536.583	861.06
536.797	872.06
537.011	862.06
537.225	872.06
537.44	870.06
537.654	881.06
537.868	888.06
538.082	853.06
538.296	841.06
538.51	860.06
538.724	864.06
538.938	854.06
539.153	852.06
539.367	877.06
539.581	837.06
539.795	858.06
540.009	807.06
540.222	832.06
540.436	812.06
540.65	829.06
540.864	860.06
541.078	843.06
541.292	853.06
541.506	858.06
541.72	864.06
541.934	854.06
542.147	872.06
542.361	840.06
542.575	859.06
542.789	846.06
543.002	814.06
543.216	834.06
543.43	848.06
543.644	822.06
543.857	820.06
544.071	797.06
544.285	851.06
544.498	854.06
544.712	823.06
544.925	819.06
545.139	820.06
545.352	822.06
545.566	848.06
545.779	837.06
545.993	839.06
546.206	866.06
546.42	823.06
546.633	841.06
546.847	844.06
547.06	830.06
547.274	824.06
547.487	862.06
547.7	835.06
547.914	858.06
548.127	844.06
548.34	819.06
548.554	839.06
548.767	823.06
548.98	832.06
549.193	834.06
549.407	839.06
549.62	829.06
549.833	841.06
550.046	829.06
550.259	831.06
550.473	822.06
550.686	823.06
550.899	810.06
551.112	792.06
551.325	824.06
551.538	814.06
551.751	808.06
551.964	819.06
552.177	826.06
552.39	839.06
552.603	839.06
552.816	819.06
553.029	820.06
553.242	813.06
553.455	872.06
553.667	842.06
553.88	848.06
554.093	803.06
554.306	810.06
554.519	795.06
554.732	798.06
554.944	774.06
555.157	773.06
555.37	787.06
555.583	761.06
555.795	757.06
556.008	761.06
556.221	738.06
556.433	744.06
556.646	769.06
556.859	729.06
557.071	728.06
557.284	720.06
557.496	735.06
557.709	728.06
557.921	724.06
558.134	705.06
558.346	709.06
558.559	708.06
558.771	721.06
558.984	715.06
559.196	731.06
559.409	692.06
559.621	692.06
559.833	693.06
560.046	721.06
560.258	698.06
560.47	709.06
560.683	682.06
560.895	687.06
561.107	691.06
561.32	698.06
561.532	701.06
561.744	685.06
561.956	681.06
562.168	691.06
562.381	698.06
562.593	706.06
562.805	686.06
563.017	712.06
563.229	695.06
563.441	712.06
563.653	711.06
563.865	730.06
564.077	728.06
564.289	727.06
564.501	719.06
564.713	718.06
564.925	743.06
565.137	747.06
565.349	756.06
565.561	774.06
565.773	777.06
565.985	812.06
566.197	802.06
566.408	832.06
566.62	871.06
566.832	863.06
567.044	873.06
567.255	889.06
567.467	908.06
567.679	910.06
567.891	931.06
568.102	916.06
568.314	906.06
568.526	880.06
568.737	837.06
568.949	792.06
569.161	792.06
569.372	749.06
569.584	730.06
569.795	734.06
570.007	710.06
570.218	676.06
570.43	706.06
570.641	690.06
570.853	652.06
571.064	644.06
571.276	671.06
571.487	653.06
571.698	652.06
571.91	644.06
572.121	636.06
572.333	612.06
572.544	602.06
572.755	613.06
572.966	600.06
573.178	609.06
573.389	604.06
573.6	578.06
573.811	588.06
574.023	563.06
574.234	588.06
574.445	567.06
574.656	576.06
574.867	563.06
575.078	558.06
575.289	551.06
575.501	534.06
575.712	546.06
575.923	567.06
576.134	528.06
576.345	539.06
576.556	536.06
576.767	528.06
576.978	535.06
577.188	514.06
577.399	540.06
577.61	533.06
577.821	532.06
578.032	505.06
578.243	523.06
578.454	498.06
578.665	514.06
578.875	524.06
579.086	510.06
579.297	499.06
579.508	498.06
579.718	541.06
579.929	495.06
580.14	503.06
580.35	484.06
580.561	500.06
580.772	504.06
580.982	499.06
581.193	484.06
581.403	502.06
581.614	493.06
581.825	493.06
582.035	487.06
582.246	477.06
582.456	463.06
582.667	479.06
582.877	501.06
583.087	491.06
583.298	484.06
583.508	451.06
583.719	470.06
583.929	472.06
584.139	464.06
584.35	462.06
584.56	468.06
584.77	477.06
584.981	480.06
585.191	458.06
585.401	442.06
585.611	471.06
585.821	459.06
586.032	453.06
586.242	461.06
586.452	455.06
586.662	465.06
586.872	448.06
587.082	453.06
587.292	443.06
587.502	447.06
587.713	440.06
587.923	453.06
588.133	453.06
588.343	463.06
588.553	456.06
588.762	438.06
588.972	455.06
589.182	489.06
589.392	496.06
589.602	473.06
589.812	506.06
590.022	483.06
590.232	458.06
590.441	453.06
590.651	463.06
590.861	450.06
591.071	451.06
591.281	458.06
591.49	457.06
591.7	482.06
591.91	467.06
592.119	483.06
592.329	481.06
592.539	487.06
592.748	472.06
592.958	484.06
593.167	486.06
593.377	500.06
593.587	486.06
593.796	475.06
594.006	482.06
594.215	492.06
594.424	488.06
594.634	463.06
594.843	457.06
595.053	447.06
595.262	455.06
595.472	444.06
595.681	450.06
595.89	453.06
596.1	422.06
596.309	427.06
596.518	428.06
596.727	425.06
596.937	413.06
597.146	406.06
597.355	423.06
597.564	414.06
597.774	422.06
597.983	399.06
598.192	370.06
598.401	390.06
598.61	399.06
598.819	395.06
599.028	398.06
599.237	382.06
599.446	377.06
599.655	406.06
599.864	388.06
600.073	376.06
600.282	388.06
600.491	389.06
600.7	376.06
600.909	388.06
601.118	386.06
601.327	382.06
601.536	350.06
601.745	390.06
601.953	380.06
602.162	382.06
602.371	371.06
602.58	364.06
602.789	378.06
602.997	370.06
603.206	371.06
603.415	373.06
603.623	349.06
603.832	353.06
604.041	379.06
604.249	361.06
604.458	371.06
604.666	347.06
604.875	352.06
605.084	339.06
605.292	345.06
605.501	363.06
605.709	355.06
605.918	346.06
606.126	374.06
606.334	342.06
606.543	343.06
606.751	355.06
606.96	348.06
607.168	340.06
607.376	341.06
607.585	333.06
607.793	330.06
608.001	358.06
608.21	362.06
608.418	341.06
608.626	344.06
608.834	356.06
609.043	358.06
609.251	346.06
609.459	334.06
609.667	346.06
609.875	340.06
610.083	323.06
610.291	343.06
610.499	348.06
610.707	342.06
610.916	323.06
611.124	356.06
611.332	340.06
611.54	343.06
611.748	331.06
611.955	323.06
612.163	335.06
612.371	339.06
612.579	341.06
612.787	342.06
612.995	334.06
613.203	323.06
613.411	346.06
613.618	335.06
613.826	350.06
614.034	317.06
614.242	330.06
614.449	320.06
614.657	317.06
614.865	335.06
615.072	322.06
615.28	338.06
615.488	339.06
615.695	323.06
615.903	341.06
616.111	330.06
616.318	318.06
616.526	331.06
616.733	338.06
616.941	328.06
617.148	332.06
617.356	325.06
617.563	336.06
617.771	333.06
617.978	336.06
618.185	312.06
618.393	310.06
618.6	323.06
618.807	341.06
619.015	333.06
619.222	308.06
619.429	322.06
619.637	310.06
619.844	311.06
620.051	317.06
620.258	311.06
620.466	302.06
620.673	316.06
620.88	302.06
621.087	312.06
621.294	303.06
621.501	295.06
621.708	298.06
621.915	286.06
622.122	291.06
622.329	296.06
622.536	312.06
622.743	295.06
622.95	311.06
623.157	284.06
623.364	299.06
623.571	300.06
623.778	304.06
623.985	293.06
624.192	288.06
624.399	283.06
624.606	300.06
624.812	303.06
625.019	277.06
625.226	301.06
625.433	295.06
625.639	276.06
625.846	279.06
626.053	292.06
626.259	292.06
626.466	290.06
626.673	271.06
626.879	262.06
627.086	283.06
627.293	291.06
627.499	283.06
627.706	296.06
627.912	287.06
628.119	288.06
628.325	285.06
628.532	280.06
628.738	280.06
628.945	279.06
629.151	266.06
629.357	262.06
629.564	256.06
629.77	278.06
629.976	266.06
630.183	275.06
630.389	264.06
630.595	262.06
630.802	270.06
631.008	282.06
631.214	280.06
631.42	263.06
631.627	282.06
631.833	267.06
632.039	274.06
632.245	266.06
632.451	246.06
632.657	262.06
632.863	270.06
633.069	269.06
633.275	258.06
633.481	248.06
633.688	272.06
633.893	260.06
634.099	238.06
634.305	251.06
634.511	252.06
634.717	250.06
634.923	242.06
635.129	251.06
635.335	255.06
635.541	254.06
635.747	265.06
635.952	247.06
636.158	244.06
636.364	257.06
636.57	244.06
636.775	261.06
636.981	246.06
637.187	258.06
637.392	246.06
637.598	254.06
637.804	244.06
638.009	252.06
638.215	263.06
638.421	220.06
638.626	245.06
638.832	237.06
639.037	246.06
639.243	251.06
639.448	235.06
639.654	243.06
639.859	250.06
640.065	234.06
640.27	258.06
640.475	229.06
640.681	231.06
640.886	232.06
641.091	243.06
641.297	250.06
641.502	236.06
641.707	255.06
641.913	250.06
642.118	256.06
642.323	246.06
642.528	252.06
642.733	235.06
642.939	242.06
643.144	250.06
643.349	231.06
643.554	231.06
643.759	248.06
643.964	230.06
644.169	253.06
644.374	252.06
644.579	264.06
644.784	254.06
644.989	255.06
645.194	255.06
645.399	242.06
645.604	245.06
645.809	249.06
646.014	238.06
646.219	260.06
646.423	242.06
646.628	234.06
646.833	262.06
647.038	259.06
647.243	251.06
647.447	260.06
647.652	251.06
647.857	256.06
648.062	252.06
648.266	267.06
648.471	277.06
648.676	244.06
648.88	262.06
649.085	263.06
649.289	255.06
649.494	247.06
649.698	263.06
649.903	242.06
650.107	276.06
650.312	259.06
650.516	254.06
650.721	257.06
650.925	248.06
651.13	244.06
651.334	256.06
651.539	246.06
651.743	244.06
651.947	243.06
652.152	251.06
652.356	249.06
652.56	245.06
652.764	239.06
652.969	250.06
653.173	238.06
653.377	233.06
653.581	243.06
653.785	255.06
653.99	243.06
654.194	249.06
654.398	262.06
654.602	237.06
654.806	240.06
655.01	238.06
655.214	246.06
655.418	266.06
655.622	264.06
655.826	275.06
656.03	264.06
656.234	254.06
656.438	272.06
656.642	264.06
656.846	277.06
657.049	254.06
657.253	229.06
657.457	223.06
657.661	229.06
657.865	210.06
658.068	205.06
658.272	185.06
658.476	187.06
658.68	185.06
658.883	170.06
659.087	164.06
659.291	158.06
659.494	145.06
659.698	136.06
659.901	127.06
660.105	146.06
660.309	131.06
660.512	128.06
660.716	125.06
660.919	110.06
661.123	107.06
661.326	104.06
661.53	121.06
661.733	102.06
661.936	106.06
662.14	93.06
662.343	88.06
662.546	87.06
662.75	98.06
662.953	90.06
663.156	94.06
663.36	91.06
663.563	101.06
663.766	91.06
663.969	84.06
664.173	75.06
664.376	79.06
664.579	102.06
664.782	82.06
664.985	84.06
665.188	93.06
665.391	106.06
665.594	77.06
665.797	91.06
666	80.06
666.203	80.06
666.406	86.06
666.609	98.06
666.812	93.06
667.015	76.06
667.218	100.06
667.421	91.06
667.624	92.06
667.827	91.06
668.03	90.06
668.232	101.06
668.435	76.06
668.638	79.06
668.841	83.06
669.043	78.06
669.246	85.06
669.449	94.06
669.651	93.06
669.854	78.06
670.057	91.06
670.259	81.06
670.462	92.06
670.665	84.06
670.867	76.06
671.07	74.06
671.272	87.06
671.475	87.06
671.677	91.06
671.88	83.06
672.082	74.06
672.284	79.06
672.487	90.06
672.689	84.06
672.892	72.06
