Data from Ni(NO3)2@0.125M.TitratingCurve.Agarose3%dH2O.NegLispCup.LampEnergy10.LIBS07252019_HRD10591_18-08-23-567.txt Node
Date: Thu Jul 25 18:08:23 EDT 2019
User: cochatt
Spectrometer: HR+D1059
Trigger mode: 1
Integration Time (sec): 1.000000E-1
Scans to average: 1
Electric dark correction enabled: true
Nonlinearity correction enabled: false
Boxcar width: 0
XAxis mode: Wavelengths
Number of Pixels in Spectrum: 2048
>>>>>Begin Spectral Data<<<<<
223.165	-14.75
223.4	-14.75
223.635	-14.75
223.869	-12.75
224.104	-12.75
224.338	-9.75
224.573	-19.75
224.808	-10.75
225.042	-0.75
225.277	2.25
225.511	-4.75
225.746	12.25
225.98	21.25
226.215	6.25
226.449	5.25
226.683	13.25
226.918	10.25
227.152	15.25
227.387	34.25
227.621	38.25
227.856	42.25
228.09	45.25
228.324	62.25
228.559	40.25
228.793	92.25
229.027	115.25
229.262	133.25
229.496	147.25
229.73	131.25
229.964	148.25
230.199	174.25
230.433	152.25
230.667	166.25
230.901	155.25
231.136	166.25
231.37	165.25
231.604	182.25
231.838	165.25
232.072	168.25
232.306	186.25
232.541	189.25
232.775	171.25
233.009	193.25
233.243	190.25
233.477	193.25
233.711	185.25
233.945	188.25
234.179	187.25
234.413	190.25
234.647	184.25
234.881	185.25
235.115	190.25
235.349	203.25
235.583	197.25
235.817	184.25
236.051	193.25
236.285	194.25
236.519	199.25
236.753	207.25
236.987	203.25
237.221	221.25
237.455	201.25
237.689	201.25
237.922	206.25
238.156	213.25
238.39	200.25
238.624	203.25
238.858	211.25
239.091	203.25
239.325	206.25
239.559	241.25
239.793	241.25
240.027	255.25
240.26	248.25
240.494	227.25
240.728	225.25
240.961	234.25
241.195	244.25
241.429	239.25
241.662	237.25
241.896	246.25
242.13	253.25
242.363	283.25
242.597	260.25
242.83	263.25
243.064	266.25
243.298	276.25
243.531	262.25
243.765	277.25
243.998	293.25
244.232	273.25
244.465	281.25
244.699	268.25
244.932	288.25
245.166	285.25
245.399	294.25
245.633	291.25
245.866	292.25
246.099	292.25
246.333	280.25
246.566	291.25
246.8	308.25
247.033	297.25
247.266	315.25
247.5	314.25
247.733	313.25
247.966	302.25
248.2	328.25
248.433	321.25
248.666	332.25
248.899	339.25
249.133	332.25
249.366	356.25
249.599	325.25
249.832	327.25
250.066	343.25
250.299	335.25
250.532	351.25
250.765	365.25
250.998	372.25
251.231	366.25
251.465	381.25
251.698	365.25
251.931	360.25
252.164	388.25
252.397	371.25
252.63	394.25
252.863	397.25
253.096	382.25
253.329	399.25
253.562	377.25
253.795	375.25
254.028	398.25
254.261	383.25
254.494	397.25
254.727	409.25
254.96	397.25
255.193	402.25
255.426	427.25
255.659	409.25
255.892	422.25
256.124	403.25
256.357	426.25
256.59	426.25
256.823	410.25
257.056	428.25
257.289	421.25
257.521	431.25
257.754	426.25
257.987	446.25
258.22	441.25
258.452	460.25
258.685	415.25
258.918	452.25
259.151	445.25
259.383	447.25
259.616	448.25
259.849	453.25
260.081	467.25
260.314	457.25
260.547	459.25
260.779	473.25
261.012	468.25
261.244	465.25
261.477	480.25
261.71	485.25
261.942	459.25
262.175	473.25
262.407	473.25
262.64	482.25
262.872	489.25
263.105	482.25
263.337	488.25
263.57	485.25
263.802	490.25
264.035	505.25
264.267	501.25
264.499	506.25
264.732	518.25
264.964	514.25
265.197	503.25
265.429	521.25
265.661	497.25
265.894	519.25
266.126	514.25
266.358	518.25
266.591	524.25
266.823	507.25
267.055	543.25
267.287	525.25
267.52	531.25
267.752	542.25
267.984	547.25
268.216	543.25
268.448	543.25
268.681	570.25
268.913	562.25
269.145	531.25
269.377	558.25
269.609	537.25
269.841	577.25
270.073	550.25
270.306	571.25
270.538	569.25
270.77	540.25
271.002	567.25
271.234	564.25
271.466	556.25
271.698	575.25
271.93	581.25
272.162	583.25
272.394	573.25
272.626	582.25
272.858	579.25
273.09	577.25
273.322	606.25
273.553	586.25
273.785	581.25
274.017	597.25
274.249	571.25
274.481	583.25
274.713	612.25
274.945	629.25
275.176	596.25
275.408	596.25
275.64	597.25
275.872	644.25
276.104	623.25
276.335	610.25
276.567	624.25
276.799	629.25
277.031	620.25
277.262	605.25
277.494	622.25
277.726	639.25
277.957	637.25
278.189	635.25
278.421	636.25
278.652	629.25
278.884	633.25
279.115	637.25
279.347	655.25
279.579	670.25
279.81	669.25
280.042	638.25
280.273	676.25
280.505	649.25
280.736	666.25
280.968	697.25
281.199	659.25
281.431	685.25
281.662	689.25
281.894	691.25
282.125	689.25
282.356	678.25
282.588	677.25
282.819	675.25
283.051	690.25
283.282	702.25
283.513	710.25
283.745	725.25
283.976	713.25
284.207	707.25
284.439	709.25
284.67	686.25
284.901	698.25
285.132	713.25
285.364	724.25
285.595	697.25
285.826	727.25
286.057	709.25
286.288	743.25
286.52	737.25
286.751	740.25
286.982	750.25
287.213	727.25
287.444	745.25
287.675	749.25
287.906	754.25
288.138	738.25
288.369	754.25
288.6	756.25
288.831	738.25
289.062	764.25
289.293	762.25
289.524	780.25
289.755	778.25
289.986	748.25
290.217	761.25
290.448	767.25
290.679	767.25
290.91	787.25
291.141	751.25
291.371	777.25
291.602	782.25
291.833	771.25
292.064	795.25
292.295	770.25
292.526	787.25
292.757	748.25
292.987	777.25
293.218	798.25
293.449	771.25
293.68	779.25
293.91	762.25
294.141	769.25
294.372	747.25
294.603	773.25
294.833	783.25
295.064	772.25
295.295	791.25
295.525	778.25
295.756	811.25
295.987	788.25
296.217	807.25
296.448	817.25
296.679	789.25
296.909	788.25
297.14	819.25
297.37	836.25
297.601	823.25
297.831	820.25
298.062	842.25
298.292	846.25
298.523	836.25
298.753	826.25
298.984	853.25
299.214	834.25
299.445	827.25
299.675	831.25
299.905	843.25
300.136	859.25
300.366	838.25
300.597	863.25
300.827	895.25
301.057	890.25
301.288	884.25
301.518	901.25
301.748	927.25
301.979	913.25
302.209	889.25
302.439	869.25
302.669	877.25
302.9	877.25
303.13	859.25
303.36	849.25
303.59	895.25
303.82	901.25
304.051	884.25
304.281	879.25
304.511	851.25
304.741	900.25
304.971	897.25
305.201	866.25
305.431	869.25
305.661	883.25
305.891	865.25
306.121	873.25
306.352	855.25
306.582	845.25
306.812	850.25
307.042	854.25
307.272	835.25
307.502	870.25
307.731	879.25
307.961	862.25
308.191	866.25
308.421	857.25
308.651	843.25
308.881	845.25
309.111	873.25
309.341	869.25
309.571	839.25
309.8	858.25
310.03	860.25
310.26	882.25
310.49	886.25
310.72	888.25
310.949	896.25
311.179	872.25
311.409	896.25
311.639	903.25
311.868	897.25
312.098	882.25
312.328	917.25
312.557	914.25
312.787	889.25
313.017	911.25
313.246	921.25
313.476	924.25
313.706	978.25
313.935	949.25
314.165	955.25
314.394	965.25
314.624	950.25
314.853	957.25
315.083	951.25
315.312	937.25
315.542	953.25
315.771	917.25
316.001	929.25
316.23	925.25
316.46	948.25
316.689	942.25
316.919	934.25
317.148	954.25
317.377	933.25
317.607	937.25
317.836	907.25
318.065	926.25
318.295	922.25
318.524	935.25
318.753	918.25
318.983	932.25
319.212	939.25
319.441	928.25
319.67	930.25
319.9	937.25
320.129	949.25
320.358	962.25
320.587	951.25
320.816	967.25
321.046	968.25
321.275	981.25
321.504	962.25
321.733	949.25
321.962	957.25
322.191	978.25
322.42	973.25
322.649	952.25
322.878	975.25
323.108	943.25
323.337	994.25
323.566	973.25
323.795	999.25
324.024	1002.25
324.253	1001.25
324.482	979.25
324.71	977.25
324.939	977.25
325.168	1011.25
325.397	1005.25
325.626	999.25
325.855	1030.25
326.084	1026.25
326.313	1023.25
326.542	1026.25
326.77	1056.25
326.999	1084.25
327.228	1026.25
327.457	1068.25
327.686	1055.25
327.914	1081.25
328.143	1065.25
328.372	1066.25
328.6	1055.25
328.829	1080.25
329.058	1065.25
329.287	1062.25
329.515	1075.25
329.744	1092.25
329.972	1094.25
330.201	1083.25
330.43	1107.25
330.658	1076.25
330.887	1102.25
331.115	1113.25
331.344	1140.25
331.572	1157.25
331.801	1171.25
332.03	1217.25
332.258	1231.25
332.486	1253.25
332.715	1317.25
332.943	1377.25
333.172	1452.25
333.4	1463.25
333.629	1534.25
333.857	1533.25
334.085	1513.25
334.314	1452.25
334.542	1445.25
334.771	1427.25
334.999	1385.25
335.227	1395.25
335.455	1350.25
335.684	1350.25
335.912	1377.25
336.14	1314.25
336.369	1295.25
336.597	1315.25
336.825	1322.25
337.053	1327.25
337.281	1294.25
337.51	1254.25
337.738	1260.25
337.966	1237.25
338.194	1244.25
338.422	1187.25
338.65	1161.25
338.878	1189.25
339.106	1182.25
339.334	1183.25
339.562	1166.25
339.79	1160.25
340.018	1151.25
340.246	1118.25
340.474	1143.25
340.702	1163.25
340.93	1177.25
341.158	1173.25
341.386	1174.25
341.614	1185.25
341.842	1176.25
342.07	1132.25
342.298	1121.25
342.526	1140.25
342.754	1148.25
342.981	1149.25
343.209	1177.25
343.437	1230.25
343.665	1299.25
343.893	1369.25
344.12	1463.25
344.348	1397.25
344.576	1346.25
344.804	1259.25
345.031	1217.25
345.259	1188.25
345.487	1128.25
345.714	1113.25
345.942	1139.25
346.17	1123.25
346.397	1147.25
346.625	1080.25
346.853	1082.25
347.08	1131.25
347.308	1081.25
347.535	1090.25
347.763	1115.25
347.99	1137.25
348.218	1114.25
348.445	1073.25
348.673	1081.25
348.9	1093.25
349.128	1099.25
349.355	1102.25
349.583	1091.25
349.81	1091.25
350.037	1074.25
350.265	1075.25
350.492	1034.25
350.72	1057.25
350.947	1066.25
351.174	1066.25
351.402	1081.25
351.629	1104.25
351.856	1085.25
352.083	1048.25
352.311	1037.25
352.538	1053.25
352.765	1037.25
352.992	1058.25
353.22	1075.25
353.447	1038.25
353.674	1015.25
353.901	1029.25
354.128	1045.25
354.355	1040.25
354.583	1055.25
354.81	1050.25
355.037	1035.25
355.264	1050.25
355.491	1080.25
355.718	1054.25
355.945	1042.25
356.172	1081.25
356.399	1051.25
356.626	1087.25
356.853	1107.25
357.08	1002.25
357.307	1051.25
357.534	1086.25
357.761	1045.25
357.988	1059.25
358.215	1066.25
358.441	1071.25
358.668	1038.25
358.895	1097.25
359.122	1031.25
359.349	1061.25
359.576	1057.25
359.802	1067.25
360.029	1032.25
360.256	1064.25
360.483	1079.25
360.709	1034.25
360.936	1059.25
361.163	1081.25
361.39	1069.25
361.616	1068.25
361.843	1044.25
362.07	1074.25
362.296	1081.25
362.523	1065.25
362.749	1061.25
362.976	1030.25
363.203	1009.25
363.429	1033.25
363.656	1018.25
363.882	1028.25
364.109	1035.25
364.335	1053.25
364.562	1029.25
364.788	1033.25
365.015	1013.25
365.241	1049.25
365.468	1057.25
365.694	1055.25
365.92	1009.25
366.147	1043.25
366.373	1046.25
366.599	1026.25
366.826	1063.25
367.052	1036.25
367.278	1038.25
367.505	1075.25
367.731	1038.25
367.957	1064.25
368.184	1040.25
368.41	1070.25
368.636	1051.25
368.862	1066.25
369.089	1074.25
369.315	1053.25
369.541	1040.25
369.767	1079.25
369.993	1077.25
370.219	1091.25
370.445	1112.25
370.672	1100.25
370.898	1097.25
371.124	1105.25
371.35	1100.25
371.576	1124.25
371.802	1149.25
372.028	1137.25
372.254	1134.25
372.48	1169.25
372.706	1168.25
372.932	1204.25
373.158	1192.25
373.384	1147.25
373.61	1144.25
373.835	1150.25
374.061	1134.25
374.287	1142.25
374.513	1155.25
374.739	1180.25
374.965	1253.25
375.191	1274.25
375.416	1245.25
375.642	1198.25
375.868	1194.25
376.094	1175.25
376.319	1146.25
376.545	1135.25
376.771	1109.25
376.997	1137.25
377.222	1142.25
377.448	1137.25
377.674	1113.25
377.899	1125.25
378.125	1142.25
378.35	1086.25
378.576	1129.25
378.802	1089.25
379.027	1122.25
379.253	1096.25
379.478	1101.25
379.704	1111.25
379.929	1118.25
380.155	1100.25
380.38	1106.25
380.606	1093.25
380.831	1102.25
381.057	1106.25
381.282	1103.25
381.507	1117.25
381.733	1150.25
381.958	1141.25
382.184	1142.25
382.409	1143.25
382.634	1193.25
382.86	1177.25
383.085	1191.25
383.31	1187.25
383.535	1198.25
383.761	1266.25
383.986	1292.25
384.211	1327.25
384.436	1306.25
384.662	1326.25
384.887	1336.25
385.112	1342.25
385.337	1402.25
385.562	1377.25
385.787	1375.25
386.013	1387.25
386.238	1371.25
386.463	1387.25
386.688	1399.25
386.913	1331.25
387.138	1352.25
387.363	1352.25
387.588	1335.25
387.813	1363.25
388.038	1308.25
388.263	1323.25
388.488	1346.25
388.713	1327.25
388.938	1334.25
389.163	1293.25
389.387	1295.25
389.612	1304.25
389.837	1293.25
390.062	1293.25
390.287	1315.25
390.512	1278.25
390.736	1297.25
390.961	1323.25
391.186	1358.25
391.411	1428.25
391.636	1449.25
391.86	1507.25
392.085	1565.25
392.31	1506.25
392.534	1509.25
392.759	1462.25
392.984	1436.25
393.208	1446.25
393.433	1413.25
393.658	1426.25
393.882	1419.25
394.107	1415.25
394.331	1427.25
394.556	1447.25
394.78	1436.25
395.005	1441.25
395.229	1441.25
395.454	1493.25
395.678	1549.25
395.903	1539.25
396.127	1474.25
396.352	1448.25
396.576	1440.25
396.801	1401.25
397.025	1451.25
397.249	1452.25
397.474	1537.25
397.698	1513.25
397.922	1501.25
398.147	1533.25
398.371	1547.25
398.595	1588.25
398.82	1694.25
399.044	1803.25
399.268	1994.25
399.492	2362.25
399.717	2691.25
399.941	2698.25
400.165	2335.25
400.389	2117.25
400.613	1945.25
400.837	1860.25
401.062	1765.25
401.286	1723.25
401.51	1725.25
401.734	1715.25
401.958	1760.25
402.182	1750.25
402.406	1761.25
402.63	1829.25
402.854	1831.25
403.078	1849.25
403.302	1916.25
403.526	1937.25
403.75	2010.25
403.974	2047.25
404.198	2041.25
404.422	2013.25
404.645	2035.25
404.869	1961.25
405.093	1949.25
405.317	1893.25
405.541	1923.25
405.765	1903.25
405.988	1912.25
406.212	1886.25
406.436	1910.25
406.66	1940.25
406.883	1987.25
407.107	2097.25
407.331	2202.25
407.555	2263.25
407.778	2235.25
408.002	2175.25
408.226	2100.25
408.449	2033.25
408.673	1954.25
408.896	1957.25
409.12	1950.25
409.344	1929.25
409.567	1923.25
409.791	1969.25
410.014	1904.25
410.238	1873.25
410.461	1809.25
410.685	1836.25
410.908	1867.25
411.132	1800.25
411.355	1778.25
411.578	1778.25
411.802	1788.25
412.025	1794.25
412.249	1830.25
412.472	1809.25
412.695	1757.25
412.919	1702.25
413.142	1720.25
413.365	1707.25
413.589	1747.25
413.812	1697.25
414.035	1692.25
414.258	1663.25
414.482	1701.25
414.705	1758.25
414.928	1684.25
415.151	1703.25
415.374	1712.25
415.597	1675.25
415.821	1696.25
416.044	1702.25
416.267	1665.25
416.49	1676.25
416.713	1689.25
416.936	1684.25
417.159	1685.25
417.382	1713.25
417.605	1681.25
417.828	1680.25
418.051	1706.25
418.274	1721.25
418.497	1726.25
418.72	1770.25
418.943	1742.25
419.166	1850.25
419.389	2014.25
419.611	1911.25
419.834	1864.25
420.057	1798.25
420.28	1747.25
420.503	1701.25
420.726	1669.25
420.948	1751.25
421.171	1733.25
421.394	1697.25
421.617	1699.25
421.839	1701.25
422.062	1732.25
422.285	1707.25
422.507	1747.25
422.73	1691.25
422.953	1808.25
423.175	1838.25
423.398	1830.25
423.621	1815.25
423.843	1830.25
424.066	1913.25
424.288	1841.25
424.511	1849.25
424.733	1805.25
424.956	1781.25
425.178	1708.25
425.401	1738.25
425.623	1714.25
425.846	1688.25
426.068	1688.25
426.291	1618.25
426.513	1654.25
426.735	1600.25
426.958	1601.25
427.18	1551.25
427.402	1565.25
427.625	1585.25
427.847	1553.25
428.069	1551.25
428.292	1566.25
428.514	1528.25
428.736	1488.25
428.958	1511.25
429.181	1496.25
429.403	1479.25
429.625	1488.25
429.847	1462.25
430.069	1459.25
430.292	1492.25
430.514	1464.25
430.736	1477.25
430.958	1486.25
431.18	1446.25
431.402	1506.25
431.624	1516.25
431.846	1517.25
432.068	1563.25
432.29	1528.25
432.512	1467.25
432.734	1521.25
432.956	1546.25
433.178	1561.25
433.4	1517.25
433.622	1530.25
433.844	1557.25
434.066	1531.25
434.287	1589.25
434.509	1604.25
434.731	1653.25
434.953	1742.25
435.175	1740.25
435.397	1702.25
435.618	1638.25
435.84	1605.25
436.062	1522.25
436.284	1536.25
436.505	1494.25
436.727	1543.25
436.949	1497.25
437.17	1502.25
437.392	1486.25
437.614	1489.25
437.835	1455.25
438.057	1461.25
438.278	1439.25
438.5	1466.25
438.721	1454.25
438.943	1450.25
439.165	1443.25
439.386	1465.25
439.608	1493.25
439.829	1505.25
440.05	1511.25
440.272	1545.25
440.493	1533.25
440.715	1563.25
440.936	1609.25
441.158	1616.25
441.379	1667.25
441.6	1744.25
441.822	1740.25
442.043	1731.25
442.264	1746.25
442.486	1690.25
442.707	1711.25
442.928	1708.25
443.149	1702.25
443.371	1710.25
443.592	1767.25
443.813	1741.25
444.034	1747.25
444.255	1823.25
444.476	1889.25
444.698	2030.25
444.919	2191.25
445.14	2145.25
445.361	1985.25
445.582	1813.25
445.803	1702.25
446.024	1653.25
446.245	1634.25
446.466	1591.25
446.687	1512.25
446.908	1557.25
447.129	1513.25
447.35	1471.25
447.571	1470.25
447.792	1439.25
448.013	1406.25
448.234	1388.25
448.455	1423.25
448.675	1402.25
448.896	1395.25
449.117	1393.25
449.338	1382.25
449.559	1343.25
449.779	1372.25
450	1354.25
450.221	1398.25
450.442	1417.25
450.662	1414.25
450.883	1430.25
451.104	1446.25
451.324	1410.25
451.545	1411.25
451.766	1401.25
451.986	1365.25
452.207	1377.25
452.428	1353.25
452.648	1360.25
452.869	1353.25
453.089	1371.25
453.31	1369.25
453.53	1357.25
453.751	1355.25
453.971	1349.25
454.192	1353.25
454.412	1325.25
454.633	1320.25
454.853	1343.25
455.073	1283.25
455.294	1303.25
455.514	1291.25
455.734	1317.25
455.955	1290.25
456.175	1285.25
456.395	1285.25
456.616	1303.25
456.836	1329.25
457.056	1281.25
457.276	1264.25
457.497	1304.25
457.717	1291.25
457.937	1255.25
458.157	1313.25
458.377	1317.25
458.598	1383.25
458.818	1389.25
459.038	1449.25
459.258	1474.25
459.478	1571.25
459.698	1585.25
459.918	1609.25
460.138	1731.25
460.358	1831.25
460.578	1857.25
460.798	1899.25
461.018	1851.25
461.238	1821.25
461.458	1827.25
461.678	1822.25
461.898	1874.25
462.118	1854.25
462.338	1938.25
462.558	2024.25
462.777	2081.25
462.997	2307.25
463.217	2538.25
463.437	2547.25
463.657	2291.25
463.876	2170.25
464.096	2150.25
464.316	2121.25
464.536	2119.25
464.755	2069.25
464.975	2014.25
465.195	1837.25
465.414	1797.25
465.634	1660.25
465.854	1582.25
466.073	1537.25
466.293	1516.25
466.512	1508.25
466.732	1477.25
466.951	1492.25
467.171	1463.25
467.391	1455.25
467.61	1453.25
467.829	1466.25
468.049	1437.25
468.268	1398.25
468.488	1384.25
468.707	1394.25
468.927	1377.25
469.146	1404.25
469.365	1395.25
469.585	1409.25
469.804	1457.25
470.023	1500.25
470.243	1513.25
470.462	1515.25
470.681	1506.25
470.901	1525.25
471.12	1473.25
471.339	1469.25
471.558	1443.25
471.777	1430.25
471.997	1420.25
472.216	1422.25
472.435	1419.25
472.654	1309.25
472.873	1352.25
473.092	1381.25
473.311	1320.25
473.53	1367.25
473.749	1341.25
473.968	1324.25
474.187	1338.25
474.406	1323.25
474.625	1368.25
474.844	1382.25
475.063	1359.25
475.282	1362.25
475.501	1377.25
475.72	1372.25
475.939	1380.25
476.158	1409.25
476.377	1432.25
476.596	1435.25
476.814	1450.25
477.033	1415.25
477.252	1469.25
477.471	1468.25
477.69	1548.25
477.908	1600.25
478.127	1617.25
478.346	1648.25
478.564	1683.25
478.783	1702.25
479.002	1765.25
479.22	1765.25
479.439	1710.25
479.658	1711.25
479.876	1710.25
480.095	1741.25
480.313	1850.25
480.532	1901.25
480.751	1899.25
480.969	1773.25
481.188	1721.25
481.406	1638.25
481.624	1589.25
481.843	1571.25
482.061	1582.25
482.28	1568.25
482.498	1530.25
482.717	1537.25
482.935	1514.25
483.153	1533.25
483.372	1495.25
483.59	1509.25
483.808	1569.25
484.027	1542.25
484.245	1579.25
484.463	1574.25
484.681	1570.25
484.9	1578.25
485.118	1603.25
485.336	1575.25
485.554	1591.25
485.772	1646.25
485.99	1570.25
486.209	1619.25
486.427	1602.25
486.645	1629.25
486.863	1651.25
487.081	1615.25
487.299	1633.25
487.517	1614.25
487.735	1614.25
487.953	1605.25
488.171	1636.25
488.389	1614.25
488.607	1614.25
488.825	1622.25
489.043	1595.25
489.261	1613.25
489.479	1617.25
489.696	1651.25
489.914	1637.25
490.132	1621.25
490.35	1683.25
490.568	1633.25
490.786	1634.25
491.003	1631.25
491.221	1655.25
491.439	1647.25
491.657	1658.25
491.874	1651.25
492.092	1678.25
492.31	1636.25
492.527	1675.25
492.745	1689.25
492.963	1710.25
493.18	1698.25
493.398	1691.25
493.615	1701.25
493.833	1750.25
494.05	1726.25
494.268	1713.25
494.485	1738.25
494.703	1720.25
494.92	1724.25
495.138	1741.25
495.355	1763.25
495.573	1722.25
495.79	1757.25
496.008	1730.25
496.225	1778.25
496.442	1801.25
496.66	1822.25
496.877	1843.25
497.094	1841.25
497.312	1931.25
497.529	1980.25
497.746	1993.25
497.963	2090.25
498.181	2146.25
498.398	2233.25
498.615	2410.25
498.832	2564.25
499.049	2794.25
499.267	3036.25
499.484	3317.25
499.701	3680.25
499.918	4200.25
500.135	4769.25
500.352	5446.25
500.569	5774.25
500.786	5659.25
501.003	5211.25
501.22	4654.25
501.437	4077.25
501.654	3519.25
501.871	3174.25
502.088	2909.25
502.305	2730.25
502.522	2581.25
502.739	2503.25
502.956	2313.25
503.172	2201.25
503.389	2137.25
503.606	2043.25
503.823	2017.25
504.04	1999.25
504.256	2035.25
504.473	2129.25
504.69	2137.25
504.907	2093.25
505.123	1972.25
505.34	1837.25
505.557	1738.25
505.773	1704.25
505.99	1663.25
506.207	1610.25
506.423	1576.25
506.64	1605.25
506.856	1591.25
507.073	1576.25
507.289	1530.25
507.506	1541.25
507.722	1566.25
507.939	1545.25
508.155	1486.25
508.372	1497.25
508.588	1484.25
508.805	1475.25
509.021	1435.25
509.238	1457.25
509.454	1439.25
509.67	1423.25
509.887	1416.25
510.103	1382.25
510.319	1385.25
510.536	1367.25
510.752	1384.25
510.968	1420.25
511.184	1386.25
511.401	1401.25
511.617	1381.25
511.833	1379.25
512.049	1375.25
512.265	1390.25
512.481	1419.25
512.698	1392.25
512.914	1381.25
513.13	1391.25
513.346	1358.25
513.562	1399.25
513.778	1395.25
513.994	1419.25
514.21	1427.25
514.426	1397.25
514.642	1427.25
514.858	1405.25
515.074	1436.25
515.29	1462.25
515.506	1447.25
515.721	1483.25
515.937	1532.25
516.153	1547.25
516.369	1550.25
516.585	1638.25
516.801	1686.25
517.016	1771.25
517.232	1855.25
517.448	1941.25
517.664	1969.25
517.879	2013.25
518.095	2031.25
518.311	1958.25
518.527	1883.25
518.742	1779.25
518.958	1715.25
519.173	1605.25
519.389	1607.25
519.605	1524.25
519.82	1506.25
520.036	1491.25
520.251	1474.25
520.467	1436.25
520.682	1411.25
520.898	1437.25
521.113	1390.25
521.329	1377.25
521.544	1370.25
521.76	1363.25
521.975	1337.25
522.19	1321.25
522.406	1313.25
522.621	1323.25
522.836	1311.25
523.052	1319.25
523.267	1269.25
523.482	1303.25
523.698	1277.25
523.913	1268.25
524.128	1291.25
524.343	1284.25
524.559	1256.25
524.774	1279.25
524.989	1295.25
525.204	1263.25
525.419	1238.25
525.634	1231.25
525.849	1268.25
526.064	1253.25
526.28	1252.25
526.495	1225.25
526.71	1250.25
526.925	1265.25
527.14	1213.25
527.355	1235.25
527.57	1268.25
527.785	1257.25
527.999	1261.25
528.214	1252.25
528.429	1254.25
528.644	1271.25
528.859	1255.25
529.074	1277.25
529.289	1262.25
529.503	1258.25
529.718	1267.25
529.933	1241.25
530.148	1212.25
530.363	1252.25
530.577	1228.25
530.792	1240.25
531.007	1253.25
531.221	1237.25
531.436	1287.25
531.651	1236.25
531.865	1228.25
532.08	1234.25
532.295	1278.25
532.509	1221.25
532.724	1232.25
532.938	1213.25
533.153	1242.25
533.367	1253.25
533.582	1244.25
533.796	1218.25
534.011	1281.25
534.225	1209.25
534.44	1228.25
534.654	1230.25
534.868	1206.25
535.083	1219.25
535.297	1212.25
535.511	1173.25
535.726	1187.25
535.94	1213.25
536.154	1205.25
536.369	1182.25
536.583	1147.25
536.797	1130.25
537.011	1145.25
537.225	1166.25
537.44	1151.25
537.654	1171.25
537.868	1121.25
538.082	1111.25
538.296	1148.25
538.51	1155.25
538.724	1145.25
538.938	1110.25
539.153	1127.25
539.367	1141.25
539.581	1109.25
539.795	1128.25
540.009	1105.25
540.222	1107.25
540.436	1073.25
540.65	1104.25
540.864	1115.25
541.078	1113.25
541.292	1112.25
541.506	1137.25
541.72	1108.25
541.934	1107.25
542.147	1125.25
542.361	1143.25
542.575	1107.25
542.789	1113.25
543.002	1088.25
543.216	1063.25
543.43	1085.25
543.644	1108.25
543.857	1079.25
544.071	1098.25
544.285	1137.25
544.498	1105.25
544.712	1091.25
544.925	1140.25
545.139	1165.25
545.352	1130.25
545.566	1124.25
545.779	1136.25
545.993	1175.25
546.206	1155.25
546.42	1132.25
546.633	1149.25
546.847	1125.25
547.06	1171.25
547.274	1141.25
547.487	1117.25
547.7	1156.25
547.914	1160.25
548.127	1164.25
548.34	1198.25
548.554	1145.25
548.767	1153.25
548.98	1154.25
549.193	1141.25
549.407	1162.25
549.62	1166.25
549.833	1189.25
550.046	1189.25
550.259	1168.25
550.473	1137.25
550.686	1161.25
550.899	1112.25
551.112	1113.25
551.325	1140.25
551.538	1125.25
551.751	1135.25
551.964	1149.25
552.177	1153.25
552.39	1129.25
552.603	1171.25
552.816	1231.25
553.029	1189.25
553.242	1268.25
553.455	1286.25
553.667	1308.25
553.88	1240.25
554.093	1243.25
554.306	1169.25
554.519	1194.25
554.732	1134.25
554.944	1105.25
555.157	1077.25
555.37	1080.25
555.583	1081.25
555.795	1044.25
556.008	1038.25
556.221	993.25
556.433	1012.25
556.646	977.25
556.859	967.25
557.071	959.25
557.284	973.25
557.496	938.25
557.709	961.25
557.921	933.25
558.134	931.25
558.346	935.25
558.559	990.25
558.771	949.25
558.984	935.25
559.196	919.25
559.409	919.25
559.621	920.25
559.833	921.25
560.046	911.25
560.258	921.25
560.47	902.25
560.683	921.25
560.895	916.25
561.107	941.25
561.32	904.25
561.532	938.25
561.744	925.25
561.956	935.25
562.168	955.25
562.381	940.25
562.593	933.25
562.805	937.25
563.017	911.25
563.229	923.25
563.441	884.25
563.653	941.25
563.865	931.25
564.077	931.25
564.289	951.25
564.501	1003.25
564.713	990.25
564.925	1001.25
565.137	1023.25
565.349	1055.25
565.561	1094.25
565.773	1138.25
565.985	1195.25
566.197	1236.25
566.408	1355.25
566.62	1461.25
566.832	1603.25
567.044	1658.25
567.255	1636.25
567.467	1709.25
567.679	1794.25
567.891	1908.25
568.102	1971.25
568.314	1857.25
568.526	1677.25
568.737	1501.25
568.949	1365.25
569.161	1234.25
569.372	1127.25
569.584	1092.25
569.795	1044.25
570.007	984.25
570.218	965.25
570.43	947.25
570.641	986.25
570.853	985.25
571.064	990.25
571.276	986.25
571.487	954.25
571.698	909.25
571.91	896.25
572.121	847.25
572.333	829.25
572.544	837.25
572.755	807.25
572.966	795.25
573.178	781.25
573.389	789.25
573.6	769.25
573.811	787.25
574.023	758.25
574.234	772.25
574.445	737.25
574.656	773.25
574.867	759.25
575.078	771.25
575.289	775.25
575.501	735.25
575.712	723.25
575.923	720.25
576.134	726.25
576.345	724.25
576.556	726.25
576.767	718.25
576.978	750.25
577.188	722.25
577.399	701.25
577.61	715.25
577.821	700.25
578.032	687.25
578.243	669.25
578.454	694.25
578.665	670.25
578.875	668.25
579.086	683.25
579.297	642.25
579.508	652.25
579.718	654.25
579.929	649.25
580.14	650.25
580.35	646.25
580.561	651.25
580.772	650.25
580.982	643.25
581.193	637.25
581.403	654.25
581.614	640.25
581.825	639.25
582.035	614.25
582.246	615.25
582.456	639.25
582.667	654.25
582.877	634.25
583.087	627.25
583.298	609.25
583.508	611.25
583.719	612.25
583.929	606.25
584.139	619.25
584.35	607.25
584.56	619.25
584.77	609.25
584.981	586.25
585.191	615.25
585.401	627.25
585.611	620.25
585.821	607.25
586.032	609.25
586.242	596.25
586.452	601.25
586.662	564.25
586.872	597.25
587.082	597.25
587.292	597.25
587.502	590.25
587.713	612.25
587.923	585.25
588.133	598.25
588.343	594.25
588.553	599.25
588.762	599.25
588.972	597.25
589.182	607.25
589.392	606.25
589.602	578.25
589.812	608.25
590.022	597.25
590.232	599.25
590.441	606.25
590.651	605.25
590.861	585.25
591.071	614.25
591.281	627.25
591.49	597.25
591.7	622.25
591.91	642.25
592.119	658.25
592.329	682.25
592.539	670.25
592.748	715.25
592.958	732.25
593.167	763.25
593.377	741.25
593.587	783.25
593.796	798.25
594.006	800.25
594.215	802.25
594.424	785.25
594.634	755.25
594.843	773.25
595.053	724.25
595.262	705.25
595.472	681.25
595.681	645.25
595.89	618.25
596.1	611.25
596.309	587.25
596.518	580.25
596.727	574.25
596.937	549.25
597.146	569.25
597.355	551.25
597.564	519.25
597.774	539.25
597.983	515.25
598.192	535.25
598.401	532.25
598.61	511.25
598.819	498.25
599.028	528.25
599.237	503.25
599.446	505.25
599.655	523.25
599.864	519.25
600.073	507.25
600.282	500.25
600.491	509.25
600.7	485.25
600.909	473.25
601.118	494.25
601.327	495.25
601.536	491.25
601.745	480.25
601.953	488.25
602.162	471.25
602.371	469.25
602.58	457.25
602.789	476.25
602.997	481.25
603.206	469.25
603.415	447.25
603.623	482.25
603.832	445.25
604.041	469.25
604.249	461.25
604.458	448.25
604.666	437.25
604.875	452.25
605.084	437.25
605.292	467.25
605.501	452.25
605.709	453.25
605.918	453.25
606.126	458.25
606.334	435.25
606.543	441.25
606.751	448.25
606.96	456.25
607.168	444.25
607.376	462.25
607.585	462.25
607.793	431.25
608.001	450.25
608.21	428.25
608.418	423.25
608.626	420.25
608.834	427.25
609.043	447.25
609.251	439.25
609.459	425.25
609.667	428.25
609.875	407.25
610.083	427.25
610.291	445.25
610.499	417.25
610.707	447.25
610.916	413.25
611.124	418.25
611.332	415.25
611.54	417.25
611.748	442.25
611.955	439.25
612.163	426.25
612.371	417.25
612.579	430.25
612.787	423.25
612.995	404.25
613.203	409.25
613.411	411.25
613.618	397.25
613.826	412.25
614.034	421.25
614.242	424.25
614.449	419.25
614.657	425.25
614.865	413.25
615.072	417.25
615.28	401.25
615.488	403.25
615.695	406.25
615.903	403.25
616.111	427.25
616.318	425.25
616.526	402.25
616.733	398.25
616.941	437.25
617.148	422.25
617.356	418.25
617.563	425.25
617.771	411.25
617.978	404.25
618.185	413.25
618.393	430.25
618.6	404.25
618.807	407.25
619.015	409.25
619.222	403.25
619.429	387.25
619.637	394.25
619.844	389.25
620.051	386.25
620.258	385.25
620.466	386.25
620.673	380.25
620.88	385.25
621.087	383.25
621.294	392.25
621.501	365.25
621.708	364.25
621.915	370.25
622.122	370.25
622.329	378.25
622.536	361.25
622.743	355.25
622.95	378.25
623.157	381.25
623.364	356.25
623.571	361.25
623.778	358.25
623.985	373.25
624.192	379.25
624.399	377.25
624.606	366.25
624.812	353.25
625.019	361.25
625.226	368.25
625.433	361.25
625.639	334.25
625.846	362.25
626.053	341.25
626.259	357.25
626.466	355.25
626.673	369.25
626.879	333.25
627.086	344.25
627.293	322.25
627.499	335.25
627.706	346.25
627.912	326.25
628.119	325.25
628.325	329.25
628.532	322.25
628.738	344.25
628.945	334.25
629.151	343.25
629.357	335.25
629.564	333.25
629.77	314.25
629.976	318.25
630.183	322.25
630.389	307.25
630.595	316.25
630.802	333.25
631.008	329.25
631.214	319.25
631.42	297.25
631.627	303.25
631.833	312.25
632.039	319.25
632.245	298.25
632.451	307.25
632.657	305.25
632.863	307.25
633.069	308.25
633.275	306.25
633.481	309.25
633.688	302.25
633.893	298.25
634.099	293.25
634.305	299.25
634.511	295.25
634.717	292.25
634.923	307.25
635.129	300.25
635.335	298.25
635.541	279.25
635.747	290.25
635.952	273.25
636.158	279.25
636.364	277.25
636.57	290.25
636.775	290.25
636.981	307.25
637.187	295.25
637.392	282.25
637.598	287.25
637.804	311.25
638.009	280.25
638.215	281.25
638.421	277.25
638.626	278.25
638.832	270.25
639.037	280.25
639.243	254.25
639.448	266.25
639.654	279.25
639.859	296.25
640.065	283.25
640.27	270.25
640.475	268.25
640.681	259.25
640.886	265.25
641.091	278.25
641.297	260.25
641.502	268.25
641.707	290.25
641.913	274.25
642.118	262.25
642.323	273.25
642.528	286.25
642.733	268.25
642.939	267.25
643.144	264.25
643.349	260.25
643.554	257.25
643.759	261.25
643.964	267.25
644.169	241.25
644.374	253.25
644.579	264.25
644.784	251.25
644.989	259.25
645.194	278.25
645.399	244.25
645.604	247.25
645.809	257.25
646.014	233.25
646.219	255.25
646.423	245.25
646.628	261.25
646.833	248.25
647.038	250.25
647.243	247.25
647.447	253.25
647.652	274.25
647.857	258.25
648.062	274.25
648.266	281.25
648.471	270.25
648.676	275.25
648.88	293.25
649.085	259.25
649.289	247.25
649.494	243.25
649.698	237.25
649.903	251.25
650.107	234.25
650.312	235.25
650.516	233.25
650.721	239.25
650.925	216.25
651.13	229.25
651.334	208.25
651.539	213.25
651.743	209.25
651.947	209.25
652.152	213.25
652.356	203.25
652.56	199.25
652.764	192.25
652.969	198.25
653.173	199.25
653.377	190.25
653.581	191.25
653.785	187.25
653.99	189.25
654.194	182.25
654.398	177.25
654.602	164.25
654.806	161.25
655.01	181.25
655.214	161.25
655.418	165.25
655.622	177.25
655.826	171.25
656.03	164.25
656.234	157.25
656.438	164.25
656.642	153.25
656.846	164.25
657.049	154.25
657.253	152.25
657.457	137.25
657.661	136.25
657.865	138.25
658.068	136.25
658.272	125.25
658.476	115.25
658.68	149.25
658.883	123.25
659.087	117.25
659.291	107.25
659.494	113.25
659.698	109.25
659.901	111.25
660.105	107.25
660.309	102.25
660.512	94.25
660.716	87.25
660.919	101.25
661.123	102.25
661.326	102.25
661.53	108.25
661.733	94.25
661.936	99.25
662.14	97.25
662.343	89.25
662.546	73.25
662.75	87.25
662.953	87.25
663.156	98.25
663.36	99.25
663.563	92.25
663.766	84.25
663.969	73.25
664.173	90.25
664.376	91.25
664.579	86.25
664.782	84.25
664.985	83.25
665.188	85.25
665.391	96.25
665.594	93.25
665.797	78.25
666	82.25
666.203	80.25
666.406	91.25
666.609	84.25
666.812	75.25
667.015	86.25
667.218	90.25
667.421	77.25
667.624	94.25
667.827	82.25
668.03	77.25
668.232	69.25
668.435	94.25
668.638	76.25
668.841	86.25
669.043	76.25
669.246	74.25
669.449	81.25
669.651	82.25
669.854	77.25
670.057	74.25
670.259	77.25
670.462	69.25
670.665	73.25
670.867	80.25
671.07	88.25
671.272	78.25
671.475	71.25
671.677	83.25
671.88	76.25
672.082	94.25
672.284	78.25
672.487	70.25
672.689	91.25
672.892	81.25
