Data from Ni(NO3)2@0.5M.TitratingCurve.Agarose3%dH2O.NegLispCup.LampEnergy10.LIBS07252019_HRD10591_17-59-05-565.txt Node
Date: Thu Jul 25 17:59:05 EDT 2019
User: cochatt
Spectrometer: HR+D1059
Trigger mode: 1
Integration Time (sec): 1.000000E-1
Scans to average: 1
Electric dark correction enabled: true
Nonlinearity correction enabled: false
Boxcar width: 0
XAxis mode: Wavelengths
Number of Pixels in Spectrum: 2048
>>>>>Begin Spectral Data<<<<<
223.165	-25.62
223.4	-25.62
223.635	-25.62
223.869	-10.62
224.104	0.38
224.338	-12.62
224.573	-7.62
224.808	-16.62
225.042	-8.62
225.277	-5.62
225.511	-1.62
225.746	-8.62
225.98	10.38
226.215	-3.62
226.449	13.38
226.683	22.38
226.918	20.38
227.152	34.38
227.387	43.38
227.621	48.38
227.856	46.38
228.09	50.38
228.324	50.38
228.559	56.38
228.793	63.38
229.027	103.38
229.262	118.38
229.496	122.38
229.73	126.38
229.964	128.38
230.199	143.38
230.433	143.38
230.667	147.38
230.901	142.38
231.136	122.38
231.37	129.38
231.604	139.38
231.838	147.38
232.072	154.38
232.306	143.38
232.541	145.38
232.775	134.38
233.009	129.38
233.243	125.38
233.477	124.38
233.711	130.38
233.945	143.38
234.179	133.38
234.413	139.38
234.647	134.38
234.881	138.38
235.115	140.38
235.349	141.38
235.583	133.38
235.817	135.38
236.051	117.38
236.285	126.38
236.519	138.38
236.753	134.38
236.987	141.38
237.221	142.38
237.455	144.38
237.689	140.38
237.922	133.38
238.156	138.38
238.39	145.38
238.624	130.38
238.858	137.38
239.091	124.38
239.325	142.38
239.559	154.38
239.793	143.38
240.027	145.38
240.26	134.38
240.494	127.38
240.728	143.38
240.961	152.38
241.195	154.38
241.429	147.38
241.662	160.38
241.896	165.38
242.13	169.38
242.363	163.38
242.597	144.38
242.83	170.38
243.064	149.38
243.298	153.38
243.531	157.38
243.765	158.38
243.998	162.38
244.232	167.38
244.465	184.38
244.699	174.38
244.932	148.38
245.166	158.38
245.399	171.38
245.633	159.38
245.866	181.38
246.099	167.38
246.333	173.38
246.566	166.38
246.8	170.38
247.033	173.38
247.266	192.38
247.5	161.38
247.733	159.38
247.966	188.38
248.2	170.38
248.433	179.38
248.666	188.38
248.899	175.38
249.133	170.38
249.366	188.38
249.599	178.38
249.832	174.38
250.066	184.38
250.299	186.38
250.532	178.38
250.765	193.38
250.998	200.38
251.231	206.38
251.465	212.38
251.698	195.38
251.931	194.38
252.164	208.38
252.397	208.38
252.63	206.38
252.863	206.38
253.096	189.38
253.329	199.38
253.562	209.38
253.795	210.38
254.028	194.38
254.261	191.38
254.494	198.38
254.727	217.38
254.96	216.38
255.193	201.38
255.426	206.38
255.659	211.38
255.892	210.38
256.124	210.38
256.357	221.38
256.59	244.38
256.823	211.38
257.056	242.38
257.289	214.38
257.521	232.38
257.754	210.38
257.987	218.38
258.22	225.38
258.452	228.38
258.685	213.38
258.918	218.38
259.151	234.38
259.383	221.38
259.616	227.38
259.849	231.38
260.081	239.38
260.314	239.38
260.547	243.38
260.779	242.38
261.012	240.38
261.244	243.38
261.477	249.38
261.71	231.38
261.942	254.38
262.175	250.38
262.407	248.38
262.64	213.38
262.872	255.38
263.105	255.38
263.337	237.38
263.57	247.38
263.802	246.38
264.035	266.38
264.267	251.38
264.499	259.38
264.732	260.38
264.964	250.38
265.197	266.38
265.429	272.38
265.661	243.38
265.894	269.38
266.126	276.38
266.358	262.38
266.591	290.38
266.823	262.38
267.055	260.38
267.287	259.38
267.52	279.38
267.752	266.38
267.984	255.38
268.216	265.38
268.448	287.38
268.681	277.38
268.913	287.38
269.145	259.38
269.377	279.38
269.609	283.38
269.841	297.38
270.073	276.38
270.306	286.38
270.538	270.38
270.77	271.38
271.002	293.38
271.234	292.38
271.466	291.38
271.698	269.38
271.93	274.38
272.162	291.38
272.394	285.38
272.626	290.38
272.858	290.38
273.09	293.38
273.322	288.38
273.553	283.38
273.785	294.38
274.017	304.38
274.249	287.38
274.481	277.38
274.713	301.38
274.945	296.38
275.176	319.38
275.408	297.38
275.64	303.38
275.872	297.38
276.104	299.38
276.335	311.38
276.567	308.38
276.799	317.38
277.031	326.38
277.262	309.38
277.494	320.38
277.726	307.38
277.957	329.38
278.189	315.38
278.421	310.38
278.652	321.38
278.884	320.38
279.115	330.38
279.347	317.38
279.579	332.38
279.81	309.38
280.042	331.38
280.273	326.38
280.505	322.38
280.736	331.38
280.968	325.38
281.199	328.38
281.431	333.38
281.662	335.38
281.894	326.38
282.125	359.38
282.356	343.38
282.588	341.38
282.819	352.38
283.051	344.38
283.282	343.38
283.513	332.38
283.745	336.38
283.976	339.38
284.207	329.38
284.439	347.38
284.67	356.38
284.901	363.38
285.132	360.38
285.364	323.38
285.595	340.38
285.826	339.38
286.057	348.38
286.288	342.38
286.52	354.38
286.751	344.38
286.982	352.38
287.213	352.38
287.444	360.38
287.675	358.38
287.906	353.38
288.138	346.38
288.369	362.38
288.6	381.38
288.831	355.38
289.062	369.38
289.293	365.38
289.524	389.38
289.755	365.38
289.986	363.38
290.217	371.38
290.448	382.38
290.679	374.38
290.91	374.38
291.141	381.38
291.371	363.38
291.602	357.38
291.833	374.38
292.064	383.38
292.295	374.38
292.526	364.38
292.757	370.38
292.987	376.38
293.218	359.38
293.449	384.38
293.68	364.38
293.91	365.38
294.141	380.38
294.372	382.38
294.603	384.38
294.833	379.38
295.064	377.38
295.295	378.38
295.525	389.38
295.756	382.38
295.987	392.38
296.217	377.38
296.448	394.38
296.679	391.38
296.909	390.38
297.14	371.38
297.37	380.38
297.601	394.38
297.831	372.38
298.062	392.38
298.292	387.38
298.523	398.38
298.753	404.38
298.984	386.38
299.214	379.38
299.445	404.38
299.675	391.38
299.905	394.38
300.136	406.38
300.366	392.38
300.597	413.38
300.827	408.38
301.057	436.38
301.288	418.38
301.518	416.38
301.748	406.38
301.979	421.38
302.209	416.38
302.439	416.38
302.669	438.38
302.9	416.38
303.13	410.38
303.36	424.38
303.59	422.38
303.82	422.38
304.051	425.38
304.281	419.38
304.511	431.38
304.741	438.38
304.971	436.38
305.201	445.38
305.431	442.38
305.661	448.38
305.891	423.38
306.121	425.38
306.352	432.38
306.582	440.38
306.812	400.38
307.042	415.38
307.272	415.38
307.502	435.38
307.731	424.38
307.961	426.38
308.191	416.38
308.421	418.38
308.651	424.38
308.881	427.38
309.111	429.38
309.341	427.38
309.571	446.38
309.8	424.38
310.03	453.38
310.26	454.38
310.49	470.38
310.72	449.38
310.949	430.38
311.179	448.38
311.409	431.38
311.639	430.38
311.868	454.38
312.098	441.38
312.328	431.38
312.557	463.38
312.787	446.38
313.017	450.38
313.246	455.38
313.476	483.38
313.706	479.38
313.935	451.38
314.165	461.38
314.394	446.38
314.624	454.38
314.853	448.38
315.083	457.38
315.312	455.38
315.542	455.38
315.771	464.38
316.001	448.38
316.23	472.38
316.46	444.38
316.689	458.38
316.919	464.38
317.148	464.38
317.377	446.38
317.607	462.38
317.836	467.38
318.065	446.38
318.295	459.38
318.524	458.38
318.753	474.38
318.983	457.38
319.212	464.38
319.441	460.38
319.67	469.38
319.9	468.38
320.129	466.38
320.358	471.38
320.587	468.38
320.816	467.38
321.046	479.38
321.275	473.38
321.504	495.38
321.733	496.38
321.962	477.38
322.191	462.38
322.42	504.38
322.649	472.38
322.878	493.38
323.108	498.38
323.337	522.38
323.566	501.38
323.795	505.38
324.024	496.38
324.253	477.38
324.482	507.38
324.71	528.38
324.939	511.38
325.168	523.38
325.397	514.38
325.626	520.38
325.855	492.38
326.084	526.38
326.313	527.38
326.542	511.38
326.77	503.38
326.999	523.38
327.228	515.38
327.457	515.38
327.686	515.38
327.914	504.38
328.143	504.38
328.372	500.38
328.6	509.38
328.829	543.38
329.058	502.38
329.287	523.38
329.515	502.38
329.744	527.38
329.972	532.38
330.201	520.38
330.43	541.38
330.658	537.38
330.887	545.38
331.115	541.38
331.344	564.38
331.572	550.38
331.801	558.38
332.03	553.38
332.258	568.38
332.486	566.38
332.715	563.38
332.943	557.38
333.172	580.38
333.4	598.38
333.629	594.38
333.857	600.38
334.085	601.38
334.314	605.38
334.542	603.38
334.771	603.38
334.999	613.38
335.227	607.38
335.455	617.38
335.684	596.38
335.912	609.38
336.14	605.38
336.369	616.38
336.597	606.38
336.825	603.38
337.053	632.38
337.281	642.38
337.51	618.38
337.738	600.38
337.966	588.38
338.194	613.38
338.422	591.38
338.65	595.38
338.878	567.38
339.106	600.38
339.334	580.38
339.562	577.38
339.79	587.38
340.018	566.38
340.246	574.38
340.474	587.38
340.702	558.38
340.93	555.38
341.158	578.38
341.386	599.38
341.614	607.38
341.842	620.38
342.07	584.38
342.298	598.38
342.526	566.38
342.754	573.38
342.981	566.38
343.209	594.38
343.437	611.38
343.665	590.38
343.893	596.38
344.12	621.38
344.348	606.38
344.576	615.38
344.804	603.38
345.031	603.38
345.259	597.38
345.487	568.38
345.714	584.38
345.942	607.38
346.17	617.38
346.397	597.38
346.625	576.38
346.853	551.38
347.08	578.38
347.308	560.38
347.535	548.38
347.763	558.38
347.99	547.38
348.218	555.38
348.445	574.38
348.673	552.38
348.9	554.38
349.128	548.38
349.355	562.38
349.583	582.38
349.81	540.38
350.037	548.38
350.265	547.38
350.492	565.38
350.72	546.38
350.947	542.38
351.174	581.38
351.402	575.38
351.629	578.38
351.856	568.38
352.083	541.38
352.311	559.38
352.538	610.38
352.765	603.38
352.992	571.38
353.22	543.38
353.447	530.38
353.674	512.38
353.901	525.38
354.128	550.38
354.355	533.38
354.583	553.38
354.81	556.38
355.037	511.38
355.264	541.38
355.491	542.38
355.718	549.38
355.945	535.38
356.172	546.38
356.399	559.38
356.626	564.38
356.853	590.38
357.08	540.38
357.307	528.38
357.534	562.38
357.761	556.38
357.988	534.38
358.215	537.38
358.441	550.38
358.668	523.38
358.895	548.38
359.122	562.38
359.349	542.38
359.576	535.38
359.802	544.38
360.029	536.38
360.256	557.38
360.483	547.38
360.709	562.38
360.936	580.38
361.163	564.38
361.39	539.38
361.616	538.38
361.843	558.38
362.07	575.38
362.296	564.38
362.523	538.38
362.749	542.38
362.976	533.38
363.203	542.38
363.429	534.38
363.656	551.38
363.882	524.38
364.109	536.38
364.335	553.38
364.562	566.38
364.788	533.38
365.015	528.38
365.241	541.38
365.468	552.38
365.694	542.38
365.92	548.38
366.147	539.38
366.373	550.38
366.599	544.38
366.826	554.38
367.052	542.38
367.278	556.38
367.505	567.38
367.731	560.38
367.957	555.38
368.184	524.38
368.41	548.38
368.636	578.38
368.862	541.38
369.089	564.38
369.315	548.38
369.541	558.38
369.767	543.38
369.993	567.38
370.219	558.38
370.445	546.38
370.672	574.38
370.898	564.38
371.124	574.38
371.35	546.38
371.576	581.38
371.802	564.38
372.028	588.38
372.254	593.38
372.48	580.38
372.706	584.38
372.932	581.38
373.158	581.38
373.384	573.38
373.61	591.38
373.835	591.38
374.061	612.38
374.287	575.38
374.513	583.38
374.739	593.38
374.965	605.38
375.191	591.38
375.416	592.38
375.642	577.38
375.868	588.38
376.094	598.38
376.319	590.38
376.545	580.38
376.771	609.38
376.997	562.38
377.222	578.38
377.448	552.38
377.674	576.38
377.899	575.38
378.125	573.38
378.35	584.38
378.576	578.38
378.802	574.38
379.027	569.38
379.253	604.38
379.478	589.38
379.704	565.38
379.929	558.38
380.155	558.38
380.38	582.38
380.606	574.38
380.831	569.38
381.057	559.38
381.282	578.38
381.507	579.38
381.733	572.38
381.958	589.38
382.184	568.38
382.409	585.38
382.634	595.38
382.86	583.38
383.085	588.38
383.31	593.38
383.535	609.38
383.761	597.38
383.986	626.38
384.211	604.38
384.436	602.38
384.662	607.38
384.887	614.38
385.112	624.38
385.337	631.38
385.562	640.38
385.787	642.38
386.013	638.38
386.238	629.38
386.463	640.38
386.688	657.38
386.913	660.38
387.138	631.38
387.363	657.38
387.588	644.38
387.813	627.38
388.038	639.38
388.263	635.38
388.488	671.38
388.713	654.38
388.938	634.38
389.163	672.38
389.387	649.38
389.612	653.38
389.837	668.38
390.062	640.38
390.287	655.38
390.512	648.38
390.736	652.38
390.961	674.38
391.186	667.38
391.411	640.38
391.636	675.38
391.86	701.38
392.085	696.38
392.31	688.38
392.534	684.38
392.759	691.38
392.984	671.38
393.208	684.38
393.433	683.38
393.658	679.38
393.882	676.38
394.107	662.38
394.331	661.38
394.556	654.38
394.78	675.38
395.005	676.38
395.229	680.38
395.454	678.38
395.678	689.38
395.903	682.38
396.127	695.38
396.352	708.38
396.576	659.38
396.801	710.38
397.025	715.38
397.249	719.38
397.474	699.38
397.698	709.38
397.922	735.38
398.147	725.38
398.371	747.38
398.595	735.38
398.82	760.38
399.044	782.38
399.268	814.38
399.492	835.38
399.717	882.38
399.941	874.38
400.165	871.38
400.389	836.38
400.613	822.38
400.837	787.38
401.062	806.38
401.286	772.38
401.51	774.38
401.734	757.38
401.958	775.38
402.182	748.38
402.406	774.38
402.63	786.38
402.854	782.38
403.078	765.38
403.302	774.38
403.526	771.38
403.75	762.38
403.974	772.38
404.198	806.38
404.422	798.38
404.645	779.38
404.869	809.38
405.093	827.38
405.317	783.38
405.541	807.38
405.765	792.38
405.988	839.38
406.212	798.38
406.436	779.38
406.66	840.38
406.883	831.38
407.107	859.38
407.331	880.38
407.555	907.38
407.778	878.38
408.002	875.38
408.226	858.38
408.449	867.38
408.673	890.38
408.896	828.38
409.12	849.38
409.344	857.38
409.567	811.38
409.791	843.38
410.014	837.38
410.238	830.38
410.461	837.38
410.685	834.38
410.908	837.38
411.132	788.38
411.355	806.38
411.578	833.38
411.802	812.38
412.025	798.38
412.249	798.38
412.472	802.38
412.695	815.38
412.919	786.38
413.142	777.38
413.365	822.38
413.589	778.38
413.812	768.38
414.035	772.38
414.258	784.38
414.482	776.38
414.705	775.38
414.928	784.38
415.151	795.38
415.374	792.38
415.597	788.38
415.821	765.38
416.044	783.38
416.267	738.38
416.49	746.38
416.713	759.38
416.936	769.38
417.159	752.38
417.382	751.38
417.605	751.38
417.828	754.38
418.051	763.38
418.274	756.38
418.497	731.38
418.72	757.38
418.943	730.38
419.166	767.38
419.389	862.38
419.611	846.38
419.834	794.38
420.057	772.38
420.28	746.38
420.503	735.38
420.726	719.38
420.948	722.38
421.171	744.38
421.394	743.38
421.617	741.38
421.839	755.38
422.062	759.38
422.285	749.38
422.507	764.38
422.73	754.38
422.953	742.38
423.175	728.38
423.398	776.38
423.621	716.38
423.843	750.38
424.066	758.38
424.288	728.38
424.511	749.38
424.733	752.38
424.956	738.38
425.178	745.38
425.401	733.38
425.623	749.38
425.846	714.38
426.068	741.38
426.291	751.38
426.513	731.38
426.735	739.38
426.958	722.38
427.18	736.38
427.402	741.38
427.625	741.38
427.847	738.38
428.069	728.38
428.292	730.38
428.514	719.38
428.736	724.38
428.958	758.38
429.181	681.38
429.403	714.38
429.625	716.38
429.847	711.38
430.069	694.38
430.292	702.38
430.514	710.38
430.736	715.38
430.958	707.38
431.18	732.38
431.402	721.38
431.624	718.38
431.846	724.38
432.068	695.38
432.29	700.38
432.512	717.38
432.734	734.38
432.956	722.38
433.178	741.38
433.4	746.38
433.622	768.38
433.844	759.38
434.066	732.38
434.287	738.38
434.509	733.38
434.731	737.38
434.953	753.38
435.175	791.38
435.397	787.38
435.618	775.38
435.84	746.38
436.062	730.38
436.284	717.38
436.505	724.38
436.727	728.38
436.949	720.38
437.17	717.38
437.392	735.38
437.614	721.38
437.835	701.38
438.057	681.38
438.278	698.38
438.5	687.38
438.721	698.38
438.943	706.38
439.165	704.38
439.386	708.38
439.608	720.38
439.829	708.38
440.05	708.38
440.272	735.38
440.493	729.38
440.715	732.38
440.936	734.38
441.158	731.38
441.379	738.38
441.6	774.38
441.822	766.38
442.043	770.38
442.264	751.38
442.486	726.38
442.707	770.38
442.928	730.38
443.149	762.38
443.371	766.38
443.592	832.38
443.813	794.38
444.034	770.38
444.255	760.38
444.476	815.38
444.698	818.38
444.919	851.38
445.14	927.38
445.361	852.38
445.582	817.38
445.803	767.38
446.024	721.38
446.245	751.38
446.466	740.38
446.687	728.38
446.908	741.38
447.129	717.38
447.35	695.38
447.571	693.38
447.792	703.38
448.013	677.38
448.234	705.38
448.455	670.38
448.675	692.38
448.896	678.38
449.117	688.38
449.338	659.38
449.559	613.38
449.779	652.38
450	670.38
450.221	685.38
450.442	678.38
450.662	649.38
450.883	672.38
451.104	706.38
451.324	687.38
451.545	654.38
451.766	656.38
451.986	655.38
452.207	646.38
452.428	646.38
452.648	670.38
452.869	672.38
453.089	643.38
453.31	668.38
453.53	666.38
453.751	639.38
453.971	649.38
454.192	647.38
454.412	648.38
454.633	626.38
454.853	644.38
455.073	638.38
455.294	651.38
455.514	648.38
455.734	659.38
455.955	650.38
456.175	667.38
456.395	624.38
456.616	623.38
456.836	630.38
457.056	644.38
457.276	648.38
457.497	650.38
457.717	649.38
457.937	674.38
458.157	647.38
458.377	652.38
458.598	662.38
458.818	705.38
459.038	658.38
459.258	687.38
459.478	742.38
459.698	775.38
459.918	807.38
460.138	780.38
460.358	776.38
460.578	767.38
460.798	784.38
461.018	804.38
461.238	802.38
461.458	796.38
461.678	780.38
461.898	789.38
462.118	776.38
462.338	798.38
462.558	820.38
462.777	832.38
462.997	888.38
463.217	900.38
463.437	928.38
463.657	892.38
463.876	896.38
464.096	848.38
464.316	848.38
464.536	855.38
464.755	859.38
464.975	819.38
465.195	801.38
465.414	790.38
465.634	741.38
465.854	741.38
466.073	720.38
466.293	744.38
466.512	726.38
466.732	706.38
466.951	697.38
467.171	709.38
467.391	715.38
467.61	693.38
467.829	708.38
468.049	712.38
468.268	695.38
468.488	692.38
468.707	703.38
468.927	713.38
469.146	674.38
469.365	712.38
469.585	693.38
469.804	688.38
470.023	692.38
470.243	698.38
470.462	724.38
470.681	695.38
470.901	728.38
471.12	706.38
471.339	708.38
471.558	710.38
471.777	717.38
471.997	684.38
472.216	692.38
472.435	685.38
472.654	666.38
472.873	672.38
473.092	672.38
473.311	668.38
473.53	696.38
473.749	711.38
473.968	686.38
474.187	694.38
474.406	686.38
474.625	680.38
474.844	682.38
475.063	692.38
475.282	679.38
475.501	710.38
475.72	720.38
475.939	695.38
476.158	709.38
476.377	718.38
476.596	707.38
476.814	723.38
477.033	729.38
477.252	776.38
477.471	749.38
477.69	771.38
477.908	770.38
478.127	795.38
478.346	762.38
478.564	772.38
478.783	768.38
479.002	798.38
479.22	849.38
479.439	851.38
479.658	810.38
479.876	803.38
480.095	799.38
480.313	799.38
480.532	812.38
480.751	815.38
480.969	806.38
481.188	799.38
481.406	792.38
481.624	798.38
481.843	810.38
482.061	798.38
482.28	785.38
482.498	802.38
482.717	770.38
482.935	779.38
483.153	788.38
483.372	803.38
483.59	838.38
483.808	793.38
484.027	792.38
484.245	828.38
484.463	807.38
484.681	825.38
484.9	812.38
485.118	772.38
485.336	796.38
485.554	792.38
485.772	828.38
485.99	813.38
486.209	802.38
486.427	856.38
486.645	842.38
486.863	826.38
487.081	820.38
487.299	800.38
487.517	822.38
487.735	836.38
487.953	853.38
488.171	812.38
488.389	842.38
488.607	821.38
488.825	834.38
489.043	790.38
489.261	791.38
489.479	824.38
489.696	813.38
489.914	803.38
490.132	818.38
490.35	813.38
490.568	803.38
490.786	817.38
491.003	847.38
491.221	858.38
491.439	842.38
491.657	833.38
491.874	870.38
492.092	873.38
492.31	855.38
492.527	826.38
492.745	878.38
492.963	849.38
493.18	846.38
493.398	837.38
493.615	908.38
493.833	884.38
494.05	879.38
494.268	871.38
494.485	875.38
494.703	859.38
494.92	894.38
495.138	883.38
495.355	896.38
495.573	886.38
495.79	874.38
496.008	878.38
496.225	872.38
496.442	889.38
496.66	918.38
496.877	932.38
497.094	930.38
497.312	949.38
497.529	923.38
497.746	975.38
497.963	977.38
498.181	1039.38
498.398	1038.38
498.615	1034.38
498.832	1077.38
499.049	1126.38
499.267	1168.38
499.484	1201.38
499.701	1258.38
499.918	1346.38
500.135	1438.38
500.352	1464.38
500.569	1495.38
500.786	1484.38
501.003	1477.38
501.22	1396.38
501.437	1355.38
501.654	1244.38
501.871	1201.38
502.088	1150.38
502.305	1126.38
502.522	1089.38
502.739	1038.38
502.956	1041.38
503.172	982.38
503.389	1020.38
503.606	986.38
503.823	944.38
504.04	927.38
504.256	929.38
504.473	886.38
504.69	891.38
504.907	907.38
505.123	870.38
505.34	840.38
505.557	828.38
505.773	856.38
505.99	824.38
506.207	801.38
506.423	803.38
506.64	796.38
506.856	763.38
507.073	777.38
507.289	748.38
507.506	782.38
507.722	762.38
507.939	750.38
508.155	742.38
508.372	734.38
508.588	733.38
508.805	730.38
509.021	741.38
509.238	712.38
509.454	714.38
509.67	723.38
509.887	714.38
510.103	709.38
510.319	695.38
510.536	719.38
510.752	677.38
510.968	698.38
511.184	692.38
511.401	696.38
511.617	674.38
511.833	694.38
512.049	687.38
512.265	703.38
512.481	699.38
512.698	700.38
512.914	708.38
513.13	710.38
513.346	700.38
513.562	694.38
513.778	674.38
513.994	692.38
514.21	694.38
514.426	674.38
514.642	680.38
514.858	724.38
515.074	696.38
515.29	699.38
515.506	716.38
515.721	712.38
515.937	732.38
516.153	697.38
516.369	720.38
516.585	733.38
516.801	739.38
517.016	749.38
517.232	776.38
517.448	758.38
517.664	813.38
517.879	776.38
518.095	805.38
518.311	787.38
518.527	759.38
518.742	740.38
518.958	739.38
519.173	692.38
519.389	731.38
519.605	734.38
519.82	727.38
520.036	704.38
520.251	687.38
520.467	693.38
520.682	672.38
520.898	674.38
521.113	687.38
521.329	680.38
521.544	661.38
521.76	655.38
521.975	653.38
522.19	641.38
522.406	683.38
522.621	668.38
522.836	655.38
523.052	645.38
523.267	647.38
523.482	613.38
523.698	632.38
523.913	652.38
524.128	646.38
524.343	631.38
524.559	623.38
524.774	617.38
524.989	615.38
525.204	610.38
525.419	639.38
525.634	605.38
525.849	598.38
526.064	629.38
526.28	626.38
526.495	634.38
526.71	591.38
526.925	596.38
527.14	611.38
527.355	624.38
527.57	610.38
527.785	596.38
527.999	604.38
528.214	624.38
528.429	627.38
528.644	636.38
528.859	613.38
529.074	618.38
529.289	635.38
529.503	612.38
529.718	590.38
529.933	628.38
530.148	630.38
530.363	617.38
530.577	597.38
530.792	604.38
531.007	616.38
531.221	601.38
531.436	605.38
531.651	606.38
531.865	589.38
532.08	576.38
532.295	589.38
532.509	607.38
532.724	617.38
532.938	583.38
533.153	597.38
533.367	607.38
533.582	577.38
533.796	611.38
534.011	587.38
534.225	584.38
534.44	601.38
534.654	591.38
534.868	605.38
535.083	575.38
535.297	602.38
535.511	592.38
535.726	594.38
535.94	580.38
536.154	568.38
536.369	587.38
536.583	553.38
536.797	544.38
537.011	548.38
537.225	559.38
537.44	561.38
537.654	560.38
537.868	556.38
538.082	553.38
538.296	580.38
538.51	534.38
538.724	570.38
538.938	560.38
539.153	558.38
539.367	531.38
539.581	556.38
539.795	542.38
540.009	545.38
540.222	522.38
540.436	565.38
540.65	546.38
540.864	538.38
541.078	570.38
541.292	561.38
541.506	560.38
541.72	569.38
541.934	574.38
542.147	569.38
542.361	559.38
542.575	530.38
542.789	557.38
543.002	561.38
543.216	573.38
543.43	551.38
543.644	552.38
543.857	556.38
544.071	557.38
544.285	545.38
544.498	561.38
544.712	561.38
544.925	555.38
545.139	551.38
545.352	572.38
545.566	559.38
545.779	552.38
545.993	573.38
546.206	563.38
546.42	565.38
546.633	555.38
546.847	562.38
547.06	568.38
547.274	555.38
547.487	549.38
547.7	546.38
547.914	562.38
548.127	562.38
548.34	565.38
548.554	540.38
548.767	551.38
548.98	566.38
549.193	550.38
549.407	553.38
549.62	549.38
549.833	575.38
550.046	550.38
550.259	566.38
550.473	559.38
550.686	572.38
550.899	563.38
551.112	542.38
551.325	541.38
551.538	538.38
551.751	541.38
551.964	528.38
552.177	544.38
552.39	539.38
552.603	571.38
552.816	554.38
553.029	550.38
553.242	576.38
553.455	563.38
553.667	559.38
553.88	560.38
554.093	557.38
554.306	547.38
554.519	526.38
554.732	533.38
554.944	518.38
555.157	540.38
555.37	505.38
555.583	484.38
555.795	478.38
556.008	522.38
556.221	499.38
556.433	501.38
556.646	473.38
556.859	494.38
557.071	493.38
557.284	493.38
557.496	485.38
557.709	512.38
557.921	466.38
558.134	485.38
558.346	479.38
558.559	486.38
558.771	470.38
558.984	467.38
559.196	481.38
559.409	472.38
559.621	475.38
559.833	493.38
560.046	474.38
560.258	461.38
560.47	475.38
560.683	474.38
560.895	465.38
561.107	456.38
561.32	477.38
561.532	470.38
561.744	452.38
561.956	480.38
562.168	487.38
562.381	471.38
562.593	469.38
562.805	466.38
563.017	472.38
563.229	476.38
563.441	470.38
563.653	453.38
563.865	453.38
564.077	495.38
564.289	444.38
564.501	465.38
564.713	495.38
564.925	492.38
565.137	487.38
565.349	508.38
565.561	490.38
565.773	512.38
565.985	498.38
566.197	528.38
566.408	549.38
566.62	544.38
566.832	584.38
567.044	581.38
567.255	582.38
567.467	569.38
567.679	587.38
567.891	613.38
568.102	592.38
568.314	574.38
568.526	551.38
568.737	546.38
568.949	523.38
569.161	505.38
569.372	502.38
569.584	475.38
569.795	450.38
570.007	466.38
570.218	435.38
570.43	457.38
570.641	446.38
570.853	445.38
571.064	431.38
571.276	426.38
571.487	448.38
571.698	439.38
571.91	429.38
572.121	414.38
572.333	420.38
572.544	399.38
572.755	382.38
572.966	397.38
573.178	384.38
573.389	400.38
573.6	378.38
573.811	388.38
574.023	372.38
574.234	382.38
574.445	379.38
574.656	381.38
574.867	386.38
575.078	374.38
575.289	374.38
575.501	386.38
575.712	363.38
575.923	344.38
576.134	358.38
576.345	370.38
576.556	379.38
576.767	375.38
576.978	342.38
577.188	350.38
577.399	350.38
577.61	346.38
577.821	379.38
578.032	334.38
578.243	336.38
578.454	359.38
578.665	372.38
578.875	331.38
579.086	346.38
579.297	330.38
579.508	338.38
579.718	329.38
579.929	344.38
580.14	328.38
580.35	345.38
580.561	328.38
580.772	332.38
580.982	334.38
581.193	341.38
581.403	332.38
581.614	333.38
581.825	334.38
582.035	341.38
582.246	320.38
582.456	327.38
582.667	330.38
582.877	332.38
583.087	322.38
583.298	315.38
583.508	310.38
583.719	325.38
583.929	322.38
584.139	326.38
584.35	300.38
584.56	310.38
584.77	335.38
584.981	319.38
585.191	326.38
585.401	310.38
585.611	336.38
585.821	324.38
586.032	299.38
586.242	316.38
586.452	325.38
586.662	332.38
586.872	318.38
587.082	318.38
587.292	296.38
587.502	309.38
587.713	321.38
587.923	316.38
588.133	321.38
588.343	311.38
588.553	333.38
588.762	293.38
588.972	326.38
589.182	329.38
589.392	343.38
589.602	324.38
589.812	329.38
590.022	318.38
590.232	303.38
590.441	302.38
590.651	308.38
590.861	315.38
591.071	295.38
591.281	298.38
591.49	326.38
591.7	319.38
591.91	325.38
592.119	338.38
592.329	319.38
592.539	341.38
592.748	319.38
592.958	322.38
593.167	342.38
593.377	338.38
593.587	322.38
593.796	334.38
594.006	331.38
594.215	348.38
594.424	324.38
594.634	318.38
594.843	331.38
595.053	319.38
595.262	332.38
595.472	306.38
595.681	303.38
595.89	310.38
596.1	322.38
596.309	306.38
596.518	301.38
596.727	302.38
596.937	310.38
597.146	277.38
597.355	279.38
597.564	301.38
597.774	290.38
597.983	278.38
598.192	270.38
598.401	279.38
598.61	283.38
598.819	267.38
599.028	284.38
599.237	277.38
599.446	247.38
599.655	281.38
599.864	276.38
600.073	267.38
600.282	256.38
600.491	285.38
600.7	268.38
600.909	261.38
601.118	262.38
601.327	265.38
601.536	265.38
601.745	266.38
601.953	267.38
602.162	250.38
602.371	263.38
602.58	273.38
602.789	278.38
602.997	271.38
603.206	264.38
603.415	261.38
603.623	266.38
603.832	269.38
604.041	251.38
604.249	249.38
604.458	243.38
604.666	238.38
604.875	246.38
605.084	254.38
605.292	250.38
605.501	254.38
605.709	251.38
605.918	243.38
606.126	236.38
606.334	252.38
606.543	252.38
606.751	254.38
606.96	247.38
607.168	247.38
607.376	241.38
607.585	235.38
607.793	264.38
608.001	235.38
608.21	254.38
608.418	235.38
608.626	236.38
608.834	244.38
609.043	233.38
609.251	242.38
609.459	226.38
609.667	242.38
609.875	240.38
610.083	242.38
610.291	258.38
610.499	236.38
610.707	250.38
610.916	232.38
611.124	231.38
611.332	260.38
611.54	255.38
611.748	238.38
611.955	239.38
612.163	246.38
612.371	236.38
612.579	223.38
612.787	236.38
612.995	244.38
613.203	269.38
613.411	235.38
613.618	240.38
613.826	250.38
614.034	246.38
614.242	264.38
614.449	249.38
614.657	235.38
614.865	229.38
615.072	222.38
615.28	224.38
615.488	220.38
615.695	240.38
615.903	235.38
616.111	239.38
616.318	238.38
616.526	238.38
616.733	241.38
616.941	237.38
617.148	225.38
617.356	247.38
617.563	220.38
617.771	240.38
617.978	240.38
618.185	224.38
618.393	221.38
618.6	219.38
618.807	211.38
619.015	237.38
619.222	220.38
619.429	228.38
619.637	234.38
619.844	222.38
620.051	227.38
620.258	211.38
620.466	221.38
620.673	215.38
620.88	233.38
621.087	227.38
621.294	221.38
621.501	226.38
621.708	230.38
621.915	218.38
622.122	209.38
622.329	218.38
622.536	218.38
622.743	200.38
622.95	226.38
623.157	212.38
623.364	203.38
623.571	231.38
623.778	221.38
623.985	228.38
624.192	219.38
624.399	220.38
624.606	216.38
624.812	214.38
625.019	204.38
625.226	208.38
625.433	214.38
625.639	222.38
625.846	222.38
626.053	219.38
626.259	200.38
626.466	208.38
626.673	198.38
626.879	208.38
627.086	203.38
627.293	201.38
627.499	207.38
627.706	210.38
627.912	191.38
628.119	201.38
628.325	206.38
628.532	206.38
628.738	188.38
628.945	200.38
629.151	202.38
629.357	197.38
629.564	182.38
629.77	194.38
629.976	191.38
630.183	186.38
630.389	187.38
630.595	204.38
630.802	186.38
631.008	190.38
631.214	188.38
631.42	199.38
631.627	200.38
631.833	179.38
632.039	179.38
632.245	174.38
632.451	192.38
632.657	200.38
632.863	201.38
633.069	192.38
633.275	185.38
633.481	187.38
633.688	195.38
633.893	184.38
634.099	178.38
634.305	181.38
634.511	173.38
634.717	196.38
634.923	183.38
635.129	177.38
635.335	171.38
635.541	178.38
635.747	194.38
635.952	198.38
636.158	182.38
636.364	175.38
636.57	184.38
636.775	198.38
636.981	196.38
637.187	210.38
637.392	185.38
637.598	195.38
637.804	179.38
638.009	197.38
638.215	196.38
638.421	181.38
638.626	176.38
638.832	182.38
639.037	196.38
639.243	190.38
639.448	192.38
639.654	174.38
639.859	174.38
640.065	203.38
640.27	182.38
640.475	204.38
640.681	183.38
640.886	190.38
641.091	167.38
641.297	194.38
641.502	187.38
641.707	166.38
641.913	193.38
642.118	184.38
642.323	170.38
642.528	190.38
642.733	192.38
642.939	191.38
643.144	183.38
643.349	165.38
643.554	183.38
643.759	181.38
643.964	165.38
644.169	164.38
644.374	183.38
644.579	174.38
644.784	180.38
644.989	199.38
645.194	179.38
645.399	178.38
645.604	188.38
645.809	193.38
646.014	180.38
646.219	178.38
646.423	180.38
646.628	194.38
646.833	191.38
647.038	174.38
647.243	190.38
647.447	184.38
647.652	183.38
647.857	189.38
648.062	178.38
648.266	187.38
648.471	196.38
648.676	188.38
648.88	189.38
649.085	193.38
649.289	186.38
649.494	182.38
649.698	187.38
649.903	196.38
650.107	167.38
650.312	178.38
650.516	177.38
650.721	194.38
650.925	175.38
651.13	186.38
651.334	162.38
651.539	171.38
651.743	174.38
651.947	174.38
652.152	190.38
652.356	178.38
652.56	162.38
652.764	166.38
652.969	172.38
653.173	171.38
653.377	187.38
653.581	165.38
653.785	167.38
653.99	156.38
654.194	149.38
654.398	166.38
654.602	172.38
654.806	176.38
655.01	164.38
655.214	168.38
655.418	172.38
655.622	160.38
655.826	156.38
656.03	154.38
656.234	159.38
656.438	167.38
656.642	165.38
656.846	158.38
657.049	160.38
657.253	160.38
657.457	143.38
657.661	152.38
657.865	139.38
658.068	137.38
658.272	134.38
658.476	136.38
658.68	134.38
658.883	112.38
659.087	130.38
659.291	125.38
659.494	124.38
659.698	121.38
659.901	102.38
660.105	120.38
660.309	106.38
660.512	107.38
660.716	106.38
660.919	108.38
661.123	109.38
661.326	100.38
661.53	106.38
661.733	94.38
661.936	97.38
662.14	80.38
662.343	88.38
662.546	86.38
662.75	81.38
662.953	92.38
663.156	85.38
663.36	92.38
663.563	79.38
663.766	91.38
663.969	77.38
664.173	84.38
664.376	87.38
664.579	78.38
664.782	77.38
664.985	86.38
665.188	80.38
665.391	89.38
665.594	92.38
665.797	84.38
666	80.38
666.203	83.38
666.406	100.38
666.609	88.38
666.812	92.38
667.015	87.38
667.218	85.38
667.421	88.38
667.624	87.38
667.827	79.38
668.03	84.38
668.232	73.38
668.435	78.38
668.638	78.38
668.841	98.38
669.043	84.38
669.246	86.38
669.449	79.38
669.651	100.38
669.854	78.38
670.057	63.38
670.259	90.38
670.462	87.38
670.665	74.38
670.867	72.38
671.07	102.38
671.272	92.38
671.475	89.38
671.677	95.38
671.88	89.38
672.082	80.38
672.284	87.38
672.487	79.38
672.689	101.38
672.892	79.38
