Data from Ni(NO3)2@0.5M.TitratingCurve.Agarose3%dH2O.NegLispCup.LampEnergy10.LIBS07252019_HRD10591_17-57-49-564.txt Node
Date: Thu Jul 25 17:57:49 EDT 2019
User: cochatt
Spectrometer: HR+D1059
Trigger mode: 1
Integration Time (sec): 1.000000E-1
Scans to average: 1
Electric dark correction enabled: true
Nonlinearity correction enabled: false
Boxcar width: 0
XAxis mode: Wavelengths
Number of Pixels in Spectrum: 2048
>>>>>Begin Spectral Data<<<<<
223.165	-22.31
223.4	-22.31
223.635	-22.31
223.869	-20.31
224.104	-23.31
224.338	-24.31
224.573	-17.31
224.808	-15.31
225.042	7.69
225.277	3.69
225.511	-2.31
225.746	-0.31
225.98	8.69
226.215	4.69
226.449	25.69
226.683	23.69
226.918	25.69
227.152	25.69
227.387	33.69
227.621	49.69
227.856	28.69
228.09	52.69
228.324	44.69
228.559	51.69
228.793	67.69
229.027	96.69
229.262	116.69
229.496	116.69
229.73	122.69
229.964	132.69
230.199	149.69
230.433	162.69
230.667	155.69
230.901	139.69
231.136	146.69
231.37	133.69
231.604	151.69
231.838	163.69
232.072	171.69
232.306	155.69
232.541	156.69
232.775	137.69
233.009	133.69
233.243	131.69
233.477	144.69
233.711	153.69
233.945	146.69
234.179	135.69
234.413	138.69
234.647	158.69
234.881	165.69
235.115	163.69
235.349	140.69
235.583	147.69
235.817	147.69
236.051	137.69
236.285	124.69
236.519	129.69
236.753	148.69
236.987	159.69
237.221	140.69
237.455	132.69
237.689	151.69
237.922	153.69
238.156	147.69
238.39	150.69
238.624	146.69
238.858	160.69
239.091	160.69
239.325	159.69
239.559	161.69
239.793	196.69
240.027	165.69
240.26	154.69
240.494	152.69
240.728	145.69
240.961	146.69
241.195	164.69
241.429	148.69
241.662	171.69
241.896	186.69
242.13	188.69
242.363	179.69
242.597	177.69
242.83	183.69
243.064	169.69
243.298	188.69
243.531	164.69
243.765	181.69
243.998	171.69
244.232	183.69
244.465	180.69
244.699	189.69
244.932	180.69
245.166	170.69
245.399	190.69
245.633	188.69
245.866	183.69
246.099	201.69
246.333	185.69
246.566	200.69
246.8	201.69
247.033	195.69
247.266	181.69
247.5	180.69
247.733	203.69
247.966	197.69
248.2	187.69
248.433	181.69
248.666	204.69
248.899	217.69
249.133	201.69
249.366	209.69
249.599	225.69
249.832	206.69
250.066	230.69
250.299	211.69
250.532	217.69
250.765	232.69
250.998	236.69
251.231	239.69
251.465	255.69
251.698	249.69
251.931	244.69
252.164	248.69
252.397	248.69
252.63	234.69
252.863	240.69
253.096	240.69
253.329	255.69
253.562	254.69
253.795	255.69
254.028	260.69
254.261	266.69
254.494	259.69
254.727	258.69
254.96	253.69
255.193	255.69
255.426	291.69
255.659	250.69
255.892	283.69
256.124	275.69
256.357	285.69
256.59	274.69
256.823	266.69
257.056	282.69
257.289	283.69
257.521	279.69
257.754	298.69
257.987	275.69
258.22	276.69
258.452	293.69
258.685	284.69
258.918	296.69
259.151	315.69
259.383	296.69
259.616	287.69
259.849	287.69
260.081	313.69
260.314	297.69
260.547	327.69
260.779	306.69
261.012	309.69
261.244	324.69
261.477	327.69
261.71	312.69
261.942	327.69
262.175	304.69
262.407	338.69
262.64	291.69
262.872	332.69
263.105	340.69
263.337	341.69
263.57	329.69
263.802	341.69
264.035	335.69
264.267	335.69
264.499	331.69
264.732	344.69
264.964	355.69
265.197	353.69
265.429	337.69
265.661	336.69
265.894	349.69
266.126	360.69
266.358	344.69
266.591	339.69
266.823	344.69
267.055	353.69
267.287	350.69
267.52	358.69
267.752	362.69
267.984	376.69
268.216	358.69
268.448	375.69
268.681	359.69
268.913	373.69
269.145	362.69
269.377	373.69
269.609	351.69
269.841	353.69
270.073	388.69
270.306	352.69
270.538	363.69
270.77	357.69
271.002	371.69
271.234	368.69
271.466	373.69
271.698	388.69
271.93	372.69
272.162	368.69
272.394	376.69
272.626	399.69
272.858	376.69
273.09	385.69
273.322	397.69
273.553	399.69
273.785	391.69
274.017	390.69
274.249	390.69
274.481	415.69
274.713	410.69
274.945	401.69
275.176	383.69
275.408	423.69
275.64	411.69
275.872	401.69
276.104	379.69
276.335	416.69
276.567	403.69
276.799	401.69
277.031	402.69
277.262	415.69
277.494	407.69
277.726	408.69
277.957	416.69
278.189	404.69
278.421	412.69
278.652	425.69
278.884	432.69
279.115	423.69
279.347	409.69
279.579	417.69
279.81	433.69
280.042	435.69
280.273	427.69
280.505	420.69
280.736	451.69
280.968	415.69
281.199	450.69
281.431	410.69
281.662	447.69
281.894	459.69
282.125	445.69
282.356	452.69
282.588	445.69
282.819	422.69
283.051	437.69
283.282	449.69
283.513	448.69
283.745	440.69
283.976	469.69
284.207	439.69
284.439	459.69
284.67	459.69
284.901	442.69
285.132	449.69
285.364	441.69
285.595	439.69
285.826	456.69
286.057	471.69
286.288	461.69
286.52	447.69
286.751	454.69
286.982	471.69
287.213	473.69
287.444	458.69
287.675	483.69
287.906	463.69
288.138	463.69
288.369	456.69
288.6	459.69
288.831	466.69
289.062	463.69
289.293	488.69
289.524	483.69
289.755	478.69
289.986	451.69
290.217	474.69
290.448	455.69
290.679	482.69
290.91	472.69
291.141	507.69
291.371	476.69
291.602	480.69
291.833	470.69
292.064	478.69
292.295	479.69
292.526	477.69
292.757	476.69
292.987	468.69
293.218	465.69
293.449	507.69
293.68	481.69
293.91	468.69
294.141	482.69
294.372	475.69
294.603	489.69
294.833	501.69
295.064	511.69
295.295	499.69
295.525	478.69
295.756	485.69
295.987	483.69
296.217	493.69
296.448	485.69
296.679	500.69
296.909	484.69
297.14	497.69
297.37	498.69
297.601	503.69
297.831	523.69
298.062	505.69
298.292	503.69
298.523	518.69
298.753	522.69
298.984	514.69
299.214	534.69
299.445	536.69
299.675	524.69
299.905	514.69
300.136	550.69
300.366	555.69
300.597	578.69
300.827	553.69
301.057	542.69
301.288	555.69
301.518	550.69
301.748	539.69
301.979	569.69
302.209	531.69
302.439	544.69
302.669	534.69
302.9	541.69
303.13	563.69
303.36	551.69
303.59	539.69
303.82	524.69
304.051	565.69
304.281	555.69
304.511	531.69
304.741	550.69
304.971	573.69
305.201	578.69
305.431	579.69
305.661	593.69
305.891	583.69
306.121	564.69
306.352	566.69
306.582	544.69
306.812	564.69
307.042	580.69
307.272	547.69
307.502	537.69
307.731	557.69
307.961	565.69
308.191	588.69
308.421	547.69
308.651	559.69
308.881	562.69
309.111	577.69
309.341	553.69
309.571	588.69
309.8	607.69
310.03	604.69
310.26	599.69
310.49	597.69
310.72	575.69
310.949	578.69
311.179	614.69
311.409	589.69
311.639	586.69
311.868	603.69
312.098	597.69
312.328	614.69
312.557	605.69
312.787	605.69
313.017	621.69
313.246	624.69
313.476	651.69
313.706	641.69
313.935	610.69
314.165	623.69
314.394	615.69
314.624	645.69
314.853	619.69
315.083	631.69
315.312	647.69
315.542	640.69
315.771	669.69
316.001	627.69
316.23	653.69
316.46	641.69
316.689	663.69
316.919	655.69
317.148	643.69
317.377	662.69
317.607	666.69
317.836	641.69
318.065	661.69
318.295	673.69
318.524	687.69
318.753	661.69
318.983	658.69
319.212	658.69
319.441	646.69
319.67	687.69
319.9	671.69
320.129	692.69
320.358	700.69
320.587	697.69
320.816	703.69
321.046	694.69
321.275	696.69
321.504	708.69
321.733	684.69
321.962	714.69
322.191	712.69
322.42	734.69
322.649	723.69
322.878	740.69
323.108	720.69
323.337	734.69
323.566	739.69
323.795	715.69
324.024	711.69
324.253	735.69
324.482	753.69
324.71	743.69
324.939	735.69
325.168	751.69
325.397	756.69
325.626	748.69
325.855	752.69
326.084	761.69
326.313	769.69
326.542	778.69
326.77	760.69
326.999	770.69
327.228	788.69
327.457	774.69
327.686	779.69
327.914	767.69
328.143	796.69
328.372	763.69
328.6	775.69
328.829	780.69
329.058	771.69
329.287	783.69
329.515	799.69
329.744	801.69
329.972	790.69
330.201	791.69
330.43	805.69
330.658	788.69
330.887	802.69
331.115	806.69
331.344	819.69
331.572	823.69
331.801	809.69
332.03	864.69
332.258	810.69
332.486	835.69
332.715	829.69
332.943	829.69
333.172	845.69
333.4	881.69
333.629	883.69
333.857	865.69
334.085	881.69
334.314	867.69
334.542	890.69
334.771	903.69
334.999	881.69
335.227	906.69
335.455	879.69
335.684	895.69
335.912	914.69
336.14	895.69
336.369	893.69
336.597	911.69
336.825	927.69
337.053	915.69
337.281	915.69
337.51	909.69
337.738	877.69
337.966	908.69
338.194	923.69
338.422	908.69
338.65	877.69
338.878	895.69
339.106	853.69
339.334	890.69
339.562	895.69
339.79	862.69
340.018	867.69
340.246	853.69
340.474	857.69
340.702	862.69
340.93	857.69
341.158	873.69
341.386	876.69
341.614	919.69
341.842	871.69
342.07	862.69
342.298	859.69
342.526	861.69
342.754	873.69
342.981	867.69
343.209	873.69
343.437	902.69
343.665	909.69
343.893	909.69
344.12	925.69
344.348	903.69
344.576	930.69
344.804	939.69
345.031	898.69
345.259	862.69
345.487	857.69
345.714	891.69
345.942	905.69
346.17	906.69
346.397	871.69
346.625	892.69
346.853	847.69
347.08	846.69
347.308	842.69
347.535	850.69
347.763	854.69
347.99	839.69
348.218	846.69
348.445	859.69
348.673	836.69
348.9	820.69
349.128	866.69
349.355	846.69
349.583	857.69
349.81	872.69
350.037	844.69
350.265	828.69
350.492	839.69
350.72	844.69
350.947	868.69
351.174	882.69
351.402	907.69
351.629	876.69
351.856	869.69
352.083	828.69
352.311	841.69
352.538	907.69
352.765	888.69
352.992	800.69
353.22	802.69
353.447	824.69
353.674	822.69
353.901	831.69
354.128	811.69
354.355	813.69
354.583	812.69
354.81	823.69
355.037	822.69
355.264	819.69
355.491	829.69
355.718	786.69
355.945	824.69
356.172	827.69
356.399	817.69
356.626	883.69
356.853	860.69
357.08	855.69
357.307	839.69
357.534	815.69
357.761	828.69
357.988	818.69
358.215	847.69
358.441	796.69
358.668	828.69
358.895	848.69
359.122	811.69
359.349	804.69
359.576	845.69
359.802	837.69
360.029	835.69
360.256	826.69
360.483	822.69
360.709	814.69
360.936	845.69
361.163	848.69
361.39	832.69
361.616	853.69
361.843	878.69
362.07	899.69
362.296	893.69
362.523	831.69
362.749	849.69
362.976	835.69
363.203	823.69
363.429	840.69
363.656	868.69
363.882	822.69
364.109	831.69
364.335	846.69
364.562	832.69
364.788	837.69
365.015	845.69
365.241	811.69
365.468	793.69
365.694	817.69
365.92	850.69
366.147	831.69
366.373	840.69
366.599	816.69
366.826	835.69
367.052	813.69
367.278	840.69
367.505	853.69
367.731	866.69
367.957	869.69
368.184	845.69
368.41	831.69
368.636	857.69
368.862	852.69
369.089	853.69
369.315	850.69
369.541	837.69
369.767	873.69
369.993	837.69
370.219	834.69
370.445	857.69
370.672	831.69
370.898	848.69
371.124	836.69
371.35	851.69
371.576	881.69
371.802	895.69
372.028	885.69
372.254	863.69
372.48	866.69
372.706	854.69
372.932	858.69
373.158	905.69
373.384	861.69
373.61	865.69
373.835	892.69
374.061	865.69
374.287	886.69
374.513	873.69
374.739	846.69
374.965	891.69
375.191	876.69
375.416	873.69
375.642	875.69
375.868	857.69
376.094	888.69
376.319	867.69
376.545	855.69
376.771	834.69
376.997	835.69
377.222	840.69
377.448	833.69
377.674	854.69
377.899	833.69
378.125	829.69
378.35	855.69
378.576	843.69
378.802	826.69
379.027	828.69
379.253	833.69
379.478	851.69
379.704	852.69
379.929	866.69
380.155	828.69
380.38	873.69
380.606	849.69
380.831	843.69
381.057	867.69
381.282	844.69
381.507	848.69
381.733	866.69
381.958	854.69
382.184	830.69
382.409	839.69
382.634	860.69
382.86	840.69
383.085	884.69
383.31	862.69
383.535	897.69
383.761	874.69
383.986	857.69
384.211	876.69
384.436	886.69
384.662	873.69
384.887	850.69
385.112	891.69
385.337	911.69
385.562	929.69
385.787	928.69
386.013	917.69
386.238	954.69
386.463	923.69
386.688	909.69
386.913	901.69
387.138	894.69
387.363	923.69
387.588	927.69
387.813	938.69
388.038	911.69
388.263	917.69
388.488	908.69
388.713	921.69
388.938	921.69
389.163	919.69
389.387	944.69
389.612	954.69
389.837	951.69
390.062	933.69
390.287	957.69
390.512	924.69
390.736	925.69
390.961	937.69
391.186	896.69
391.411	937.69
391.636	955.69
391.86	972.69
392.085	968.69
392.31	964.69
392.534	960.69
392.759	957.69
392.984	955.69
393.208	966.69
393.433	987.69
393.658	949.69
393.882	938.69
394.107	947.69
394.331	940.69
394.556	933.69
394.78	930.69
395.005	926.69
395.229	972.69
395.454	982.69
395.678	965.69
395.903	1000.69
396.127	988.69
396.352	962.69
396.576	962.69
396.801	985.69
397.025	990.69
397.249	991.69
397.474	987.69
397.698	1008.69
397.922	1021.69
398.147	1011.69
398.371	1036.69
398.595	1049.69
398.82	1045.69
399.044	1056.69
399.268	1119.69
399.492	1085.69
399.717	1140.69
399.941	1173.69
400.165	1175.69
400.389	1123.69
400.613	1114.69
400.837	1099.69
401.062	1057.69
401.286	1078.69
401.51	1061.69
401.734	1048.69
401.958	1063.69
402.182	1079.69
402.406	1047.69
402.63	1053.69
402.854	1071.69
403.078	1043.69
403.302	1069.69
403.526	1088.69
403.75	1075.69
403.974	1097.69
404.198	1053.69
404.422	1074.69
404.645	1083.69
404.869	1079.69
405.093	1088.69
405.317	1045.69
405.541	1093.69
405.765	1096.69
405.988	1073.69
406.212	1110.69
406.436	1105.69
406.66	1118.69
406.883	1149.69
407.107	1121.69
407.331	1142.69
407.555	1197.69
407.778	1153.69
408.002	1160.69
408.226	1171.69
408.449	1169.69
408.673	1136.69
408.896	1135.69
409.12	1119.69
409.344	1105.69
409.567	1120.69
409.791	1135.69
410.014	1135.69
410.238	1138.69
410.461	1101.69
410.685	1138.69
410.908	1081.69
411.132	1077.69
411.355	1080.69
411.578	1101.69
411.802	1087.69
412.025	1092.69
412.249	1093.69
412.472	1082.69
412.695	1077.69
412.919	1076.69
413.142	1061.69
413.365	1085.69
413.589	1100.69
413.812	1045.69
414.035	1078.69
414.258	1070.69
414.482	1077.69
414.705	1064.69
414.928	1061.69
415.151	1055.69
415.374	1071.69
415.597	1061.69
415.821	1033.69
416.044	1036.69
416.267	1032.69
416.49	1058.69
416.713	1038.69
416.936	1009.69
417.159	1020.69
417.382	1042.69
417.605	1053.69
417.828	1068.69
418.051	1039.69
418.274	1038.69
418.497	1047.69
418.72	1072.69
418.943	1020.69
419.166	1092.69
419.389	1151.69
419.611	1139.69
419.834	1081.69
420.057	1059.69
420.28	1057.69
420.503	1031.69
420.726	1013.69
420.948	1024.69
421.171	1031.69
421.394	1019.69
421.617	1042.69
421.839	1035.69
422.062	1059.69
422.285	1013.69
422.507	1031.69
422.73	1019.69
422.953	1027.69
423.175	1052.69
423.398	1033.69
423.621	1017.69
423.843	1064.69
424.066	1045.69
424.288	1044.69
424.511	1018.69
424.733	1050.69
424.956	1040.69
425.178	1040.69
425.401	1055.69
425.623	1074.69
425.846	1020.69
426.068	1036.69
426.291	1022.69
426.513	1048.69
426.735	1051.69
426.958	1047.69
427.18	1033.69
427.402	1013.69
427.625	1002.69
427.847	993.69
428.069	982.69
428.292	1023.69
428.514	1029.69
428.736	1012.69
428.958	1030.69
429.181	1019.69
429.403	999.69
429.625	989.69
429.847	1015.69
430.069	1025.69
430.292	1016.69
430.514	981.69
430.736	1027.69
430.958	1002.69
431.18	1029.69
431.402	1037.69
431.624	1035.69
431.846	982.69
432.068	973.69
432.29	994.69
432.512	993.69
432.734	1050.69
432.956	1055.69
433.178	1028.69
433.4	1057.69
433.622	1076.69
433.844	1068.69
434.066	1073.69
434.287	1003.69
434.509	1033.69
434.731	1035.69
434.953	1068.69
435.175	1063.69
435.397	1087.69
435.618	1064.69
435.84	1038.69
436.062	1055.69
436.284	1018.69
436.505	1014.69
436.727	1036.69
436.949	1048.69
437.17	1059.69
437.392	1033.69
437.614	1040.69
437.835	994.69
438.057	987.69
438.278	980.69
438.5	960.69
438.721	1002.69
438.943	999.69
439.165	1030.69
439.386	1026.69
439.608	1030.69
439.829	1013.69
440.05	987.69
440.272	1039.69
440.493	1053.69
440.715	1037.69
440.936	1044.69
441.158	1033.69
441.379	1070.69
441.6	1084.69
441.822	1069.69
442.043	1081.69
442.264	1072.69
442.486	1067.69
442.707	1059.69
442.928	1077.69
443.149	1068.69
443.371	1111.69
443.592	1151.69
443.813	1095.69
444.034	1083.69
444.255	1054.69
444.476	1073.69
444.698	1106.69
444.919	1126.69
445.14	1229.69
445.361	1145.69
445.582	1097.69
445.803	1052.69
446.024	1049.69
446.245	1049.69
446.466	1045.69
446.687	1025.69
446.908	1025.69
447.129	1020.69
447.35	1021.69
447.571	984.69
447.792	989.69
448.013	980.69
448.234	970.69
448.455	993.69
448.675	974.69
448.896	988.69
449.117	926.69
449.338	957.69
449.559	951.69
449.779	958.69
450	941.69
450.221	937.69
450.442	944.69
450.662	943.69
450.883	943.69
451.104	963.69
451.324	972.69
451.545	947.69
451.766	943.69
451.986	940.69
452.207	935.69
452.428	917.69
452.648	932.69
452.869	930.69
453.089	910.69
453.31	943.69
453.53	925.69
453.751	909.69
453.971	921.69
454.192	956.69
454.412	916.69
454.633	931.69
454.853	922.69
455.073	924.69
455.294	926.69
455.514	906.69
455.734	959.69
455.955	920.69
456.175	936.69
456.395	908.69
456.616	891.69
456.836	921.69
457.056	939.69
457.276	933.69
457.497	916.69
457.717	955.69
457.937	935.69
458.157	936.69
458.377	949.69
458.598	930.69
458.818	959.69
459.038	936.69
459.258	985.69
459.478	1035.69
459.698	1045.69
459.918	1075.69
460.138	1064.69
460.358	1082.69
460.578	1094.69
460.798	1110.69
461.018	1080.69
461.238	1081.69
461.458	1080.69
461.678	1077.69
461.898	1071.69
462.118	1067.69
462.338	1110.69
462.558	1123.69
462.777	1165.69
462.997	1187.69
463.217	1168.69
463.437	1165.69
463.657	1157.69
463.876	1156.69
464.096	1149.69
464.316	1149.69
464.536	1157.69
464.755	1149.69
464.975	1096.69
465.195	1080.69
465.414	1051.69
465.634	1040.69
465.854	1015.69
466.073	989.69
466.293	983.69
466.512	977.69
466.732	977.69
466.951	974.69
467.171	1001.69
467.391	1024.69
467.61	1003.69
467.829	964.69
468.049	980.69
468.268	962.69
468.488	981.69
468.707	979.69
468.927	992.69
469.146	999.69
469.365	994.69
469.585	996.69
469.804	985.69
470.023	1001.69
470.243	997.69
470.462	1005.69
470.681	1017.69
470.901	995.69
471.12	1000.69
471.339	984.69
471.558	1012.69
471.777	979.69
471.997	1004.69
472.216	998.69
472.435	997.69
472.654	964.69
472.873	982.69
473.092	1017.69
473.311	973.69
473.53	955.69
473.749	989.69
473.968	1035.69
474.187	1008.69
474.406	995.69
474.625	1012.69
474.844	1029.69
475.063	998.69
475.282	1015.69
475.501	1013.69
475.72	1060.69
475.939	1046.69
476.158	1013.69
476.377	1039.69
476.596	1050.69
476.814	1051.69
477.033	1036.69
477.252	1081.69
477.471	1083.69
477.69	1088.69
477.908	1099.69
478.127	1121.69
478.346	1104.69
478.564	1130.69
478.783	1143.69
479.002	1141.69
479.22	1181.69
479.439	1164.69
479.658	1138.69
479.876	1147.69
480.095	1159.69
480.313	1157.69
480.532	1165.69
480.751	1178.69
480.969	1146.69
481.188	1164.69
481.406	1148.69
481.624	1138.69
481.843	1143.69
482.061	1118.69
482.28	1135.69
482.498	1130.69
482.717	1139.69
482.935	1164.69
483.153	1190.69
483.372	1213.69
483.59	1222.69
483.808	1187.69
484.027	1157.69
484.245	1184.69
484.463	1173.69
484.681	1190.69
484.9	1169.69
485.118	1191.69
485.336	1184.69
485.554	1153.69
485.772	1163.69
485.99	1161.69
486.209	1186.69
486.427	1189.69
486.645	1217.69
486.863	1207.69
487.081	1186.69
487.299	1217.69
487.517	1205.69
487.735	1222.69
487.953	1260.69
488.171	1216.69
488.389	1215.69
488.607	1213.69
488.825	1207.69
489.043	1218.69
489.261	1203.69
489.479	1222.69
489.696	1191.69
489.914	1183.69
490.132	1209.69
490.35	1185.69
490.568	1222.69
490.786	1229.69
491.003	1260.69
491.221	1239.69
491.439	1228.69
491.657	1236.69
491.874	1269.69
492.092	1252.69
492.31	1279.69
492.527	1292.69
492.745	1236.69
492.963	1261.69
493.18	1281.69
493.398	1252.69
493.615	1256.69
493.833	1250.69
494.05	1237.69
494.268	1267.69
494.485	1287.69
494.703	1269.69
494.92	1259.69
495.138	1301.69
495.355	1276.69
495.573	1283.69
495.79	1276.69
496.008	1297.69
496.225	1301.69
496.442	1330.69
496.66	1331.69
496.877	1357.69
497.094	1353.69
497.312	1376.69
497.529	1378.69
497.746	1403.69
497.963	1407.69
498.181	1415.69
498.398	1443.69
498.615	1467.69
498.832	1489.69
499.049	1542.69
499.267	1584.69
499.484	1644.69
499.701	1689.69
499.918	1736.69
500.135	1854.69
500.352	1828.69
500.569	1821.69
500.786	1828.69
501.003	1832.69
501.22	1788.69
501.437	1728.69
501.654	1662.69
501.871	1628.69
502.088	1609.69
502.305	1576.69
502.522	1519.69
502.739	1479.69
502.956	1457.69
503.172	1413.69
503.389	1396.69
503.606	1397.69
503.823	1340.69
504.04	1344.69
504.256	1363.69
504.473	1320.69
504.69	1279.69
504.907	1289.69
505.123	1249.69
505.34	1237.69
505.557	1229.69
505.773	1211.69
505.99	1218.69
506.207	1183.69
506.423	1160.69
506.64	1194.69
506.856	1147.69
507.073	1152.69
507.289	1167.69
507.506	1144.69
507.722	1125.69
507.939	1135.69
508.155	1142.69
508.372	1134.69
508.588	1141.69
508.805	1120.69
509.021	1099.69
509.238	1071.69
509.454	1072.69
509.67	1084.69
509.887	1086.69
510.103	1055.69
510.319	1069.69
510.536	1083.69
510.752	1033.69
510.968	1029.69
511.184	1053.69
511.401	1055.69
511.617	1053.69
511.833	1057.69
512.049	1053.69
512.265	1053.69
512.481	1015.69
512.698	1026.69
512.914	1045.69
513.13	1087.69
513.346	1025.69
513.562	1015.69
513.778	1020.69
513.994	1028.69
514.21	1037.69
514.426	1049.69
514.642	1029.69
514.858	1052.69
515.074	1050.69
515.29	1061.69
515.506	1034.69
515.721	1063.69
515.937	1031.69
516.153	1067.69
516.369	1067.69
516.585	1112.69
516.801	1119.69
517.016	1104.69
517.232	1079.69
517.448	1098.69
517.664	1113.69
517.879	1107.69
518.095	1126.69
518.311	1083.69
518.527	1109.69
518.742	1085.69
518.958	1075.69
519.173	1092.69
519.389	1047.69
519.605	1043.69
519.82	1036.69
520.036	1024.69
520.251	1021.69
520.467	1010.69
520.682	1029.69
520.898	984.69
521.113	992.69
521.329	981.69
521.544	975.69
521.76	998.69
521.975	970.69
522.19	987.69
522.406	993.69
522.621	936.69
522.836	970.69
523.052	960.69
523.267	949.69
523.482	952.69
523.698	952.69
523.913	947.69
524.128	947.69
524.343	948.69
524.559	924.69
524.774	918.69
524.989	952.69
525.204	958.69
525.419	937.69
525.634	922.69
525.849	940.69
526.064	932.69
526.28	924.69
526.495	924.69
526.71	923.69
526.925	919.69
527.14	902.69
527.355	932.69
527.57	909.69
527.785	905.69
527.999	916.69
528.214	900.69
528.429	900.69
528.644	940.69
528.859	924.69
529.074	940.69
529.289	926.69
529.503	932.69
529.718	914.69
529.933	895.69
530.148	881.69
530.363	911.69
530.577	917.69
530.792	897.69
531.007	897.69
531.221	885.69
531.436	921.69
531.651	895.69
531.865	869.69
532.08	895.69
532.295	893.69
532.509	889.69
532.724	884.69
532.938	913.69
533.153	887.69
533.367	895.69
533.582	883.69
533.796	896.69
534.011	907.69
534.225	868.69
534.44	865.69
534.654	867.69
534.868	851.69
535.083	849.69
535.297	870.69
535.511	860.69
535.726	876.69
535.94	895.69
536.154	869.69
536.369	841.69
536.583	855.69
536.797	835.69
537.011	842.69
537.225	843.69
537.44	852.69
537.654	863.69
537.868	836.69
538.082	823.69
538.296	843.69
538.51	821.69
538.724	836.69
538.938	826.69
539.153	829.69
539.367	843.69
539.581	818.69
539.795	825.69
540.009	795.69
540.222	835.69
540.436	875.69
540.65	846.69
540.864	819.69
541.078	842.69
541.292	831.69
541.506	862.69
541.72	829.69
541.934	833.69
542.147	803.69
542.361	839.69
542.575	843.69
542.789	814.69
543.002	819.69
543.216	787.69
543.43	793.69
543.644	807.69
543.857	816.69
544.071	818.69
544.285	834.69
544.498	816.69
544.712	785.69
544.925	823.69
545.139	811.69
545.352	819.69
545.566	817.69
545.779	817.69
545.993	811.69
546.206	808.69
546.42	829.69
546.633	821.69
546.847	828.69
547.06	814.69
547.274	827.69
547.487	804.69
547.7	815.69
547.914	821.69
548.127	800.69
548.34	835.69
548.554	817.69
548.767	826.69
548.98	815.69
549.193	836.69
549.407	804.69
549.62	826.69
549.833	809.69
550.046	821.69
550.259	788.69
550.473	779.69
550.686	807.69
550.899	803.69
551.112	783.69
551.325	803.69
551.538	791.69
551.751	800.69
551.964	796.69
552.177	790.69
552.39	794.69
552.603	812.69
552.816	786.69
553.029	804.69
553.242	793.69
553.455	809.69
553.667	809.69
553.88	792.69
554.093	779.69
554.306	794.69
554.519	774.69
554.732	766.69
554.944	748.69
555.157	751.69
555.37	740.69
555.583	752.69
555.795	741.69
556.008	737.69
556.221	741.69
556.433	698.69
556.646	708.69
556.859	735.69
557.071	715.69
557.284	737.69
557.496	716.69
557.709	707.69
557.921	711.69
558.134	722.69
558.346	712.69
558.559	697.69
558.771	701.69
558.984	681.69
559.196	706.69
559.409	713.69
559.621	658.69
559.833	696.69
560.046	716.69
560.258	692.69
560.47	669.69
560.683	694.69
560.895	671.69
561.107	691.69
561.32	682.69
561.532	685.69
561.744	688.69
561.956	666.69
562.168	701.69
562.381	699.69
562.593	699.69
562.805	700.69
563.017	703.69
563.229	671.69
563.441	673.69
563.653	701.69
563.865	677.69
564.077	672.69
564.289	685.69
564.501	693.69
564.713	695.69
564.925	698.69
565.137	690.69
565.349	704.69
565.561	700.69
565.773	720.69
565.985	715.69
566.197	736.69
566.408	760.69
566.62	744.69
566.832	762.69
567.044	743.69
567.255	771.69
567.467	776.69
567.679	768.69
567.891	772.69
568.102	743.69
568.314	748.69
568.526	741.69
568.737	736.69
568.949	703.69
569.161	694.69
569.372	670.69
569.584	665.69
569.795	653.69
570.007	656.69
570.218	632.69
570.43	649.69
570.641	629.69
570.853	620.69
571.064	633.69
571.276	609.69
571.487	613.69
571.698	602.69
571.91	601.69
572.121	608.69
572.333	587.69
572.544	583.69
572.755	554.69
572.966	534.69
573.178	545.69
573.389	546.69
573.6	563.69
573.811	565.69
574.023	541.69
574.234	532.69
574.445	543.69
574.656	536.69
574.867	534.69
575.078	529.69
575.289	517.69
575.501	541.69
575.712	507.69
575.923	506.69
576.134	534.69
576.345	508.69
576.556	504.69
576.767	507.69
576.978	545.69
577.188	511.69
577.399	525.69
577.61	513.69
577.821	507.69
578.032	490.69
578.243	490.69
578.454	499.69
578.665	485.69
578.875	478.69
579.086	507.69
579.297	485.69
579.508	468.69
579.718	488.69
579.929	486.69
580.14	474.69
580.35	471.69
580.561	465.69
580.772	464.69
580.982	457.69
581.193	485.69
581.403	477.69
581.614	480.69
581.825	465.69
582.035	465.69
582.246	456.69
582.456	456.69
582.667	459.69
582.877	447.69
583.087	459.69
583.298	447.69
583.508	442.69
583.719	447.69
583.929	468.69
584.139	453.69
584.35	438.69
584.56	448.69
584.77	450.69
584.981	440.69
585.191	433.69
585.401	437.69
585.611	448.69
585.821	429.69
586.032	449.69
586.242	440.69
586.452	444.69
586.662	428.69
586.872	445.69
587.082	434.69
587.292	449.69
587.502	438.69
587.713	425.69
587.923	441.69
588.133	438.69
588.343	425.69
588.553	432.69
588.762	445.69
588.972	429.69
589.182	501.69
589.392	474.69
589.602	425.69
589.812	465.69
590.022	459.69
590.232	420.69
590.441	445.69
590.651	437.69
590.861	435.69
591.071	409.69
591.281	431.69
591.49	437.69
591.7	423.69
591.91	407.69
592.119	415.69
592.329	440.69
592.539	441.69
592.748	452.69
592.958	435.69
593.167	415.69
593.377	415.69
593.587	442.69
593.796	445.69
594.006	440.69
594.215	460.69
594.424	439.69
594.634	425.69
594.843	423.69
595.053	424.69
595.262	424.69
595.472	420.69
595.681	417.69
595.89	403.69
596.1	396.69
596.309	398.69
596.518	414.69
596.727	405.69
596.937	403.69
597.146	380.69
597.355	392.69
597.564	372.69
597.774	388.69
597.983	388.69
598.192	373.69
598.401	386.69
598.61	378.69
598.819	363.69
599.028	405.69
599.237	367.69
599.446	376.69
599.655	377.69
599.864	381.69
600.073	375.69
600.282	362.69
600.491	355.69
600.7	362.69
600.909	357.69
601.118	348.69
601.327	341.69
601.536	338.69
601.745	360.69
601.953	375.69
602.162	367.69
602.371	361.69
602.58	364.69
602.789	350.69
602.997	346.69
603.206	354.69
603.415	343.69
603.623	353.69
603.832	362.69
604.041	367.69
604.249	346.69
604.458	341.69
604.666	327.69
604.875	343.69
605.084	330.69
605.292	359.69
605.501	338.69
605.709	335.69
605.918	361.69
606.126	349.69
606.334	325.69
606.543	323.69
606.751	334.69
606.96	341.69
607.168	335.69
607.376	317.69
607.585	345.69
607.793	348.69
608.001	338.69
608.21	338.69
608.418	324.69
608.626	335.69
608.834	318.69
609.043	340.69
609.251	341.69
609.459	329.69
609.667	327.69
609.875	324.69
610.083	311.69
610.291	320.69
610.499	307.69
610.707	329.69
610.916	320.69
611.124	305.69
611.332	303.69
611.54	336.69
611.748	309.69
611.955	311.69
612.163	315.69
612.371	322.69
612.579	300.69
612.787	310.69
612.995	324.69
613.203	331.69
613.411	295.69
613.618	321.69
613.826	322.69
614.034	327.69
614.242	316.69
614.449	297.69
614.657	323.69
614.865	322.69
615.072	306.69
615.28	288.69
615.488	292.69
615.695	315.69
615.903	292.69
616.111	311.69
616.318	315.69
616.526	289.69
616.733	308.69
616.941	301.69
617.148	300.69
617.356	314.69
617.563	294.69
617.771	291.69
617.978	292.69
618.185	307.69
618.393	317.69
618.6	291.69
618.807	291.69
619.015	299.69
619.222	311.69
619.429	300.69
619.637	281.69
619.844	299.69
620.051	304.69
620.258	294.69
620.466	286.69
620.673	293.69
620.88	283.69
621.087	272.69
621.294	290.69
621.501	289.69
621.708	260.69
621.915	269.69
622.122	283.69
622.329	288.69
622.536	284.69
622.743	312.69
622.95	283.69
623.157	279.69
623.364	261.69
623.571	292.69
623.778	293.69
623.985	297.69
624.192	300.69
624.399	283.69
624.606	276.69
624.812	291.69
625.019	267.69
625.226	267.69
625.433	271.69
625.639	244.69
625.846	262.69
626.053	256.69
626.259	264.69
626.466	272.69
626.673	267.69
626.879	259.69
627.086	258.69
627.293	276.69
627.499	279.69
627.706	254.69
627.912	257.69
628.119	265.69
628.325	254.69
628.532	265.69
628.738	276.69
628.945	240.69
629.151	255.69
629.357	257.69
629.564	251.69
629.77	261.69
629.976	245.69
630.183	245.69
630.389	266.69
630.595	241.69
630.802	249.69
631.008	242.69
631.214	267.69
631.42	261.69
631.627	256.69
631.833	255.69
632.039	260.69
632.245	229.69
632.451	255.69
632.657	238.69
632.863	245.69
633.069	251.69
633.275	257.69
633.481	228.69
633.688	230.69
633.893	249.69
634.099	233.69
634.305	230.69
634.511	232.69
634.717	232.69
634.923	243.69
635.129	233.69
635.335	241.69
635.541	240.69
635.747	240.69
635.952	221.69
636.158	241.69
636.364	242.69
636.57	225.69
636.775	230.69
636.981	231.69
637.187	235.69
637.392	234.69
637.598	213.69
637.804	232.69
638.009	233.69
638.215	240.69
638.421	223.69
638.626	215.69
638.832	231.69
639.037	229.69
639.243	229.69
639.448	221.69
639.654	235.69
639.859	216.69
640.065	218.69
640.27	212.69
640.475	216.69
640.681	214.69
640.886	219.69
641.091	210.69
641.297	219.69
641.502	224.69
641.707	224.69
641.913	218.69
642.118	221.69
642.323	221.69
642.528	214.69
642.733	231.69
642.939	220.69
643.144	230.69
643.349	205.69
643.554	221.69
643.759	242.69
643.964	207.69
644.169	215.69
644.374	230.69
644.579	227.69
644.784	213.69
644.989	211.69
645.194	207.69
645.399	226.69
645.604	211.69
645.809	219.69
646.014	213.69
646.219	231.69
646.423	213.69
646.628	209.69
646.833	210.69
647.038	205.69
647.243	215.69
647.447	203.69
647.652	205.69
647.857	204.69
648.062	205.69
648.266	210.69
648.471	201.69
648.676	218.69
648.88	205.69
649.085	199.69
649.289	224.69
649.494	201.69
649.698	206.69
649.903	216.69
650.107	220.69
650.312	217.69
650.516	209.69
650.721	204.69
650.925	197.69
651.13	205.69
651.334	189.69
651.539	197.69
651.743	211.69
651.947	196.69
652.152	181.69
652.356	176.69
652.56	194.69
652.764	192.69
652.969	196.69
653.173	186.69
653.377	188.69
653.581	176.69
653.785	199.69
653.99	191.69
654.194	179.69
654.398	181.69
654.602	182.69
654.806	184.69
655.01	173.69
655.214	193.69
655.418	195.69
655.622	180.69
655.826	154.69
656.03	191.69
656.234	182.69
656.438	187.69
656.642	176.69
656.846	182.69
657.049	180.69
657.253	171.69
657.457	159.69
657.661	149.69
657.865	149.69
658.068	147.69
658.272	152.69
658.476	129.69
658.68	127.69
658.883	129.69
659.087	127.69
659.291	123.69
659.494	120.69
659.698	119.69
659.901	117.69
660.105	114.69
660.309	113.69
660.512	107.69
660.716	87.69
660.919	103.69
661.123	111.69
661.326	94.69
661.53	102.69
661.733	96.69
661.936	101.69
662.14	108.69
662.343	98.69
662.546	79.69
662.75	100.69
662.953	103.69
663.156	75.69
663.36	93.69
663.563	72.69
663.766	94.69
663.969	82.69
664.173	81.69
664.376	79.69
664.579	95.69
664.782	75.69
664.985	68.69
665.188	87.69
665.391	81.69
665.594	82.69
665.797	79.69
666	91.69
666.203	93.69
666.406	95.69
666.609	73.69
666.812	75.69
667.015	82.69
667.218	78.69
667.421	77.69
667.624	77.69
667.827	83.69
668.03	70.69
668.232	85.69
668.435	88.69
668.638	91.69
668.841	71.69
669.043	79.69
669.246	93.69
669.449	88.69
669.651	96.69
669.854	73.69
670.057	82.69
670.259	80.69
670.462	86.69
670.665	90.69
670.867	87.69
671.07	88.69
671.272	71.69
671.475	90.69
671.677	77.69
671.88	74.69
672.082	82.69
672.284	81.69
672.487	85.69
672.689	81.69
672.892	72.69
