Data from Ni(NO3)2Standard.Agarose3%.GreenCap.LampEnergy5.5.E.O_HRD10591_14-43-01-188.txt Node
Date: Mon Jul 22 14:43:01 EDT 2019
User: cochatt
Spectrometer: HR+D1059
Trigger mode: 1
Integration Time (sec): 1.000000E-1
Scans to average: 1
Electric dark correction enabled: true
Nonlinearity correction enabled: false
Boxcar width: 0
XAxis mode: Wavelengths
Number of Pixels in Spectrum: 2048
>>>>>Begin Spectral Data<<<<<
223.165	-18.62
223.4	-18.62
223.635	-18.62
223.869	-6.62
224.104	-9.62
224.338	-4.62
224.573	-12.62
224.808	-21.62
225.042	-10.62
225.277	2.38
225.511	-0.62
225.746	-2.62
225.98	7.38
226.215	13.38
226.449	19.38
226.683	13.38
226.918	14.38
227.152	17.38
227.387	30.38
227.621	40.38
227.856	50.38
228.09	51.38
228.324	42.38
228.559	45.38
228.793	65.38
229.027	58.38
229.262	69.38
229.496	76.38
229.73	73.38
229.964	78.38
230.199	80.38
230.433	79.38
230.667	83.38
230.901	85.38
231.136	87.38
231.37	87.38
231.604	82.38
231.838	75.38
232.072	90.38
232.306	90.38
232.541	97.38
232.775	82.38
233.009	89.38
233.243	70.38
233.477	78.38
233.711	79.38
233.945	83.38
234.179	75.38
234.413	87.38
234.647	84.38
234.881	90.38
235.115	94.38
235.349	83.38
235.583	61.38
235.817	58.38
236.051	81.38
236.285	79.38
236.519	89.38
236.753	84.38
236.987	74.38
237.221	79.38
237.455	80.38
237.689	86.38
237.922	69.38
238.156	85.38
238.39	65.38
238.624	90.38
238.858	77.38
239.091	83.38
239.325	78.38
239.559	77.38
239.793	79.38
240.027	84.38
240.26	75.38
240.494	77.38
240.728	91.38
240.961	78.38
241.195	65.38
241.429	74.38
241.662	81.38
241.896	62.38
242.13	73.38
242.363	78.38
242.597	78.38
242.83	85.38
243.064	71.38
243.298	79.38
243.531	86.38
243.765	76.38
243.998	71.38
244.232	83.38
244.465	80.38
244.699	71.38
244.932	73.38
245.166	76.38
245.399	86.38
245.633	79.38
245.866	79.38
246.099	87.38
246.333	81.38
246.566	79.38
246.8	69.38
247.033	66.38
247.266	79.38
247.5	74.38
247.733	81.38
247.966	69.38
248.2	69.38
248.433	68.38
248.666	71.38
248.899	91.38
249.133	75.38
249.366	97.38
249.599	77.38
249.832	68.38
250.066	79.38
250.299	73.38
250.532	73.38
250.765	86.38
250.998	73.38
251.231	69.38
251.465	85.38
251.698	86.38
251.931	74.38
252.164	77.38
252.397	70.38
252.63	90.38
252.863	77.38
253.096	72.38
253.329	71.38
253.562	69.38
253.795	77.38
254.028	81.38
254.261	72.38
254.494	82.38
254.727	93.38
254.96	94.38
255.193	78.38
255.426	82.38
255.659	64.38
255.892	85.38
256.124	88.38
256.357	84.38
256.59	74.38
256.823	79.38
257.056	86.38
257.289	81.38
257.521	76.38
257.754	91.38
257.987	83.38
258.22	77.38
258.452	87.38
258.685	96.38
258.918	90.38
259.151	66.38
259.383	76.38
259.616	81.38
259.849	64.38
260.081	83.38
260.314	98.38
260.547	82.38
260.779	78.38
261.012	81.38
261.244	79.38
261.477	85.38
261.71	85.38
261.942	82.38
262.175	76.38
262.407	64.38
262.64	87.38
262.872	83.38
263.105	71.38
263.337	78.38
263.57	77.38
263.802	91.38
264.035	79.38
264.267	79.38
264.499	90.38
264.732	95.38
264.964	71.38
265.197	90.38
265.429	79.38
265.661	74.38
265.894	68.38
266.126	81.38
266.358	94.38
266.591	78.38
266.823	81.38
267.055	78.38
267.287	85.38
267.52	86.38
267.752	87.38
267.984	70.38
268.216	85.38
268.448	86.38
268.681	82.38
268.913	70.38
269.145	88.38
269.377	84.38
269.609	89.38
269.841	82.38
270.073	76.38
270.306	79.38
270.538	83.38
270.77	97.38
271.002	103.38
271.234	78.38
271.466	71.38
271.698	78.38
271.93	86.38
272.162	93.38
272.394	79.38
272.626	78.38
272.858	90.38
273.09	83.38
273.322	94.38
273.553	70.38
273.785	93.38
274.017	77.38
274.249	88.38
274.481	86.38
274.713	80.38
274.945	78.38
275.176	82.38
275.408	77.38
275.64	83.38
275.872	76.38
276.104	94.38
276.335	92.38
276.567	83.38
276.799	77.38
277.031	89.38
277.262	64.38
277.494	75.38
277.726	68.38
277.957	85.38
278.189	89.38
278.421	96.38
278.652	86.38
278.884	82.38
279.115	89.38
279.347	80.38
279.579	94.38
279.81	76.38
280.042	88.38
280.273	82.38
280.505	83.38
280.736	93.38
280.968	87.38
281.199	87.38
281.431	83.38
281.662	80.38
281.894	86.38
282.125	97.38
282.356	77.38
282.588	81.38
282.819	87.38
283.051	94.38
283.282	85.38
283.513	85.38
283.745	84.38
283.976	85.38
284.207	90.38
284.439	86.38
284.67	87.38
284.901	83.38
285.132	81.38
285.364	87.38
285.595	90.38
285.826	71.38
286.057	90.38
286.288	98.38
286.52	77.38
286.751	86.38
286.982	88.38
287.213	103.38
287.444	87.38
287.675	88.38
287.906	88.38
288.138	84.38
288.369	93.38
288.6	85.38
288.831	75.38
289.062	95.38
289.293	87.38
289.524	93.38
289.755	88.38
289.986	85.38
290.217	80.38
290.448	71.38
290.679	82.38
290.91	84.38
291.141	82.38
291.371	82.38
291.602	97.38
291.833	94.38
292.064	89.38
292.295	94.38
292.526	93.38
292.757	76.38
292.987	86.38
293.218	83.38
293.449	102.38
293.68	91.38
293.91	92.38
294.141	87.38
294.372	90.38
294.603	82.38
294.833	91.38
295.064	88.38
295.295	85.38
295.525	88.38
295.756	90.38
295.987	83.38
296.217	84.38
296.448	78.38
296.679	92.38
296.909	97.38
297.14	67.38
297.37	96.38
297.601	83.38
297.831	90.38
298.062	80.38
298.292	87.38
298.523	59.38
298.753	78.38
298.984	87.38
299.214	81.38
299.445	84.38
299.675	95.38
299.905	85.38
300.136	78.38
300.366	84.38
300.597	89.38
300.827	85.38
301.057	80.38
301.288	85.38
301.518	85.38
301.748	82.38
301.979	84.38
302.209	83.38
302.439	74.38
302.669	89.38
302.9	105.38
303.13	100.38
303.36	83.38
303.59	81.38
303.82	92.38
304.051	87.38
304.281	83.38
304.511	77.38
304.741	77.38
304.971	64.38
305.201	95.38
305.431	83.38
305.661	71.38
305.891	78.38
306.121	84.38
306.352	84.38
306.582	80.38
306.812	80.38
307.042	83.38
307.272	90.38
307.502	87.38
307.731	79.38
307.961	94.38
308.191	89.38
308.421	71.38
308.651	93.38
308.881	83.38
309.111	90.38
309.341	90.38
309.571	84.38
309.8	89.38
310.03	76.38
310.26	79.38
310.49	78.38
310.72	109.38
310.949	87.38
311.179	81.38
311.409	101.38
311.639	92.38
311.868	87.38
312.098	84.38
312.328	90.38
312.557	80.38
312.787	83.38
313.017	83.38
313.246	98.38
313.476	95.38
313.706	83.38
313.935	92.38
314.165	78.38
314.394	87.38
314.624	77.38
314.853	87.38
315.083	78.38
315.312	93.38
315.542	83.38
315.771	92.38
316.001	87.38
316.23	77.38
316.46	83.38
316.689	75.38
316.919	79.38
317.148	77.38
317.377	90.38
317.607	94.38
317.836	89.38
318.065	90.38
318.295	92.38
318.524	82.38
318.753	98.38
318.983	87.38
319.212	89.38
319.441	86.38
319.67	80.38
319.9	89.38
320.129	86.38
320.358	87.38
320.587	75.38
320.816	87.38
321.046	75.38
321.275	93.38
321.504	71.38
321.733	87.38
321.962	81.38
322.191	96.38
322.42	86.38
322.649	88.38
322.878	82.38
323.108	93.38
323.337	89.38
323.566	83.38
323.795	91.38
324.024	95.38
324.253	101.38
324.482	81.38
324.71	82.38
324.939	79.38
325.168	89.38
325.397	106.38
325.626	99.38
325.855	89.38
326.084	91.38
326.313	86.38
326.542	75.38
326.77	94.38
326.999	77.38
327.228	77.38
327.457	100.38
327.686	93.38
327.914	93.38
328.143	82.38
328.372	80.38
328.6	71.38
328.829	72.38
329.058	88.38
329.287	92.38
329.515	94.38
329.744	94.38
329.972	91.38
330.201	79.38
330.43	80.38
330.658	77.38
330.887	96.38
331.115	84.38
331.344	67.38
331.572	85.38
331.801	83.38
332.03	87.38
332.258	90.38
332.486	78.38
332.715	73.38
332.943	89.38
333.172	90.38
333.4	85.38
333.629	87.38
333.857	98.38
334.085	83.38
334.314	90.38
334.542	79.38
334.771	92.38
334.999	91.38
335.227	91.38
335.455	76.38
335.684	98.38
335.912	97.38
336.14	82.38
336.369	76.38
336.597	81.38
336.825	81.38
337.053	76.38
337.281	87.38
337.51	85.38
337.738	89.38
337.966	76.38
338.194	88.38
338.422	92.38
338.65	83.38
338.878	84.38
339.106	95.38
339.334	92.38
339.562	74.38
339.79	88.38
340.018	86.38
340.246	88.38
340.474	86.38
340.702	85.38
340.93	90.38
341.158	90.38
341.386	77.38
341.614	87.38
341.842	93.38
342.07	89.38
342.298	74.38
342.526	93.38
342.754	89.38
342.981	87.38
343.209	105.38
343.437	87.38
343.665	85.38
343.893	92.38
344.12	91.38
344.348	94.38
344.576	86.38
344.804	94.38
345.031	100.38
345.259	90.38
345.487	85.38
345.714	89.38
345.942	85.38
346.17	86.38
346.397	84.38
346.625	93.38
346.853	81.38
347.08	57.38
347.308	81.38
347.535	79.38
347.763	86.38
347.99	86.38
348.218	81.38
348.445	70.38
348.673	86.38
348.9	85.38
349.128	90.38
349.355	94.38
349.583	89.38
349.81	97.38
350.037	95.38
350.265	74.38
350.492	74.38
350.72	89.38
350.947	107.38
351.174	76.38
351.402	93.38
351.629	74.38
351.856	83.38
352.083	88.38
352.311	98.38
352.538	79.38
352.765	85.38
352.992	82.38
353.22	77.38
353.447	85.38
353.674	86.38
353.901	98.38
354.128	85.38
354.355	73.38
354.583	86.38
354.81	97.38
355.037	83.38
355.264	79.38
355.491	82.38
355.718	85.38
355.945	102.38
356.172	89.38
356.399	85.38
356.626	80.38
356.853	96.38
357.08	85.38
357.307	92.38
357.534	84.38
357.761	80.38
357.988	84.38
358.215	77.38
358.441	78.38
358.668	91.38
358.895	83.38
359.122	86.38
359.349	89.38
359.576	88.38
359.802	89.38
360.029	85.38
360.256	98.38
360.483	90.38
360.709	87.38
360.936	88.38
361.163	84.38
361.39	100.38
361.616	82.38
361.843	79.38
362.07	76.38
362.296	83.38
362.523	90.38
362.749	94.38
362.976	89.38
363.203	85.38
363.429	88.38
363.656	72.38
363.882	92.38
364.109	85.38
364.335	87.38
364.562	92.38
364.788	82.38
365.015	68.38
365.241	97.38
365.468	88.38
365.694	102.38
365.92	86.38
366.147	94.38
366.373	76.38
366.599	83.38
366.826	98.38
367.052	86.38
367.278	89.38
367.505	98.38
367.731	81.38
367.957	73.38
368.184	80.38
368.41	86.38
368.636	81.38
368.862	75.38
369.089	102.38
369.315	91.38
369.541	92.38
369.767	92.38
369.993	74.38
370.219	88.38
370.445	87.38
370.672	79.38
370.898	81.38
371.124	86.38
371.35	84.38
371.576	84.38
371.802	72.38
372.028	85.38
372.254	70.38
372.48	98.38
372.706	94.38
372.932	79.38
373.158	70.38
373.384	88.38
373.61	97.38
373.835	92.38
374.061	78.38
374.287	84.38
374.513	76.38
374.739	87.38
374.965	89.38
375.191	73.38
375.416	68.38
375.642	89.38
375.868	90.38
376.094	85.38
376.319	88.38
376.545	90.38
376.771	92.38
376.997	80.38
377.222	77.38
377.448	95.38
377.674	86.38
377.899	90.38
378.125	90.38
378.35	107.38
378.576	77.38
378.802	83.38
379.027	74.38
379.253	93.38
379.478	65.38
379.704	91.38
379.929	89.38
380.155	97.38
380.38	76.38
380.606	81.38
380.831	78.38
381.057	89.38
381.282	86.38
381.507	88.38
381.733	84.38
381.958	84.38
382.184	83.38
382.409	73.38
382.634	78.38
382.86	74.38
383.085	89.38
383.31	79.38
383.535	92.38
383.761	93.38
383.986	87.38
384.211	79.38
384.436	89.38
384.662	84.38
384.887	67.38
385.112	99.38
385.337	68.38
385.562	80.38
385.787	83.38
386.013	85.38
386.238	83.38
386.463	79.38
386.688	86.38
386.913	92.38
387.138	85.38
387.363	86.38
387.588	86.38
387.813	91.38
388.038	83.38
388.263	94.38
388.488	85.38
388.713	85.38
388.938	85.38
389.163	69.38
389.387	83.38
389.612	87.38
389.837	75.38
390.062	92.38
390.287	88.38
390.512	84.38
390.736	101.38
390.961	97.38
391.186	81.38
391.411	91.38
391.636	77.38
391.86	83.38
392.085	90.38
392.31	75.38
392.534	93.38
392.759	79.38
392.984	88.38
393.208	90.38
393.433	80.38
393.658	76.38
393.882	86.38
394.107	82.38
394.331	78.38
394.556	90.38
394.78	83.38
395.005	90.38
395.229	94.38
395.454	92.38
395.678	98.38
395.903	81.38
396.127	78.38
396.352	83.38
396.576	93.38
396.801	85.38
397.025	70.38
397.249	81.38
397.474	84.38
397.698	86.38
397.922	82.38
398.147	89.38
398.371	92.38
398.595	86.38
398.82	87.38
399.044	92.38
399.268	85.38
399.492	93.38
399.717	90.38
399.941	102.38
400.165	83.38
400.389	81.38
400.613	82.38
400.837	94.38
401.062	83.38
401.286	79.38
401.51	78.38
401.734	93.38
401.958	85.38
402.182	73.38
402.406	78.38
402.63	83.38
402.854	76.38
403.078	85.38
403.302	88.38
403.526	91.38
403.75	87.38
403.974	85.38
404.198	94.38
404.422	88.38
404.645	81.38
404.869	84.38
405.093	100.38
405.317	77.38
405.541	92.38
405.765	81.38
405.988	94.38
406.212	83.38
406.436	83.38
406.66	85.38
406.883	89.38
407.107	89.38
407.331	71.38
407.555	84.38
407.778	99.38
408.002	101.38
408.226	80.38
408.449	75.38
408.673	85.38
408.896	83.38
409.12	90.38
409.344	77.38
409.567	87.38
409.791	82.38
410.014	87.38
410.238	93.38
410.461	98.38
410.685	98.38
410.908	87.38
411.132	79.38
411.355	87.38
411.578	91.38
411.802	73.38
412.025	84.38
412.249	83.38
412.472	103.38
412.695	79.38
412.919	83.38
413.142	88.38
413.365	84.38
413.589	88.38
413.812	84.38
414.035	88.38
414.258	89.38
414.482	86.38
414.705	91.38
414.928	77.38
415.151	80.38
415.374	87.38
415.597	98.38
415.821	80.38
416.044	82.38
416.267	95.38
416.49	74.38
416.713	98.38
416.936	75.38
417.159	81.38
417.382	83.38
417.605	86.38
417.828	81.38
418.051	99.38
418.274	92.38
418.497	93.38
418.72	79.38
418.943	93.38
419.166	73.38
419.389	77.38
419.611	83.38
419.834	85.38
420.057	70.38
420.28	94.38
420.503	81.38
420.726	92.38
420.948	87.38
421.171	82.38
421.394	80.38
421.617	81.38
421.839	77.38
422.062	86.38
422.285	87.38
422.507	86.38
422.73	78.38
422.953	101.38
423.175	77.38
423.398	89.38
423.621	81.38
423.843	88.38
424.066	81.38
424.288	86.38
424.511	82.38
424.733	85.38
424.956	75.38
425.178	79.38
425.401	86.38
425.623	80.38
425.846	72.38
426.068	67.38
426.291	94.38
426.513	82.38
426.735	87.38
426.958	89.38
427.18	74.38
427.402	90.38
427.625	84.38
427.847	93.38
428.069	92.38
428.292	71.38
428.514	80.38
428.736	77.38
428.958	86.38
429.181	74.38
429.403	87.38
429.625	86.38
429.847	84.38
430.069	78.38
430.292	90.38
430.514	85.38
430.736	86.38
430.958	92.38
431.18	76.38
431.402	77.38
431.624	92.38
431.846	79.38
432.068	86.38
432.29	80.38
432.512	72.38
432.734	86.38
432.956	88.38
433.178	86.38
433.4	89.38
433.622	91.38
433.844	89.38
434.066	86.38
434.287	99.38
434.509	86.38
434.731	56.38
434.953	93.38
435.175	84.38
435.397	70.38
435.618	92.38
435.84	106.38
436.062	85.38
436.284	96.38
436.505	94.38
436.727	86.38
436.949	77.38
437.17	75.38
437.392	72.38
437.614	85.38
437.835	75.38
438.057	74.38
438.278	97.38
438.5	86.38
438.721	87.38
438.943	82.38
439.165	84.38
439.386	79.38
439.608	85.38
439.829	79.38
440.05	92.38
440.272	89.38
440.493	79.38
440.715	85.38
440.936	75.38
441.158	76.38
441.379	77.38
441.6	80.38
441.822	91.38
442.043	80.38
442.264	100.38
442.486	84.38
442.707	83.38
442.928	89.38
443.149	87.38
443.371	81.38
443.592	83.38
443.813	73.38
444.034	76.38
444.255	83.38
444.476	77.38
444.698	79.38
444.919	83.38
445.14	191.38
445.361	142.38
445.582	93.38
445.803	95.38
446.024	86.38
446.245	90.38
446.466	77.38
446.687	81.38
446.908	85.38
447.129	94.38
447.35	71.38
447.571	93.38
447.792	86.38
448.013	84.38
448.234	83.38
448.455	77.38
448.675	65.38
448.896	89.38
449.117	79.38
449.338	83.38
449.559	78.38
449.779	89.38
450	84.38
450.221	88.38
450.442	73.38
450.662	87.38
450.883	78.38
451.104	88.38
451.324	71.38
451.545	66.38
451.766	89.38
451.986	95.38
452.207	93.38
452.428	92.38
452.648	77.38
452.869	90.38
453.089	90.38
453.31	74.38
453.53	87.38
453.751	86.38
453.971	63.38
454.192	76.38
454.412	96.38
454.633	85.38
454.853	82.38
455.073	82.38
455.294	101.38
455.514	87.38
455.734	84.38
455.955	77.38
456.175	89.38
456.395	70.38
456.616	64.38
456.836	75.38
457.056	94.38
457.276	66.38
457.497	83.38
457.717	80.38
457.937	79.38
458.157	78.38
458.377	90.38
458.598	79.38
458.818	83.38
459.038	97.38
459.258	87.38
459.478	82.38
459.698	85.38
459.918	79.38
460.138	93.38
460.358	86.38
460.578	81.38
460.798	82.38
461.018	79.38
461.238	97.38
461.458	99.38
461.678	92.38
461.898	85.38
462.118	78.38
462.338	75.38
462.558	78.38
462.777	87.38
462.997	82.38
463.217	93.38
463.437	94.38
463.657	86.38
463.876	99.38
464.096	90.38
464.316	79.38
464.536	80.38
464.755	87.38
464.975	85.38
465.195	91.38
465.414	76.38
465.634	95.38
465.854	82.38
466.073	67.38
466.293	83.38
466.512	85.38
466.732	80.38
466.951	84.38
467.171	88.38
467.391	77.38
467.61	82.38
467.829	97.38
468.049	92.38
468.268	97.38
468.488	82.38
468.707	75.38
468.927	82.38
469.146	65.38
469.365	96.38
469.585	95.38
469.804	89.38
470.023	89.38
470.243	78.38
470.462	77.38
470.681	92.38
470.901	86.38
471.12	79.38
471.339	91.38
471.558	82.38
471.777	91.38
471.997	76.38
472.216	87.38
472.435	79.38
472.654	98.38
472.873	81.38
473.092	78.38
473.311	77.38
473.53	80.38
473.749	76.38
473.968	82.38
474.187	78.38
474.406	88.38
474.625	85.38
474.844	91.38
475.063	84.38
475.282	80.38
475.501	70.38
475.72	91.38
475.939	87.38
476.158	89.38
476.377	70.38
476.596	93.38
476.814	90.38
477.033	87.38
477.252	96.38
477.471	80.38
477.69	87.38
477.908	84.38
478.127	84.38
478.346	82.38
478.564	78.38
478.783	83.38
479.002	97.38
479.22	86.38
479.439	88.38
479.658	96.38
479.876	77.38
480.095	90.38
480.313	91.38
480.532	86.38
480.751	82.38
480.969	90.38
481.188	91.38
481.406	80.38
481.624	67.38
481.843	78.38
482.061	79.38
482.28	97.38
482.498	89.38
482.717	96.38
482.935	89.38
483.153	94.38
483.372	93.38
483.59	88.38
483.808	92.38
484.027	92.38
484.245	103.38
484.463	81.38
484.681	95.38
484.9	87.38
485.118	108.38
485.336	98.38
485.554	95.38
485.772	84.38
485.99	92.38
486.209	79.38
486.427	90.38
486.645	96.38
486.863	87.38
487.081	84.38
487.299	87.38
487.517	85.38
487.735	80.38
487.953	88.38
488.171	96.38
488.389	85.38
488.607	94.38
488.825	99.38
489.043	86.38
489.261	91.38
489.479	82.38
489.696	94.38
489.914	86.38
490.132	92.38
490.35	86.38
490.568	93.38
490.786	91.38
491.003	91.38
491.221	91.38
491.439	75.38
491.657	82.38
491.874	108.38
492.092	97.38
492.31	87.38
492.527	108.38
492.745	93.38
492.963	84.38
493.18	96.38
493.398	84.38
493.615	84.38
493.833	90.38
494.05	93.38
494.268	98.38
494.485	91.38
494.703	89.38
494.92	93.38
495.138	90.38
495.355	93.38
495.573	103.38
495.79	87.38
496.008	111.38
496.225	93.38
496.442	95.38
496.66	97.38
496.877	91.38
497.094	81.38
497.312	73.38
497.529	83.38
497.746	87.38
497.963	91.38
498.181	94.38
498.398	99.38
498.615	90.38
498.832	96.38
499.049	89.38
499.267	116.38
499.484	100.38
499.701	105.38
499.918	118.38
500.135	113.38
500.352	102.38
500.569	104.38
500.786	95.38
501.003	98.38
501.22	118.38
501.437	97.38
501.654	105.38
501.871	98.38
502.088	107.38
502.305	100.38
502.522	95.38
502.739	95.38
502.956	85.38
503.172	90.38
503.389	85.38
503.606	90.38
503.823	92.38
504.04	97.38
504.256	80.38
504.473	91.38
504.69	102.38
504.907	92.38
505.123	94.38
505.34	94.38
505.557	76.38
505.773	96.38
505.99	107.38
506.207	103.38
506.423	87.38
506.64	93.38
506.856	85.38
507.073	74.38
507.289	116.38
507.506	95.38
507.722	101.38
507.939	79.38
508.155	93.38
508.372	98.38
508.588	83.38
508.805	92.38
509.021	97.38
509.238	85.38
509.454	85.38
509.67	96.38
509.887	85.38
510.103	90.38
510.319	94.38
510.536	70.38
510.752	81.38
510.968	85.38
511.184	84.38
511.401	93.38
511.617	86.38
511.833	79.38
512.049	105.38
512.265	75.38
512.481	86.38
512.698	91.38
512.914	104.38
513.13	83.38
513.346	88.38
513.562	86.38
513.778	96.38
513.994	94.38
514.21	87.38
514.426	91.38
514.642	99.38
514.858	78.38
515.074	92.38
515.29	87.38
515.506	83.38
515.721	102.38
515.937	79.38
516.153	98.38
516.369	91.38
516.585	93.38
516.801	88.38
517.016	94.38
517.232	78.38
517.448	96.38
517.664	88.38
517.879	96.38
518.095	79.38
518.311	92.38
518.527	104.38
518.742	93.38
518.958	86.38
519.173	92.38
519.389	92.38
519.605	90.38
519.82	91.38
520.036	99.38
520.251	102.38
520.467	100.38
520.682	106.38
520.898	88.38
521.113	80.38
521.329	95.38
521.544	101.38
521.76	104.38
521.975	76.38
522.19	108.38
522.406	77.38
522.621	73.38
522.836	85.38
523.052	79.38
523.267	79.38
523.482	89.38
523.698	94.38
523.913	92.38
524.128	110.38
524.343	99.38
524.559	104.38
524.774	90.38
524.989	85.38
525.204	95.38
525.419	95.38
525.634	86.38
525.849	94.38
526.064	94.38
526.28	77.38
526.495	85.38
526.71	84.38
526.925	91.38
527.14	85.38
527.355	80.38
527.57	95.38
527.785	79.38
527.999	86.38
528.214	106.38
528.429	84.38
528.644	83.38
528.859	92.38
529.074	93.38
529.289	99.38
529.503	91.38
529.718	95.38
529.933	83.38
530.148	74.38
530.363	75.38
530.577	100.38
530.792	80.38
531.007	82.38
531.221	85.38
531.436	88.38
531.651	88.38
531.865	92.38
532.08	90.38
532.295	82.38
532.509	89.38
532.724	93.38
532.938	79.38
533.153	92.38
533.367	75.38
533.582	89.38
533.796	75.38
534.011	91.38
534.225	74.38
534.44	87.38
534.654	87.38
534.868	93.38
535.083	87.38
535.297	95.38
535.511	98.38
535.726	85.38
535.94	88.38
536.154	72.38
536.369	95.38
536.583	85.38
536.797	87.38
537.011	89.38
537.225	77.38
537.44	82.38
537.654	90.38
537.868	89.38
538.082	92.38
538.296	79.38
538.51	89.38
538.724	92.38
538.938	93.38
539.153	85.38
539.367	87.38
539.581	105.38
539.795	80.38
540.009	89.38
540.222	97.38
540.436	98.38
540.65	93.38
540.864	90.38
541.078	79.38
541.292	94.38
541.506	86.38
541.72	97.38
541.934	100.38
542.147	98.38
542.361	87.38
542.575	86.38
542.789	101.38
543.002	85.38
543.216	100.38
543.43	90.38
543.644	87.38
543.857	94.38
544.071	89.38
544.285	106.38
544.498	88.38
544.712	108.38
544.925	98.38
545.139	99.38
545.352	90.38
545.566	91.38
545.779	89.38
545.993	98.38
546.206	95.38
546.42	77.38
546.633	77.38
546.847	82.38
547.06	89.38
547.274	92.38
547.487	104.38
547.7	101.38
547.914	89.38
548.127	83.38
548.34	89.38
548.554	100.38
548.767	76.38
548.98	87.38
549.193	101.38
549.407	102.38
549.62	84.38
549.833	89.38
550.046	85.38
550.259	95.38
550.473	115.38
550.686	90.38
550.899	106.38
551.112	112.38
551.325	107.38
551.538	98.38
551.751	68.38
551.964	91.38
552.177	86.38
552.39	109.38
552.603	84.38
552.816	94.38
553.029	94.38
553.242	98.38
553.455	94.38
553.667	94.38
553.88	88.38
554.093	90.38
554.306	83.38
554.519	89.38
554.732	97.38
554.944	99.38
555.157	88.38
555.37	85.38
555.583	93.38
555.795	94.38
556.008	90.38
556.221	89.38
556.433	105.38
556.646	104.38
556.859	74.38
557.071	90.38
557.284	91.38
557.496	109.38
557.709	95.38
557.921	75.38
558.134	90.38
558.346	83.38
558.559	58.38
558.771	94.38
558.984	97.38
559.196	97.38
559.409	94.38
559.621	98.38
559.833	92.38
560.046	102.38
560.258	79.38
560.47	86.38
560.683	83.38
560.895	86.38
561.107	93.38
561.32	93.38
561.532	85.38
561.744	95.38
561.956	92.38
562.168	88.38
562.381	82.38
562.593	90.38
562.805	85.38
563.017	78.38
563.229	91.38
563.441	98.38
563.653	95.38
563.865	95.38
564.077	78.38
564.289	81.38
564.501	77.38
564.713	97.38
564.925	100.38
565.137	84.38
565.349	90.38
565.561	82.38
565.773	98.38
565.985	83.38
566.197	84.38
566.408	97.38
566.62	94.38
566.832	89.38
567.044	93.38
567.255	95.38
567.467	99.38
567.679	92.38
567.891	102.38
568.102	85.38
568.314	83.38
568.526	90.38
568.737	87.38
568.949	97.38
569.161	86.38
569.372	93.38
569.584	96.38
569.795	106.38
570.007	95.38
570.218	90.38
570.43	99.38
570.641	92.38
570.853	87.38
571.064	85.38
571.276	89.38
571.487	95.38
571.698	77.38
571.91	85.38
572.121	78.38
572.333	85.38
572.544	87.38
572.755	82.38
572.966	77.38
573.178	91.38
573.389	87.38
573.6	70.38
573.811	94.38
574.023	78.38
574.234	87.38
574.445	81.38
574.656	93.38
574.867	95.38
575.078	92.38
575.289	85.38
575.501	80.38
575.712	85.38
575.923	83.38
576.134	89.38
576.345	87.38
576.556	91.38
576.767	90.38
576.978	96.38
577.188	85.38
577.399	85.38
577.61	87.38
577.821	83.38
578.032	78.38
578.243	95.38
578.454	103.38
578.665	90.38
578.875	95.38
579.086	89.38
579.297	75.38
579.508	75.38
579.718	93.38
579.929	83.38
580.14	86.38
580.35	91.38
580.561	90.38
580.772	78.38
580.982	86.38
581.193	81.38
581.403	90.38
581.614	92.38
581.825	93.38
582.035	82.38
582.246	87.38
582.456	86.38
582.667	87.38
582.877	86.38
583.087	79.38
583.298	85.38
583.508	77.38
583.719	89.38
583.929	89.38
584.139	90.38
584.35	105.38
584.56	88.38
584.77	71.38
584.981	78.38
585.191	84.38
585.401	83.38
585.611	97.38
585.821	90.38
586.032	87.38
586.242	81.38
586.452	95.38
586.662	74.38
586.872	85.38
587.082	95.38
587.292	102.38
587.502	97.38
587.713	76.38
587.923	86.38
588.133	88.38
588.343	89.38
588.553	90.38
588.762	98.38
588.972	92.38
589.182	86.38
589.392	79.38
589.602	91.38
589.812	72.38
590.022	96.38
590.232	89.38
590.441	91.38
590.651	88.38
590.861	93.38
591.071	79.38
591.281	80.38
591.49	88.38
591.7	80.38
591.91	97.38
592.119	79.38
592.329	87.38
592.539	88.38
592.748	93.38
592.958	81.38
593.167	94.38
593.377	82.38
593.587	91.38
593.796	94.38
594.006	83.38
594.215	94.38
594.424	90.38
594.634	84.38
594.843	87.38
595.053	91.38
595.262	81.38
595.472	100.38
595.681	85.38
595.89	82.38
596.1	97.38
596.309	89.38
596.518	75.38
596.727	88.38
596.937	89.38
597.146	86.38
597.355	82.38
597.564	83.38
597.774	97.38
597.983	77.38
598.192	88.38
598.401	82.38
598.61	93.38
598.819	83.38
599.028	86.38
599.237	81.38
599.446	91.38
599.655	87.38
599.864	79.38
600.073	83.38
600.282	81.38
600.491	107.38
600.7	92.38
600.909	86.38
601.118	82.38
601.327	86.38
601.536	94.38
601.745	74.38
601.953	98.38
602.162	73.38
602.371	79.38
602.58	84.38
602.789	88.38
602.997	84.38
603.206	77.38
603.415	90.38
603.623	94.38
603.832	89.38
604.041	83.38
604.249	81.38
604.458	74.38
604.666	83.38
604.875	82.38
605.084	85.38
605.292	88.38
605.501	89.38
605.709	84.38
605.918	72.38
606.126	87.38
606.334	89.38
606.543	76.38
606.751	85.38
606.96	87.38
607.168	89.38
607.376	86.38
607.585	96.38
607.793	94.38
608.001	83.38
608.21	74.38
608.418	97.38
608.626	93.38
608.834	90.38
609.043	97.38
609.251	84.38
609.459	100.38
609.667	75.38
609.875	84.38
610.083	91.38
610.291	100.38
610.499	89.38
610.707	89.38
610.916	96.38
611.124	82.38
611.332	86.38
611.54	96.38
611.748	77.38
611.955	88.38
612.163	73.38
612.371	100.38
612.579	78.38
612.787	79.38
612.995	88.38
613.203	94.38
613.411	86.38
613.618	85.38
613.826	79.38
614.034	101.38
614.242	87.38
614.449	85.38
614.657	84.38
614.865	83.38
615.072	85.38
615.28	90.38
615.488	86.38
615.695	99.38
615.903	106.38
616.111	85.38
616.318	79.38
616.526	94.38
616.733	77.38
616.941	87.38
617.148	102.38
617.356	92.38
617.563	89.38
617.771	79.38
617.978	86.38
618.185	66.38
618.393	87.38
618.6	86.38
618.807	86.38
619.015	90.38
619.222	86.38
619.429	91.38
619.637	82.38
619.844	82.38
620.051	87.38
620.258	85.38
620.466	93.38
620.673	76.38
620.88	93.38
621.087	84.38
621.294	83.38
621.501	70.38
621.708	91.38
621.915	84.38
622.122	84.38
622.329	79.38
622.536	80.38
622.743	91.38
622.95	93.38
623.157	76.38
623.364	93.38
623.571	88.38
623.778	83.38
623.985	85.38
624.192	90.38
624.399	78.38
624.606	78.38
624.812	76.38
625.019	86.38
625.226	98.38
625.433	100.38
625.639	90.38
625.846	86.38
626.053	78.38
626.259	96.38
626.466	103.38
626.673	83.38
626.879	85.38
627.086	78.38
627.293	87.38
627.499	104.38
627.706	103.38
627.912	93.38
628.119	86.38
628.325	90.38
628.532	78.38
628.738	79.38
628.945	91.38
629.151	98.38
629.357	76.38
629.564	97.38
629.77	81.38
629.976	85.38
630.183	79.38
630.389	89.38
630.595	84.38
630.802	93.38
631.008	94.38
631.214	83.38
631.42	86.38
631.627	91.38
631.833	93.38
632.039	87.38
632.245	102.38
632.451	85.38
632.657	72.38
632.863	86.38
633.069	69.38
633.275	87.38
633.481	81.38
633.688	109.38
633.893	87.38
634.099	77.38
634.305	90.38
634.511	90.38
634.717	96.38
634.923	82.38
635.129	80.38
635.335	85.38
635.541	69.38
635.747	82.38
635.952	101.38
636.158	77.38
636.364	97.38
636.57	81.38
636.775	85.38
636.981	80.38
637.187	84.38
637.392	93.38
637.598	105.38
637.804	79.38
638.009	80.38
638.215	75.38
638.421	88.38
638.626	77.38
638.832	90.38
639.037	99.38
639.243	81.38
639.448	78.38
639.654	89.38
639.859	93.38
640.065	89.38
640.27	106.38
640.475	87.38
640.681	94.38
640.886	78.38
641.091	84.38
641.297	85.38
641.502	91.38
641.707	78.38
641.913	85.38
642.118	82.38
642.323	93.38
642.528	76.38
642.733	93.38
642.939	80.38
643.144	92.38
643.349	93.38
643.554	85.38
643.759	90.38
643.964	74.38
644.169	81.38
644.374	65.38
644.579	75.38
644.784	87.38
644.989	67.38
645.194	82.38
645.399	81.38
645.604	94.38
645.809	81.38
646.014	84.38
646.219	88.38
646.423	84.38
646.628	83.38
646.833	95.38
647.038	96.38
647.243	94.38
647.447	90.38
647.652	82.38
647.857	76.38
648.062	95.38
648.266	85.38
648.471	89.38
648.676	98.38
648.88	92.38
649.085	93.38
649.289	80.38
649.494	85.38
649.698	76.38
649.903	85.38
650.107	85.38
650.312	90.38
650.516	71.38
650.721	80.38
650.925	88.38
651.13	90.38
651.334	78.38
651.539	84.38
651.743	85.38
651.947	67.38
652.152	84.38
652.356	90.38
652.56	82.38
652.764	75.38
652.969	84.38
653.173	89.38
653.377	72.38
653.581	85.38
653.785	83.38
653.99	84.38
654.194	74.38
654.398	95.38
654.602	96.38
654.806	83.38
655.01	83.38
655.214	82.38
655.418	76.38
655.622	88.38
655.826	81.38
656.03	78.38
656.234	94.38
656.438	79.38
656.642	70.38
656.846	93.38
657.049	91.38
657.253	81.38
657.457	83.38
657.661	89.38
657.865	83.38
658.068	93.38
658.272	75.38
658.476	76.38
658.68	87.38
658.883	83.38
659.087	94.38
659.291	93.38
659.494	95.38
659.698	80.38
659.901	76.38
660.105	84.38
660.309	93.38
660.512	97.38
660.716	91.38
660.919	87.38
661.123	89.38
661.326	85.38
661.53	85.38
661.733	99.38
661.936	85.38
662.14	96.38
662.343	78.38
662.546	78.38
662.75	70.38
662.953	72.38
663.156	78.38
663.36	83.38
663.563	77.38
663.766	70.38
663.969	63.38
664.173	75.38
664.376	86.38
664.579	86.38
664.782	80.38
664.985	68.38
665.188	84.38
665.391	86.38
665.594	90.38
665.797	76.38
666	79.38
666.203	92.38
666.406	73.38
666.609	80.38
666.812	80.38
667.015	87.38
667.218	87.38
667.421	91.38
667.624	73.38
667.827	80.38
668.03	84.38
668.232	73.38
668.435	100.38
668.638	94.38
668.841	74.38
669.043	93.38
669.246	73.38
669.449	77.38
669.651	87.38
669.854	87.38
670.057	90.38
670.259	86.38
670.462	94.38
670.665	82.38
670.867	71.38
671.07	94.38
671.272	89.38
671.475	81.38
671.677	85.38
671.88	80.38
672.082	81.38
672.284	78.38
672.487	77.38
672.689	75.38
672.892	81.38
