Data from Ni(NO3)2@0.0625M.TitratingCurve.Agarose3%dH2O.NegLispCup.LampEnergy10.LIBS07252019_HRD10591_18-12-53-569.txt Node
Date: Thu Jul 25 18:12:53 EDT 2019
User: cochatt
Spectrometer: HR+D1059
Trigger mode: 1
Integration Time (sec): 1.000000E-1
Scans to average: 1
Electric dark correction enabled: true
Nonlinearity correction enabled: false
Boxcar width: 0
XAxis mode: Wavelengths
Number of Pixels in Spectrum: 2048
>>>>>Begin Spectral Data<<<<<
223.165	-6.56
223.4	-6.56
223.635	-6.56
223.869	-19.56
224.104	-16.56
224.338	-13.56
224.573	-22.56
224.808	-22.56
225.042	-11.56
225.277	-6.56
225.511	-1.56
225.746	4.44
225.98	4.44
226.215	11.44
226.449	22.44
226.683	28.44
226.918	29.44
227.152	20.44
227.387	34.44
227.621	54.44
227.856	37.44
228.09	34.44
228.324	34.44
228.559	46.44
228.793	77.44
229.027	115.44
229.262	107.44
229.496	116.44
229.73	95.44
229.964	125.44
230.199	127.44
230.433	123.44
230.667	125.44
230.901	104.44
231.136	125.44
231.37	127.44
231.604	126.44
231.838	143.44
232.072	144.44
232.306	146.44
232.541	146.44
232.775	126.44
233.009	138.44
233.243	151.44
233.477	142.44
233.711	141.44
233.945	121.44
234.179	142.44
234.413	144.44
234.647	139.44
234.881	141.44
235.115	155.44
235.349	137.44
235.583	125.44
235.817	147.44
236.051	141.44
236.285	143.44
236.519	139.44
236.753	153.44
236.987	134.44
237.221	133.44
237.455	146.44
237.689	155.44
237.922	157.44
238.156	163.44
238.39	148.44
238.624	147.44
238.858	161.44
239.091	169.44
239.325	158.44
239.559	163.44
239.793	164.44
240.027	177.44
240.26	164.44
240.494	172.44
240.728	165.44
240.961	157.44
241.195	167.44
241.429	150.44
241.662	173.44
241.896	181.44
242.13	180.44
242.363	168.44
242.597	185.44
242.83	178.44
243.064	179.44
243.298	175.44
243.531	187.44
243.765	162.44
243.998	184.44
244.232	179.44
244.465	189.44
244.699	197.44
244.932	204.44
245.166	210.44
245.399	203.44
245.633	206.44
245.866	190.44
246.099	200.44
246.333	205.44
246.566	195.44
246.8	219.44
247.033	183.44
247.266	201.44
247.5	208.44
247.733	205.44
247.966	209.44
248.2	226.44
248.433	213.44
248.666	221.44
248.899	223.44
249.133	217.44
249.366	224.44
249.599	203.44
249.832	210.44
250.066	229.44
250.299	229.44
250.532	233.44
250.765	220.44
250.998	213.44
251.231	242.44
251.465	230.44
251.698	216.44
251.931	235.44
252.164	228.44
252.397	224.44
252.63	250.44
252.863	233.44
253.096	234.44
253.329	230.44
253.562	251.44
253.795	246.44
254.028	244.44
254.261	266.44
254.494	239.44
254.727	255.44
254.96	255.44
255.193	248.44
255.426	241.44
255.659	252.44
255.892	264.44
256.124	249.44
256.357	263.44
256.59	259.44
256.823	254.44
257.056	266.44
257.289	267.44
257.521	268.44
257.754	261.44
257.987	258.44
258.22	261.44
258.452	278.44
258.685	292.44
258.918	282.44
259.151	281.44
259.383	294.44
259.616	275.44
259.849	276.44
260.081	286.44
260.314	277.44
260.547	277.44
260.779	296.44
261.012	282.44
261.244	297.44
261.477	285.44
261.71	273.44
261.942	291.44
262.175	296.44
262.407	298.44
262.64	305.44
262.872	292.44
263.105	294.44
263.337	306.44
263.57	306.44
263.802	307.44
264.035	301.44
264.267	311.44
264.499	307.44
264.732	308.44
264.964	330.44
265.197	304.44
265.429	321.44
265.661	318.44
265.894	316.44
266.126	310.44
266.358	307.44
266.591	326.44
266.823	335.44
267.055	336.44
267.287	321.44
267.52	323.44
267.752	310.44
267.984	344.44
268.216	311.44
268.448	333.44
268.681	331.44
268.913	326.44
269.145	326.44
269.377	335.44
269.609	329.44
269.841	348.44
270.073	331.44
270.306	343.44
270.538	330.44
270.77	335.44
271.002	344.44
271.234	342.44
271.466	334.44
271.698	335.44
271.93	340.44
272.162	361.44
272.394	359.44
272.626	342.44
272.858	354.44
273.09	355.44
273.322	336.44
273.553	350.44
273.785	350.44
274.017	342.44
274.249	356.44
274.481	363.44
274.713	350.44
274.945	366.44
275.176	367.44
275.408	374.44
275.64	365.44
275.872	357.44
276.104	381.44
276.335	379.44
276.567	382.44
276.799	397.44
277.031	365.44
277.262	373.44
277.494	364.44
277.726	383.44
277.957	374.44
278.189	389.44
278.421	371.44
278.652	402.44
278.884	400.44
279.115	395.44
279.347	391.44
279.579	406.44
279.81	380.44
280.042	398.44
280.273	398.44
280.505	389.44
280.736	401.44
280.968	385.44
281.199	409.44
281.431	408.44
281.662	400.44
281.894	414.44
282.125	400.44
282.356	424.44
282.588	405.44
282.819	404.44
283.051	413.44
283.282	405.44
283.513	405.44
283.745	394.44
283.976	397.44
284.207	457.44
284.439	435.44
284.67	422.44
284.901	437.44
285.132	433.44
285.364	427.44
285.595	429.44
285.826	444.44
286.057	427.44
286.288	445.44
286.52	447.44
286.751	445.44
286.982	441.44
287.213	414.44
287.444	432.44
287.675	426.44
287.906	440.44
288.138	445.44
288.369	431.44
288.6	443.44
288.831	472.44
289.062	451.44
289.293	436.44
289.524	440.44
289.755	457.44
289.986	467.44
290.217	434.44
290.448	461.44
290.679	448.44
290.91	456.44
291.141	458.44
291.371	464.44
291.602	497.44
291.833	470.44
292.064	463.44
292.295	468.44
292.526	459.44
292.757	481.44
292.987	468.44
293.218	460.44
293.449	515.44
293.68	486.44
293.91	466.44
294.141	451.44
294.372	449.44
294.603	474.44
294.833	461.44
295.064	463.44
295.295	465.44
295.525	470.44
295.756	501.44
295.987	477.44
296.217	471.44
296.448	468.44
296.679	478.44
296.909	480.44
297.14	489.44
297.37	495.44
297.601	502.44
297.831	498.44
298.062	475.44
298.292	494.44
298.523	513.44
298.753	531.44
298.984	527.44
299.214	492.44
299.445	523.44
299.675	511.44
299.905	502.44
300.136	507.44
300.366	522.44
300.597	528.44
300.827	541.44
301.057	525.44
301.288	521.44
301.518	541.44
301.748	553.44
301.979	535.44
302.209	524.44
302.439	535.44
302.669	494.44
302.9	520.44
303.13	522.44
303.36	525.44
303.59	519.44
303.82	514.44
304.051	549.44
304.281	524.44
304.511	517.44
304.741	514.44
304.971	520.44
305.201	531.44
305.431	523.44
305.661	521.44
305.891	531.44
306.121	529.44
306.352	514.44
306.582	518.44
306.812	510.44
307.042	500.44
307.272	492.44
307.502	513.44
307.731	506.44
307.961	494.44
308.191	515.44
308.421	525.44
308.651	507.44
308.881	531.44
309.111	531.44
309.341	508.44
309.571	516.44
309.8	507.44
310.03	494.44
310.26	533.44
310.49	537.44
310.72	524.44
310.949	517.44
311.179	513.44
311.409	514.44
311.639	512.44
311.868	533.44
312.098	521.44
312.328	537.44
312.557	533.44
312.787	536.44
313.017	510.44
313.246	567.44
313.476	551.44
313.706	554.44
313.935	573.44
314.165	565.44
314.394	556.44
314.624	527.44
314.853	540.44
315.083	558.44
315.312	553.44
315.542	548.44
315.771	545.44
316.001	540.44
316.23	542.44
316.46	548.44
316.689	537.44
316.919	533.44
317.148	533.44
317.377	550.44
317.607	535.44
317.836	529.44
318.065	562.44
318.295	574.44
318.524	553.44
318.753	535.44
318.983	519.44
319.212	545.44
319.441	533.44
319.67	543.44
319.9	526.44
320.129	559.44
320.358	553.44
320.587	532.44
320.816	540.44
321.046	558.44
321.275	563.44
321.504	531.44
321.733	557.44
321.962	565.44
322.191	536.44
322.42	542.44
322.649	561.44
322.878	568.44
323.108	538.44
323.337	551.44
323.566	564.44
323.795	566.44
324.024	573.44
324.253	537.44
324.482	559.44
324.71	570.44
324.939	567.44
325.168	568.44
325.397	579.44
325.626	562.44
325.855	570.44
326.084	597.44
326.313	596.44
326.542	614.44
326.77	607.44
326.999	606.44
327.228	595.44
327.457	583.44
327.686	590.44
327.914	610.44
328.143	593.44
328.372	592.44
328.6	584.44
328.829	611.44
329.058	599.44
329.287	609.44
329.515	614.44
329.744	597.44
329.972	597.44
330.201	605.44
330.43	603.44
330.658	606.44
330.887	611.44
331.115	614.44
331.344	634.44
331.572	629.44
331.801	654.44
332.03	679.44
332.258	677.44
332.486	665.44
332.715	723.44
332.943	754.44
333.172	775.44
333.4	806.44
333.629	821.44
333.857	826.44
334.085	802.44
334.314	806.44
334.542	765.44
334.771	756.44
334.999	742.44
335.227	745.44
335.455	748.44
335.684	778.44
335.912	764.44
336.14	755.44
336.369	703.44
336.597	722.44
336.825	731.44
337.053	725.44
337.281	717.44
337.51	691.44
337.738	702.44
337.966	695.44
338.194	654.44
338.422	652.44
338.65	659.44
338.878	657.44
339.106	665.44
339.334	651.44
339.562	661.44
339.79	635.44
340.018	633.44
340.246	610.44
340.474	614.44
340.702	644.44
340.93	649.44
341.158	636.44
341.386	636.44
341.614	648.44
341.842	636.44
342.07	645.44
342.298	624.44
342.526	619.44
342.754	633.44
342.981	641.44
343.209	636.44
343.437	686.44
343.665	733.44
343.893	778.44
344.12	774.44
344.348	779.44
344.576	708.44
344.804	697.44
345.031	672.44
345.259	633.44
345.487	645.44
345.714	647.44
345.942	621.44
346.17	648.44
346.397	650.44
346.625	616.44
346.853	627.44
347.08	629.44
347.308	619.44
347.535	627.44
347.763	655.44
347.99	617.44
348.218	615.44
348.445	645.44
348.673	609.44
348.9	627.44
349.128	623.44
349.355	599.44
349.583	633.44
349.81	610.44
350.037	604.44
350.265	586.44
350.492	601.44
350.72	606.44
350.947	590.44
351.174	617.44
351.402	593.44
351.629	605.44
351.856	596.44
352.083	619.44
352.311	600.44
352.538	593.44
352.765	596.44
352.992	591.44
353.22	591.44
353.447	589.44
353.674	552.44
353.901	614.44
354.128	611.44
354.355	600.44
354.583	617.44
354.81	589.44
355.037	593.44
355.264	605.44
355.491	614.44
355.718	606.44
355.945	578.44
356.172	595.44
356.399	590.44
356.626	609.44
356.853	626.44
357.08	572.44
357.307	613.44
357.534	590.44
357.761	599.44
357.988	582.44
358.215	602.44
358.441	595.44
358.668	615.44
358.895	612.44
359.122	589.44
359.349	606.44
359.576	589.44
359.802	597.44
360.029	615.44
360.256	614.44
360.483	586.44
360.709	603.44
360.936	594.44
361.163	581.44
361.39	606.44
361.616	615.44
361.843	600.44
362.07	617.44
362.296	606.44
362.523	579.44
362.749	607.44
362.976	588.44
363.203	579.44
363.429	578.44
363.656	598.44
363.882	559.44
364.109	584.44
364.335	571.44
364.562	584.44
364.788	591.44
365.015	611.44
365.241	579.44
365.468	586.44
365.694	563.44
365.92	597.44
366.147	583.44
366.373	595.44
366.599	601.44
366.826	596.44
367.052	602.44
367.278	593.44
367.505	603.44
367.731	591.44
367.957	601.44
368.184	580.44
368.41	587.44
368.636	603.44
368.862	622.44
369.089	603.44
369.315	617.44
369.541	615.44
369.767	629.44
369.993	609.44
370.219	609.44
370.445	623.44
370.672	614.44
370.898	636.44
371.124	639.44
371.35	652.44
371.576	641.44
371.802	620.44
372.028	635.44
372.254	657.44
372.48	641.44
372.706	684.44
372.932	681.44
373.158	691.44
373.384	661.44
373.61	661.44
373.835	671.44
374.061	639.44
374.287	651.44
374.513	653.44
374.739	682.44
374.965	729.44
375.191	722.44
375.416	728.44
375.642	690.44
375.868	693.44
376.094	682.44
376.319	661.44
376.545	661.44
376.771	655.44
376.997	670.44
377.222	654.44
377.448	652.44
377.674	642.44
377.899	654.44
378.125	639.44
378.35	629.44
378.576	615.44
378.802	628.44
379.027	665.44
379.253	632.44
379.478	640.44
379.704	625.44
379.929	621.44
380.155	649.44
380.38	653.44
380.606	649.44
380.831	635.44
381.057	633.44
381.282	634.44
381.507	643.44
381.733	641.44
381.958	643.44
382.184	658.44
382.409	665.44
382.634	681.44
382.86	664.44
383.085	693.44
383.31	711.44
383.535	714.44
383.761	723.44
383.986	706.44
384.211	745.44
384.436	742.44
384.662	754.44
384.887	760.44
385.112	750.44
385.337	780.44
385.562	761.44
385.787	771.44
386.013	776.44
386.238	784.44
386.463	794.44
386.688	795.44
386.913	777.44
387.138	782.44
387.363	753.44
387.588	758.44
387.813	783.44
388.038	786.44
388.263	759.44
388.488	769.44
388.713	790.44
388.938	743.44
389.163	741.44
389.387	757.44
389.612	754.44
389.837	723.44
390.062	723.44
390.287	731.44
390.512	745.44
390.736	782.44
390.961	774.44
391.186	785.44
391.411	798.44
391.636	836.44
391.86	845.44
392.085	852.44
392.31	868.44
392.534	856.44
392.759	834.44
392.984	828.44
393.208	805.44
393.433	826.44
393.658	794.44
393.882	806.44
394.107	815.44
394.331	812.44
394.556	805.44
394.78	828.44
395.005	843.44
395.229	823.44
395.454	873.44
395.678	877.44
395.903	879.44
396.127	835.44
396.352	820.44
396.576	842.44
396.801	806.44
397.025	812.44
397.249	845.44
397.474	861.44
397.698	852.44
397.922	863.44
398.147	853.44
398.371	868.44
398.595	897.44
398.82	951.44
399.044	985.44
399.268	1117.44
399.492	1300.44
399.717	1478.44
399.941	1485.44
400.165	1355.44
400.389	1209.44
400.613	1069.44
400.837	997.44
401.062	974.44
401.286	962.44
401.51	941.44
401.734	962.44
401.958	952.44
402.182	1000.44
402.406	987.44
402.63	999.44
402.854	1045.44
403.078	1036.44
403.302	1070.44
403.526	1095.44
403.75	1110.44
403.974	1161.44
404.198	1121.44
404.422	1140.44
404.645	1125.44
404.869	1116.44
405.093	1117.44
405.317	1092.44
405.541	1049.44
405.765	1047.44
405.988	1063.44
406.212	1050.44
406.436	1073.44
406.66	1065.44
406.883	1082.44
407.107	1176.44
407.331	1222.44
407.555	1262.44
407.778	1257.44
408.002	1219.44
408.226	1191.44
408.449	1169.44
408.673	1111.44
408.896	1101.44
409.12	1091.44
409.344	1104.44
409.567	1089.44
409.791	1132.44
410.014	1081.44
410.238	1132.44
410.461	1124.44
410.685	1094.44
410.908	1074.44
411.132	1024.44
411.355	1006.44
411.578	1033.44
411.802	993.44
412.025	974.44
412.249	1025.44
412.472	1009.44
412.695	998.44
412.919	972.44
413.142	961.44
413.365	955.44
413.589	973.44
413.812	961.44
414.035	952.44
414.258	984.44
414.482	978.44
414.705	961.44
414.928	992.44
415.151	988.44
415.374	974.44
415.597	965.44
415.821	959.44
416.044	971.44
416.267	947.44
416.49	930.44
416.713	912.44
416.936	955.44
417.159	933.44
417.382	965.44
417.605	942.44
417.828	945.44
418.051	940.44
418.274	975.44
418.497	950.44
418.72	979.44
418.943	970.44
419.166	1063.44
419.389	1168.44
419.611	1125.44
419.834	1094.44
420.057	1003.44
420.28	973.44
420.503	966.44
420.726	984.44
420.948	953.44
421.171	938.44
421.394	963.44
421.617	934.44
421.839	972.44
422.062	954.44
422.285	980.44
422.507	985.44
422.73	998.44
422.953	1011.44
423.175	1029.44
423.398	1052.44
423.621	1023.44
423.843	1040.44
424.066	1047.44
424.288	1022.44
424.511	1019.44
424.733	987.44
424.956	993.44
425.178	1004.44
425.401	988.44
425.623	966.44
425.846	957.44
426.068	919.44
426.291	919.44
426.513	909.44
426.735	909.44
426.958	880.44
427.18	873.44
427.402	912.44
427.625	886.44
427.847	868.44
428.069	870.44
428.292	863.44
428.514	845.44
428.736	842.44
428.958	859.44
429.181	859.44
429.403	848.44
429.625	838.44
429.847	868.44
430.069	851.44
430.292	869.44
430.514	853.44
430.736	842.44
430.958	835.44
431.18	836.44
431.402	855.44
431.624	850.44
431.846	885.44
432.068	884.44
432.29	897.44
432.512	844.44
432.734	894.44
432.956	857.44
433.178	872.44
433.4	846.44
433.622	878.44
433.844	866.44
434.066	917.44
434.287	927.44
434.509	937.44
434.731	964.44
434.953	1027.44
435.175	1009.44
435.397	967.44
435.618	929.44
435.84	901.44
436.062	886.44
436.284	861.44
436.505	875.44
436.727	879.44
436.949	881.44
437.17	877.44
437.392	860.44
437.614	816.44
437.835	843.44
438.057	860.44
438.278	850.44
438.5	845.44
438.721	833.44
438.943	830.44
439.165	846.44
439.386	868.44
439.608	882.44
439.829	874.44
440.05	854.44
440.272	872.44
440.493	892.44
440.715	903.44
440.936	906.44
441.158	886.44
441.379	959.44
441.6	982.44
441.822	1011.44
442.043	1029.44
442.264	994.44
442.486	978.44
442.707	948.44
442.928	968.44
443.149	955.44
443.371	971.44
443.592	1003.44
443.813	978.44
444.034	977.44
444.255	1042.44
444.476	1074.44
444.698	1142.44
444.919	1198.44
445.14	1271.44
445.361	1141.44
445.582	1046.44
445.803	973.44
446.024	938.44
446.245	931.44
446.466	897.44
446.687	870.44
446.908	889.44
447.129	851.44
447.35	831.44
447.571	858.44
447.792	830.44
448.013	846.44
448.234	809.44
448.455	816.44
448.675	796.44
448.896	791.44
449.117	787.44
449.338	804.44
449.559	805.44
449.779	817.44
450	779.44
450.221	802.44
450.442	814.44
450.662	826.44
450.883	825.44
451.104	827.44
451.324	841.44
451.545	820.44
451.766	817.44
451.986	808.44
452.207	817.44
452.428	799.44
452.648	826.44
452.869	814.44
453.089	797.44
453.31	785.44
453.53	779.44
453.751	782.44
453.971	771.44
454.192	782.44
454.412	773.44
454.633	769.44
454.853	789.44
455.073	749.44
455.294	756.44
455.514	742.44
455.734	748.44
455.955	719.44
456.175	732.44
456.395	748.44
456.616	765.44
456.836	773.44
457.056	758.44
457.276	731.44
457.497	753.44
457.717	739.44
457.937	777.44
458.157	748.44
458.377	758.44
458.598	803.44
458.818	809.44
459.038	835.44
459.258	854.44
459.478	910.44
459.698	941.44
459.918	947.44
460.138	1006.44
460.358	1048.44
460.578	1032.44
460.798	1070.44
461.018	1057.44
461.238	1069.44
461.458	1036.44
461.678	1034.44
461.898	1050.44
462.118	1046.44
462.338	1103.44
462.558	1146.44
462.777	1226.44
462.997	1291.44
463.217	1395.44
463.437	1427.44
463.657	1344.44
463.876	1267.44
464.096	1269.44
464.316	1199.44
464.536	1255.44
464.755	1209.44
464.975	1143.44
465.195	1086.44
465.414	1035.44
465.634	952.44
465.854	938.44
466.073	921.44
466.293	885.44
466.512	884.44
466.732	877.44
466.951	867.44
467.171	872.44
467.391	872.44
467.61	847.44
467.829	819.44
468.049	861.44
468.268	811.44
468.488	795.44
468.707	810.44
468.927	799.44
469.146	825.44
469.365	835.44
469.585	833.44
469.804	830.44
470.023	882.44
470.243	890.44
470.462	873.44
470.681	886.44
470.901	890.44
471.12	884.44
471.339	860.44
471.558	819.44
471.777	847.44
471.997	834.44
472.216	786.44
472.435	812.44
472.654	793.44
472.873	809.44
473.092	802.44
473.311	781.44
473.53	804.44
473.749	790.44
473.968	817.44
474.187	782.44
474.406	785.44
474.625	807.44
474.844	796.44
475.063	817.44
475.282	788.44
475.501	806.44
475.72	805.44
475.939	810.44
476.158	821.44
476.377	837.44
476.596	828.44
476.814	834.44
477.033	846.44
477.252	885.44
477.471	871.44
477.69	901.44
477.908	907.44
478.127	941.44
478.346	946.44
478.564	951.44
478.783	990.44
479.002	1006.44
479.22	1002.44
479.439	997.44
479.658	992.44
479.876	989.44
480.095	1006.44
480.313	1053.44
480.532	1073.44
480.751	1092.44
480.969	1029.44
481.188	984.44
481.406	970.44
481.624	955.44
481.843	919.44
482.061	900.44
482.28	903.44
482.498	900.44
482.717	899.44
482.935	892.44
483.153	901.44
483.372	900.44
483.59	910.44
483.808	914.44
484.027	927.44
484.245	903.44
484.463	968.44
484.681	939.44
484.9	933.44
485.118	964.44
485.336	966.44
485.554	961.44
485.772	953.44
485.99	981.44
486.209	985.44
486.427	995.44
486.645	970.44
486.863	955.44
487.081	949.44
487.299	975.44
487.517	989.44
487.735	966.44
487.953	992.44
488.171	948.44
488.389	977.44
488.607	963.44
488.825	979.44
489.043	942.44
489.261	975.44
489.479	955.44
489.696	963.44
489.914	962.44
490.132	951.44
490.35	984.44
490.568	978.44
490.786	959.44
491.003	958.44
491.221	977.44
491.439	955.44
491.657	959.44
491.874	973.44
492.092	964.44
492.31	972.44
492.527	962.44
492.745	974.44
492.963	985.44
493.18	958.44
493.398	985.44
493.615	1037.44
493.833	991.44
494.05	994.44
494.268	1038.44
494.485	1005.44
494.703	979.44
494.92	1022.44
495.138	1033.44
495.355	1025.44
495.573	1028.44
495.79	1046.44
496.008	1012.44
496.225	1033.44
496.442	1045.44
496.66	1051.44
496.877	1054.44
497.094	1074.44
497.312	1090.44
497.529	1098.44
497.746	1127.44
497.963	1175.44
498.181	1171.44
498.398	1269.44
498.615	1357.44
498.832	1415.44
499.049	1526.44
499.267	1638.44
499.484	1817.44
499.701	2005.44
499.918	2243.44
500.135	2590.44
500.352	2945.44
500.569	3155.44
500.786	3071.44
501.003	2848.44
501.22	2551.44
501.437	2265.44
501.654	1993.44
501.871	1751.44
502.088	1620.44
502.305	1554.44
502.522	1437.44
502.739	1412.44
502.956	1307.44
503.172	1272.44
503.389	1209.44
503.606	1191.44
503.823	1133.44
504.04	1149.44
504.256	1151.44
504.473	1175.44
504.69	1226.44
504.907	1179.44
505.123	1125.44
505.34	1059.44
505.557	997.44
505.773	981.44
505.99	969.44
506.207	926.44
506.423	967.44
506.64	925.44
506.856	903.44
507.073	907.44
507.289	907.44
507.506	902.44
507.722	877.44
507.939	909.44
508.155	902.44
508.372	868.44
508.588	881.44
508.805	855.44
509.021	855.44
509.238	877.44
509.454	812.44
509.67	837.44
509.887	829.44
510.103	833.44
510.319	828.44
510.536	816.44
510.752	822.44
510.968	830.44
511.184	825.44
511.401	834.44
511.617	787.44
511.833	828.44
512.049	830.44
512.265	829.44
512.481	809.44
512.698	833.44
512.914	826.44
513.13	827.44
513.346	832.44
513.562	817.44
513.778	806.44
513.994	835.44
514.21	839.44
514.426	822.44
514.642	835.44
514.858	845.44
515.074	833.44
515.29	824.44
515.506	847.44
515.721	845.44
515.937	887.44
516.153	895.44
516.369	908.44
516.585	902.44
516.801	990.44
517.016	1030.44
517.232	1054.44
517.448	1103.44
517.664	1145.44
517.879	1177.44
518.095	1149.44
518.311	1142.44
518.527	1086.44
518.742	1057.44
518.958	1013.44
519.173	967.44
519.389	941.44
519.605	892.44
519.82	879.44
520.036	867.44
520.251	844.44
520.467	857.44
520.682	821.44
520.898	803.44
521.113	823.44
521.329	812.44
521.544	814.44
521.76	809.44
521.975	786.44
522.19	801.44
522.406	809.44
522.621	783.44
522.836	779.44
523.052	755.44
523.267	787.44
523.482	760.44
523.698	793.44
523.913	797.44
524.128	772.44
524.343	766.44
524.559	740.44
524.774	767.44
524.989	766.44
525.204	755.44
525.419	740.44
525.634	758.44
525.849	767.44
526.064	758.44
526.28	737.44
526.495	735.44
526.71	746.44
526.925	767.44
527.14	746.44
527.355	758.44
527.57	714.44
527.785	737.44
527.999	755.44
528.214	768.44
528.429	760.44
528.644	754.44
528.859	756.44
529.074	740.44
529.289	748.44
529.503	731.44
529.718	775.44
529.933	755.44
530.148	721.44
530.363	750.44
530.577	732.44
530.792	742.44
531.007	772.44
531.221	758.44
531.436	757.44
531.651	762.44
531.865	758.44
532.08	748.44
532.295	763.44
532.509	736.44
532.724	775.44
532.938	777.44
533.153	746.44
533.367	741.44
533.582	762.44
533.796	733.44
534.011	745.44
534.225	747.44
534.44	721.44
534.654	723.44
534.868	725.44
535.083	726.44
535.297	731.44
535.511	742.44
535.726	706.44
535.94	734.44
536.154	695.44
536.369	714.44
536.583	700.44
536.797	691.44
537.011	697.44
537.225	686.44
537.44	677.44
537.654	680.44
537.868	676.44
538.082	675.44
538.296	670.44
538.51	681.44
538.724	709.44
538.938	695.44
539.153	686.44
539.367	685.44
539.581	690.44
539.795	671.44
540.009	656.44
540.222	695.44
540.436	701.44
540.65	673.44
540.864	671.44
541.078	683.44
541.292	700.44
541.506	675.44
541.72	641.44
541.934	680.44
542.147	661.44
542.361	695.44
542.575	665.44
542.789	679.44
543.002	659.44
543.216	658.44
543.43	686.44
543.644	663.44
543.857	659.44
544.071	680.44
544.285	679.44
544.498	673.44
544.712	682.44
544.925	669.44
545.139	666.44
545.352	690.44
545.566	701.44
545.779	694.44
545.993	687.44
546.206	677.44
546.42	684.44
546.633	697.44
546.847	677.44
547.06	674.44
547.274	672.44
547.487	680.44
547.7	693.44
547.914	707.44
548.127	709.44
548.34	682.44
548.554	707.44
548.767	679.44
548.98	689.44
549.193	697.44
549.407	693.44
549.62	698.44
549.833	701.44
550.046	734.44
550.259	701.44
550.473	666.44
550.686	685.44
550.899	683.44
551.112	666.44
551.325	662.44
551.538	677.44
551.751	663.44
551.964	666.44
552.177	676.44
552.39	684.44
552.603	689.44
552.816	725.44
553.029	721.44
553.242	753.44
553.455	764.44
553.667	748.44
553.88	755.44
554.093	731.44
554.306	728.44
554.519	703.44
554.732	665.44
554.944	637.44
555.157	650.44
555.37	660.44
555.583	645.44
555.795	661.44
556.008	619.44
556.221	614.44
556.433	609.44
556.646	604.44
556.859	606.44
557.071	616.44
557.284	591.44
557.496	589.44
557.709	607.44
557.921	587.44
558.134	589.44
558.346	570.44
558.559	565.44
558.771	577.44
558.984	577.44
559.196	575.44
559.409	573.44
559.621	586.44
559.833	585.44
560.046	561.44
560.258	556.44
560.47	564.44
560.683	570.44
560.895	573.44
561.107	577.44
561.32	556.44
561.532	563.44
561.744	599.44
561.956	567.44
562.168	571.44
562.381	565.44
562.593	555.44
562.805	560.44
563.017	558.44
563.229	572.44
563.441	585.44
563.653	583.44
563.865	587.44
564.077	578.44
564.289	578.44
564.501	606.44
564.713	633.44
564.925	605.44
565.137	639.44
565.349	646.44
565.561	659.44
565.773	695.44
565.985	704.44
566.197	717.44
566.408	796.44
566.62	844.44
566.832	942.44
567.044	941.44
567.255	933.44
567.467	951.44
567.679	1021.44
567.891	1111.44
568.102	1137.44
568.314	1093.44
568.526	952.44
568.737	866.44
568.949	811.44
569.161	731.44
569.372	701.44
569.584	657.44
569.795	642.44
570.007	597.44
570.218	609.44
570.43	610.44
570.641	602.44
570.853	585.44
571.064	593.44
571.276	607.44
571.487	583.44
571.698	549.44
571.91	543.44
572.121	527.44
572.333	527.44
572.544	522.44
572.755	522.44
572.966	514.44
573.178	501.44
573.389	482.44
573.6	495.44
573.811	477.44
574.023	485.44
574.234	467.44
574.445	469.44
574.656	475.44
574.867	477.44
575.078	468.44
575.289	476.44
575.501	469.44
575.712	455.44
575.923	459.44
576.134	451.44
576.345	445.44
576.556	445.44
576.767	452.44
576.978	455.44
577.188	438.44
577.399	461.44
577.61	455.44
577.821	457.44
578.032	426.44
578.243	429.44
578.454	422.44
578.665	434.44
578.875	424.44
579.086	395.44
579.297	430.44
579.508	441.44
579.718	437.44
579.929	415.44
580.14	405.44
580.35	408.44
580.561	412.44
580.772	426.44
580.982	419.44
581.193	425.44
581.403	408.44
581.614	415.44
581.825	413.44
582.035	411.44
582.246	399.44
582.456	433.44
582.667	403.44
582.877	396.44
583.087	407.44
583.298	403.44
583.508	373.44
583.719	402.44
583.929	400.44
584.139	396.44
584.35	409.44
584.56	386.44
584.77	417.44
584.981	415.44
585.191	407.44
585.401	402.44
585.611	409.44
585.821	400.44
586.032	386.44
586.242	395.44
586.452	407.44
586.662	410.44
586.872	380.44
587.082	396.44
587.292	378.44
587.502	384.44
587.713	391.44
587.923	381.44
588.133	390.44
588.343	401.44
588.553	383.44
588.762	398.44
588.972	393.44
589.182	394.44
589.392	387.44
589.602	387.44
589.812	386.44
590.022	399.44
590.232	394.44
590.441	403.44
590.651	387.44
590.861	386.44
591.071	399.44
591.281	405.44
591.49	425.44
591.7	411.44
591.91	417.44
592.119	427.44
592.329	433.44
592.539	449.44
592.748	431.44
592.958	462.44
593.167	470.44
593.377	501.44
593.587	507.44
593.796	480.44
594.006	489.44
594.215	492.44
594.424	509.44
594.634	475.44
594.843	465.44
595.053	434.44
595.262	431.44
595.472	429.44
595.681	393.44
595.89	388.44
596.1	395.44
596.309	391.44
596.518	380.44
596.727	370.44
596.937	371.44
597.146	366.44
597.355	362.44
597.564	373.44
597.774	355.44
597.983	348.44
598.192	335.44
598.401	347.44
598.61	346.44
598.819	340.44
599.028	345.44
599.237	326.44
599.446	321.44
599.655	325.44
599.864	346.44
600.073	340.44
600.282	336.44
600.491	329.44
600.7	333.44
600.909	338.44
601.118	326.44
601.327	327.44
601.536	328.44
601.745	314.44
601.953	331.44
602.162	341.44
602.371	300.44
602.58	325.44
602.789	313.44
602.997	320.44
603.206	313.44
603.415	307.44
603.623	311.44
603.832	300.44
604.041	307.44
604.249	311.44
604.458	313.44
604.666	318.44
604.875	322.44
605.084	318.44
605.292	319.44
605.501	303.44
605.709	297.44
605.918	306.44
606.126	317.44
606.334	293.44
606.543	294.44
606.751	309.44
606.96	301.44
607.168	305.44
607.376	313.44
607.585	306.44
607.793	305.44
608.001	283.44
608.21	309.44
608.418	308.44
608.626	311.44
608.834	321.44
609.043	302.44
609.251	296.44
609.459	282.44
609.667	309.44
609.875	307.44
610.083	280.44
610.291	298.44
610.499	278.44
610.707	283.44
610.916	301.44
611.124	283.44
611.332	289.44
611.54	295.44
611.748	298.44
611.955	259.44
612.163	301.44
612.371	289.44
612.579	275.44
612.787	299.44
612.995	290.44
613.203	287.44
613.411	305.44
613.618	267.44
613.826	305.44
614.034	298.44
614.242	290.44
614.449	270.44
614.657	284.44
614.865	273.44
615.072	297.44
615.28	285.44
615.488	279.44
615.695	281.44
615.903	303.44
616.111	295.44
616.318	268.44
616.526	288.44
616.733	305.44
616.941	279.44
617.148	279.44
617.356	290.44
617.563	284.44
617.771	283.44
617.978	263.44
618.185	279.44
618.393	281.44
618.6	290.44
618.807	267.44
619.015	297.44
619.222	279.44
619.429	279.44
619.637	278.44
619.844	291.44
620.051	281.44
620.258	275.44
620.466	271.44
620.673	263.44
620.88	259.44
621.087	265.44
621.294	266.44
621.501	277.44
621.708	266.44
621.915	265.44
622.122	262.44
622.329	269.44
622.536	270.44
622.743	268.44
622.95	281.44
623.157	267.44
623.364	251.44
623.571	248.44
623.778	242.44
623.985	264.44
624.192	262.44
624.399	286.44
624.606	264.44
624.812	246.44
625.019	261.44
625.226	255.44
625.433	245.44
625.639	249.44
625.846	253.44
626.053	245.44
626.259	256.44
626.466	244.44
626.673	254.44
626.879	254.44
627.086	234.44
627.293	253.44
627.499	258.44
627.706	230.44
627.912	238.44
628.119	255.44
628.325	249.44
628.532	236.44
628.738	230.44
628.945	234.44
629.151	229.44
629.357	215.44
629.564	218.44
629.77	212.44
629.976	207.44
630.183	226.44
630.389	236.44
630.595	243.44
630.802	216.44
631.008	210.44
631.214	238.44
631.42	226.44
631.627	233.44
631.833	227.44
632.039	227.44
632.245	200.44
632.451	220.44
632.657	223.44
632.863	222.44
633.069	221.44
633.275	213.44
633.481	216.44
633.688	218.44
633.893	223.44
634.099	233.44
634.305	225.44
634.511	228.44
634.717	215.44
634.923	198.44
635.129	223.44
635.335	224.44
635.541	219.44
635.747	218.44
635.952	205.44
636.158	211.44
636.364	219.44
636.57	222.44
636.775	214.44
636.981	209.44
637.187	216.44
637.392	210.44
637.598	212.44
637.804	205.44
638.009	213.44
638.215	180.44
638.421	194.44
638.626	205.44
638.832	201.44
639.037	203.44
639.243	189.44
639.448	198.44
639.654	197.44
639.859	201.44
640.065	195.44
640.27	220.44
640.475	198.44
640.681	184.44
640.886	199.44
641.091	206.44
641.297	194.44
641.502	190.44
641.707	208.44
641.913	209.44
642.118	200.44
642.323	189.44
642.528	189.44
642.733	195.44
642.939	181.44
643.144	194.44
643.349	207.44
643.554	198.44
643.759	189.44
643.964	192.44
644.169	183.44
644.374	201.44
644.579	199.44
644.784	189.44
644.989	195.44
645.194	197.44
645.399	203.44
645.604	179.44
645.809	182.44
646.014	187.44
646.219	192.44
646.423	199.44
646.628	187.44
646.833	189.44
647.038	168.44
647.243	194.44
647.447	197.44
647.652	221.44
647.857	198.44
648.062	213.44
648.266	209.44
648.471	212.44
648.676	214.44
648.88	202.44
649.085	198.44
649.289	196.44
649.494	197.44
649.698	193.44
649.903	179.44
650.107	173.44
650.312	183.44
650.516	179.44
650.721	162.44
650.925	175.44
651.13	174.44
651.334	190.44
651.539	170.44
651.743	164.44
651.947	178.44
652.152	168.44
652.356	176.44
652.56	179.44
652.764	167.44
652.969	162.44
653.173	157.44
653.377	150.44
653.581	154.44
653.785	135.44
653.99	147.44
654.194	150.44
654.398	171.44
654.602	154.44
654.806	157.44
655.01	158.44
655.214	157.44
655.418	151.44
655.622	152.44
655.826	151.44
656.03	143.44
656.234	147.44
656.438	140.44
656.642	133.44
656.846	152.44
657.049	147.44
657.253	126.44
657.457	133.44
657.661	124.44
657.865	123.44
658.068	124.44
658.272	110.44
658.476	107.44
658.68	114.44
658.883	127.44
659.087	110.44
659.291	113.44
659.494	107.44
659.698	110.44
659.901	94.44
660.105	109.44
660.309	94.44
660.512	96.44
660.716	91.44
660.919	95.44
661.123	117.44
661.326	90.44
661.53	89.44
661.733	94.44
661.936	88.44
662.14	92.44
662.343	92.44
662.546	90.44
662.75	89.44
662.953	82.44
663.156	91.44
663.36	82.44
663.563	72.44
663.766	78.44
663.969	87.44
664.173	85.44
664.376	87.44
664.579	84.44
664.782	98.44
664.985	72.44
665.188	60.44
665.391	66.44
665.594	80.44
665.797	78.44
666	84.44
666.203	92.44
666.406	94.44
666.609	90.44
666.812	93.44
667.015	84.44
667.218	89.44
667.421	83.44
667.624	86.44
667.827	87.44
668.03	77.44
668.232	74.44
668.435	92.44
668.638	78.44
668.841	94.44
669.043	70.44
669.246	91.44
669.449	81.44
669.651	89.44
669.854	84.44
670.057	83.44
670.259	76.44
670.462	74.44
670.665	87.44
670.867	83.44
671.07	68.44
671.272	96.44
671.475	82.44
671.677	77.44
671.88	82.44
672.082	76.44
672.284	96.44
672.487	103.44
672.689	76.44
672.892	92.44
