Data from Ni(NO3)2Standard.Agarose3%.GreenCap.LampEnergy5.5.E.O_HRD10591_14-41-39-188.txt Node
Date: Mon Jul 22 14:41:39 EDT 2019
User: cochatt
Spectrometer: HR+D1059
Trigger mode: 1
Integration Time (sec): 1.000000E-1
Scans to average: 1
Electric dark correction enabled: true
Nonlinearity correction enabled: false
Boxcar width: 0
XAxis mode: Wavelengths
Number of Pixels in Spectrum: 2048
>>>>>Begin Spectral Data<<<<<
223.165	-5.25
223.4	-5.25
223.635	-5.25
223.869	-7.25
224.104	-29.25
224.338	-11.25
224.573	-1.25
224.808	-15.25
225.042	-6.25
225.277	-14.25
225.511	-0.25
225.746	5.75
225.98	6.75
226.215	7.75
226.449	10.75
226.683	17.75
226.918	11.75
227.152	29.75
227.387	29.75
227.621	31.75
227.856	37.75
228.09	49.75
228.324	40.75
228.559	42.75
228.793	51.75
229.027	50.75
229.262	73.75
229.496	59.75
229.73	62.75
229.964	86.75
230.199	69.75
230.433	72.75
230.667	83.75
230.901	76.75
231.136	78.75
231.37	81.75
231.604	76.75
231.838	83.75
232.072	72.75
232.306	88.75
232.541	88.75
232.775	76.75
233.009	66.75
233.243	81.75
233.477	84.75
233.711	84.75
233.945	86.75
234.179	80.75
234.413	73.75
234.647	85.75
234.881	87.75
235.115	78.75
235.349	74.75
235.583	75.75
235.817	81.75
236.051	82.75
236.285	65.75
236.519	71.75
236.753	76.75
236.987	76.75
237.221	70.75
237.455	76.75
237.689	74.75
237.922	73.75
238.156	74.75
238.39	86.75
238.624	70.75
238.858	83.75
239.091	72.75
239.325	66.75
239.559	63.75
239.793	74.75
240.027	80.75
240.26	86.75
240.494	81.75
240.728	71.75
240.961	76.75
241.195	75.75
241.429	73.75
241.662	79.75
241.896	83.75
242.13	82.75
242.363	67.75
242.597	78.75
242.83	88.75
243.064	91.75
243.298	68.75
243.531	79.75
243.765	72.75
243.998	79.75
244.232	82.75
244.465	86.75
244.699	79.75
244.932	70.75
245.166	80.75
245.399	69.75
245.633	93.75
245.866	73.75
246.099	91.75
246.333	85.75
246.566	83.75
246.8	80.75
247.033	75.75
247.266	81.75
247.5	71.75
247.733	66.75
247.966	79.75
248.2	91.75
248.433	80.75
248.666	89.75
248.899	99.75
249.133	91.75
249.366	85.75
249.599	71.75
249.832	81.75
250.066	86.75
250.299	92.75
250.532	82.75
250.765	70.75
250.998	79.75
251.231	62.75
251.465	76.75
251.698	65.75
251.931	70.75
252.164	70.75
252.397	85.75
252.63	74.75
252.863	75.75
253.096	73.75
253.329	89.75
253.562	65.75
253.795	89.75
254.028	98.75
254.261	81.75
254.494	90.75
254.727	81.75
254.96	86.75
255.193	80.75
255.426	78.75
255.659	72.75
255.892	90.75
256.124	80.75
256.357	89.75
256.59	73.75
256.823	74.75
257.056	90.75
257.289	83.75
257.521	76.75
257.754	72.75
257.987	76.75
258.22	70.75
258.452	56.75
258.685	78.75
258.918	87.75
259.151	67.75
259.383	80.75
259.616	83.75
259.849	81.75
260.081	82.75
260.314	78.75
260.547	78.75
260.779	77.75
261.012	76.75
261.244	70.75
261.477	81.75
261.71	79.75
261.942	82.75
262.175	71.75
262.407	72.75
262.64	85.75
262.872	81.75
263.105	71.75
263.337	87.75
263.57	89.75
263.802	93.75
264.035	95.75
264.267	90.75
264.499	89.75
264.732	88.75
264.964	93.75
265.197	109.75
265.429	86.75
265.661	80.75
265.894	87.75
266.126	73.75
266.358	77.75
266.591	73.75
266.823	84.75
267.055	72.75
267.287	83.75
267.52	81.75
267.752	74.75
267.984	86.75
268.216	70.75
268.448	72.75
268.681	90.75
268.913	87.75
269.145	83.75
269.377	88.75
269.609	72.75
269.841	77.75
270.073	89.75
270.306	75.75
270.538	77.75
270.77	91.75
271.002	72.75
271.234	93.75
271.466	75.75
271.698	77.75
271.93	82.75
272.162	86.75
272.394	86.75
272.626	91.75
272.858	82.75
273.09	83.75
273.322	84.75
273.553	93.75
273.785	77.75
274.017	85.75
274.249	75.75
274.481	82.75
274.713	67.75
274.945	79.75
275.176	83.75
275.408	79.75
275.64	92.75
275.872	75.75
276.104	88.75
276.335	89.75
276.567	88.75
276.799	92.75
277.031	83.75
277.262	80.75
277.494	87.75
277.726	85.75
277.957	85.75
278.189	82.75
278.421	96.75
278.652	95.75
278.884	90.75
279.115	75.75
279.347	83.75
279.579	90.75
279.81	95.75
280.042	80.75
280.273	90.75
280.505	84.75
280.736	73.75
280.968	98.75
281.199	81.75
281.431	83.75
281.662	77.75
281.894	89.75
282.125	83.75
282.356	97.75
282.588	76.75
282.819	82.75
283.051	91.75
283.282	87.75
283.513	80.75
283.745	94.75
283.976	81.75
284.207	84.75
284.439	84.75
284.67	80.75
284.901	90.75
285.132	72.75
285.364	72.75
285.595	89.75
285.826	90.75
286.057	83.75
286.288	87.75
286.52	88.75
286.751	91.75
286.982	89.75
287.213	80.75
287.444	77.75
287.675	82.75
287.906	85.75
288.138	80.75
288.369	77.75
288.6	74.75
288.831	94.75
289.062	80.75
289.293	91.75
289.524	84.75
289.755	82.75
289.986	92.75
290.217	91.75
290.448	90.75
290.679	93.75
290.91	90.75
291.141	89.75
291.371	86.75
291.602	85.75
291.833	77.75
292.064	96.75
292.295	76.75
292.526	77.75
292.757	73.75
292.987	73.75
293.218	90.75
293.449	99.75
293.68	75.75
293.91	82.75
294.141	76.75
294.372	92.75
294.603	84.75
294.833	81.75
295.064	86.75
295.295	87.75
295.525	92.75
295.756	80.75
295.987	72.75
296.217	94.75
296.448	102.75
296.679	92.75
296.909	104.75
297.14	91.75
297.37	89.75
297.601	85.75
297.831	86.75
298.062	78.75
298.292	86.75
298.523	92.75
298.753	95.75
298.984	89.75
299.214	94.75
299.445	89.75
299.675	85.75
299.905	77.75
300.136	91.75
300.366	90.75
300.597	79.75
300.827	94.75
301.057	80.75
301.288	91.75
301.518	89.75
301.748	80.75
301.979	89.75
302.209	84.75
302.439	103.75
302.669	92.75
302.9	93.75
303.13	86.75
303.36	87.75
303.59	95.75
303.82	76.75
304.051	90.75
304.281	91.75
304.511	96.75
304.741	80.75
304.971	79.75
305.201	87.75
305.431	90.75
305.661	89.75
305.891	72.75
306.121	83.75
306.352	83.75
306.582	74.75
306.812	97.75
307.042	88.75
307.272	74.75
307.502	90.75
307.731	90.75
307.961	93.75
308.191	98.75
308.421	95.75
308.651	76.75
308.881	94.75
309.111	102.75
309.341	76.75
309.571	72.75
309.8	85.75
310.03	85.75
310.26	84.75
310.49	91.75
310.72	90.75
310.949	86.75
311.179	76.75
311.409	92.75
311.639	82.75
311.868	87.75
312.098	97.75
312.328	79.75
312.557	85.75
312.787	87.75
313.017	81.75
313.246	78.75
313.476	88.75
313.706	95.75
313.935	97.75
314.165	88.75
314.394	90.75
314.624	79.75
314.853	94.75
315.083	97.75
315.312	88.75
315.542	98.75
315.771	87.75
316.001	76.75
316.23	82.75
316.46	87.75
316.689	93.75
316.919	74.75
317.148	86.75
317.377	98.75
317.607	104.75
317.836	83.75
318.065	83.75
318.295	82.75
318.524	87.75
318.753	98.75
318.983	96.75
319.212	85.75
319.441	66.75
319.67	77.75
319.9	80.75
320.129	83.75
320.358	84.75
320.587	83.75
320.816	88.75
321.046	97.75
321.275	92.75
321.504	90.75
321.733	80.75
321.962	90.75
322.191	77.75
322.42	87.75
322.649	95.75
322.878	86.75
323.108	84.75
323.337	84.75
323.566	90.75
323.795	84.75
324.024	87.75
324.253	85.75
324.482	98.75
324.71	94.75
324.939	86.75
325.168	83.75
325.397	79.75
325.626	88.75
325.855	91.75
326.084	81.75
326.313	75.75
326.542	85.75
326.77	83.75
326.999	85.75
327.228	84.75
327.457	84.75
327.686	88.75
327.914	73.75
328.143	83.75
328.372	82.75
328.6	89.75
328.829	81.75
329.058	76.75
329.287	81.75
329.515	97.75
329.744	92.75
329.972	88.75
330.201	88.75
330.43	83.75
330.658	90.75
330.887	85.75
331.115	91.75
331.344	91.75
331.572	74.75
331.801	74.75
332.03	92.75
332.258	75.75
332.486	86.75
332.715	89.75
332.943	80.75
333.172	84.75
333.4	95.75
333.629	82.75
333.857	94.75
334.085	84.75
334.314	74.75
334.542	89.75
334.771	108.75
334.999	84.75
335.227	105.75
335.455	95.75
335.684	72.75
335.912	82.75
336.14	88.75
336.369	95.75
336.597	91.75
336.825	101.75
337.053	85.75
337.281	92.75
337.51	91.75
337.738	75.75
337.966	71.75
338.194	90.75
338.422	87.75
338.65	81.75
338.878	83.75
339.106	89.75
339.334	86.75
339.562	96.75
339.79	78.75
340.018	80.75
340.246	89.75
340.474	78.75
340.702	89.75
340.93	82.75
341.158	92.75
341.386	88.75
341.614	104.75
341.842	81.75
342.07	77.75
342.298	95.75
342.526	87.75
342.754	93.75
342.981	82.75
343.209	76.75
343.437	87.75
343.665	85.75
343.893	90.75
344.12	88.75
344.348	101.75
344.576	86.75
344.804	88.75
345.031	85.75
345.259	83.75
345.487	89.75
345.714	92.75
345.942	82.75
346.17	76.75
346.397	90.75
346.625	79.75
346.853	82.75
347.08	79.75
347.308	82.75
347.535	87.75
347.763	99.75
347.99	94.75
348.218	75.75
348.445	82.75
348.673	79.75
348.9	85.75
349.128	99.75
349.355	98.75
349.583	90.75
349.81	101.75
350.037	88.75
350.265	78.75
350.492	84.75
350.72	96.75
350.947	87.75
351.174	85.75
351.402	90.75
351.629	87.75
351.856	71.75
352.083	81.75
352.311	87.75
352.538	76.75
352.765	80.75
352.992	75.75
353.22	95.75
353.447	90.75
353.674	85.75
353.901	88.75
354.128	93.75
354.355	73.75
354.583	89.75
354.81	75.75
355.037	78.75
355.264	78.75
355.491	84.75
355.718	89.75
355.945	91.75
356.172	87.75
356.399	93.75
356.626	86.75
356.853	87.75
357.08	89.75
357.307	106.75
357.534	89.75
357.761	73.75
357.988	78.75
358.215	81.75
358.441	85.75
358.668	84.75
358.895	92.75
359.122	80.75
359.349	95.75
359.576	98.75
359.802	84.75
360.029	88.75
360.256	87.75
360.483	93.75
360.709	87.75
360.936	87.75
361.163	87.75
361.39	93.75
361.616	88.75
361.843	92.75
362.07	90.75
362.296	78.75
362.523	90.75
362.749	89.75
362.976	77.75
363.203	81.75
363.429	89.75
363.656	80.75
363.882	87.75
364.109	87.75
364.335	82.75
364.562	80.75
364.788	75.75
365.015	91.75
365.241	90.75
365.468	92.75
365.694	86.75
365.92	79.75
366.147	66.75
366.373	74.75
366.599	81.75
366.826	78.75
367.052	94.75
367.278	68.75
367.505	87.75
367.731	97.75
367.957	90.75
368.184	76.75
368.41	83.75
368.636	83.75
368.862	87.75
369.089	73.75
369.315	93.75
369.541	88.75
369.767	92.75
369.993	75.75
370.219	87.75
370.445	80.75
370.672	80.75
370.898	85.75
371.124	78.75
371.35	76.75
371.576	81.75
371.802	90.75
372.028	83.75
372.254	80.75
372.48	83.75
372.706	92.75
372.932	83.75
373.158	90.75
373.384	87.75
373.61	90.75
373.835	75.75
374.061	83.75
374.287	80.75
374.513	76.75
374.739	90.75
374.965	82.75
375.191	95.75
375.416	99.75
375.642	83.75
375.868	93.75
376.094	88.75
376.319	74.75
376.545	78.75
376.771	89.75
376.997	77.75
377.222	83.75
377.448	93.75
377.674	92.75
377.899	77.75
378.125	79.75
378.35	81.75
378.576	98.75
378.802	89.75
379.027	75.75
379.253	87.75
379.478	71.75
379.704	74.75
379.929	78.75
380.155	73.75
380.38	74.75
380.606	72.75
380.831	84.75
381.057	83.75
381.282	77.75
381.507	71.75
381.733	89.75
381.958	67.75
382.184	73.75
382.409	71.75
382.634	83.75
382.86	73.75
383.085	86.75
383.31	89.75
383.535	89.75
383.761	84.75
383.986	71.75
384.211	91.75
384.436	83.75
384.662	89.75
384.887	80.75
385.112	80.75
385.337	87.75
385.562	83.75
385.787	80.75
386.013	89.75
386.238	79.75
386.463	73.75
386.688	76.75
386.913	75.75
387.138	79.75
387.363	81.75
387.588	84.75
387.813	91.75
388.038	90.75
388.263	91.75
388.488	86.75
388.713	94.75
388.938	89.75
389.163	83.75
389.387	83.75
389.612	68.75
389.837	87.75
390.062	92.75
390.287	87.75
390.512	101.75
390.736	98.75
390.961	87.75
391.186	84.75
391.411	98.75
391.636	104.75
391.86	88.75
392.085	83.75
392.31	90.75
392.534	67.75
392.759	84.75
392.984	91.75
393.208	90.75
393.433	75.75
393.658	89.75
393.882	90.75
394.107	90.75
394.331	91.75
394.556	74.75
394.78	73.75
395.005	94.75
395.229	82.75
395.454	89.75
395.678	74.75
395.903	91.75
396.127	86.75
396.352	90.75
396.576	96.75
396.801	98.75
397.025	86.75
397.249	84.75
397.474	91.75
397.698	92.75
397.922	79.75
398.147	85.75
398.371	90.75
398.595	103.75
398.82	71.75
399.044	70.75
399.268	101.75
399.492	87.75
399.717	87.75
399.941	75.75
400.165	83.75
400.389	72.75
400.613	95.75
400.837	88.75
401.062	89.75
401.286	98.75
401.51	80.75
401.734	91.75
401.958	89.75
402.182	75.75
402.406	82.75
402.63	83.75
402.854	92.75
403.078	94.75
403.302	83.75
403.526	79.75
403.75	86.75
403.974	88.75
404.198	62.75
404.422	84.75
404.645	91.75
404.869	80.75
405.093	91.75
405.317	89.75
405.541	80.75
405.765	86.75
405.988	90.75
406.212	88.75
406.436	76.75
406.66	92.75
406.883	87.75
407.107	98.75
407.331	94.75
407.555	93.75
407.778	104.75
408.002	88.75
408.226	80.75
408.449	73.75
408.673	70.75
408.896	86.75
409.12	87.75
409.344	95.75
409.567	94.75
409.791	86.75
410.014	84.75
410.238	80.75
410.461	85.75
410.685	90.75
410.908	89.75
411.132	87.75
411.355	84.75
411.578	82.75
411.802	91.75
412.025	87.75
412.249	71.75
412.472	82.75
412.695	85.75
412.919	88.75
413.142	105.75
413.365	81.75
413.589	89.75
413.812	83.75
414.035	80.75
414.258	85.75
414.482	70.75
414.705	96.75
414.928	104.75
415.151	77.75
415.374	84.75
415.597	96.75
415.821	79.75
416.044	87.75
416.267	73.75
416.49	82.75
416.713	72.75
416.936	92.75
417.159	86.75
417.382	84.75
417.605	85.75
417.828	92.75
418.051	84.75
418.274	95.75
418.497	74.75
418.72	89.75
418.943	73.75
419.166	90.75
419.389	90.75
419.611	77.75
419.834	83.75
420.057	91.75
420.28	84.75
420.503	84.75
420.726	93.75
420.948	95.75
421.171	80.75
421.394	82.75
421.617	59.75
421.839	80.75
422.062	70.75
422.285	80.75
422.507	88.75
422.73	83.75
422.953	78.75
423.175	73.75
423.398	89.75
423.621	84.75
423.843	79.75
424.066	87.75
424.288	82.75
424.511	85.75
424.733	89.75
424.956	87.75
425.178	81.75
425.401	85.75
425.623	88.75
425.846	91.75
426.068	74.75
426.291	92.75
426.513	97.75
426.735	76.75
426.958	90.75
427.18	79.75
427.402	87.75
427.625	89.75
427.847	89.75
428.069	76.75
428.292	86.75
428.514	86.75
428.736	83.75
428.958	83.75
429.181	80.75
429.403	81.75
429.625	72.75
429.847	85.75
430.069	84.75
430.292	91.75
430.514	96.75
430.736	87.75
430.958	70.75
431.18	81.75
431.402	72.75
431.624	87.75
431.846	90.75
432.068	88.75
432.29	94.75
432.512	79.75
432.734	86.75
432.956	89.75
433.178	88.75
433.4	95.75
433.622	83.75
433.844	79.75
434.066	77.75
434.287	91.75
434.509	73.75
434.731	80.75
434.953	103.75
435.175	83.75
435.397	89.75
435.618	86.75
435.84	94.75
436.062	98.75
436.284	80.75
436.505	78.75
436.727	86.75
436.949	77.75
437.17	79.75
437.392	84.75
437.614	99.75
437.835	80.75
438.057	73.75
438.278	81.75
438.5	76.75
438.721	78.75
438.943	77.75
439.165	74.75
439.386	97.75
439.608	82.75
439.829	92.75
440.05	81.75
440.272	90.75
440.493	79.75
440.715	72.75
440.936	82.75
441.158	93.75
441.379	83.75
441.6	80.75
441.822	97.75
442.043	95.75
442.264	73.75
442.486	87.75
442.707	80.75
442.928	78.75
443.149	78.75
443.371	86.75
443.592	82.75
443.813	92.75
444.034	96.75
444.255	92.75
444.476	81.75
444.698	85.75
444.919	88.75
445.14	186.75
445.361	136.75
445.582	91.75
445.803	80.75
446.024	84.75
446.245	96.75
446.466	85.75
446.687	84.75
446.908	101.75
447.129	92.75
447.35	84.75
447.571	76.75
447.792	75.75
448.013	88.75
448.234	84.75
448.455	86.75
448.675	75.75
448.896	89.75
449.117	86.75
449.338	76.75
449.559	94.75
449.779	77.75
450	98.75
450.221	77.75
450.442	81.75
450.662	93.75
450.883	83.75
451.104	84.75
451.324	75.75
451.545	82.75
451.766	80.75
451.986	64.75
452.207	86.75
452.428	86.75
452.648	88.75
452.869	77.75
453.089	75.75
453.31	86.75
453.53	87.75
453.751	76.75
453.971	84.75
454.192	76.75
454.412	80.75
454.633	100.75
454.853	83.75
455.073	91.75
455.294	74.75
455.514	88.75
455.734	76.75
455.955	82.75
456.175	94.75
456.395	95.75
456.616	68.75
456.836	82.75
457.056	89.75
457.276	85.75
457.497	83.75
457.717	91.75
457.937	86.75
458.157	78.75
458.377	80.75
458.598	81.75
458.818	80.75
459.038	86.75
459.258	87.75
459.478	86.75
459.698	70.75
459.918	82.75
460.138	100.75
460.358	64.75
460.578	84.75
460.798	83.75
461.018	84.75
461.238	74.75
461.458	76.75
461.678	83.75
461.898	66.75
462.118	90.75
462.338	88.75
462.558	88.75
462.777	95.75
462.997	97.75
463.217	87.75
463.437	84.75
463.657	85.75
463.876	81.75
464.096	93.75
464.316	98.75
464.536	92.75
464.755	95.75
464.975	75.75
465.195	81.75
465.414	86.75
465.634	87.75
465.854	91.75
466.073	80.75
466.293	80.75
466.512	87.75
466.732	91.75
466.951	84.75
467.171	88.75
467.391	99.75
467.61	86.75
467.829	96.75
468.049	87.75
468.268	81.75
468.488	74.75
468.707	79.75
468.927	102.75
469.146	79.75
469.365	99.75
469.585	96.75
469.804	88.75
470.023	79.75
470.243	94.75
470.462	96.75
470.681	82.75
470.901	87.75
471.12	74.75
471.339	82.75
471.558	91.75
471.777	83.75
471.997	78.75
472.216	93.75
472.435	88.75
472.654	92.75
472.873	82.75
473.092	80.75
473.311	92.75
473.53	97.75
473.749	95.75
473.968	84.75
474.187	84.75
474.406	82.75
474.625	89.75
474.844	93.75
475.063	82.75
475.282	83.75
475.501	75.75
475.72	92.75
475.939	96.75
476.158	83.75
476.377	94.75
476.596	106.75
476.814	81.75
477.033	93.75
477.252	89.75
477.471	75.75
477.69	94.75
477.908	102.75
478.127	88.75
478.346	82.75
478.564	92.75
478.783	86.75
479.002	84.75
479.22	95.75
479.439	97.75
479.658	92.75
479.876	84.75
480.095	90.75
480.313	96.75
480.532	99.75
480.751	90.75
480.969	102.75
481.188	84.75
481.406	98.75
481.624	98.75
481.843	84.75
482.061	88.75
482.28	82.75
482.498	88.75
482.717	87.75
482.935	99.75
483.153	78.75
483.372	102.75
483.59	101.75
483.808	91.75
484.027	86.75
484.245	89.75
484.463	87.75
484.681	91.75
484.9	95.75
485.118	89.75
485.336	95.75
485.554	99.75
485.772	75.75
485.99	95.75
486.209	79.75
486.427	75.75
486.645	100.75
486.863	74.75
487.081	100.75
487.299	75.75
487.517	99.75
487.735	96.75
487.953	90.75
488.171	90.75
488.389	86.75
488.607	100.75
488.825	87.75
489.043	92.75
489.261	81.75
489.479	86.75
489.696	89.75
489.914	80.75
490.132	86.75
490.35	86.75
490.568	92.75
490.786	98.75
491.003	95.75
491.221	104.75
491.439	92.75
491.657	97.75
491.874	105.75
492.092	93.75
492.31	98.75
492.527	94.75
492.745	98.75
492.963	90.75
493.18	103.75
493.398	91.75
493.615	81.75
493.833	77.75
494.05	97.75
494.268	103.75
494.485	87.75
494.703	100.75
494.92	103.75
495.138	90.75
495.355	94.75
495.573	99.75
495.79	92.75
496.008	107.75
496.225	102.75
496.442	91.75
496.66	90.75
496.877	96.75
497.094	106.75
497.312	101.75
497.529	82.75
497.746	101.75
497.963	94.75
498.181	100.75
498.398	98.75
498.615	97.75
498.832	88.75
499.049	96.75
499.267	100.75
499.484	101.75
499.701	109.75
499.918	118.75
500.135	94.75
500.352	97.75
500.569	113.75
500.786	109.75
501.003	124.75
501.22	112.75
501.437	117.75
501.654	105.75
501.871	110.75
502.088	96.75
502.305	99.75
502.522	90.75
502.739	104.75
502.956	104.75
503.172	90.75
503.389	100.75
503.606	94.75
503.823	98.75
504.04	98.75
504.256	98.75
504.473	89.75
504.69	88.75
504.907	87.75
505.123	74.75
505.34	110.75
505.557	116.75
505.773	85.75
505.99	83.75
506.207	91.75
506.423	84.75
506.64	99.75
506.856	97.75
507.073	93.75
507.289	113.75
507.506	102.75
507.722	110.75
507.939	101.75
508.155	96.75
508.372	82.75
508.588	91.75
508.805	86.75
509.021	85.75
509.238	91.75
509.454	102.75
509.67	105.75
509.887	89.75
510.103	100.75
510.319	92.75
510.536	73.75
510.752	94.75
510.968	85.75
511.184	89.75
511.401	97.75
511.617	95.75
511.833	95.75
512.049	92.75
512.265	87.75
512.481	77.75
512.698	80.75
512.914	88.75
513.13	84.75
513.346	96.75
513.562	97.75
513.778	82.75
513.994	106.75
514.21	86.75
514.426	85.75
514.642	92.75
514.858	97.75
515.074	84.75
515.29	86.75
515.506	89.75
515.721	82.75
515.937	90.75
516.153	81.75
516.369	99.75
516.585	103.75
516.801	99.75
517.016	94.75
517.232	92.75
517.448	95.75
517.664	102.75
517.879	95.75
518.095	89.75
518.311	82.75
518.527	101.75
518.742	104.75
518.958	90.75
519.173	98.75
519.389	98.75
519.605	87.75
519.82	95.75
520.036	82.75
520.251	79.75
520.467	94.75
520.682	95.75
520.898	86.75
521.113	91.75
521.329	103.75
521.544	89.75
521.76	86.75
521.975	90.75
522.19	86.75
522.406	77.75
522.621	72.75
522.836	89.75
523.052	94.75
523.267	90.75
523.482	87.75
523.698	88.75
523.913	91.75
524.128	88.75
524.343	81.75
524.559	97.75
524.774	94.75
524.989	105.75
525.204	91.75
525.419	98.75
525.634	85.75
525.849	93.75
526.064	87.75
526.28	95.75
526.495	91.75
526.71	82.75
526.925	89.75
527.14	84.75
527.355	101.75
527.57	86.75
527.785	89.75
527.999	95.75
528.214	89.75
528.429	89.75
528.644	85.75
528.859	97.75
529.074	98.75
529.289	97.75
529.503	89.75
529.718	87.75
529.933	89.75
530.148	71.75
530.363	95.75
530.577	86.75
530.792	83.75
531.007	89.75
531.221	81.75
531.436	93.75
531.651	94.75
531.865	88.75
532.08	85.75
532.295	94.75
532.509	101.75
532.724	89.75
532.938	85.75
533.153	82.75
533.367	95.75
533.582	97.75
533.796	96.75
534.011	96.75
534.225	96.75
534.44	78.75
534.654	93.75
534.868	96.75
535.083	105.75
535.297	101.75
535.511	79.75
535.726	103.75
535.94	89.75
536.154	75.75
536.369	88.75
536.583	87.75
536.797	80.75
537.011	76.75
537.225	96.75
537.44	80.75
537.654	78.75
537.868	82.75
538.082	86.75
538.296	94.75
538.51	99.75
538.724	97.75
538.938	100.75
539.153	90.75
539.367	99.75
539.581	88.75
539.795	93.75
540.009	88.75
540.222	85.75
540.436	97.75
540.65	92.75
540.864	92.75
541.078	91.75
541.292	88.75
541.506	83.75
541.72	87.75
541.934	95.75
542.147	101.75
542.361	102.75
542.575	97.75
542.789	97.75
543.002	104.75
543.216	104.75
543.43	85.75
543.644	92.75
543.857	96.75
544.071	86.75
544.285	96.75
544.498	93.75
544.712	91.75
544.925	86.75
545.139	97.75
545.352	90.75
545.566	92.75
545.779	99.75
545.993	100.75
546.206	92.75
546.42	97.75
546.633	85.75
546.847	75.75
547.06	82.75
547.274	87.75
547.487	87.75
547.7	81.75
547.914	87.75
548.127	77.75
548.34	96.75
548.554	99.75
548.767	100.75
548.98	91.75
549.193	100.75
549.407	88.75
549.62	95.75
549.833	78.75
550.046	101.75
550.259	99.75
550.473	84.75
550.686	94.75
550.899	90.75
551.112	94.75
551.325	96.75
551.538	88.75
551.751	81.75
551.964	84.75
552.177	89.75
552.39	88.75
552.603	106.75
552.816	73.75
553.029	85.75
553.242	106.75
553.455	88.75
553.667	96.75
553.88	81.75
554.093	77.75
554.306	83.75
554.519	94.75
554.732	76.75
554.944	87.75
555.157	92.75
555.37	86.75
555.583	84.75
555.795	84.75
556.008	82.75
556.221	83.75
556.433	87.75
556.646	89.75
556.859	90.75
557.071	74.75
557.284	86.75
557.496	91.75
557.709	101.75
557.921	88.75
558.134	86.75
558.346	92.75
558.559	91.75
558.771	82.75
558.984	88.75
559.196	75.75
559.409	75.75
559.621	91.75
559.833	79.75
560.046	94.75
560.258	73.75
560.47	85.75
560.683	94.75
560.895	103.75
561.107	95.75
561.32	85.75
561.532	83.75
561.744	102.75
561.956	87.75
562.168	98.75
562.381	91.75
562.593	97.75
562.805	83.75
563.017	100.75
563.229	99.75
563.441	92.75
563.653	75.75
563.865	91.75
564.077	92.75
564.289	92.75
564.501	93.75
564.713	80.75
564.925	91.75
565.137	75.75
565.349	99.75
565.561	92.75
565.773	79.75
565.985	88.75
566.197	86.75
566.408	98.75
566.62	74.75
566.832	81.75
567.044	97.75
567.255	90.75
567.467	97.75
567.679	87.75
567.891	105.75
568.102	103.75
568.314	85.75
568.526	88.75
568.737	95.75
568.949	99.75
569.161	95.75
569.372	106.75
569.584	79.75
569.795	75.75
570.007	80.75
570.218	86.75
570.43	93.75
570.641	75.75
570.853	87.75
571.064	100.75
571.276	80.75
571.487	88.75
571.698	90.75
571.91	95.75
572.121	86.75
572.333	98.75
572.544	76.75
572.755	97.75
572.966	89.75
573.178	73.75
573.389	88.75
573.6	97.75
573.811	76.75
574.023	84.75
574.234	87.75
574.445	91.75
574.656	88.75
574.867	80.75
575.078	88.75
575.289	94.75
575.501	98.75
575.712	97.75
575.923	88.75
576.134	76.75
576.345	83.75
576.556	88.75
576.767	73.75
576.978	74.75
577.188	79.75
577.399	91.75
577.61	82.75
577.821	84.75
578.032	86.75
578.243	80.75
578.454	81.75
578.665	92.75
578.875	88.75
579.086	90.75
579.297	90.75
579.508	80.75
579.718	72.75
579.929	89.75
580.14	81.75
580.35	88.75
580.561	89.75
580.772	86.75
580.982	94.75
581.193	82.75
581.403	85.75
581.614	97.75
581.825	91.75
582.035	92.75
582.246	88.75
582.456	88.75
582.667	89.75
582.877	96.75
583.087	74.75
583.298	83.75
583.508	98.75
583.719	82.75
583.929	87.75
584.139	87.75
584.35	71.75
584.56	81.75
584.77	86.75
584.981	76.75
585.191	79.75
585.401	90.75
585.611	82.75
585.821	83.75
586.032	94.75
586.242	91.75
586.452	83.75
586.662	74.75
586.872	81.75
587.082	91.75
587.292	83.75
587.502	85.75
587.713	87.75
587.923	88.75
588.133	78.75
588.343	85.75
588.553	85.75
588.762	78.75
588.972	82.75
589.182	78.75
589.392	90.75
589.602	82.75
589.812	79.75
590.022	89.75
590.232	83.75
590.441	81.75
590.651	84.75
590.861	79.75
591.071	68.75
591.281	87.75
591.49	87.75
591.7	86.75
591.91	89.75
592.119	97.75
592.329	81.75
592.539	95.75
592.748	73.75
592.958	90.75
593.167	87.75
593.377	76.75
593.587	92.75
593.796	89.75
594.006	89.75
594.215	90.75
594.424	90.75
594.634	86.75
594.843	85.75
595.053	95.75
595.262	89.75
595.472	88.75
595.681	78.75
595.89	87.75
596.1	78.75
596.309	83.75
596.518	80.75
596.727	98.75
596.937	82.75
597.146	82.75
597.355	87.75
597.564	96.75
597.774	93.75
597.983	95.75
598.192	78.75
598.401	74.75
598.61	83.75
598.819	89.75
599.028	86.75
599.237	77.75
599.446	88.75
599.655	96.75
599.864	87.75
600.073	93.75
600.282	96.75
600.491	95.75
600.7	87.75
600.909	81.75
601.118	83.75
601.327	85.75
601.536	95.75
601.745	88.75
601.953	100.75
602.162	111.75
602.371	67.75
602.58	87.75
602.789	87.75
602.997	103.75
603.206	99.75
603.415	94.75
603.623	85.75
603.832	80.75
604.041	95.75
604.249	83.75
604.458	90.75
604.666	86.75
604.875	83.75
605.084	85.75
605.292	89.75
605.501	71.75
605.709	79.75
605.918	92.75
606.126	68.75
606.334	73.75
606.543	92.75
606.751	79.75
606.96	89.75
607.168	90.75
607.376	80.75
607.585	96.75
607.793	80.75
608.001	86.75
608.21	76.75
608.418	91.75
608.626	76.75
608.834	87.75
609.043	91.75
609.251	90.75
609.459	95.75
609.667	81.75
609.875	80.75
610.083	95.75
610.291	81.75
610.499	83.75
610.707	71.75
610.916	72.75
611.124	82.75
611.332	84.75
611.54	91.75
611.748	82.75
611.955	97.75
612.163	96.75
612.371	86.75
612.579	103.75
612.787	92.75
612.995	81.75
613.203	83.75
613.411	89.75
613.618	83.75
613.826	87.75
614.034	80.75
614.242	92.75
614.449	78.75
614.657	86.75
614.865	81.75
615.072	81.75
615.28	83.75
615.488	84.75
615.695	93.75
615.903	88.75
616.111	71.75
616.318	86.75
616.526	91.75
616.733	85.75
616.941	73.75
617.148	90.75
617.356	79.75
617.563	80.75
617.771	88.75
617.978	79.75
618.185	92.75
618.393	99.75
618.6	84.75
618.807	92.75
619.015	83.75
619.222	90.75
619.429	86.75
619.637	96.75
619.844	86.75
620.051	76.75
620.258	94.75
620.466	86.75
620.673	71.75
620.88	66.75
621.087	63.75
621.294	75.75
621.501	82.75
621.708	99.75
621.915	89.75
622.122	81.75
622.329	81.75
622.536	92.75
622.743	90.75
622.95	89.75
623.157	88.75
623.364	79.75
623.571	84.75
623.778	87.75
623.985	81.75
624.192	80.75
624.399	84.75
624.606	78.75
624.812	83.75
625.019	84.75
625.226	99.75
625.433	90.75
625.639	86.75
625.846	86.75
626.053	91.75
626.259	94.75
626.466	95.75
626.673	70.75
626.879	78.75
627.086	95.75
627.293	97.75
627.499	88.75
627.706	96.75
627.912	90.75
628.119	64.75
628.325	94.75
628.532	74.75
628.738	76.75
628.945	84.75
629.151	93.75
629.357	88.75
629.564	84.75
629.77	85.75
629.976	82.75
630.183	83.75
630.389	75.75
630.595	82.75
630.802	77.75
631.008	71.75
631.214	75.75
631.42	86.75
631.627	74.75
631.833	78.75
632.039	82.75
632.245	70.75
632.451	104.75
632.657	81.75
632.863	82.75
633.069	81.75
633.275	98.75
633.481	77.75
633.688	69.75
633.893	75.75
634.099	82.75
634.305	82.75
634.511	84.75
634.717	86.75
634.923	86.75
635.129	82.75
635.335	70.75
635.541	83.75
635.747	74.75
635.952	80.75
636.158	75.75
636.364	76.75
636.57	82.75
636.775	70.75
636.981	82.75
637.187	72.75
637.392	79.75
637.598	89.75
637.804	82.75
638.009	101.75
638.215	86.75
638.421	82.75
638.626	86.75
638.832	96.75
639.037	92.75
639.243	80.75
639.448	80.75
639.654	87.75
639.859	82.75
640.065	89.75
640.27	104.75
640.475	80.75
640.681	80.75
640.886	97.75
641.091	85.75
641.297	85.75
641.502	72.75
641.707	92.75
641.913	86.75
642.118	90.75
642.323	84.75
642.528	79.75
642.733	94.75
642.939	85.75
643.144	86.75
643.349	71.75
643.554	88.75
643.759	78.75
643.964	79.75
644.169	79.75
644.374	80.75
644.579	86.75
644.784	94.75
644.989	86.75
645.194	81.75
645.399	79.75
645.604	74.75
645.809	104.75
646.014	93.75
646.219	76.75
646.423	80.75
646.628	87.75
646.833	89.75
647.038	91.75
647.243	80.75
647.447	79.75
647.652	84.75
647.857	92.75
648.062	86.75
648.266	97.75
648.471	75.75
648.676	73.75
648.88	85.75
649.085	80.75
649.289	89.75
649.494	86.75
649.698	68.75
649.903	80.75
650.107	90.75
650.312	79.75
650.516	78.75
650.721	83.75
650.925	95.75
651.13	75.75
651.334	79.75
651.539	81.75
651.743	80.75
651.947	97.75
652.152	72.75
652.356	91.75
652.56	81.75
652.764	76.75
652.969	75.75
653.173	91.75
653.377	88.75
653.581	74.75
653.785	82.75
653.99	84.75
654.194	83.75
654.398	92.75
654.602	76.75
654.806	76.75
655.01	97.75
655.214	84.75
655.418	88.75
655.622	79.75
655.826	77.75
656.03	94.75
656.234	85.75
656.438	80.75
656.642	87.75
656.846	83.75
657.049	91.75
657.253	86.75
657.457	76.75
657.661	86.75
657.865	82.75
658.068	89.75
658.272	71.75
658.476	80.75
658.68	85.75
658.883	85.75
659.087	67.75
659.291	80.75
659.494	92.75
659.698	89.75
659.901	85.75
660.105	88.75
660.309	83.75
660.512	87.75
660.716	66.75
660.919	90.75
661.123	83.75
661.326	85.75
661.53	93.75
661.733	82.75
661.936	67.75
662.14	88.75
662.343	98.75
662.546	87.75
662.75	77.75
662.953	90.75
663.156	92.75
663.36	74.75
663.563	83.75
663.766	79.75
663.969	83.75
664.173	72.75
664.376	78.75
664.579	76.75
664.782	86.75
664.985	75.75
665.188	77.75
665.391	76.75
665.594	75.75
665.797	86.75
666	81.75
666.203	90.75
666.406	76.75
666.609	67.75
666.812	76.75
667.015	82.75
667.218	90.75
667.421	88.75
667.624	78.75
667.827	80.75
668.03	83.75
668.232	91.75
668.435	86.75
668.638	67.75
668.841	82.75
669.043	91.75
669.246	86.75
669.449	80.75
669.651	89.75
669.854	90.75
670.057	64.75
670.259	87.75
670.462	88.75
670.665	78.75
670.867	86.75
671.07	80.75
671.272	82.75
671.475	67.75
671.677	75.75
671.88	82.75
672.082	73.75
672.284	86.75
672.487	82.75
672.689	90.75
672.892	75.75
