Data from Ni(NO3)2@0.25M.TitratingCurve.Agarose3%dH2O.NegLispCup.LampEnergy10.LIBS07252019_HRD10591_18-05-51-567.txt Node
Date: Thu Jul 25 18:05:51 EDT 2019
User: cochatt
Spectrometer: HR+D1059
Trigger mode: 1
Integration Time (sec): 1.000000E-1
Scans to average: 1
Electric dark correction enabled: true
Nonlinearity correction enabled: false
Boxcar width: 0
XAxis mode: Wavelengths
Number of Pixels in Spectrum: 2048
>>>>>Begin Spectral Data<<<<<
223.165	-22.75
223.4	-22.75
223.635	-22.75
223.869	-6.75
224.104	-14.75
224.338	-15.75
224.573	-20.75
224.808	-2.75
225.042	-4.75
225.277	-16.75
225.511	-2.75
225.746	3.25
225.98	13.25
226.215	3.25
226.449	15.25
226.683	14.25
226.918	30.25
227.152	28.25
227.387	49.25
227.621	40.25
227.856	41.25
228.09	44.25
228.324	43.25
228.559	44.25
228.793	75.25
229.027	101.25
229.262	114.25
229.496	112.25
229.73	124.25
229.964	145.25
230.199	131.25
230.433	122.25
230.667	133.25
230.901	149.25
231.136	134.25
231.37	135.25
231.604	132.25
231.838	147.25
232.072	136.25
232.306	156.25
232.541	148.25
232.775	141.25
233.009	153.25
233.243	140.25
233.477	147.25
233.711	155.25
233.945	156.25
234.179	139.25
234.413	133.25
234.647	167.25
234.881	139.25
235.115	161.25
235.349	171.25
235.583	164.25
235.817	167.25
236.051	170.25
236.285	164.25
236.519	153.25
236.753	157.25
236.987	177.25
237.221	164.25
237.455	164.25
237.689	168.25
237.922	161.25
238.156	168.25
238.39	167.25
238.624	156.25
238.858	162.25
239.091	165.25
239.325	167.25
239.559	183.25
239.793	177.25
240.027	185.25
240.26	182.25
240.494	181.25
240.728	184.25
240.961	192.25
241.195	183.25
241.429	194.25
241.662	192.25
241.896	181.25
242.13	183.25
242.363	192.25
242.597	185.25
242.83	190.25
243.064	197.25
243.298	200.25
243.531	204.25
243.765	238.25
243.998	204.25
244.232	213.25
244.465	204.25
244.699	204.25
244.932	208.25
245.166	226.25
245.399	216.25
245.633	219.25
245.866	222.25
246.099	224.25
246.333	224.25
246.566	228.25
246.8	236.25
247.033	241.25
247.266	229.25
247.5	238.25
247.733	239.25
247.966	236.25
248.2	247.25
248.433	247.25
248.666	243.25
248.899	249.25
249.133	259.25
249.366	258.25
249.599	243.25
249.832	255.25
250.066	261.25
250.299	262.25
250.532	263.25
250.765	293.25
250.998	267.25
251.231	277.25
251.465	255.25
251.698	266.25
251.931	282.25
252.164	290.25
252.397	292.25
252.63	293.25
252.863	296.25
253.096	293.25
253.329	275.25
253.562	274.25
253.795	303.25
254.028	305.25
254.261	301.25
254.494	298.25
254.727	293.25
254.96	303.25
255.193	311.25
255.426	304.25
255.659	298.25
255.892	322.25
256.124	322.25
256.357	319.25
256.59	329.25
256.823	308.25
257.056	309.25
257.289	334.25
257.521	312.25
257.754	311.25
257.987	328.25
258.22	331.25
258.452	343.25
258.685	320.25
258.918	337.25
259.151	346.25
259.383	350.25
259.616	346.25
259.849	340.25
260.081	345.25
260.314	342.25
260.547	343.25
260.779	353.25
261.012	358.25
261.244	359.25
261.477	337.25
261.71	367.25
261.942	361.25
262.175	362.25
262.407	348.25
262.64	359.25
262.872	367.25
263.105	362.25
263.337	382.25
263.57	377.25
263.802	397.25
264.035	374.25
264.267	360.25
264.499	375.25
264.732	371.25
264.964	401.25
265.197	391.25
265.429	408.25
265.661	398.25
265.894	383.25
266.126	399.25
266.358	402.25
266.591	381.25
266.823	396.25
267.055	397.25
267.287	411.25
267.52	399.25
267.752	394.25
267.984	395.25
268.216	420.25
268.448	401.25
268.681	404.25
268.913	429.25
269.145	421.25
269.377	424.25
269.609	403.25
269.841	409.25
270.073	409.25
270.306	435.25
270.538	425.25
270.77	412.25
271.002	433.25
271.234	439.25
271.466	418.25
271.698	433.25
271.93	427.25
272.162	432.25
272.394	433.25
272.626	429.25
272.858	447.25
273.09	412.25
273.322	431.25
273.553	443.25
273.785	433.25
274.017	446.25
274.249	445.25
274.481	466.25
274.713	453.25
274.945	459.25
275.176	449.25
275.408	455.25
275.64	451.25
275.872	444.25
276.104	485.25
276.335	478.25
276.567	452.25
276.799	466.25
277.031	460.25
277.262	475.25
277.494	471.25
277.726	483.25
277.957	453.25
278.189	474.25
278.421	469.25
278.652	487.25
278.884	492.25
279.115	481.25
279.347	487.25
279.579	492.25
279.81	499.25
280.042	493.25
280.273	488.25
280.505	511.25
280.736	488.25
280.968	514.25
281.199	493.25
281.431	519.25
281.662	522.25
281.894	511.25
282.125	492.25
282.356	495.25
282.588	515.25
282.819	504.25
283.051	519.25
283.282	532.25
283.513	513.25
283.745	532.25
283.976	521.25
284.207	499.25
284.439	503.25
284.67	517.25
284.901	537.25
285.132	536.25
285.364	536.25
285.595	532.25
285.826	545.25
286.057	538.25
286.288	569.25
286.52	542.25
286.751	520.25
286.982	539.25
287.213	557.25
287.444	546.25
287.675	548.25
287.906	571.25
288.138	548.25
288.369	550.25
288.6	581.25
288.831	554.25
289.062	537.25
289.293	577.25
289.524	588.25
289.755	541.25
289.986	553.25
290.217	552.25
290.448	548.25
290.679	563.25
290.91	569.25
291.141	582.25
291.371	575.25
291.602	573.25
291.833	568.25
292.064	579.25
292.295	562.25
292.526	584.25
292.757	559.25
292.987	559.25
293.218	590.25
293.449	584.25
293.68	556.25
293.91	571.25
294.141	599.25
294.372	572.25
294.603	549.25
294.833	554.25
295.064	586.25
295.295	584.25
295.525	564.25
295.756	583.25
295.987	568.25
296.217	581.25
296.448	593.25
296.679	560.25
296.909	584.25
297.14	608.25
297.37	584.25
297.601	570.25
297.831	616.25
298.062	619.25
298.292	607.25
298.523	632.25
298.753	641.25
298.984	647.25
299.214	604.25
299.445	607.25
299.675	595.25
299.905	604.25
300.136	608.25
300.366	634.25
300.597	626.25
300.827	645.25
301.057	632.25
301.288	654.25
301.518	662.25
301.748	654.25
301.979	634.25
302.209	649.25
302.439	650.25
302.669	634.25
302.9	644.25
303.13	670.25
303.36	645.25
303.59	639.25
303.82	617.25
304.051	654.25
304.281	670.25
304.511	658.25
304.741	657.25
304.971	654.25
305.201	684.25
305.431	657.25
305.661	647.25
305.891	661.25
306.121	654.25
306.352	667.25
306.582	641.25
306.812	655.25
307.042	660.25
307.272	637.25
307.502	644.25
307.731	643.25
307.961	640.25
308.191	631.25
308.421	641.25
308.651	639.25
308.881	623.25
309.111	645.25
309.341	644.25
309.571	627.25
309.8	615.25
310.03	647.25
310.26	661.25
310.49	668.25
310.72	668.25
310.949	656.25
311.179	650.25
311.409	667.25
311.639	648.25
311.868	696.25
312.098	654.25
312.328	673.25
312.557	682.25
312.787	678.25
313.017	660.25
313.246	672.25
313.476	693.25
313.706	683.25
313.935	711.25
314.165	693.25
314.394	690.25
314.624	701.25
314.853	708.25
315.083	689.25
315.312	709.25
315.542	699.25
315.771	703.25
316.001	677.25
316.23	681.25
316.46	723.25
316.689	697.25
316.919	696.25
317.148	691.25
317.377	696.25
317.607	705.25
317.836	661.25
318.065	703.25
318.295	712.25
318.524	701.25
318.753	710.25
318.983	693.25
319.212	696.25
319.441	702.25
319.67	707.25
319.9	701.25
320.129	729.25
320.358	707.25
320.587	713.25
320.816	700.25
321.046	705.25
321.275	723.25
321.504	723.25
321.733	708.25
321.962	703.25
322.191	744.25
322.42	731.25
322.649	728.25
322.878	744.25
323.108	716.25
323.337	746.25
323.566	717.25
323.795	739.25
324.024	749.25
324.253	757.25
324.482	729.25
324.71	747.25
324.939	788.25
325.168	748.25
325.397	774.25
325.626	761.25
325.855	773.25
326.084	775.25
326.313	781.25
326.542	821.25
326.77	796.25
326.999	799.25
327.228	800.25
327.457	794.25
327.686	765.25
327.914	802.25
328.143	789.25
328.372	817.25
328.6	815.25
328.829	815.25
329.058	815.25
329.287	824.25
329.515	810.25
329.744	830.25
329.972	831.25
330.201	833.25
330.43	849.25
330.658	831.25
330.887	843.25
331.115	837.25
331.344	868.25
331.572	876.25
331.801	880.25
332.03	905.25
332.258	892.25
332.486	930.25
332.715	949.25
332.943	981.25
333.172	1001.25
333.4	1026.25
333.629	1043.25
333.857	1096.25
334.085	1110.25
334.314	1068.25
334.542	1075.25
334.771	1079.25
334.999	1051.25
335.227	1022.25
335.455	1045.25
335.684	1010.25
335.912	1000.25
336.14	1031.25
336.369	1025.25
336.597	1027.25
336.825	988.25
337.053	996.25
337.281	991.25
337.51	960.25
337.738	967.25
337.966	963.25
338.194	958.25
338.422	923.25
338.65	896.25
338.878	904.25
339.106	935.25
339.334	910.25
339.562	897.25
339.79	899.25
340.018	888.25
340.246	884.25
340.474	914.25
340.702	901.25
340.93	869.25
341.158	851.25
341.386	905.25
341.614	886.25
341.842	880.25
342.07	857.25
342.298	863.25
342.526	871.25
342.754	867.25
342.981	857.25
343.209	900.25
343.437	921.25
343.665	963.25
343.893	1023.25
344.12	1020.25
344.348	1044.25
344.576	995.25
344.804	975.25
345.031	936.25
345.259	900.25
345.487	893.25
345.714	873.25
345.942	876.25
346.17	905.25
346.397	888.25
346.625	860.25
346.853	842.25
347.08	834.25
347.308	836.25
347.535	826.25
347.763	859.25
347.99	844.25
348.218	839.25
348.445	825.25
348.673	825.25
348.9	824.25
349.128	839.25
349.355	839.25
349.583	834.25
349.81	825.25
350.037	837.25
350.265	801.25
350.492	840.25
350.72	810.25
350.947	813.25
351.174	796.25
351.402	822.25
351.629	829.25
351.856	818.25
352.083	796.25
352.311	831.25
352.538	828.25
352.765	824.25
352.992	797.25
353.22	799.25
353.447	803.25
353.674	798.25
353.901	831.25
354.128	786.25
354.355	807.25
354.583	801.25
354.81	813.25
355.037	802.25
355.264	788.25
355.491	808.25
355.718	785.25
355.945	807.25
356.172	803.25
356.399	814.25
356.626	812.25
356.853	823.25
357.08	809.25
357.307	810.25
357.534	833.25
357.761	806.25
357.988	779.25
358.215	810.25
358.441	804.25
358.668	777.25
358.895	799.25
359.122	804.25
359.349	816.25
359.576	815.25
359.802	805.25
360.029	829.25
360.256	806.25
360.483	811.25
360.709	805.25
360.936	852.25
361.163	808.25
361.39	777.25
361.616	796.25
361.843	819.25
362.07	820.25
362.296	859.25
362.523	828.25
362.749	806.25
362.976	809.25
363.203	815.25
363.429	804.25
363.656	811.25
363.882	826.25
364.109	807.25
364.335	780.25
364.562	772.25
364.788	796.25
365.015	787.25
365.241	823.25
365.468	799.25
365.694	775.25
365.92	808.25
366.147	795.25
366.373	785.25
366.599	766.25
366.826	789.25
367.052	812.25
367.278	781.25
367.505	812.25
367.731	820.25
367.957	799.25
368.184	815.25
368.41	813.25
368.636	804.25
368.862	829.25
369.089	821.25
369.315	826.25
369.541	831.25
369.767	841.25
369.993	841.25
370.219	831.25
370.445	846.25
370.672	854.25
370.898	847.25
371.124	862.25
371.35	842.25
371.576	877.25
371.802	883.25
372.028	873.25
372.254	864.25
372.48	870.25
372.706	864.25
372.932	885.25
373.158	901.25
373.384	868.25
373.61	891.25
373.835	868.25
374.061	826.25
374.287	874.25
374.513	896.25
374.739	917.25
374.965	952.25
375.191	951.25
375.416	929.25
375.642	924.25
375.868	902.25
376.094	903.25
376.319	891.25
376.545	872.25
376.771	870.25
376.997	848.25
377.222	861.25
377.448	870.25
377.674	879.25
377.899	858.25
378.125	867.25
378.35	861.25
378.576	831.25
378.802	844.25
379.027	845.25
379.253	880.25
379.478	834.25
379.704	830.25
379.929	859.25
380.155	819.25
380.38	841.25
380.606	855.25
380.831	865.25
381.057	847.25
381.282	843.25
381.507	855.25
381.733	864.25
381.958	874.25
382.184	875.25
382.409	884.25
382.634	907.25
382.86	892.25
383.085	871.25
383.31	905.25
383.535	914.25
383.761	938.25
383.986	924.25
384.211	923.25
384.436	936.25
384.662	998.25
384.887	998.25
385.112	990.25
385.337	993.25
385.562	1004.25
385.787	1027.25
386.013	1029.25
386.238	1038.25
386.463	1061.25
386.688	1057.25
386.913	1045.25
387.138	1034.25
387.363	1034.25
387.588	998.25
387.813	1015.25
388.038	1023.25
388.263	996.25
388.488	1035.25
388.713	997.25
388.938	1017.25
389.163	1007.25
389.387	1004.25
389.612	1003.25
389.837	1025.25
390.062	1003.25
390.287	996.25
390.512	1003.25
390.736	1006.25
390.961	1031.25
391.186	1062.25
391.411	1105.25
391.636	1095.25
391.86	1121.25
392.085	1146.25
392.31	1141.25
392.534	1110.25
392.759	1121.25
392.984	1118.25
393.208	1094.25
393.433	1075.25
393.658	1079.25
393.882	1082.25
394.107	1087.25
394.331	1104.25
394.556	1121.25
394.78	1099.25
395.005	1135.25
395.229	1112.25
395.454	1125.25
395.678	1121.25
395.903	1151.25
396.127	1159.25
396.352	1110.25
396.576	1109.25
396.801	1118.25
397.025	1130.25
397.249	1132.25
397.474	1173.25
397.698	1198.25
397.922	1226.25
398.147	1193.25
398.371	1207.25
398.595	1244.25
398.82	1285.25
399.044	1404.25
399.268	1471.25
399.492	1636.25
399.717	1802.25
399.941	1817.25
400.165	1690.25
400.389	1568.25
400.613	1506.25
400.837	1378.25
401.062	1383.25
401.286	1338.25
401.51	1327.25
401.734	1306.25
401.958	1319.25
402.182	1333.25
402.406	1319.25
402.63	1335.25
402.854	1340.25
403.078	1361.25
403.302	1376.25
403.526	1395.25
403.75	1415.25
403.974	1453.25
404.198	1440.25
404.422	1416.25
404.645	1436.25
404.869	1462.25
405.093	1442.25
405.317	1396.25
405.541	1417.25
405.765	1421.25
405.988	1434.25
406.212	1437.25
406.436	1419.25
406.66	1459.25
406.883	1437.25
407.107	1535.25
407.331	1595.25
407.555	1674.25
407.778	1626.25
408.002	1604.25
408.226	1597.25
408.449	1566.25
408.673	1506.25
408.896	1498.25
409.12	1448.25
409.344	1439.25
409.567	1456.25
409.791	1457.25
410.014	1479.25
410.238	1423.25
410.461	1435.25
410.685	1420.25
410.908	1420.25
411.132	1351.25
411.355	1357.25
411.578	1367.25
411.802	1363.25
412.025	1356.25
412.249	1359.25
412.472	1349.25
412.695	1330.25
412.919	1319.25
413.142	1329.25
413.365	1303.25
413.589	1325.25
413.812	1337.25
414.035	1286.25
414.258	1323.25
414.482	1361.25
414.705	1306.25
414.928	1324.25
415.151	1332.25
415.374	1333.25
415.597	1291.25
415.821	1287.25
416.044	1269.25
416.267	1282.25
416.49	1279.25
416.713	1256.25
416.936	1277.25
417.159	1251.25
417.382	1257.25
417.605	1293.25
417.828	1256.25
418.051	1299.25
418.274	1279.25
418.497	1278.25
418.72	1327.25
418.943	1311.25
419.166	1398.25
419.389	1489.25
419.611	1414.25
419.834	1404.25
420.057	1378.25
420.28	1340.25
420.503	1256.25
420.726	1296.25
420.948	1264.25
421.171	1284.25
421.394	1281.25
421.617	1244.25
421.839	1288.25
422.062	1277.25
422.285	1281.25
422.507	1274.25
422.73	1329.25
422.953	1319.25
423.175	1312.25
423.398	1325.25
423.621	1300.25
423.843	1344.25
424.066	1373.25
424.288	1288.25
424.511	1333.25
424.733	1289.25
424.956	1292.25
425.178	1322.25
425.401	1311.25
425.623	1329.25
425.846	1297.25
426.068	1242.25
426.291	1242.25
426.513	1239.25
426.735	1202.25
426.958	1237.25
427.18	1216.25
427.402	1227.25
427.625	1227.25
427.847	1188.25
428.069	1169.25
428.292	1199.25
428.514	1155.25
428.736	1171.25
428.958	1181.25
429.181	1155.25
429.403	1178.25
429.625	1166.25
429.847	1149.25
430.069	1189.25
430.292	1192.25
430.514	1120.25
430.736	1141.25
430.958	1139.25
431.18	1109.25
431.402	1172.25
431.624	1183.25
431.846	1184.25
432.068	1177.25
432.29	1204.25
432.512	1134.25
432.734	1203.25
432.956	1204.25
433.178	1208.25
433.4	1192.25
433.622	1196.25
433.844	1196.25
434.066	1229.25
434.287	1210.25
434.509	1237.25
434.731	1272.25
434.953	1291.25
435.175	1272.25
435.397	1303.25
435.618	1257.25
435.84	1240.25
436.062	1196.25
436.284	1156.25
436.505	1184.25
436.727	1186.25
436.949	1195.25
437.17	1151.25
437.392	1143.25
437.614	1153.25
437.835	1149.25
438.057	1148.25
438.278	1118.25
438.5	1132.25
438.721	1117.25
438.943	1165.25
439.165	1156.25
439.386	1178.25
439.608	1191.25
439.829	1164.25
440.05	1189.25
440.272	1191.25
440.493	1165.25
440.715	1193.25
440.936	1226.25
441.158	1258.25
441.379	1272.25
441.6	1289.25
441.822	1311.25
442.043	1327.25
442.264	1277.25
442.486	1251.25
442.707	1283.25
442.928	1279.25
443.149	1288.25
443.371	1290.25
443.592	1308.25
443.813	1320.25
444.034	1360.25
444.255	1387.25
444.476	1428.25
444.698	1449.25
444.919	1531.25
445.14	1555.25
445.361	1471.25
445.582	1392.25
445.803	1280.25
446.024	1272.25
446.245	1259.25
446.466	1228.25
446.687	1204.25
446.908	1201.25
447.129	1179.25
447.35	1161.25
447.571	1153.25
447.792	1138.25
448.013	1131.25
448.234	1119.25
448.455	1129.25
448.675	1089.25
448.896	1090.25
449.117	1079.25
449.338	1094.25
449.559	1077.25
449.779	1095.25
450	1069.25
450.221	1073.25
450.442	1074.25
450.662	1098.25
450.883	1089.25
451.104	1100.25
451.324	1078.25
451.545	1064.25
451.766	1082.25
451.986	1101.25
452.207	1054.25
452.428	1066.25
452.648	1050.25
452.869	1037.25
453.089	1055.25
453.31	1020.25
453.53	1028.25
453.751	1022.25
453.971	1078.25
454.192	1045.25
454.412	1027.25
454.633	1026.25
454.853	992.25
455.073	1002.25
455.294	1021.25
455.514	1046.25
455.734	1002.25
455.955	986.25
456.175	1000.25
456.395	1014.25
456.616	999.25
456.836	1012.25
457.056	1030.25
457.276	1016.25
457.497	1034.25
457.717	1040.25
457.937	1003.25
458.157	1003.25
458.377	1023.25
458.598	1081.25
458.818	1096.25
459.038	1090.25
459.258	1122.25
459.478	1157.25
459.698	1225.25
459.918	1241.25
460.138	1286.25
460.358	1322.25
460.578	1357.25
460.798	1367.25
461.018	1349.25
461.238	1387.25
461.458	1386.25
461.678	1365.25
461.898	1380.25
462.118	1435.25
462.338	1450.25
462.558	1507.25
462.777	1575.25
462.997	1657.25
463.217	1744.25
463.437	1785.25
463.657	1683.25
463.876	1615.25
464.096	1622.25
464.316	1593.25
464.536	1552.25
464.755	1520.25
464.975	1511.25
465.195	1438.25
465.414	1348.25
465.634	1297.25
465.854	1263.25
466.073	1225.25
466.293	1181.25
466.512	1132.25
466.732	1145.25
466.951	1119.25
467.171	1097.25
467.391	1121.25
467.61	1124.25
467.829	1116.25
468.049	1113.25
468.268	1095.25
468.488	1078.25
468.707	1074.25
468.927	1083.25
469.146	1093.25
469.365	1105.25
469.585	1100.25
469.804	1124.25
470.023	1137.25
470.243	1126.25
470.462	1173.25
470.681	1165.25
470.901	1174.25
471.12	1174.25
471.339	1150.25
471.558	1148.25
471.777	1104.25
471.997	1125.25
472.216	1092.25
472.435	1071.25
472.654	1059.25
472.873	1050.25
473.092	1066.25
473.311	1057.25
473.53	1075.25
473.749	1064.25
473.968	1043.25
474.187	1015.25
474.406	1063.25
474.625	1056.25
474.844	1057.25
475.063	1067.25
475.282	1050.25
475.501	1077.25
475.72	1092.25
475.939	1081.25
476.158	1094.25
476.377	1095.25
476.596	1088.25
476.814	1120.25
477.033	1117.25
477.252	1132.25
477.471	1137.25
477.69	1183.25
477.908	1217.25
478.127	1246.25
478.346	1239.25
478.564	1261.25
478.783	1304.25
479.002	1289.25
479.22	1327.25
479.439	1308.25
479.658	1313.25
479.876	1295.25
480.095	1353.25
480.313	1361.25
480.532	1361.25
480.751	1344.25
480.969	1342.25
481.188	1279.25
481.406	1268.25
481.624	1281.25
481.843	1233.25
482.061	1226.25
482.28	1248.25
482.498	1200.25
482.717	1234.25
482.935	1230.25
483.153	1221.25
483.372	1222.25
483.59	1218.25
483.808	1188.25
484.027	1176.25
484.245	1223.25
484.463	1222.25
484.681	1227.25
484.9	1231.25
485.118	1243.25
485.336	1266.25
485.554	1228.25
485.772	1268.25
485.99	1253.25
486.209	1274.25
486.427	1264.25
486.645	1250.25
486.863	1267.25
487.081	1229.25
487.299	1257.25
487.517	1268.25
487.735	1232.25
487.953	1278.25
488.171	1268.25
488.389	1262.25
488.607	1234.25
488.825	1248.25
489.043	1265.25
489.261	1247.25
489.479	1242.25
489.696	1257.25
489.914	1248.25
490.132	1253.25
490.35	1279.25
490.568	1289.25
490.786	1281.25
491.003	1280.25
491.221	1292.25
491.439	1285.25
491.657	1303.25
491.874	1322.25
492.092	1266.25
492.31	1273.25
492.527	1317.25
492.745	1312.25
492.963	1329.25
493.18	1336.25
493.398	1304.25
493.615	1347.25
493.833	1341.25
494.05	1338.25
494.268	1361.25
494.485	1355.25
494.703	1376.25
494.92	1391.25
495.138	1363.25
495.355	1366.25
495.573	1388.25
495.79	1371.25
496.008	1425.25
496.225	1415.25
496.442	1441.25
496.66	1414.25
496.877	1474.25
497.094	1496.25
497.312	1512.25
497.529	1552.25
497.746	1586.25
497.963	1637.25
498.181	1730.25
498.398	1787.25
498.615	1871.25
498.832	2037.25
499.049	2115.25
499.267	2307.25
499.484	2494.25
499.701	2755.25
499.918	2950.25
500.135	3269.25
500.352	3564.25
500.569	3633.25
500.786	3595.25
501.003	3462.25
501.22	3205.25
501.437	2918.25
501.654	2676.25
501.871	2431.25
502.088	2249.25
502.305	2155.25
502.522	1976.25
502.739	1919.25
502.956	1817.25
503.172	1778.25
503.389	1711.25
503.606	1603.25
503.823	1599.25
504.04	1576.25
504.256	1544.25
504.473	1594.25
504.69	1573.25
504.907	1552.25
505.123	1489.25
505.34	1427.25
505.557	1350.25
505.773	1356.25
505.99	1312.25
506.207	1269.25
506.423	1296.25
506.64	1248.25
506.856	1226.25
507.073	1190.25
507.289	1203.25
507.506	1173.25
507.722	1181.25
507.939	1186.25
508.155	1171.25
508.372	1146.25
508.588	1139.25
508.805	1155.25
509.021	1142.25
509.238	1122.25
509.454	1117.25
509.67	1106.25
509.887	1093.25
510.103	1095.25
510.319	1113.25
510.536	1094.25
510.752	1075.25
510.968	1067.25
511.184	1076.25
511.401	1041.25
511.617	1094.25
511.833	1067.25
512.049	1063.25
512.265	1065.25
512.481	1082.25
512.698	1081.25
512.914	1074.25
513.13	1087.25
513.346	1080.25
513.562	1097.25
513.778	1098.25
513.994	1077.25
514.21	1100.25
514.426	1114.25
514.642	1135.25
514.858	1133.25
515.074	1147.25
515.29	1156.25
515.506	1143.25
515.721	1176.25
515.937	1193.25
516.153	1190.25
516.369	1185.25
516.585	1261.25
516.801	1267.25
517.016	1323.25
517.232	1413.25
517.448	1407.25
517.664	1473.25
517.879	1467.25
518.095	1465.25
518.311	1472.25
518.527	1382.25
518.742	1374.25
518.958	1308.25
519.173	1266.25
519.389	1251.25
519.605	1211.25
519.82	1200.25
520.036	1169.25
520.251	1143.25
520.467	1109.25
520.682	1117.25
520.898	1106.25
521.113	1061.25
521.329	1065.25
521.544	1051.25
521.76	1062.25
521.975	1048.25
522.19	1033.25
522.406	1035.25
522.621	1048.25
522.836	1038.25
523.052	1015.25
523.267	1009.25
523.482	1000.25
523.698	1015.25
523.913	1015.25
524.128	1000.25
524.343	983.25
524.559	1004.25
524.774	966.25
524.989	970.25
525.204	995.25
525.419	970.25
525.634	970.25
525.849	988.25
526.064	957.25
526.28	952.25
526.495	971.25
526.71	976.25
526.925	981.25
527.14	983.25
527.355	981.25
527.57	975.25
527.785	979.25
527.999	962.25
528.214	973.25
528.429	953.25
528.644	957.25
528.859	953.25
529.074	989.25
529.289	996.25
529.503	955.25
529.718	999.25
529.933	955.25
530.148	970.25
530.363	979.25
530.577	974.25
530.792	980.25
531.007	945.25
531.221	946.25
531.436	949.25
531.651	952.25
531.865	973.25
532.08	988.25
532.295	947.25
532.509	939.25
532.724	962.25
532.938	986.25
533.153	975.25
533.367	970.25
533.582	968.25
533.796	955.25
534.011	925.25
534.225	948.25
534.44	940.25
534.654	958.25
534.868	962.25
535.083	944.25
535.297	937.25
535.511	925.25
535.726	947.25
535.94	902.25
536.154	919.25
536.369	926.25
536.583	877.25
536.797	894.25
537.011	893.25
537.225	899.25
537.44	900.25
537.654	901.25
537.868	869.25
538.082	889.25
538.296	868.25
538.51	899.25
538.724	885.25
538.938	868.25
539.153	875.25
539.367	895.25
539.581	873.25
539.795	875.25
540.009	890.25
540.222	845.25
540.436	867.25
540.65	856.25
540.864	859.25
541.078	884.25
541.292	853.25
541.506	887.25
541.72	863.25
541.934	867.25
542.147	879.25
542.361	855.25
542.575	858.25
542.789	865.25
543.002	855.25
543.216	846.25
543.43	844.25
543.644	863.25
543.857	857.25
544.071	879.25
544.285	874.25
544.498	892.25
544.712	855.25
544.925	869.25
545.139	894.25
545.352	884.25
545.566	895.25
545.779	888.25
545.993	883.25
546.206	897.25
546.42	886.25
546.633	887.25
546.847	876.25
547.06	866.25
547.274	902.25
547.487	889.25
547.7	897.25
547.914	891.25
548.127	900.25
548.34	879.25
548.554	870.25
548.767	891.25
548.98	893.25
549.193	871.25
549.407	887.25
549.62	925.25
549.833	906.25
550.046	938.25
550.259	916.25
550.473	874.25
550.686	893.25
550.899	905.25
551.112	859.25
551.325	849.25
551.538	853.25
551.751	865.25
551.964	884.25
552.177	907.25
552.39	892.25
552.603	929.25
552.816	961.25
553.029	940.25
553.242	956.25
553.455	965.25
553.667	945.25
553.88	948.25
554.093	927.25
554.306	920.25
554.519	875.25
554.732	874.25
554.944	872.25
555.157	855.25
555.37	846.25
555.583	842.25
555.795	829.25
556.008	804.25
556.221	810.25
556.433	788.25
556.646	790.25
556.859	808.25
557.071	753.25
557.284	771.25
557.496	787.25
557.709	765.25
557.921	747.25
558.134	752.25
558.346	783.25
558.559	752.25
558.771	715.25
558.984	721.25
559.196	729.25
559.409	705.25
559.621	721.25
559.833	721.25
560.046	715.25
560.258	729.25
560.47	744.25
560.683	718.25
560.895	701.25
561.107	725.25
561.32	729.25
561.532	730.25
561.744	737.25
561.956	724.25
562.168	711.25
562.381	728.25
562.593	732.25
562.805	743.25
563.017	745.25
563.229	721.25
563.441	755.25
563.653	737.25
563.865	771.25
564.077	774.25
564.289	783.25
564.501	798.25
564.713	796.25
564.925	768.25
565.137	801.25
565.349	878.25
565.561	871.25
565.773	932.25
565.985	937.25
566.197	959.25
566.408	1027.25
566.62	1077.25
566.832	1094.25
567.044	1139.25
567.255	1164.25
567.467	1191.25
567.679	1239.25
567.891	1283.25
568.102	1275.25
568.314	1213.25
568.526	1130.25
568.737	1041.25
568.949	1013.25
569.161	903.25
569.372	893.25
569.584	849.25
569.795	828.25
570.007	803.25
570.218	764.25
570.43	740.25
570.641	743.25
570.853	745.25
571.064	753.25
571.276	741.25
571.487	721.25
571.698	704.25
571.91	693.25
572.121	678.25
572.333	662.25
572.544	643.25
572.755	625.25
572.966	631.25
573.178	639.25
573.389	617.25
573.6	587.25
573.811	604.25
574.023	615.25
574.234	605.25
574.445	604.25
574.656	604.25
574.867	604.25
575.078	594.25
575.289	576.25
575.501	588.25
575.712	556.25
575.923	568.25
576.134	572.25
576.345	580.25
576.556	592.25
576.767	570.25
576.978	565.25
577.188	570.25
577.399	550.25
577.61	534.25
577.821	524.25
578.032	522.25
578.243	548.25
578.454	525.25
578.665	509.25
578.875	519.25
579.086	528.25
579.297	535.25
579.508	532.25
579.718	547.25
579.929	537.25
580.14	531.25
580.35	504.25
580.561	517.25
580.772	533.25
580.982	529.25
581.193	502.25
581.403	520.25
581.614	502.25
581.825	490.25
582.035	507.25
582.246	521.25
582.456	515.25
582.667	510.25
582.877	507.25
583.087	513.25
583.298	512.25
583.508	494.25
583.719	490.25
583.929	486.25
584.139	495.25
584.35	474.25
584.56	490.25
584.77	479.25
584.981	484.25
585.191	513.25
585.401	462.25
585.611	484.25
585.821	488.25
586.032	489.25
586.242	480.25
586.452	478.25
586.662	470.25
586.872	482.25
587.082	479.25
587.292	469.25
587.502	476.25
587.713	471.25
587.923	478.25
588.133	488.25
588.343	486.25
588.553	474.25
588.762	483.25
588.972	471.25
589.182	483.25
589.392	505.25
589.602	476.25
589.812	489.25
590.022	500.25
590.232	469.25
590.441	451.25
590.651	477.25
590.861	475.25
591.071	513.25
591.281	488.25
591.49	487.25
591.7	522.25
591.91	501.25
592.119	526.25
592.329	525.25
592.539	543.25
592.748	541.25
592.958	573.25
593.167	583.25
593.377	565.25
593.587	595.25
593.796	569.25
594.006	598.25
594.215	594.25
594.424	588.25
594.634	566.25
594.843	553.25
595.053	539.25
595.262	526.25
595.472	485.25
595.681	512.25
595.89	489.25
596.1	479.25
596.309	478.25
596.518	465.25
596.727	452.25
596.937	453.25
597.146	448.25
597.355	463.25
597.564	445.25
597.774	421.25
597.983	425.25
598.192	432.25
598.401	410.25
598.61	405.25
598.819	391.25
599.028	402.25
599.237	417.25
599.446	404.25
599.655	395.25
599.864	395.25
600.073	388.25
600.282	391.25
600.491	387.25
600.7	414.25
600.909	375.25
601.118	397.25
601.327	374.25
601.536	388.25
601.745	393.25
601.953	387.25
602.162	369.25
602.371	377.25
602.58	402.25
602.789	393.25
602.997	384.25
603.206	374.25
603.415	369.25
603.623	373.25
603.832	385.25
604.041	377.25
604.249	363.25
604.458	356.25
604.666	369.25
604.875	356.25
605.084	360.25
605.292	370.25
605.501	371.25
605.709	372.25
605.918	356.25
606.126	374.25
606.334	365.25
606.543	369.25
606.751	369.25
606.96	376.25
607.168	361.25
607.376	346.25
607.585	341.25
607.793	367.25
608.001	359.25
608.21	343.25
608.418	351.25
608.626	351.25
608.834	353.25
609.043	353.25
609.251	339.25
609.459	356.25
609.667	349.25
609.875	344.25
610.083	341.25
610.291	325.25
610.499	345.25
610.707	348.25
610.916	328.25
611.124	355.25
611.332	343.25
611.54	343.25
611.748	347.25
611.955	343.25
612.163	359.25
612.371	353.25
612.579	322.25
612.787	343.25
612.995	338.25
613.203	346.25
613.411	333.25
613.618	355.25
613.826	345.25
614.034	345.25
614.242	341.25
614.449	323.25
614.657	343.25
614.865	335.25
615.072	338.25
615.28	328.25
615.488	317.25
615.695	327.25
615.903	347.25
616.111	332.25
616.318	330.25
616.526	330.25
616.733	336.25
616.941	332.25
617.148	322.25
617.356	339.25
617.563	321.25
617.771	322.25
617.978	313.25
618.185	335.25
618.393	316.25
618.6	353.25
618.807	317.25
619.015	305.25
619.222	325.25
619.429	327.25
619.637	319.25
619.844	316.25
620.051	304.25
620.258	317.25
620.466	306.25
620.673	316.25
620.88	306.25
621.087	305.25
621.294	305.25
621.501	310.25
621.708	310.25
621.915	325.25
622.122	297.25
622.329	306.25
622.536	303.25
622.743	307.25
622.95	288.25
623.157	301.25
623.364	316.25
623.571	298.25
623.778	306.25
623.985	307.25
624.192	307.25
624.399	301.25
624.606	311.25
624.812	275.25
625.019	292.25
625.226	307.25
625.433	274.25
625.639	280.25
625.846	281.25
626.053	282.25
626.259	289.25
626.466	304.25
626.673	277.25
626.879	292.25
627.086	277.25
627.293	274.25
627.499	286.25
627.706	295.25
627.912	273.25
628.119	278.25
628.325	280.25
628.532	280.25
628.738	267.25
628.945	269.25
629.151	268.25
629.357	278.25
629.564	267.25
629.77	259.25
629.976	270.25
630.183	278.25
630.389	278.25
630.595	269.25
630.802	263.25
631.008	265.25
631.214	272.25
631.42	250.25
631.627	261.25
631.833	263.25
632.039	243.25
632.245	260.25
632.451	220.25
632.657	255.25
632.863	255.25
633.069	254.25
633.275	252.25
633.481	259.25
633.688	255.25
633.893	248.25
634.099	245.25
634.305	247.25
634.511	249.25
634.717	242.25
634.923	242.25
635.129	248.25
635.335	241.25
635.541	255.25
635.747	246.25
635.952	242.25
636.158	230.25
636.364	251.25
636.57	234.25
636.775	236.25
636.981	223.25
637.187	251.25
637.392	234.25
637.598	237.25
637.804	239.25
638.009	232.25
638.215	233.25
638.421	228.25
638.626	233.25
638.832	237.25
639.037	244.25
639.243	230.25
639.448	234.25
639.654	239.25
639.859	240.25
640.065	237.25
640.27	221.25
640.475	228.25
640.681	226.25
640.886	222.25
641.091	236.25
641.297	224.25
641.502	216.25
641.707	214.25
641.913	211.25
642.118	216.25
642.323	221.25
642.528	215.25
642.733	217.25
642.939	201.25
643.144	225.25
643.349	222.25
643.554	227.25
643.759	211.25
643.964	211.25
644.169	202.25
644.374	213.25
644.579	224.25
644.784	218.25
644.989	232.25
645.194	205.25
645.399	213.25
645.604	218.25
645.809	221.25
646.014	200.25
646.219	216.25
646.423	217.25
646.628	210.25
646.833	224.25
647.038	219.25
647.243	217.25
647.447	203.25
647.652	211.25
647.857	212.25
648.062	225.25
648.266	234.25
648.471	213.25
648.676	229.25
648.88	215.25
649.085	226.25
649.289	215.25
649.494	189.25
649.698	204.25
649.903	200.25
650.107	212.25
650.312	193.25
650.516	203.25
650.721	199.25
650.925	198.25
651.13	183.25
651.334	190.25
651.539	179.25
651.743	204.25
651.947	186.25
652.152	196.25
652.356	187.25
652.56	172.25
652.764	162.25
652.969	185.25
653.173	175.25
653.377	168.25
653.581	168.25
653.785	165.25
653.99	171.25
654.194	167.25
654.398	157.25
654.602	155.25
654.806	163.25
655.01	144.25
655.214	164.25
655.418	158.25
655.622	164.25
655.826	151.25
656.03	136.25
656.234	153.25
656.438	143.25
656.642	150.25
656.846	146.25
657.049	155.25
657.253	152.25
657.457	139.25
657.661	128.25
657.865	124.25
658.068	132.25
658.272	127.25
658.476	142.25
658.68	117.25
658.883	112.25
659.087	102.25
659.291	113.25
659.494	129.25
659.698	114.25
659.901	116.25
660.105	95.25
660.309	111.25
660.512	113.25
660.716	107.25
660.919	97.25
661.123	101.25
661.326	98.25
661.53	86.25
661.733	81.25
661.936	81.25
662.14	85.25
662.343	86.25
662.546	89.25
662.75	75.25
662.953	92.25
663.156	82.25
663.36	87.25
663.563	80.25
663.766	76.25
663.969	90.25
664.173	73.25
664.376	71.25
664.579	84.25
664.782	82.25
664.985	84.25
665.188	83.25
665.391	92.25
665.594	67.25
665.797	82.25
666	94.25
666.203	90.25
666.406	64.25
666.609	72.25
666.812	87.25
667.015	85.25
667.218	87.25
667.421	72.25
667.624	77.25
667.827	95.25
668.03	80.25
668.232	84.25
668.435	78.25
668.638	79.25
668.841	98.25
669.043	82.25
669.246	82.25
669.449	75.25
669.651	89.25
669.854	92.25
670.057	92.25
670.259	80.25
670.462	80.25
670.665	84.25
670.867	74.25
671.07	76.25
671.272	76.25
671.475	86.25
671.677	75.25
671.88	91.25
672.082	80.25
672.284	79.25
672.487	79.25
672.689	80.25
672.892	67.25
