Data from Ni(NO3)2@0.0625M.TitratingCurve.Agarose3%dH2O.NegLispCup.LampEnergy10.LIBS07252019_HRD10591_18-13-39-569.txt Node
Date: Thu Jul 25 18:13:39 EDT 2019
User: cochatt
Spectrometer: HR+D1059
Trigger mode: 1
Integration Time (sec): 1.000000E-1
Scans to average: 1
Electric dark correction enabled: true
Nonlinearity correction enabled: false
Boxcar width: 0
XAxis mode: Wavelengths
Number of Pixels in Spectrum: 2048
>>>>>Begin Spectral Data<<<<<
223.165	-15.56
223.4	-15.56
223.635	-15.56
223.869	-8.56
224.104	-15.56
224.338	-20.56
224.573	-17.56
224.808	-20.56
225.042	-13.56
225.277	-11.56
225.511	-10.56
225.746	4.44
225.98	14.44
226.215	17.44
226.449	22.44
226.683	9.44
226.918	30.44
227.152	35.44
227.387	23.44
227.621	33.44
227.856	34.44
228.09	44.44
228.324	45.44
228.559	49.44
228.793	72.44
229.027	100.44
229.262	98.44
229.496	115.44
229.73	126.44
229.964	120.44
230.199	130.44
230.433	129.44
230.667	127.44
230.901	140.44
231.136	136.44
231.37	152.44
231.604	129.44
231.838	150.44
232.072	161.44
232.306	143.44
232.541	159.44
232.775	144.44
233.009	141.44
233.243	137.44
233.477	151.44
233.711	156.44
233.945	138.44
234.179	149.44
234.413	146.44
234.647	135.44
234.881	138.44
235.115	155.44
235.349	146.44
235.583	156.44
235.817	150.44
236.051	156.44
236.285	154.44
236.519	142.44
236.753	169.44
236.987	156.44
237.221	166.44
237.455	151.44
237.689	153.44
237.922	146.44
238.156	156.44
238.39	157.44
238.624	149.44
238.858	171.44
239.091	174.44
239.325	156.44
239.559	173.44
239.793	165.44
240.027	173.44
240.26	169.44
240.494	174.44
240.728	166.44
240.961	162.44
241.195	164.44
241.429	185.44
241.662	173.44
241.896	179.44
242.13	176.44
242.363	196.44
242.597	204.44
242.83	195.44
243.064	186.44
243.298	198.44
243.531	192.44
243.765	202.44
243.998	210.44
244.232	194.44
244.465	206.44
244.699	200.44
244.932	215.44
245.166	218.44
245.399	201.44
245.633	198.44
245.866	202.44
246.099	218.44
246.333	207.44
246.566	211.44
246.8	231.44
247.033	211.44
247.266	215.44
247.5	214.44
247.733	207.44
247.966	236.44
248.2	202.44
248.433	227.44
248.666	226.44
248.899	220.44
249.133	226.44
249.366	241.44
249.599	220.44
249.832	220.44
250.066	247.44
250.299	243.44
250.532	245.44
250.765	229.44
250.998	260.44
251.231	260.44
251.465	247.44
251.698	259.44
251.931	260.44
252.164	253.44
252.397	246.44
252.63	264.44
252.863	270.44
253.096	270.44
253.329	268.44
253.562	257.44
253.795	256.44
254.028	278.44
254.261	263.44
254.494	249.44
254.727	274.44
254.96	265.44
255.193	284.44
255.426	275.44
255.659	280.44
255.892	261.44
256.124	272.44
256.357	268.44
256.59	278.44
256.823	277.44
257.056	292.44
257.289	286.44
257.521	302.44
257.754	277.44
257.987	294.44
258.22	269.44
258.452	288.44
258.685	296.44
258.918	294.44
259.151	305.44
259.383	300.44
259.616	268.44
259.849	313.44
260.081	313.44
260.314	307.44
260.547	301.44
260.779	298.44
261.012	311.44
261.244	322.44
261.477	304.44
261.71	320.44
261.942	304.44
262.175	316.44
262.407	322.44
262.64	316.44
262.872	321.44
263.105	322.44
263.337	317.44
263.57	316.44
263.802	307.44
264.035	319.44
264.267	342.44
264.499	336.44
264.732	331.44
264.964	337.44
265.197	333.44
265.429	336.44
265.661	337.44
265.894	331.44
266.126	335.44
266.358	347.44
266.591	337.44
266.823	343.44
267.055	345.44
267.287	353.44
267.52	334.44
267.752	350.44
267.984	339.44
268.216	339.44
268.448	348.44
268.681	350.44
268.913	351.44
269.145	344.44
269.377	349.44
269.609	367.44
269.841	340.44
270.073	364.44
270.306	381.44
270.538	356.44
270.77	362.44
271.002	357.44
271.234	375.44
271.466	376.44
271.698	370.44
271.93	342.44
272.162	383.44
272.394	372.44
272.626	367.44
272.858	368.44
273.09	369.44
273.322	365.44
273.553	375.44
273.785	398.44
274.017	389.44
274.249	371.44
274.481	391.44
274.713	380.44
274.945	397.44
275.176	407.44
275.408	375.44
275.64	399.44
275.872	368.44
276.104	407.44
276.335	377.44
276.567	393.44
276.799	398.44
277.031	408.44
277.262	379.44
277.494	391.44
277.726	398.44
277.957	432.44
278.189	396.44
278.421	411.44
278.652	409.44
278.884	416.44
279.115	412.44
279.347	425.44
279.579	418.44
279.81	427.44
280.042	435.44
280.273	417.44
280.505	411.44
280.736	410.44
280.968	435.44
281.199	429.44
281.431	440.44
281.662	420.44
281.894	444.44
282.125	446.44
282.356	435.44
282.588	432.44
282.819	441.44
283.051	434.44
283.282	441.44
283.513	454.44
283.745	452.44
283.976	444.44
284.207	426.44
284.439	450.44
284.67	458.44
284.901	485.44
285.132	466.44
285.364	459.44
285.595	464.44
285.826	475.44
286.057	472.44
286.288	487.44
286.52	446.44
286.751	461.44
286.982	478.44
287.213	468.44
287.444	468.44
287.675	462.44
287.906	482.44
288.138	475.44
288.369	469.44
288.6	474.44
288.831	485.44
289.062	473.44
289.293	476.44
289.524	511.44
289.755	490.44
289.986	491.44
290.217	489.44
290.448	513.44
290.679	493.44
290.91	500.44
291.141	496.44
291.371	496.44
291.602	492.44
291.833	483.44
292.064	485.44
292.295	496.44
292.526	484.44
292.757	471.44
292.987	505.44
293.218	515.44
293.449	500.44
293.68	500.44
293.91	485.44
294.141	496.44
294.372	480.44
294.603	518.44
294.833	492.44
295.064	483.44
295.295	506.44
295.525	493.44
295.756	506.44
295.987	508.44
296.217	503.44
296.448	500.44
296.679	515.44
296.909	526.44
297.14	533.44
297.37	523.44
297.601	544.44
297.831	554.44
298.062	541.44
298.292	561.44
298.523	557.44
298.753	540.44
298.984	573.44
299.214	524.44
299.445	532.44
299.675	527.44
299.905	548.44
300.136	575.44
300.366	531.44
300.597	558.44
300.827	566.44
301.057	578.44
301.288	545.44
301.518	566.44
301.748	566.44
301.979	571.44
302.209	575.44
302.439	571.44
302.669	566.44
302.9	557.44
303.13	551.44
303.36	552.44
303.59	527.44
303.82	574.44
304.051	562.44
304.281	552.44
304.511	588.44
304.741	560.44
304.971	568.44
305.201	551.44
305.431	534.44
305.661	523.44
305.891	551.44
306.121	565.44
306.352	552.44
306.582	570.44
306.812	558.44
307.042	546.44
307.272	523.44
307.502	530.44
307.731	565.44
307.961	542.44
308.191	567.44
308.421	544.44
308.651	535.44
308.881	530.44
309.111	540.44
309.341	531.44
309.571	531.44
309.8	545.44
310.03	549.44
310.26	526.44
310.49	540.44
310.72	523.44
310.949	539.44
311.179	546.44
311.409	542.44
311.639	552.44
311.868	560.44
312.098	556.44
312.328	564.44
312.557	557.44
312.787	572.44
313.017	561.44
313.246	565.44
313.476	566.44
313.706	560.44
313.935	598.44
314.165	587.44
314.394	585.44
314.624	584.44
314.853	574.44
315.083	562.44
315.312	568.44
315.542	562.44
315.771	562.44
316.001	553.44
316.23	585.44
316.46	574.44
316.689	568.44
316.919	584.44
317.148	557.44
317.377	561.44
317.607	568.44
317.836	542.44
318.065	577.44
318.295	578.44
318.524	585.44
318.753	579.44
318.983	585.44
319.212	573.44
319.441	581.44
319.67	567.44
319.9	559.44
320.129	577.44
320.358	567.44
320.587	573.44
320.816	553.44
321.046	576.44
321.275	573.44
321.504	570.44
321.733	592.44
321.962	583.44
322.191	595.44
322.42	578.44
322.649	578.44
322.878	581.44
323.108	577.44
323.337	592.44
323.566	555.44
323.795	586.44
324.024	583.44
324.253	577.44
324.482	594.44
324.71	599.44
324.939	604.44
325.168	579.44
325.397	590.44
325.626	587.44
325.855	613.44
326.084	620.44
326.313	632.44
326.542	629.44
326.77	618.44
326.999	613.44
327.228	617.44
327.457	627.44
327.686	614.44
327.914	636.44
328.143	626.44
328.372	647.44
328.6	646.44
328.829	654.44
329.058	626.44
329.287	641.44
329.515	640.44
329.744	615.44
329.972	632.44
330.201	617.44
330.43	630.44
330.658	643.44
330.887	661.44
331.115	640.44
331.344	642.44
331.572	671.44
331.801	716.44
332.03	695.44
332.258	711.44
332.486	728.44
332.715	761.44
332.943	772.44
333.172	814.44
333.4	859.44
333.629	879.44
333.857	848.44
334.085	835.44
334.314	844.44
334.542	827.44
334.771	820.44
334.999	780.44
335.227	795.44
335.455	781.44
335.684	774.44
335.912	760.44
336.14	760.44
336.369	717.44
336.597	748.44
336.825	741.44
337.053	733.44
337.281	745.44
337.51	732.44
337.738	724.44
337.966	694.44
338.194	693.44
338.422	707.44
338.65	660.44
338.878	693.44
339.106	690.44
339.334	685.44
339.562	670.44
339.79	656.44
340.018	652.44
340.246	647.44
340.474	641.44
340.702	658.44
340.93	636.44
341.158	671.44
341.386	673.44
341.614	649.44
341.842	658.44
342.07	636.44
342.298	650.44
342.526	655.44
342.754	666.44
342.981	642.44
343.209	666.44
343.437	706.44
343.665	746.44
343.893	806.44
344.12	846.44
344.348	808.44
344.576	734.44
344.804	688.44
345.031	677.44
345.259	694.44
345.487	646.44
345.714	643.44
345.942	651.44
346.17	659.44
346.397	645.44
346.625	673.44
346.853	628.44
347.08	635.44
347.308	649.44
347.535	646.44
347.763	657.44
347.99	652.44
348.218	673.44
348.445	658.44
348.673	648.44
348.9	660.44
349.128	632.44
349.355	634.44
349.583	625.44
349.81	620.44
350.037	622.44
350.265	636.44
350.492	624.44
350.72	610.44
350.947	593.44
351.174	620.44
351.402	618.44
351.629	637.44
351.856	604.44
352.083	624.44
352.311	628.44
352.538	640.44
352.765	611.44
352.992	592.44
353.22	596.44
353.447	605.44
353.674	597.44
353.901	597.44
354.128	602.44
354.355	609.44
354.583	620.44
354.81	612.44
355.037	615.44
355.264	631.44
355.491	617.44
355.718	624.44
355.945	624.44
356.172	624.44
356.399	597.44
356.626	631.44
356.853	594.44
357.08	618.44
357.307	614.44
357.534	624.44
357.761	617.44
357.988	624.44
358.215	632.44
358.441	614.44
358.668	616.44
358.895	615.44
359.122	622.44
359.349	612.44
359.576	594.44
359.802	609.44
360.029	625.44
360.256	607.44
360.483	636.44
360.709	626.44
360.936	628.44
361.163	619.44
361.39	598.44
361.616	618.44
361.843	627.44
362.07	624.44
362.296	617.44
362.523	618.44
362.749	616.44
362.976	629.44
363.203	592.44
363.429	603.44
363.656	608.44
363.882	606.44
364.109	584.44
364.335	612.44
364.562	625.44
364.788	581.44
365.015	617.44
365.241	626.44
365.468	612.44
365.694	613.44
365.92	604.44
366.147	598.44
366.373	625.44
366.599	608.44
366.826	600.44
367.052	634.44
367.278	594.44
367.505	605.44
367.731	617.44
367.957	610.44
368.184	612.44
368.41	615.44
368.636	628.44
368.862	618.44
369.089	635.44
369.315	650.44
369.541	652.44
369.767	641.44
369.993	633.44
370.219	607.44
370.445	670.44
370.672	649.44
370.898	666.44
371.124	657.44
371.35	664.44
371.576	665.44
371.802	675.44
372.028	619.44
372.254	692.44
372.48	683.44
372.706	674.44
372.932	703.44
373.158	692.44
373.384	673.44
373.61	677.44
373.835	670.44
374.061	643.44
374.287	664.44
374.513	688.44
374.739	693.44
374.965	722.44
375.191	744.44
375.416	732.44
375.642	709.44
375.868	709.44
376.094	693.44
376.319	677.44
376.545	699.44
376.771	655.44
376.997	684.44
377.222	684.44
377.448	667.44
377.674	679.44
377.899	657.44
378.125	667.44
378.35	665.44
378.576	667.44
378.802	666.44
379.027	681.44
379.253	659.44
379.478	630.44
379.704	652.44
379.929	648.44
380.155	654.44
380.38	650.44
380.606	672.44
380.831	648.44
381.057	671.44
381.282	662.44
381.507	679.44
381.733	677.44
381.958	683.44
382.184	694.44
382.409	690.44
382.634	692.44
382.86	704.44
383.085	681.44
383.31	714.44
383.535	773.44
383.761	727.44
383.986	765.44
384.211	772.44
384.436	791.44
384.662	800.44
384.887	817.44
385.112	821.44
385.337	813.44
385.562	818.44
385.787	819.44
386.013	807.44
386.238	795.44
386.463	807.44
386.688	827.44
386.913	772.44
387.138	788.44
387.363	797.44
387.588	785.44
387.813	773.44
388.038	773.44
388.263	769.44
388.488	785.44
388.713	799.44
388.938	781.44
389.163	782.44
389.387	797.44
389.612	771.44
389.837	749.44
390.062	749.44
390.287	790.44
390.512	774.44
390.736	795.44
390.961	822.44
391.186	826.44
391.411	839.44
391.636	874.44
391.86	881.44
392.085	886.44
392.31	911.44
392.534	880.44
392.759	864.44
392.984	832.44
393.208	830.44
393.433	843.44
393.658	874.44
393.882	850.44
394.107	832.44
394.331	855.44
394.556	861.44
394.78	868.44
395.005	887.44
395.229	843.44
395.454	884.44
395.678	928.44
395.903	880.44
396.127	870.44
396.352	842.44
396.576	843.44
396.801	803.44
397.025	854.44
397.249	880.44
397.474	882.44
397.698	878.44
397.922	870.44
398.147	857.44
398.371	886.44
398.595	932.44
398.82	967.44
399.044	1046.44
399.268	1184.44
399.492	1352.44
399.717	1610.44
399.941	1588.44
400.165	1351.44
400.389	1196.44
400.613	1119.44
400.837	1052.44
401.062	1034.44
401.286	999.44
401.51	987.44
401.734	973.44
401.958	992.44
402.182	1005.44
402.406	1028.44
402.63	1068.44
402.854	1055.44
403.078	1100.44
403.302	1152.44
403.526	1120.44
403.75	1158.44
403.974	1195.44
404.198	1188.44
404.422	1193.44
404.645	1169.44
404.869	1167.44
405.093	1121.44
405.317	1113.44
405.541	1092.44
405.765	1082.44
405.988	1104.44
406.212	1086.44
406.436	1076.44
406.66	1118.44
406.883	1131.44
407.107	1240.44
407.331	1270.44
407.555	1317.44
407.778	1304.44
408.002	1268.44
408.226	1231.44
408.449	1186.44
408.673	1169.44
408.896	1152.44
409.12	1116.44
409.344	1154.44
409.567	1123.44
409.791	1186.44
410.014	1151.44
410.238	1162.44
410.461	1146.44
410.685	1101.44
410.908	1111.44
411.132	1050.44
411.355	1052.44
411.578	1056.44
411.802	1060.44
412.025	1047.44
412.249	1073.44
412.472	1044.44
412.695	1023.44
412.919	992.44
413.142	1000.44
413.365	998.44
413.589	1016.44
413.812	997.44
414.035	988.44
414.258	1011.44
414.482	1010.44
414.705	1022.44
414.928	1004.44
415.151	1020.44
415.374	1002.44
415.597	996.44
415.821	999.44
416.044	969.44
416.267	949.44
416.49	977.44
416.713	948.44
416.936	980.44
417.159	971.44
417.382	980.44
417.605	974.44
417.828	973.44
418.051	1021.44
418.274	978.44
418.497	978.44
418.72	1034.44
418.943	1039.44
419.166	1057.44
419.389	1159.44
419.611	1125.44
419.834	1100.44
420.057	1046.44
420.28	985.44
420.503	979.44
420.726	956.44
420.948	960.44
421.171	986.44
421.394	997.44
421.617	997.44
421.839	987.44
422.062	987.44
422.285	1014.44
422.507	1034.44
422.73	1042.44
422.953	1035.44
423.175	1052.44
423.398	1070.44
423.621	1048.44
423.843	1090.44
424.066	1092.44
424.288	1080.44
424.511	1066.44
424.733	1035.44
424.956	1015.44
425.178	1037.44
425.401	1008.44
425.623	1001.44
425.846	946.44
426.068	946.44
426.291	952.44
426.513	955.44
426.735	919.44
426.958	918.44
427.18	884.44
427.402	887.44
427.625	905.44
427.847	868.44
428.069	913.44
428.292	893.44
428.514	901.44
428.736	899.44
428.958	897.44
429.181	850.44
429.403	859.44
429.625	878.44
429.847	875.44
430.069	848.44
430.292	875.44
430.514	852.44
430.736	885.44
430.958	880.44
431.18	841.44
431.402	840.44
431.624	868.44
431.846	884.44
432.068	914.44
432.29	893.44
432.512	873.44
432.734	899.44
432.956	858.44
433.178	876.44
433.4	879.44
433.622	890.44
433.844	909.44
434.066	892.44
434.287	934.44
434.509	952.44
434.731	971.44
434.953	1022.44
435.175	1014.44
435.397	1021.44
435.618	951.44
435.84	900.44
436.062	920.44
436.284	876.44
436.505	884.44
436.727	896.44
436.949	885.44
437.17	913.44
437.392	885.44
437.614	884.44
437.835	832.44
438.057	845.44
438.278	824.44
438.5	872.44
438.721	860.44
438.943	862.44
439.165	838.44
439.386	864.44
439.608	897.44
439.829	858.44
440.05	884.44
440.272	880.44
440.493	867.44
440.715	911.44
440.936	930.44
441.158	905.44
441.379	970.44
441.6	1016.44
441.822	1020.44
442.043	1014.44
442.264	982.44
442.486	981.44
442.707	960.44
442.928	988.44
443.149	975.44
443.371	982.44
443.592	983.44
443.813	1006.44
444.034	1030.44
444.255	1012.44
444.476	1105.44
444.698	1153.44
444.919	1213.44
445.14	1296.44
445.361	1151.44
445.582	1049.44
445.803	1003.44
446.024	931.44
446.245	932.44
446.466	925.44
446.687	906.44
446.908	883.44
447.129	909.44
447.35	845.44
447.571	852.44
447.792	845.44
448.013	819.44
448.234	814.44
448.455	833.44
448.675	832.44
448.896	833.44
449.117	809.44
449.338	801.44
449.559	815.44
449.779	796.44
450	818.44
450.221	812.44
450.442	837.44
450.662	846.44
450.883	812.44
451.104	872.44
451.324	855.44
451.545	870.44
451.766	840.44
451.986	838.44
452.207	827.44
452.428	822.44
452.648	841.44
452.869	811.44
453.089	818.44
453.31	822.44
453.53	792.44
453.751	832.44
453.971	817.44
454.192	806.44
454.412	801.44
454.633	794.44
454.853	765.44
455.073	775.44
455.294	786.44
455.514	764.44
455.734	756.44
455.955	771.44
456.175	776.44
456.395	772.44
456.616	768.44
456.836	783.44
457.056	738.44
457.276	768.44
457.497	811.44
457.717	757.44
457.937	761.44
458.157	760.44
458.377	773.44
458.598	791.44
458.818	802.44
459.038	836.44
459.258	875.44
459.478	910.44
459.698	934.44
459.918	943.44
460.138	991.44
460.358	1063.44
460.578	1072.44
460.798	1077.44
461.018	1102.44
461.238	1072.44
461.458	1036.44
461.678	1004.44
461.898	1070.44
462.118	1072.44
462.338	1148.44
462.558	1180.44
462.777	1184.44
462.997	1313.44
463.217	1479.44
463.437	1481.44
463.657	1336.44
463.876	1280.44
464.096	1254.44
464.316	1286.44
464.536	1275.44
464.755	1233.44
464.975	1172.44
465.195	1100.44
465.414	1045.44
465.634	957.44
465.854	961.44
466.073	950.44
466.293	938.44
466.512	874.44
466.732	882.44
466.951	877.44
467.171	872.44
467.391	886.44
467.61	854.44
467.829	864.44
468.049	875.44
468.268	838.44
468.488	818.44
468.707	809.44
468.927	835.44
469.146	813.44
469.365	850.44
469.585	859.44
469.804	880.44
470.023	887.44
470.243	873.44
470.462	913.44
470.681	916.44
470.901	904.44
471.12	864.44
471.339	840.44
471.558	840.44
471.777	852.44
471.997	819.44
472.216	806.44
472.435	835.44
472.654	782.44
472.873	796.44
473.092	804.44
473.311	782.44
473.53	805.44
473.749	780.44
473.968	792.44
474.187	812.44
474.406	796.44
474.625	798.44
474.844	797.44
475.063	825.44
475.282	809.44
475.501	840.44
475.72	816.44
475.939	821.44
476.158	804.44
476.377	844.44
476.596	823.44
476.814	864.44
477.033	832.44
477.252	867.44
477.471	903.44
477.69	900.44
477.908	927.44
478.127	947.44
478.346	964.44
478.564	941.44
478.783	1000.44
479.002	996.44
479.22	986.44
479.439	1017.44
479.658	1001.44
479.876	996.44
480.095	1028.44
480.313	1080.44
480.532	1125.44
480.751	1102.44
480.969	1046.44
481.188	1009.44
481.406	969.44
481.624	963.44
481.843	952.44
482.061	941.44
482.28	920.44
482.498	926.44
482.717	918.44
482.935	897.44
483.153	939.44
483.372	931.44
483.59	914.44
483.808	930.44
484.027	910.44
484.245	918.44
484.463	918.44
484.681	958.44
484.9	938.44
485.118	969.44
485.336	963.44
485.554	967.44
485.772	959.44
485.99	952.44
486.209	1004.44
486.427	974.44
486.645	965.44
486.863	961.44
487.081	958.44
487.299	988.44
487.517	952.44
487.735	962.44
487.953	976.44
488.171	971.44
488.389	965.44
488.607	954.44
488.825	935.44
489.043	916.44
489.261	960.44
489.479	928.44
489.696	938.44
489.914	979.44
490.132	941.44
490.35	982.44
490.568	966.44
490.786	970.44
491.003	971.44
491.221	981.44
491.439	978.44
491.657	987.44
491.874	973.44
492.092	978.44
492.31	972.44
492.527	963.44
492.745	998.44
492.963	1018.44
493.18	994.44
493.398	1017.44
493.615	1008.44
493.833	1013.44
494.05	1018.44
494.268	997.44
494.485	1028.44
494.703	1022.44
494.92	1012.44
495.138	989.44
495.355	1018.44
495.573	1018.44
495.79	1015.44
496.008	1025.44
496.225	1025.44
496.442	1037.44
496.66	1041.44
496.877	1045.44
497.094	1084.44
497.312	1097.44
497.529	1102.44
497.746	1133.44
497.963	1157.44
498.181	1217.44
498.398	1267.44
498.615	1332.44
498.832	1433.44
499.049	1574.44
499.267	1705.44
499.484	1840.44
499.701	2080.44
499.918	2296.44
500.135	2644.44
500.352	3096.44
500.569	3324.44
500.786	3308.44
501.003	3033.44
501.22	2675.44
501.437	2317.44
501.654	2002.44
501.871	1810.44
502.088	1617.44
502.305	1515.44
502.522	1491.44
502.739	1411.44
502.956	1370.44
503.172	1288.44
503.389	1210.44
503.606	1193.44
503.823	1156.44
504.04	1192.44
504.256	1170.44
504.473	1209.44
504.69	1273.44
504.907	1246.44
505.123	1171.44
505.34	1069.44
505.557	1004.44
505.773	989.44
505.99	940.44
506.207	944.44
506.423	962.44
506.64	922.44
506.856	929.44
507.073	934.44
507.289	922.44
507.506	916.44
507.722	926.44
507.939	893.44
508.155	873.44
508.372	896.44
508.588	862.44
508.805	850.44
509.021	863.44
509.238	842.44
509.454	857.44
509.67	861.44
509.887	859.44
510.103	853.44
510.319	868.44
510.536	845.44
510.752	824.44
510.968	818.44
511.184	821.44
511.401	822.44
511.617	836.44
511.833	817.44
512.049	837.44
512.265	795.44
512.481	816.44
512.698	812.44
512.914	854.44
513.13	840.44
513.346	830.44
513.562	858.44
513.778	832.44
513.994	840.44
514.21	827.44
514.426	816.44
514.642	828.44
514.858	859.44
515.074	837.44
515.29	848.44
515.506	884.44
515.721	893.44
515.937	882.44
516.153	897.44
516.369	910.44
516.585	948.44
516.801	1015.44
517.016	1018.44
517.232	1082.44
517.448	1140.44
517.664	1150.44
517.879	1195.44
518.095	1208.44
518.311	1179.44
518.527	1101.44
518.742	1051.44
518.958	993.44
519.173	966.44
519.389	941.44
519.605	936.44
519.82	870.44
520.036	870.44
520.251	842.44
520.467	836.44
520.682	864.44
520.898	827.44
521.113	833.44
521.329	810.44
521.544	804.44
521.76	790.44
521.975	815.44
522.19	814.44
522.406	773.44
522.621	801.44
522.836	785.44
523.052	761.44
523.267	799.44
523.482	806.44
523.698	773.44
523.913	774.44
524.128	782.44
524.343	776.44
524.559	777.44
524.774	764.44
524.989	758.44
525.204	785.44
525.419	772.44
525.634	745.44
525.849	768.44
526.064	766.44
526.28	770.44
526.495	761.44
526.71	756.44
526.925	757.44
527.14	754.44
527.355	764.44
527.57	729.44
527.785	752.44
527.999	742.44
528.214	756.44
528.429	776.44
528.644	786.44
528.859	764.44
529.074	776.44
529.289	778.44
529.503	745.44
529.718	751.44
529.933	784.44
530.148	723.44
530.363	754.44
530.577	744.44
530.792	748.44
531.007	745.44
531.221	767.44
531.436	753.44
531.651	778.44
531.865	792.44
532.08	780.44
532.295	768.44
532.509	744.44
532.724	771.44
532.938	756.44
533.153	764.44
533.367	773.44
533.582	767.44
533.796	754.44
534.011	753.44
534.225	757.44
534.44	754.44
534.654	728.44
534.868	722.44
535.083	724.44
535.297	747.44
535.511	722.44
535.726	731.44
535.94	764.44
536.154	723.44
536.369	716.44
536.583	720.44
536.797	731.44
537.011	718.44
537.225	678.44
537.44	713.44
537.654	702.44
537.868	688.44
538.082	683.44
538.296	685.44
538.51	680.44
538.724	681.44
538.938	681.44
539.153	680.44
539.367	701.44
539.581	690.44
539.795	674.44
540.009	696.44
540.222	680.44
540.436	686.44
540.65	681.44
540.864	675.44
541.078	681.44
541.292	683.44
541.506	681.44
541.72	681.44
541.934	679.44
542.147	686.44
542.361	698.44
542.575	660.44
542.789	674.44
543.002	667.44
543.216	652.44
543.43	659.44
543.644	653.44
543.857	651.44
544.071	654.44
544.285	694.44
544.498	672.44
544.712	669.44
544.925	681.44
545.139	699.44
545.352	668.44
545.566	687.44
545.779	699.44
545.993	722.44
546.206	706.44
546.42	707.44
546.633	690.44
546.847	671.44
547.06	704.44
547.274	682.44
547.487	695.44
547.7	653.44
547.914	679.44
548.127	705.44
548.34	712.44
548.554	682.44
548.767	699.44
548.98	680.44
549.193	680.44
549.407	694.44
549.62	709.44
549.833	727.44
550.046	696.44
550.259	689.44
550.473	681.44
550.686	697.44
550.899	673.44
551.112	659.44
551.325	662.44
551.538	668.44
551.751	677.44
551.964	664.44
552.177	698.44
552.39	694.44
552.603	715.44
552.816	738.44
553.029	753.44
553.242	791.44
553.455	775.44
553.667	757.44
553.88	768.44
554.093	735.44
554.306	711.44
554.519	717.44
554.732	704.44
554.944	670.44
555.157	648.44
555.37	667.44
555.583	640.44
555.795	638.44
556.008	639.44
556.221	597.44
556.433	610.44
556.646	585.44
556.859	606.44
557.071	610.44
557.284	567.44
557.496	590.44
557.709	606.44
557.921	605.44
558.134	610.44
558.346	592.44
558.559	601.44
558.771	571.44
558.984	583.44
559.196	586.44
559.409	574.44
559.621	574.44
559.833	572.44
560.046	575.44
560.258	595.44
560.47	564.44
560.683	570.44
560.895	583.44
561.107	573.44
561.32	542.44
561.532	566.44
561.744	576.44
561.956	571.44
562.168	570.44
562.381	591.44
562.593	567.44
562.805	603.44
563.017	589.44
563.229	578.44
563.441	598.44
563.653	568.44
563.865	573.44
564.077	600.44
564.289	596.44
564.501	593.44
564.713	638.44
564.925	635.44
565.137	620.44
565.349	634.44
565.561	640.44
565.773	669.44
565.985	708.44
566.197	754.44
566.408	820.44
566.62	868.44
566.832	961.44
567.044	955.44
567.255	940.44
567.467	973.44
567.679	1052.44
567.891	1144.44
568.102	1216.44
568.314	1156.44
568.526	1007.44
568.737	898.44
568.949	810.44
569.161	753.44
569.372	710.44
569.584	660.44
569.795	634.44
570.007	640.44
570.218	601.44
570.43	604.44
570.641	594.44
570.853	596.44
571.064	595.44
571.276	606.44
571.487	607.44
571.698	588.44
571.91	536.44
572.121	533.44
572.333	518.44
572.544	525.44
572.755	502.44
572.966	516.44
573.178	494.44
573.389	516.44
573.6	480.44
573.811	487.44
574.023	474.44
574.234	491.44
574.445	456.44
574.656	476.44
574.867	497.44
575.078	488.44
575.289	474.44
575.501	469.44
575.712	476.44
575.923	453.44
576.134	448.44
576.345	463.44
576.556	456.44
576.767	443.44
576.978	452.44
577.188	471.44
577.399	470.44
577.61	448.44
577.821	436.44
578.032	431.44
578.243	414.44
578.454	422.44
578.665	438.44
578.875	425.44
579.086	421.44
579.297	422.44
579.508	432.44
579.718	435.44
579.929	417.44
580.14	424.44
580.35	414.44
580.561	424.44
580.772	411.44
580.982	396.44
581.193	402.44
581.403	419.44
581.614	416.44
581.825	403.44
582.035	398.44
582.246	398.44
582.456	381.44
582.667	409.44
582.877	406.44
583.087	396.44
583.298	402.44
583.508	414.44
583.719	410.44
583.929	395.44
584.139	403.44
584.35	393.44
584.56	391.44
584.77	385.44
584.981	396.44
585.191	399.44
585.401	383.44
585.611	395.44
585.821	375.44
586.032	397.44
586.242	393.44
586.452	388.44
586.662	392.44
586.872	380.44
587.082	391.44
587.292	394.44
587.502	393.44
587.713	396.44
587.923	385.44
588.133	388.44
588.343	393.44
588.553	385.44
588.762	373.44
588.972	388.44
589.182	375.44
589.392	394.44
589.602	386.44
589.812	374.44
590.022	398.44
590.232	385.44
590.441	404.44
590.651	399.44
590.861	410.44
591.071	392.44
591.281	382.44
591.49	382.44
591.7	397.44
591.91	404.44
592.119	408.44
592.329	444.44
592.539	430.44
592.748	456.44
592.958	476.44
593.167	467.44
593.377	503.44
593.587	513.44
593.796	505.44
594.006	506.44
594.215	514.44
594.424	508.44
594.634	519.44
594.843	491.44
595.053	469.44
595.262	433.44
595.472	451.44
595.681	411.44
595.89	398.44
596.1	395.44
596.309	381.44
596.518	376.44
596.727	350.44
596.937	362.44
597.146	348.44
597.355	364.44
597.564	345.44
597.774	363.44
597.983	341.44
598.192	346.44
598.401	353.44
598.61	335.44
598.819	343.44
599.028	349.44
599.237	333.44
599.446	338.44
599.655	362.44
599.864	338.44
600.073	339.44
600.282	320.44
600.491	342.44
600.7	325.44
600.909	312.44
601.118	316.44
601.327	315.44
601.536	338.44
601.745	321.44
601.953	334.44
602.162	327.44
602.371	336.44
602.58	321.44
602.789	324.44
602.997	325.44
603.206	325.44
603.415	317.44
603.623	329.44
603.832	309.44
604.041	309.44
604.249	304.44
604.458	308.44
604.666	314.44
604.875	291.44
605.084	307.44
605.292	303.44
605.501	331.44
605.709	320.44
605.918	321.44
606.126	294.44
606.334	304.44
606.543	297.44
606.751	323.44
606.96	294.44
607.168	295.44
607.376	282.44
607.585	295.44
607.793	296.44
608.001	301.44
608.21	301.44
608.418	314.44
608.626	298.44
608.834	284.44
609.043	304.44
609.251	313.44
609.459	302.44
609.667	298.44
609.875	304.44
610.083	286.44
610.291	293.44
610.499	297.44
610.707	276.44
610.916	295.44
611.124	280.44
611.332	297.44
611.54	289.44
611.748	282.44
611.955	274.44
612.163	306.44
612.371	292.44
612.579	292.44
612.787	291.44
612.995	307.44
613.203	276.44
613.411	270.44
613.618	291.44
613.826	276.44
614.034	291.44
614.242	288.44
614.449	290.44
614.657	282.44
614.865	284.44
615.072	290.44
615.28	261.44
615.488	277.44
615.695	292.44
615.903	290.44
616.111	286.44
616.318	278.44
616.526	294.44
616.733	286.44
616.941	284.44
617.148	307.44
617.356	293.44
617.563	286.44
617.771	298.44
617.978	290.44
618.185	320.44
618.393	301.44
618.6	289.44
618.807	275.44
619.015	280.44
619.222	285.44
619.429	284.44
619.637	288.44
619.844	270.44
620.051	272.44
620.258	300.44
620.466	263.44
620.673	280.44
620.88	241.44
621.087	258.44
621.294	266.44
621.501	251.44
621.708	267.44
621.915	254.44
622.122	272.44
622.329	256.44
622.536	250.44
622.743	270.44
622.95	256.44
623.157	242.44
623.364	259.44
623.571	262.44
623.778	260.44
623.985	252.44
624.192	248.44
624.399	226.44
624.606	244.44
624.812	253.44
625.019	257.44
625.226	244.44
625.433	242.44
625.639	237.44
625.846	260.44
626.053	237.44
626.259	254.44
626.466	237.44
626.673	231.44
626.879	229.44
627.086	251.44
627.293	233.44
627.499	233.44
627.706	251.44
627.912	244.44
628.119	254.44
628.325	235.44
628.532	245.44
628.738	230.44
628.945	238.44
629.151	235.44
629.357	213.44
629.564	233.44
629.77	224.44
629.976	229.44
630.183	210.44
630.389	199.44
630.595	210.44
630.802	227.44
631.008	224.44
631.214	231.44
631.42	218.44
631.627	236.44
631.833	216.44
632.039	228.44
632.245	208.44
632.451	217.44
632.657	209.44
632.863	224.44
633.069	192.44
633.275	206.44
633.481	211.44
633.688	212.44
633.893	204.44
634.099	198.44
634.305	218.44
634.511	217.44
634.717	212.44
634.923	203.44
635.129	215.44
635.335	197.44
635.541	200.44
635.747	192.44
635.952	212.44
636.158	209.44
636.364	208.44
636.57	209.44
636.775	216.44
636.981	196.44
637.187	199.44
637.392	186.44
637.598	212.44
637.804	198.44
638.009	206.44
638.215	196.44
638.421	199.44
638.626	199.44
638.832	212.44
639.037	202.44
639.243	187.44
639.448	196.44
639.654	203.44
639.859	179.44
640.065	188.44
640.27	194.44
640.475	193.44
640.681	192.44
640.886	182.44
641.091	199.44
641.297	176.44
641.502	191.44
641.707	207.44
641.913	201.44
642.118	198.44
642.323	184.44
642.528	185.44
642.733	198.44
642.939	180.44
643.144	177.44
643.349	178.44
643.554	184.44
643.759	193.44
643.964	189.44
644.169	169.44
644.374	201.44
644.579	202.44
644.784	173.44
644.989	184.44
645.194	186.44
645.399	187.44
645.604	182.44
645.809	176.44
646.014	174.44
646.219	189.44
646.423	194.44
646.628	188.44
646.833	182.44
647.038	204.44
647.243	187.44
647.447	202.44
647.652	203.44
647.857	199.44
648.062	202.44
648.266	218.44
648.471	197.44
648.676	209.44
648.88	187.44
649.085	180.44
649.289	199.44
649.494	188.44
649.698	207.44
649.903	187.44
650.107	183.44
650.312	193.44
650.516	190.44
650.721	185.44
650.925	188.44
651.13	161.44
651.334	184.44
651.539	186.44
651.743	174.44
651.947	187.44
652.152	149.44
652.356	144.44
652.56	156.44
652.764	152.44
652.969	145.44
653.173	162.44
653.377	132.44
653.581	132.44
653.785	136.44
653.99	154.44
654.194	135.44
654.398	138.44
654.602	146.44
654.806	140.44
655.01	133.44
655.214	146.44
655.418	146.44
655.622	145.44
655.826	132.44
656.03	125.44
656.234	140.44
656.438	129.44
656.642	143.44
656.846	140.44
657.049	125.44
657.253	141.44
657.457	126.44
657.661	108.44
657.865	113.44
658.068	115.44
658.272	125.44
658.476	100.44
658.68	114.44
658.883	113.44
659.087	100.44
659.291	98.44
659.494	97.44
659.698	106.44
659.901	102.44
660.105	101.44
660.309	107.44
660.512	107.44
660.716	84.44
660.919	86.44
661.123	96.44
661.326	86.44
661.53	86.44
661.733	102.44
661.936	93.44
662.14	91.44
662.343	73.44
662.546	92.44
662.75	96.44
662.953	87.44
663.156	83.44
663.36	87.44
663.563	85.44
663.766	87.44
663.969	88.44
664.173	84.44
664.376	91.44
664.579	67.44
664.782	83.44
664.985	65.44
665.188	85.44
665.391	96.44
665.594	90.44
665.797	82.44
666	87.44
666.203	90.44
666.406	70.44
666.609	92.44
666.812	94.44
667.015	72.44
667.218	77.44
667.421	84.44
667.624	87.44
667.827	75.44
668.03	81.44
668.232	76.44
668.435	71.44
668.638	86.44
668.841	74.44
669.043	79.44
669.246	77.44
669.449	81.44
669.651	84.44
669.854	78.44
670.057	78.44
670.259	77.44
670.462	88.44
670.665	86.44
670.867	76.44
671.07	89.44
671.272	97.44
671.475	81.44
671.677	89.44
671.88	73.44
672.082	89.44
672.284	81.44
672.487	89.44
672.689	76.44
672.892	80.44
