Data from Ni(NO3)2@0.125M.TitratingCurve.Agarose3%dH2O.NegLispCup.LampEnergy10.LIBS07252019_HRD10591_18-11-11-568.txt Node
Date: Thu Jul 25 18:11:11 EDT 2019
User: cochatt
Spectrometer: HR+D1059
Trigger mode: 1
Integration Time (sec): 1.000000E-1
Scans to average: 1
Electric dark correction enabled: true
Nonlinearity correction enabled: false
Boxcar width: 0
XAxis mode: Wavelengths
Number of Pixels in Spectrum: 2048
>>>>>Begin Spectral Data<<<<<
223.165	-13.5
223.4	-13.5
223.635	-13.5
223.869	-18.5
224.104	-18.5
224.338	-18.5
224.573	-15.5
224.808	-11.5
225.042	-1.5
225.277	-5.5
225.511	1.5
225.746	9.5
225.98	13.5
226.215	5.5
226.449	11.5
226.683	11.5
226.918	13.5
227.152	36.5
227.387	45.5
227.621	39.5
227.856	44.5
228.09	39.5
228.324	35.5
228.559	61.5
228.793	60.5
229.027	101.5
229.262	125.5
229.496	121.5
229.73	116.5
229.964	116.5
230.199	150.5
230.433	134.5
230.667	142.5
230.901	133.5
231.136	136.5
231.37	140.5
231.604	140.5
231.838	138.5
232.072	143.5
232.306	139.5
232.541	140.5
232.775	157.5
233.009	141.5
233.243	146.5
233.477	153.5
233.711	149.5
233.945	157.5
234.179	149.5
234.413	160.5
234.647	169.5
234.881	165.5
235.115	158.5
235.349	162.5
235.583	165.5
235.817	163.5
236.051	171.5
236.285	168.5
236.519	163.5
236.753	165.5
236.987	160.5
237.221	160.5
237.455	163.5
237.689	170.5
237.922	163.5
238.156	161.5
238.39	163.5
238.624	169.5
238.858	188.5
239.091	176.5
239.325	179.5
239.559	179.5
239.793	176.5
240.027	197.5
240.26	184.5
240.494	174.5
240.728	189.5
240.961	190.5
241.195	194.5
241.429	205.5
241.662	205.5
241.896	213.5
242.13	184.5
242.363	212.5
242.597	200.5
242.83	210.5
243.064	218.5
243.298	208.5
243.531	204.5
243.765	215.5
243.998	207.5
244.232	213.5
244.465	218.5
244.699	218.5
244.932	220.5
245.166	215.5
245.399	234.5
245.633	248.5
245.866	226.5
246.099	225.5
246.333	219.5
246.566	240.5
246.8	224.5
247.033	227.5
247.266	245.5
247.5	228.5
247.733	240.5
247.966	238.5
248.2	239.5
248.433	253.5
248.666	231.5
248.899	262.5
249.133	259.5
249.366	260.5
249.599	237.5
249.832	271.5
250.066	267.5
250.299	269.5
250.532	280.5
250.765	270.5
250.998	272.5
251.231	281.5
251.465	281.5
251.698	297.5
251.931	276.5
252.164	276.5
252.397	278.5
252.63	254.5
252.863	279.5
253.096	267.5
253.329	273.5
253.562	286.5
253.795	288.5
254.028	304.5
254.261	301.5
254.494	289.5
254.727	281.5
254.96	299.5
255.193	300.5
255.426	289.5
255.659	301.5
255.892	311.5
256.124	294.5
256.357	302.5
256.59	296.5
256.823	313.5
257.056	283.5
257.289	317.5
257.521	314.5
257.754	311.5
257.987	310.5
258.22	315.5
258.452	321.5
258.685	330.5
258.918	320.5
259.151	338.5
259.383	334.5
259.616	338.5
259.849	341.5
260.081	340.5
260.314	357.5
260.547	350.5
260.779	349.5
261.012	329.5
261.244	349.5
261.477	345.5
261.71	357.5
261.942	346.5
262.175	373.5
262.407	339.5
262.64	333.5
262.872	345.5
263.105	349.5
263.337	345.5
263.57	369.5
263.802	360.5
264.035	365.5
264.267	357.5
264.499	358.5
264.732	361.5
264.964	360.5
265.197	364.5
265.429	350.5
265.661	381.5
265.894	388.5
266.126	355.5
266.358	358.5
266.591	395.5
266.823	377.5
267.055	384.5
267.287	401.5
267.52	374.5
267.752	396.5
267.984	387.5
268.216	377.5
268.448	374.5
268.681	402.5
268.913	382.5
269.145	411.5
269.377	392.5
269.609	386.5
269.841	380.5
270.073	394.5
270.306	418.5
270.538	387.5
270.77	415.5
271.002	400.5
271.234	409.5
271.466	430.5
271.698	402.5
271.93	425.5
272.162	409.5
272.394	408.5
272.626	408.5
272.858	422.5
273.09	413.5
273.322	420.5
273.553	400.5
273.785	424.5
274.017	438.5
274.249	412.5
274.481	450.5
274.713	420.5
274.945	461.5
275.176	444.5
275.408	453.5
275.64	439.5
275.872	440.5
276.104	469.5
276.335	428.5
276.567	450.5
276.799	442.5
277.031	467.5
277.262	461.5
277.494	455.5
277.726	442.5
277.957	446.5
278.189	478.5
278.421	452.5
278.652	465.5
278.884	477.5
279.115	475.5
279.347	477.5
279.579	476.5
279.81	493.5
280.042	476.5
280.273	460.5
280.505	482.5
280.736	466.5
280.968	490.5
281.199	496.5
281.431	485.5
281.662	493.5
281.894	491.5
282.125	496.5
282.356	499.5
282.588	512.5
282.819	497.5
283.051	497.5
283.282	490.5
283.513	501.5
283.745	486.5
283.976	508.5
284.207	498.5
284.439	496.5
284.67	508.5
284.901	508.5
285.132	496.5
285.364	523.5
285.595	513.5
285.826	491.5
286.057	527.5
286.288	522.5
286.52	533.5
286.751	553.5
286.982	551.5
287.213	516.5
287.444	533.5
287.675	560.5
287.906	536.5
288.138	537.5
288.369	554.5
288.6	545.5
288.831	548.5
289.062	568.5
289.293	533.5
289.524	558.5
289.755	538.5
289.986	543.5
290.217	540.5
290.448	563.5
290.679	550.5
290.91	540.5
291.141	551.5
291.371	544.5
291.602	554.5
291.833	557.5
292.064	554.5
292.295	558.5
292.526	582.5
292.757	558.5
292.987	576.5
293.218	560.5
293.449	567.5
293.68	567.5
293.91	583.5
294.141	574.5
294.372	556.5
294.603	563.5
294.833	586.5
295.064	562.5
295.295	574.5
295.525	576.5
295.756	553.5
295.987	574.5
296.217	602.5
296.448	581.5
296.679	576.5
296.909	572.5
297.14	579.5
297.37	599.5
297.601	615.5
297.831	600.5
298.062	592.5
298.292	609.5
298.523	604.5
298.753	603.5
298.984	612.5
299.214	624.5
299.445	606.5
299.675	621.5
299.905	602.5
300.136	598.5
300.366	608.5
300.597	609.5
300.827	626.5
301.057	628.5
301.288	622.5
301.518	651.5
301.748	646.5
301.979	652.5
302.209	643.5
302.439	650.5
302.669	646.5
302.9	630.5
303.13	645.5
303.36	625.5
303.59	602.5
303.82	622.5
304.051	639.5
304.281	654.5
304.511	635.5
304.741	627.5
304.971	634.5
305.201	646.5
305.431	646.5
305.661	630.5
305.891	629.5
306.121	631.5
306.352	634.5
306.582	630.5
306.812	629.5
307.042	637.5
307.272	613.5
307.502	626.5
307.731	638.5
307.961	624.5
308.191	598.5
308.421	619.5
308.651	638.5
308.881	628.5
309.111	635.5
309.341	637.5
309.571	628.5
309.8	621.5
310.03	638.5
310.26	634.5
310.49	624.5
310.72	613.5
310.949	606.5
311.179	629.5
311.409	625.5
311.639	613.5
311.868	654.5
312.098	646.5
312.328	655.5
312.557	636.5
312.787	658.5
313.017	660.5
313.246	661.5
313.476	664.5
313.706	681.5
313.935	675.5
314.165	667.5
314.394	662.5
314.624	671.5
314.853	675.5
315.083	651.5
315.312	681.5
315.542	672.5
315.771	695.5
316.001	666.5
316.23	660.5
316.46	674.5
316.689	682.5
316.919	648.5
317.148	665.5
317.377	689.5
317.607	655.5
317.836	641.5
318.065	649.5
318.295	663.5
318.524	675.5
318.753	675.5
318.983	645.5
319.212	641.5
319.441	661.5
319.67	640.5
319.9	648.5
320.129	660.5
320.358	652.5
320.587	632.5
320.816	666.5
321.046	667.5
321.275	668.5
321.504	640.5
321.733	684.5
321.962	666.5
322.191	673.5
322.42	672.5
322.649	673.5
322.878	654.5
323.108	651.5
323.337	677.5
323.566	664.5
323.795	688.5
324.024	679.5
324.253	681.5
324.482	665.5
324.71	675.5
324.939	688.5
325.168	698.5
325.397	705.5
325.626	673.5
325.855	703.5
326.084	724.5
326.313	730.5
326.542	743.5
326.77	740.5
326.999	734.5
327.228	731.5
327.457	709.5
327.686	700.5
327.914	734.5
328.143	697.5
328.372	721.5
328.6	730.5
328.829	709.5
329.058	724.5
329.287	728.5
329.515	727.5
329.744	718.5
329.972	754.5
330.201	764.5
330.43	728.5
330.658	762.5
330.887	753.5
331.115	747.5
331.344	772.5
331.572	772.5
331.801	802.5
332.03	825.5
332.258	828.5
332.486	849.5
332.715	872.5
332.943	906.5
333.172	934.5
333.4	1003.5
333.629	1037.5
333.857	1013.5
334.085	1008.5
334.314	954.5
334.542	949.5
334.771	946.5
334.999	923.5
335.227	909.5
335.455	924.5
335.684	910.5
335.912	888.5
336.14	895.5
336.369	882.5
336.597	892.5
336.825	893.5
337.053	875.5
337.281	862.5
337.51	841.5
337.738	837.5
337.966	828.5
338.194	804.5
338.422	800.5
338.65	803.5
338.878	811.5
339.106	808.5
339.334	806.5
339.562	802.5
339.79	793.5
340.018	760.5
340.246	768.5
340.474	759.5
340.702	764.5
340.93	752.5
341.158	790.5
341.386	770.5
341.614	786.5
341.842	769.5
342.07	777.5
342.298	787.5
342.526	747.5
342.754	746.5
342.981	760.5
343.209	789.5
343.437	813.5
343.665	869.5
343.893	928.5
344.12	964.5
344.348	957.5
344.576	848.5
344.804	835.5
345.031	804.5
345.259	812.5
345.487	795.5
345.714	760.5
345.942	741.5
346.17	752.5
346.397	749.5
346.625	745.5
346.853	746.5
347.08	753.5
347.308	752.5
347.535	774.5
347.763	753.5
347.99	746.5
348.218	768.5
348.445	747.5
348.673	760.5
348.9	768.5
349.128	755.5
349.355	740.5
349.583	725.5
349.81	737.5
350.037	718.5
350.265	719.5
350.492	726.5
350.72	706.5
350.947	713.5
351.174	715.5
351.402	716.5
351.629	714.5
351.856	714.5
352.083	725.5
352.311	710.5
352.538	701.5
352.765	696.5
352.992	699.5
353.22	728.5
353.447	733.5
353.674	694.5
353.901	725.5
354.128	709.5
354.355	726.5
354.583	698.5
354.81	718.5
355.037	690.5
355.264	712.5
355.491	694.5
355.718	723.5
355.945	746.5
356.172	720.5
356.399	692.5
356.626	726.5
356.853	710.5
357.08	718.5
357.307	707.5
357.534	719.5
357.761	698.5
357.988	726.5
358.215	720.5
358.441	722.5
358.668	701.5
358.895	708.5
359.122	718.5
359.349	728.5
359.576	724.5
359.802	718.5
360.029	704.5
360.256	706.5
360.483	712.5
360.709	722.5
360.936	722.5
361.163	717.5
361.39	722.5
361.616	726.5
361.843	733.5
362.07	700.5
362.296	722.5
362.523	717.5
362.749	708.5
362.976	693.5
363.203	685.5
363.429	705.5
363.656	710.5
363.882	677.5
364.109	705.5
364.335	715.5
364.562	710.5
364.788	705.5
365.015	723.5
365.241	723.5
365.468	684.5
365.694	692.5
365.92	714.5
366.147	700.5
366.373	718.5
366.599	703.5
366.826	705.5
367.052	701.5
367.278	720.5
367.505	706.5
367.731	718.5
367.957	731.5
368.184	725.5
368.41	733.5
368.636	713.5
368.862	728.5
369.089	742.5
369.315	739.5
369.541	705.5
369.767	732.5
369.993	736.5
370.219	731.5
370.445	731.5
370.672	761.5
370.898	762.5
371.124	773.5
371.35	777.5
371.576	789.5
371.802	761.5
372.028	756.5
372.254	797.5
372.48	789.5
372.706	797.5
372.932	809.5
373.158	811.5
373.384	811.5
373.61	763.5
373.835	781.5
374.061	758.5
374.287	783.5
374.513	809.5
374.739	840.5
374.965	854.5
375.191	872.5
375.416	851.5
375.642	811.5
375.868	832.5
376.094	804.5
376.319	802.5
376.545	788.5
376.771	788.5
376.997	772.5
377.222	772.5
377.448	793.5
377.674	783.5
377.899	801.5
378.125	770.5
378.35	762.5
378.576	773.5
378.802	758.5
379.027	777.5
379.253	786.5
379.478	765.5
379.704	800.5
379.929	779.5
380.155	758.5
380.38	729.5
380.606	776.5
380.831	768.5
381.057	754.5
381.282	780.5
381.507	770.5
381.733	756.5
381.958	785.5
382.184	788.5
382.409	804.5
382.634	832.5
382.86	823.5
383.085	853.5
383.31	834.5
383.535	835.5
383.761	850.5
383.986	881.5
384.211	890.5
384.436	952.5
384.662	918.5
384.887	950.5
385.112	944.5
385.337	941.5
385.562	928.5
385.787	932.5
386.013	941.5
386.238	949.5
386.463	949.5
386.688	940.5
386.913	931.5
387.138	917.5
387.363	954.5
387.588	906.5
387.813	916.5
388.038	944.5
388.263	939.5
388.488	920.5
388.713	941.5
388.938	881.5
389.163	899.5
389.387	917.5
389.612	902.5
389.837	918.5
390.062	896.5
390.287	908.5
390.512	913.5
390.736	944.5
390.961	923.5
391.186	960.5
391.411	1005.5
391.636	1014.5
391.86	1056.5
392.085	1082.5
392.31	1051.5
392.534	1004.5
392.759	1038.5
392.984	1016.5
393.208	971.5
393.433	982.5
393.658	999.5
393.882	1002.5
394.107	1008.5
394.331	996.5
394.556	988.5
394.78	1002.5
395.005	997.5
395.229	999.5
395.454	1057.5
395.678	1052.5
395.903	1042.5
396.127	1004.5
396.352	1000.5
396.576	988.5
396.801	982.5
397.025	1008.5
397.249	997.5
397.474	1058.5
397.698	1030.5
397.922	1038.5
398.147	996.5
398.371	1056.5
398.595	1105.5
398.82	1156.5
399.044	1216.5
399.268	1354.5
399.492	1612.5
399.717	1881.5
399.941	1806.5
400.165	1579.5
400.389	1408.5
400.613	1305.5
400.837	1219.5
401.062	1204.5
401.286	1191.5
401.51	1148.5
401.734	1150.5
401.958	1141.5
402.182	1186.5
402.406	1193.5
402.63	1234.5
402.854	1260.5
403.078	1293.5
403.302	1328.5
403.526	1360.5
403.75	1385.5
403.974	1392.5
404.198	1418.5
404.422	1368.5
404.645	1377.5
404.869	1340.5
405.093	1329.5
405.317	1298.5
405.541	1316.5
405.765	1290.5
405.988	1332.5
406.212	1326.5
406.436	1298.5
406.66	1329.5
406.883	1322.5
407.107	1428.5
407.331	1500.5
407.555	1559.5
407.778	1558.5
408.002	1478.5
408.226	1451.5
408.449	1436.5
408.673	1355.5
408.896	1334.5
409.12	1324.5
409.344	1333.5
409.567	1333.5
409.791	1362.5
410.014	1345.5
410.238	1327.5
410.461	1324.5
410.685	1286.5
410.908	1276.5
411.132	1250.5
411.355	1194.5
411.578	1180.5
411.802	1226.5
412.025	1231.5
412.249	1224.5
412.472	1218.5
412.695	1191.5
412.919	1162.5
413.142	1172.5
413.365	1155.5
413.589	1175.5
413.812	1150.5
414.035	1179.5
414.258	1140.5
414.482	1162.5
414.705	1190.5
414.928	1147.5
415.151	1184.5
415.374	1200.5
415.597	1170.5
415.821	1131.5
416.044	1141.5
416.267	1147.5
416.49	1111.5
416.713	1142.5
416.936	1160.5
417.159	1167.5
417.382	1132.5
417.605	1161.5
417.828	1153.5
418.051	1182.5
418.274	1172.5
418.497	1169.5
418.72	1176.5
418.943	1197.5
419.166	1266.5
419.389	1354.5
419.611	1323.5
419.834	1245.5
420.057	1241.5
420.28	1186.5
420.503	1152.5
420.726	1139.5
420.948	1113.5
421.171	1160.5
421.394	1169.5
421.617	1173.5
421.839	1128.5
422.062	1122.5
422.285	1163.5
422.507	1178.5
422.73	1226.5
422.953	1177.5
423.175	1202.5
423.398	1251.5
423.621	1208.5
423.843	1261.5
424.066	1226.5
424.288	1235.5
424.511	1245.5
424.733	1213.5
424.956	1162.5
425.178	1185.5
425.401	1139.5
425.623	1160.5
425.846	1144.5
426.068	1121.5
426.291	1145.5
426.513	1096.5
426.735	1101.5
426.958	1116.5
427.18	1068.5
427.402	1036.5
427.625	1046.5
427.847	1030.5
428.069	1028.5
428.292	1043.5
428.514	1052.5
428.736	1027.5
428.958	1042.5
429.181	996.5
429.403	1013.5
429.625	997.5
429.847	969.5
430.069	992.5
430.292	977.5
430.514	995.5
430.736	1005.5
430.958	995.5
431.18	1004.5
431.402	973.5
431.624	1031.5
431.846	1035.5
432.068	1053.5
432.29	1047.5
432.512	1008.5
432.734	1028.5
432.956	1040.5
433.178	1015.5
433.4	1038.5
433.622	1034.5
433.844	1052.5
434.066	1045.5
434.287	1065.5
434.509	1099.5
434.731	1136.5
434.953	1157.5
435.175	1204.5
435.397	1136.5
435.618	1088.5
435.84	1061.5
436.062	1048.5
436.284	1020.5
436.505	1025.5
436.727	1057.5
436.949	1025.5
437.17	1013.5
437.392	986.5
437.614	997.5
437.835	957.5
438.057	973.5
438.278	971.5
438.5	978.5
438.721	1014.5
438.943	999.5
439.165	973.5
439.386	961.5
439.608	1006.5
439.829	1012.5
440.05	1022.5
440.272	1010.5
440.493	1043.5
440.715	1044.5
440.936	1062.5
441.158	1100.5
441.379	1118.5
441.6	1150.5
441.822	1197.5
442.043	1188.5
442.264	1150.5
442.486	1141.5
442.707	1125.5
442.928	1115.5
443.149	1130.5
443.371	1144.5
443.592	1146.5
443.813	1139.5
444.034	1174.5
444.255	1213.5
444.476	1252.5
444.698	1364.5
444.919	1435.5
445.14	1470.5
445.361	1330.5
445.582	1189.5
445.803	1122.5
446.024	1100.5
446.245	1055.5
446.466	1066.5
446.687	1040.5
446.908	1012.5
447.129	1019.5
447.35	985.5
447.571	984.5
447.792	974.5
448.013	982.5
448.234	973.5
448.455	959.5
448.675	944.5
448.896	937.5
449.117	935.5
449.338	941.5
449.559	922.5
449.779	932.5
450	923.5
450.221	944.5
450.442	936.5
450.662	927.5
450.883	941.5
451.104	921.5
451.324	960.5
451.545	958.5
451.766	981.5
451.986	951.5
452.207	922.5
452.428	926.5
452.648	935.5
452.869	922.5
453.089	922.5
453.31	968.5
453.53	921.5
453.751	914.5
453.971	892.5
454.192	918.5
454.412	857.5
454.633	898.5
454.853	894.5
455.073	874.5
455.294	891.5
455.514	848.5
455.734	877.5
455.955	889.5
456.175	845.5
456.395	873.5
456.616	883.5
456.836	898.5
457.056	857.5
457.276	864.5
457.497	869.5
457.717	852.5
457.937	871.5
458.157	888.5
458.377	924.5
458.598	913.5
458.818	931.5
459.038	972.5
459.258	958.5
459.478	1050.5
459.698	1104.5
459.918	1090.5
460.138	1140.5
460.358	1221.5
460.578	1208.5
460.798	1230.5
461.018	1278.5
461.238	1163.5
461.458	1222.5
461.678	1212.5
461.898	1208.5
462.118	1231.5
462.338	1324.5
462.558	1316.5
462.777	1366.5
462.997	1529.5
463.217	1685.5
463.437	1686.5
463.657	1535.5
463.876	1454.5
464.096	1402.5
464.316	1408.5
464.536	1451.5
464.755	1384.5
464.975	1316.5
465.195	1257.5
465.414	1182.5
465.634	1110.5
465.854	1080.5
466.073	1074.5
466.293	1054.5
466.512	1015.5
466.732	984.5
466.951	1002.5
467.171	968.5
467.391	991.5
467.61	952.5
467.829	976.5
468.049	996.5
468.268	956.5
468.488	951.5
468.707	946.5
468.927	923.5
469.146	931.5
469.365	917.5
469.585	964.5
469.804	956.5
470.023	990.5
470.243	997.5
470.462	1029.5
470.681	1034.5
470.901	1019.5
471.12	989.5
471.339	944.5
471.558	987.5
471.777	961.5
471.997	939.5
472.216	935.5
472.435	917.5
472.654	924.5
472.873	916.5
473.092	951.5
473.311	899.5
473.53	905.5
473.749	895.5
473.968	929.5
474.187	904.5
474.406	899.5
474.625	932.5
474.844	905.5
475.063	904.5
475.282	896.5
475.501	911.5
475.72	900.5
475.939	884.5
476.158	973.5
476.377	951.5
476.596	949.5
476.814	951.5
477.033	965.5
477.252	983.5
477.471	1006.5
477.69	1016.5
477.908	1065.5
478.127	1090.5
478.346	1110.5
478.564	1145.5
478.783	1085.5
479.002	1159.5
479.22	1172.5
479.439	1128.5
479.658	1124.5
479.876	1121.5
480.095	1173.5
480.313	1209.5
480.532	1265.5
480.751	1245.5
480.969	1168.5
481.188	1129.5
481.406	1105.5
481.624	1076.5
481.843	1044.5
482.061	1028.5
482.28	1053.5
482.498	1046.5
482.717	1027.5
482.935	1043.5
483.153	1040.5
483.372	1027.5
483.59	1018.5
483.808	1038.5
484.027	1069.5
484.245	1037.5
484.463	1058.5
484.681	1067.5
484.9	1076.5
485.118	1131.5
485.336	1085.5
485.554	1099.5
485.772	1111.5
485.99	1110.5
486.209	1102.5
486.427	1120.5
486.645	1112.5
486.863	1128.5
487.081	1110.5
487.299	1093.5
487.517	1120.5
487.735	1094.5
487.953	1101.5
488.171	1079.5
488.389	1108.5
488.607	1066.5
488.825	1062.5
489.043	1072.5
489.261	1069.5
489.479	1078.5
489.696	1080.5
489.914	1083.5
490.132	1093.5
490.35	1106.5
490.568	1076.5
490.786	1094.5
491.003	1105.5
491.221	1099.5
491.439	1104.5
491.657	1086.5
491.874	1105.5
492.092	1105.5
492.31	1128.5
492.527	1115.5
492.745	1122.5
492.963	1130.5
493.18	1114.5
493.398	1161.5
493.615	1136.5
493.833	1102.5
494.05	1144.5
494.268	1140.5
494.485	1149.5
494.703	1142.5
494.92	1171.5
495.138	1151.5
495.355	1161.5
495.573	1175.5
495.79	1141.5
496.008	1166.5
496.225	1160.5
496.442	1195.5
496.66	1212.5
496.877	1231.5
497.094	1238.5
497.312	1256.5
497.529	1290.5
497.746	1270.5
497.963	1322.5
498.181	1393.5
498.398	1467.5
498.615	1556.5
498.832	1716.5
499.049	1835.5
499.267	1934.5
499.484	2122.5
499.701	2392.5
499.918	2622.5
500.135	3059.5
500.352	3565.5
500.569	3748.5
500.786	3692.5
501.003	3334.5
501.22	2968.5
501.437	2610.5
501.654	2224.5
501.871	2049.5
502.088	1936.5
502.305	1748.5
502.522	1659.5
502.739	1606.5
502.956	1510.5
503.172	1441.5
503.389	1389.5
503.606	1347.5
503.823	1334.5
504.04	1328.5
504.256	1372.5
504.473	1375.5
504.69	1387.5
504.907	1385.5
505.123	1281.5
505.34	1205.5
505.557	1127.5
505.773	1125.5
505.99	1123.5
506.207	1098.5
506.423	1046.5
506.64	1042.5
506.856	1051.5
507.073	1016.5
507.289	1006.5
507.506	1035.5
507.722	1043.5
507.939	985.5
508.155	995.5
508.372	982.5
508.588	989.5
508.805	977.5
509.021	964.5
509.238	965.5
509.454	962.5
509.67	947.5
509.887	924.5
510.103	924.5
510.319	945.5
510.536	931.5
510.752	914.5
510.968	918.5
511.184	922.5
511.401	929.5
511.617	918.5
511.833	943.5
512.049	952.5
512.265	911.5
512.481	924.5
512.698	907.5
512.914	921.5
513.13	909.5
513.346	920.5
513.562	953.5
513.778	936.5
513.994	937.5
514.21	940.5
514.426	925.5
514.642	956.5
514.858	929.5
515.074	955.5
515.29	952.5
515.506	953.5
515.721	962.5
515.937	1006.5
516.153	1021.5
516.369	1073.5
516.585	1093.5
516.801	1110.5
517.016	1170.5
517.232	1210.5
517.448	1320.5
517.664	1375.5
517.879	1326.5
518.095	1343.5
518.311	1271.5
518.527	1240.5
518.742	1208.5
518.958	1146.5
519.173	1074.5
519.389	1038.5
519.605	1010.5
519.82	1012.5
520.036	986.5
520.251	967.5
520.467	961.5
520.682	938.5
520.898	958.5
521.113	918.5
521.329	914.5
521.544	900.5
521.76	919.5
521.975	900.5
522.19	877.5
522.406	866.5
522.621	875.5
522.836	853.5
523.052	844.5
523.267	840.5
523.482	842.5
523.698	862.5
523.913	858.5
524.128	872.5
524.343	830.5
524.559	860.5
524.774	864.5
524.989	872.5
525.204	843.5
525.419	855.5
525.634	812.5
525.849	824.5
526.064	818.5
526.28	834.5
526.495	828.5
526.71	853.5
526.925	832.5
527.14	848.5
527.355	836.5
527.57	834.5
527.785	835.5
527.999	839.5
528.214	839.5
528.429	849.5
528.644	856.5
528.859	845.5
529.074	840.5
529.289	811.5
529.503	823.5
529.718	803.5
529.933	809.5
530.148	821.5
530.363	841.5
530.577	817.5
530.792	834.5
531.007	817.5
531.221	824.5
531.436	832.5
531.651	848.5
531.865	844.5
532.08	841.5
532.295	847.5
532.509	802.5
532.724	844.5
532.938	843.5
533.153	820.5
533.367	830.5
533.582	804.5
533.796	816.5
534.011	833.5
534.225	830.5
534.44	816.5
534.654	832.5
534.868	840.5
535.083	823.5
535.297	796.5
535.511	782.5
535.726	782.5
535.94	829.5
536.154	804.5
536.369	792.5
536.583	768.5
536.797	772.5
537.011	744.5
537.225	790.5
537.44	752.5
537.654	798.5
537.868	750.5
538.082	784.5
538.296	734.5
538.51	748.5
538.724	761.5
538.938	774.5
539.153	737.5
539.367	768.5
539.581	749.5
539.795	737.5
540.009	755.5
540.222	744.5
540.436	756.5
540.65	712.5
540.864	723.5
541.078	754.5
541.292	742.5
541.506	748.5
541.72	743.5
541.934	736.5
542.147	755.5
542.361	754.5
542.575	749.5
542.789	724.5
543.002	730.5
543.216	716.5
543.43	724.5
543.644	734.5
543.857	716.5
544.071	739.5
544.285	747.5
544.498	737.5
544.712	747.5
544.925	755.5
545.139	777.5
545.352	754.5
545.566	774.5
545.779	752.5
545.993	794.5
546.206	747.5
546.42	752.5
546.633	746.5
546.847	756.5
547.06	744.5
547.274	762.5
547.487	746.5
547.7	775.5
547.914	786.5
548.127	753.5
548.34	786.5
548.554	755.5
548.767	768.5
548.98	779.5
549.193	738.5
549.407	786.5
549.62	800.5
549.833	795.5
550.046	778.5
550.259	797.5
550.473	759.5
550.686	755.5
550.899	750.5
551.112	776.5
551.325	721.5
551.538	756.5
551.751	734.5
551.964	778.5
552.177	765.5
552.39	750.5
552.603	768.5
552.816	802.5
553.029	801.5
553.242	848.5
553.455	861.5
553.667	874.5
553.88	860.5
554.093	806.5
554.306	795.5
554.519	753.5
554.732	777.5
554.944	743.5
555.157	723.5
555.37	721.5
555.583	709.5
555.795	699.5
556.008	709.5
556.221	658.5
556.433	652.5
556.646	695.5
556.859	658.5
557.071	660.5
557.284	653.5
557.496	639.5
557.709	647.5
557.921	646.5
558.134	644.5
558.346	626.5
558.559	629.5
558.771	646.5
558.984	643.5
559.196	628.5
559.409	612.5
559.621	628.5
559.833	636.5
560.046	629.5
560.258	632.5
560.47	638.5
560.683	626.5
560.895	630.5
561.107	630.5
561.32	640.5
561.532	625.5
561.744	643.5
561.956	634.5
562.168	631.5
562.381	633.5
562.593	642.5
562.805	609.5
563.017	642.5
563.229	640.5
563.441	615.5
563.653	630.5
563.865	619.5
564.077	648.5
564.289	668.5
564.501	670.5
564.713	670.5
564.925	657.5
565.137	680.5
565.349	701.5
565.561	725.5
565.773	738.5
565.985	756.5
566.197	810.5
566.408	891.5
566.62	975.5
566.832	1052.5
567.044	1081.5
567.255	1086.5
567.467	1082.5
567.679	1148.5
567.891	1274.5
568.102	1309.5
568.314	1220.5
568.526	1097.5
568.737	974.5
568.949	887.5
569.161	789.5
569.372	748.5
569.584	717.5
569.795	690.5
570.007	672.5
570.218	645.5
570.43	644.5
570.641	652.5
570.853	663.5
571.064	681.5
571.276	675.5
571.487	637.5
571.698	616.5
571.91	582.5
572.121	587.5
572.333	566.5
572.544	543.5
572.755	539.5
572.966	547.5
573.178	540.5
573.389	540.5
573.6	537.5
573.811	519.5
574.023	512.5
574.234	512.5
574.445	524.5
574.656	493.5
574.867	520.5
575.078	524.5
575.289	522.5
575.501	490.5
575.712	487.5
575.923	486.5
576.134	494.5
576.345	489.5
576.556	519.5
576.767	489.5
576.978	513.5
577.188	496.5
577.399	501.5
577.61	483.5
577.821	473.5
578.032	474.5
578.243	485.5
578.454	450.5
578.665	465.5
578.875	463.5
579.086	455.5
579.297	455.5
579.508	447.5
579.718	467.5
579.929	461.5
580.14	434.5
580.35	454.5
580.561	460.5
580.772	436.5
580.982	437.5
581.193	453.5
581.403	439.5
581.614	461.5
581.825	448.5
582.035	436.5
582.246	427.5
582.456	412.5
582.667	435.5
582.877	436.5
583.087	425.5
583.298	436.5
583.508	424.5
583.719	418.5
583.929	418.5
584.139	421.5
584.35	429.5
584.56	431.5
584.77	410.5
584.981	410.5
585.191	426.5
585.401	414.5
585.611	414.5
585.821	418.5
586.032	424.5
586.242	418.5
586.452	412.5
586.662	402.5
586.872	424.5
587.082	424.5
587.292	418.5
587.502	420.5
587.713	424.5
587.923	428.5
588.133	419.5
588.343	402.5
588.553	416.5
588.762	418.5
588.972	429.5
589.182	415.5
589.392	416.5
589.602	412.5
589.812	409.5
590.022	413.5
590.232	424.5
590.441	424.5
590.651	424.5
590.861	406.5
591.071	418.5
591.281	423.5
591.49	435.5
591.7	436.5
591.91	436.5
592.119	461.5
592.329	456.5
592.539	490.5
592.748	491.5
592.958	519.5
593.167	533.5
593.377	554.5
593.587	532.5
593.796	525.5
594.006	551.5
594.215	564.5
594.424	547.5
594.634	549.5
594.843	521.5
595.053	476.5
595.262	464.5
595.472	470.5
595.681	456.5
595.89	417.5
596.1	407.5
596.309	404.5
596.518	394.5
596.727	410.5
596.937	361.5
597.146	380.5
597.355	370.5
597.564	377.5
597.774	372.5
597.983	377.5
598.192	362.5
598.401	374.5
598.61	346.5
598.819	336.5
599.028	334.5
599.237	360.5
599.446	355.5
599.655	357.5
599.864	364.5
600.073	362.5
600.282	364.5
600.491	341.5
600.7	356.5
600.909	357.5
601.118	354.5
601.327	332.5
601.536	349.5
601.745	351.5
601.953	354.5
602.162	340.5
602.371	338.5
602.58	357.5
602.789	344.5
602.997	344.5
603.206	341.5
603.415	313.5
603.623	337.5
603.832	316.5
604.041	323.5
604.249	317.5
604.458	331.5
604.666	327.5
604.875	320.5
605.084	320.5
605.292	315.5
605.501	327.5
605.709	310.5
605.918	319.5
606.126	325.5
606.334	316.5
606.543	307.5
606.751	314.5
606.96	305.5
607.168	294.5
607.376	310.5
607.585	327.5
607.793	306.5
608.001	310.5
608.21	326.5
608.418	325.5
608.626	321.5
608.834	315.5
609.043	306.5
609.251	329.5
609.459	307.5
609.667	309.5
609.875	305.5
610.083	304.5
610.291	290.5
610.499	317.5
610.707	313.5
610.916	305.5
611.124	308.5
611.332	310.5
611.54	304.5
611.748	280.5
611.955	311.5
612.163	287.5
612.371	301.5
612.579	307.5
612.787	305.5
612.995	310.5
613.203	294.5
613.411	313.5
613.618	304.5
613.826	320.5
614.034	322.5
614.242	291.5
614.449	296.5
614.657	289.5
614.865	298.5
615.072	299.5
615.28	310.5
615.488	300.5
615.695	310.5
615.903	314.5
616.111	317.5
616.318	321.5
616.526	316.5
616.733	297.5
616.941	299.5
617.148	315.5
617.356	306.5
617.563	317.5
617.771	308.5
617.978	309.5
618.185	316.5
618.393	312.5
618.6	303.5
618.807	309.5
619.015	303.5
619.222	298.5
619.429	304.5
619.637	284.5
619.844	267.5
620.051	281.5
620.258	286.5
620.466	274.5
620.673	282.5
620.88	270.5
621.087	269.5
621.294	269.5
621.501	283.5
621.708	286.5
621.915	291.5
622.122	268.5
622.329	288.5
622.536	277.5
622.743	254.5
622.95	270.5
623.157	274.5
623.364	274.5
623.571	265.5
623.778	286.5
623.985	281.5
624.192	273.5
624.399	269.5
624.606	279.5
624.812	241.5
625.019	271.5
625.226	256.5
625.433	241.5
625.639	273.5
625.846	256.5
626.053	253.5
626.259	241.5
626.466	246.5
626.673	232.5
626.879	248.5
627.086	260.5
627.293	229.5
627.499	256.5
627.706	253.5
627.912	248.5
628.119	240.5
628.325	241.5
628.532	242.5
628.738	250.5
628.945	237.5
629.151	211.5
629.357	231.5
629.564	242.5
629.77	229.5
629.976	232.5
630.183	240.5
630.389	232.5
630.595	235.5
630.802	247.5
631.008	231.5
631.214	235.5
631.42	224.5
631.627	228.5
631.833	232.5
632.039	234.5
632.245	225.5
632.451	214.5
632.657	220.5
632.863	240.5
633.069	235.5
633.275	225.5
633.481	223.5
633.688	213.5
633.893	220.5
634.099	242.5
634.305	224.5
634.511	210.5
634.717	218.5
634.923	225.5
635.129	218.5
635.335	203.5
635.541	219.5
635.747	214.5
635.952	232.5
636.158	211.5
636.364	210.5
636.57	198.5
636.775	216.5
636.981	227.5
637.187	231.5
637.392	221.5
637.598	224.5
637.804	202.5
638.009	212.5
638.215	206.5
638.421	208.5
638.626	213.5
638.832	201.5
639.037	213.5
639.243	204.5
639.448	213.5
639.654	198.5
639.859	195.5
640.065	200.5
640.27	212.5
640.475	194.5
640.681	189.5
640.886	204.5
641.091	205.5
641.297	206.5
641.502	188.5
641.707	193.5
641.913	220.5
642.118	186.5
642.323	204.5
642.528	198.5
642.733	184.5
642.939	196.5
643.144	213.5
643.349	220.5
643.554	190.5
643.759	199.5
643.964	202.5
644.169	184.5
644.374	193.5
644.579	198.5
644.784	200.5
644.989	197.5
645.194	189.5
645.399	192.5
645.604	186.5
645.809	200.5
646.014	201.5
646.219	195.5
646.423	184.5
646.628	190.5
646.833	210.5
647.038	193.5
647.243	197.5
647.447	199.5
647.652	213.5
647.857	193.5
648.062	214.5
648.266	203.5
648.471	209.5
648.676	212.5
648.88	208.5
649.085	204.5
649.289	197.5
649.494	198.5
649.698	199.5
649.903	188.5
650.107	187.5
650.312	194.5
650.516	181.5
650.721	193.5
650.925	173.5
651.13	169.5
651.334	190.5
651.539	160.5
651.743	182.5
651.947	184.5
652.152	167.5
652.356	171.5
652.56	158.5
652.764	157.5
652.969	165.5
653.173	165.5
653.377	163.5
653.581	156.5
653.785	149.5
653.99	160.5
654.194	169.5
654.398	137.5
654.602	148.5
654.806	143.5
655.01	145.5
655.214	134.5
655.418	150.5
655.622	155.5
655.826	162.5
656.03	164.5
656.234	157.5
656.438	142.5
656.642	166.5
656.846	149.5
657.049	139.5
657.253	158.5
657.457	126.5
657.661	134.5
657.865	132.5
658.068	120.5
658.272	131.5
658.476	117.5
658.68	123.5
658.883	109.5
659.087	112.5
659.291	94.5
659.494	104.5
659.698	100.5
659.901	114.5
660.105	94.5
660.309	93.5
660.512	106.5
660.716	123.5
660.919	95.5
661.123	98.5
661.326	86.5
661.53	85.5
661.733	92.5
661.936	77.5
662.14	80.5
662.343	90.5
662.546	87.5
662.75	96.5
662.953	94.5
663.156	81.5
663.36	74.5
663.563	85.5
663.766	90.5
663.969	85.5
664.173	77.5
664.376	82.5
664.579	89.5
664.782	83.5
664.985	81.5
665.188	90.5
665.391	83.5
665.594	77.5
665.797	83.5
666	72.5
666.203	70.5
666.406	75.5
666.609	94.5
666.812	82.5
667.015	85.5
667.218	99.5
667.421	80.5
667.624	77.5
667.827	92.5
668.03	81.5
668.232	81.5
668.435	86.5
668.638	90.5
668.841	95.5
669.043	93.5
669.246	89.5
669.449	78.5
669.651	84.5
669.854	89.5
670.057	73.5
670.259	78.5
670.462	89.5
670.665	87.5
670.867	82.5
671.07	99.5
671.272	79.5
671.475	66.5
671.677	84.5
671.88	76.5
672.082	85.5
672.284	97.5
672.487	78.5
672.689	92.5
672.892	82.5
