Data from Ni(NO3)2@0.125M.TitratingCurve.Agarose3%dH2O.NegLispCup.LampEnergy10.LIBS07252019_HRD10591_18-09-36-567.txt Node
Date: Thu Jul 25 18:09:36 EDT 2019
User: cochatt
Spectrometer: HR+D1059
Trigger mode: 1
Integration Time (sec): 1.000000E-1
Scans to average: 1
Electric dark correction enabled: true
Nonlinearity correction enabled: false
Boxcar width: 0
XAxis mode: Wavelengths
Number of Pixels in Spectrum: 2048
>>>>>Begin Spectral Data<<<<<
223.165	1.06
223.4	1.06
223.635	1.06
223.869	-27.94
224.104	-12.94
224.338	-28.94
224.573	-22.94
224.808	-10.94
225.042	-2.94
225.277	-1.94
225.511	-6.94
225.746	7.06
225.98	19.06
226.215	17.06
226.449	-5.94
226.683	12.06
226.918	33.06
227.152	32.06
227.387	30.06
227.621	42.06
227.856	46.06
228.09	66.06
228.324	52.06
228.559	53.06
228.793	61.06
229.027	112.06
229.262	138.06
229.496	125.06
229.73	122.06
229.964	138.06
230.199	140.06
230.433	123.06
230.667	133.06
230.901	152.06
231.136	152.06
231.37	144.06
231.604	139.06
231.838	156.06
232.072	146.06
232.306	146.06
232.541	155.06
232.775	164.06
233.009	154.06
233.243	153.06
233.477	146.06
233.711	142.06
233.945	155.06
234.179	182.06
234.413	171.06
234.647	180.06
234.881	158.06
235.115	159.06
235.349	146.06
235.583	156.06
235.817	161.06
236.051	170.06
236.285	164.06
236.519	163.06
236.753	172.06
236.987	167.06
237.221	165.06
237.455	174.06
237.689	164.06
237.922	180.06
238.156	178.06
238.39	182.06
238.624	179.06
238.858	196.06
239.091	192.06
239.325	176.06
239.559	185.06
239.793	186.06
240.027	189.06
240.26	207.06
240.494	190.06
240.728	178.06
240.961	181.06
241.195	197.06
241.429	189.06
241.662	195.06
241.896	210.06
242.13	198.06
242.363	186.06
242.597	212.06
242.83	206.06
243.064	213.06
243.298	207.06
243.531	217.06
243.765	242.06
243.998	232.06
244.232	220.06
244.465	230.06
244.699	209.06
244.932	235.06
245.166	236.06
245.399	237.06
245.633	247.06
245.866	240.06
246.099	238.06
246.333	249.06
246.566	243.06
246.8	249.06
247.033	240.06
247.266	240.06
247.5	240.06
247.733	259.06
247.966	264.06
248.2	263.06
248.433	258.06
248.666	274.06
248.899	273.06
249.133	268.06
249.366	284.06
249.599	280.06
249.832	289.06
250.066	268.06
250.299	274.06
250.532	270.06
250.765	299.06
250.998	302.06
251.231	268.06
251.465	280.06
251.698	297.06
251.931	284.06
252.164	294.06
252.397	295.06
252.63	298.06
252.863	317.06
253.096	318.06
253.329	307.06
253.562	299.06
253.795	324.06
254.028	296.06
254.261	316.06
254.494	321.06
254.727	320.06
254.96	323.06
255.193	313.06
255.426	326.06
255.659	316.06
255.892	310.06
256.124	321.06
256.357	319.06
256.59	345.06
256.823	340.06
257.056	313.06
257.289	340.06
257.521	306.06
257.754	353.06
257.987	325.06
258.22	345.06
258.452	340.06
258.685	349.06
258.918	362.06
259.151	335.06
259.383	348.06
259.616	343.06
259.849	342.06
260.081	361.06
260.314	344.06
260.547	360.06
260.779	366.06
261.012	356.06
261.244	356.06
261.477	357.06
261.71	352.06
261.942	355.06
262.175	379.06
262.407	351.06
262.64	354.06
262.872	373.06
263.105	373.06
263.337	396.06
263.57	376.06
263.802	358.06
264.035	376.06
264.267	393.06
264.499	381.06
264.732	378.06
264.964	389.06
265.197	389.06
265.429	383.06
265.661	401.06
265.894	376.06
266.126	388.06
266.358	396.06
266.591	387.06
266.823	410.06
267.055	424.06
267.287	406.06
267.52	421.06
267.752	420.06
267.984	399.06
268.216	421.06
268.448	422.06
268.681	411.06
268.913	422.06
269.145	420.06
269.377	424.06
269.609	438.06
269.841	414.06
270.073	435.06
270.306	437.06
270.538	429.06
270.77	424.06
271.002	427.06
271.234	423.06
271.466	450.06
271.698	422.06
271.93	450.06
272.162	420.06
272.394	463.06
272.626	450.06
272.858	432.06
273.09	461.06
273.322	435.06
273.553	448.06
273.785	450.06
274.017	444.06
274.249	459.06
274.481	454.06
274.713	449.06
274.945	455.06
275.176	462.06
275.408	477.06
275.64	477.06
275.872	468.06
276.104	488.06
276.335	476.06
276.567	490.06
276.799	483.06
277.031	473.06
277.262	475.06
277.494	470.06
277.726	464.06
277.957	483.06
278.189	485.06
278.421	488.06
278.652	502.06
278.884	486.06
279.115	502.06
279.347	510.06
279.579	500.06
279.81	523.06
280.042	527.06
280.273	490.06
280.505	520.06
280.736	503.06
280.968	512.06
281.199	502.06
281.431	518.06
281.662	510.06
281.894	521.06
282.125	522.06
282.356	537.06
282.588	532.06
282.819	541.06
283.051	544.06
283.282	527.06
283.513	542.06
283.745	545.06
283.976	526.06
284.207	544.06
284.439	522.06
284.67	540.06
284.901	555.06
285.132	564.06
285.364	564.06
285.595	543.06
285.826	551.06
286.057	563.06
286.288	553.06
286.52	558.06
286.751	564.06
286.982	566.06
287.213	570.06
287.444	572.06
287.675	595.06
287.906	566.06
288.138	570.06
288.369	584.06
288.6	573.06
288.831	583.06
289.062	577.06
289.293	589.06
289.524	600.06
289.755	589.06
289.986	600.06
290.217	606.06
290.448	594.06
290.679	599.06
290.91	594.06
291.141	595.06
291.371	621.06
291.602	602.06
291.833	600.06
292.064	622.06
292.295	620.06
292.526	617.06
292.757	578.06
292.987	601.06
293.218	606.06
293.449	626.06
293.68	625.06
293.91	621.06
294.141	606.06
294.372	608.06
294.603	608.06
294.833	596.06
295.064	604.06
295.295	601.06
295.525	590.06
295.756	616.06
295.987	605.06
296.217	589.06
296.448	619.06
296.679	633.06
296.909	636.06
297.14	642.06
297.37	640.06
297.601	643.06
297.831	642.06
298.062	630.06
298.292	633.06
298.523	683.06
298.753	646.06
298.984	653.06
299.214	669.06
299.445	657.06
299.675	634.06
299.905	638.06
300.136	621.06
300.366	690.06
300.597	660.06
300.827	655.06
301.057	666.06
301.288	684.06
301.518	695.06
301.748	688.06
301.979	681.06
302.209	696.06
302.439	682.06
302.669	684.06
302.9	666.06
303.13	682.06
303.36	678.06
303.59	650.06
303.82	696.06
304.051	654.06
304.281	660.06
304.511	672.06
304.741	679.06
304.971	683.06
305.201	678.06
305.431	645.06
305.661	646.06
305.891	689.06
306.121	654.06
306.352	652.06
306.582	662.06
306.812	634.06
307.042	659.06
307.272	682.06
307.502	679.06
307.731	660.06
307.961	676.06
308.191	668.06
308.421	639.06
308.651	659.06
308.881	660.06
309.111	688.06
309.341	660.06
309.571	678.06
309.8	684.06
310.03	664.06
310.26	674.06
310.49	676.06
310.72	679.06
310.949	666.06
311.179	664.06
311.409	667.06
311.639	707.06
311.868	688.06
312.098	690.06
312.328	689.06
312.557	697.06
312.787	678.06
313.017	682.06
313.246	717.06
313.476	701.06
313.706	721.06
313.935	720.06
314.165	739.06
314.394	722.06
314.624	708.06
314.853	712.06
315.083	701.06
315.312	706.06
315.542	697.06
315.771	708.06
316.001	718.06
316.23	709.06
316.46	684.06
316.689	664.06
316.919	688.06
317.148	717.06
317.377	703.06
317.607	718.06
317.836	690.06
318.065	713.06
318.295	719.06
318.524	706.06
318.753	676.06
318.983	682.06
319.212	692.06
319.441	690.06
319.67	694.06
319.9	701.06
320.129	730.06
320.358	712.06
320.587	693.06
320.816	725.06
321.046	723.06
321.275	714.06
321.504	718.06
321.733	713.06
321.962	722.06
322.191	737.06
322.42	704.06
322.649	710.06
322.878	728.06
323.108	707.06
323.337	720.06
323.566	728.06
323.795	733.06
324.024	738.06
324.253	713.06
324.482	742.06
324.71	754.06
324.939	744.06
325.168	735.06
325.397	709.06
325.626	753.06
325.855	776.06
326.084	785.06
326.313	770.06
326.542	806.06
326.77	801.06
326.999	786.06
327.228	778.06
327.457	790.06
327.686	806.06
327.914	792.06
328.143	806.06
328.372	813.06
328.6	803.06
328.829	793.06
329.058	772.06
329.287	798.06
329.515	804.06
329.744	812.06
329.972	806.06
330.201	818.06
330.43	800.06
330.658	798.06
330.887	817.06
331.115	809.06
331.344	834.06
331.572	843.06
331.801	864.06
332.03	877.06
332.258	885.06
332.486	941.06
332.715	978.06
332.943	989.06
333.172	1037.06
333.4	1086.06
333.629	1133.06
333.857	1145.06
334.085	1081.06
334.314	1033.06
334.542	1034.06
334.771	1050.06
334.999	981.06
335.227	1013.06
335.455	1012.06
335.684	981.06
335.912	984.06
336.14	981.06
336.369	963.06
336.597	962.06
336.825	916.06
337.053	941.06
337.281	911.06
337.51	931.06
337.738	936.06
337.966	884.06
338.194	889.06
338.422	859.06
338.65	852.06
338.878	865.06
339.106	864.06
339.334	863.06
339.562	854.06
339.79	860.06
340.018	829.06
340.246	850.06
340.474	840.06
340.702	824.06
340.93	866.06
341.158	836.06
341.386	829.06
341.614	824.06
341.842	806.06
342.07	854.06
342.298	824.06
342.526	832.06
342.754	802.06
342.981	822.06
343.209	842.06
343.437	893.06
343.665	956.06
343.893	1018.06
344.12	1049.06
344.348	1022.06
344.576	932.06
344.804	885.06
345.031	877.06
345.259	875.06
345.487	820.06
345.714	801.06
345.942	837.06
346.17	813.06
346.397	813.06
346.625	785.06
346.853	816.06
347.08	825.06
347.308	820.06
347.535	808.06
347.763	814.06
347.99	807.06
348.218	826.06
348.445	852.06
348.673	802.06
348.9	817.06
349.128	807.06
349.355	800.06
349.583	804.06
349.81	804.06
350.037	785.06
350.265	757.06
350.492	768.06
350.72	768.06
350.947	769.06
351.174	763.06
351.402	782.06
351.629	786.06
351.856	777.06
352.083	778.06
352.311	772.06
352.538	781.06
352.765	801.06
352.992	774.06
353.22	738.06
353.447	744.06
353.674	762.06
353.901	746.06
354.128	772.06
354.355	770.06
354.583	747.06
354.81	770.06
355.037	782.06
355.264	765.06
355.491	764.06
355.718	764.06
355.945	805.06
356.172	792.06
356.399	792.06
356.626	791.06
356.853	759.06
357.08	779.06
357.307	771.06
357.534	787.06
357.761	758.06
357.988	780.06
358.215	781.06
358.441	765.06
358.668	774.06
358.895	777.06
359.122	762.06
359.349	792.06
359.576	797.06
359.802	797.06
360.029	770.06
360.256	776.06
360.483	786.06
360.709	804.06
360.936	795.06
361.163	735.06
361.39	750.06
361.616	771.06
361.843	782.06
362.07	776.06
362.296	773.06
362.523	781.06
362.749	809.06
362.976	772.06
363.203	750.06
363.429	735.06
363.656	757.06
363.882	762.06
364.109	769.06
364.335	773.06
364.562	761.06
364.788	736.06
365.015	758.06
365.241	742.06
365.468	768.06
365.694	754.06
365.92	757.06
366.147	765.06
366.373	760.06
366.599	780.06
366.826	783.06
367.052	758.06
367.278	764.06
367.505	766.06
367.731	758.06
367.957	754.06
368.184	804.06
368.41	774.06
368.636	742.06
368.862	798.06
369.089	778.06
369.315	802.06
369.541	791.06
369.767	816.06
369.993	771.06
370.219	800.06
370.445	843.06
370.672	830.06
370.898	806.06
371.124	838.06
371.35	831.06
371.576	822.06
371.802	836.06
372.028	834.06
372.254	832.06
372.48	855.06
372.706	858.06
372.932	845.06
373.158	857.06
373.384	853.06
373.61	840.06
373.835	842.06
374.061	851.06
374.287	843.06
374.513	845.06
374.739	890.06
374.965	922.06
375.191	951.06
375.416	919.06
375.642	910.06
375.868	879.06
376.094	873.06
376.319	852.06
376.545	877.06
376.771	849.06
376.997	858.06
377.222	857.06
377.448	832.06
377.674	838.06
377.899	826.06
378.125	824.06
378.35	842.06
378.576	846.06
378.802	835.06
379.027	806.06
379.253	824.06
379.478	822.06
379.704	841.06
379.929	814.06
380.155	830.06
380.38	820.06
380.606	832.06
380.831	806.06
381.057	843.06
381.282	806.06
381.507	829.06
381.733	850.06
381.958	854.06
382.184	865.06
382.409	864.06
382.634	888.06
382.86	888.06
383.085	913.06
383.31	894.06
383.535	932.06
383.761	917.06
383.986	925.06
384.211	992.06
384.436	985.06
384.662	1008.06
384.887	1018.06
385.112	996.06
385.337	1018.06
385.562	1034.06
385.787	1038.06
386.013	1034.06
386.238	1025.06
386.463	1017.06
386.688	994.06
386.913	984.06
387.138	993.06
387.363	1003.06
387.588	990.06
387.813	988.06
388.038	949.06
388.263	1013.06
388.488	1036.06
388.713	1005.06
388.938	985.06
389.163	968.06
389.387	1004.06
389.612	971.06
389.837	948.06
390.062	957.06
390.287	956.06
390.512	980.06
390.736	995.06
390.961	1010.06
391.186	1047.06
391.411	1027.06
391.636	1084.06
391.86	1129.06
392.085	1154.06
392.31	1172.06
392.534	1132.06
392.759	1107.06
392.984	1061.06
393.208	1050.06
393.433	1056.06
393.658	1033.06
393.882	1044.06
394.107	1076.06
394.331	1081.06
394.556	1076.06
394.78	1106.06
395.005	1096.06
395.229	1109.06
395.454	1131.06
395.678	1163.06
395.903	1133.06
396.127	1115.06
396.352	1077.06
396.576	1057.06
396.801	1057.06
397.025	1044.06
397.249	1080.06
397.474	1120.06
397.698	1117.06
397.922	1100.06
398.147	1107.06
398.371	1155.06
398.595	1182.06
398.82	1220.06
399.044	1324.06
399.268	1484.06
399.492	1747.06
399.717	1987.06
399.941	1973.06
400.165	1705.06
400.389	1538.06
400.613	1388.06
400.837	1354.06
401.062	1310.06
401.286	1280.06
401.51	1253.06
401.734	1261.06
401.958	1294.06
402.182	1280.06
402.406	1302.06
402.63	1312.06
402.854	1337.06
403.078	1383.06
403.302	1435.06
403.526	1437.06
403.75	1478.06
403.974	1471.06
404.198	1474.06
404.422	1531.06
404.645	1479.06
404.869	1490.06
405.093	1469.06
405.317	1439.06
405.541	1403.06
405.765	1383.06
405.988	1401.06
406.212	1392.06
406.436	1400.06
406.66	1415.06
406.883	1440.06
407.107	1571.06
407.331	1630.06
407.555	1687.06
407.778	1660.06
408.002	1589.06
408.226	1576.06
408.449	1482.06
408.673	1474.06
408.896	1398.06
409.12	1422.06
409.344	1422.06
409.567	1440.06
409.791	1453.06
410.014	1452.06
410.238	1442.06
410.461	1422.06
410.685	1409.06
410.908	1401.06
411.132	1350.06
411.355	1306.06
411.578	1332.06
411.802	1304.06
412.025	1310.06
412.249	1351.06
412.472	1336.06
412.695	1294.06
412.919	1269.06
413.142	1228.06
413.365	1241.06
413.589	1245.06
413.812	1255.06
414.035	1264.06
414.258	1262.06
414.482	1253.06
414.705	1293.06
414.928	1278.06
415.151	1318.06
415.374	1286.06
415.597	1271.06
415.821	1222.06
416.044	1211.06
416.267	1221.06
416.49	1228.06
416.713	1221.06
416.936	1229.06
417.159	1265.06
417.382	1266.06
417.605	1255.06
417.828	1254.06
418.051	1254.06
418.274	1267.06
418.497	1258.06
418.72	1328.06
418.943	1291.06
419.166	1376.06
419.389	1444.06
419.611	1434.06
419.834	1366.06
420.057	1325.06
420.28	1310.06
420.503	1240.06
420.726	1224.06
420.948	1270.06
421.171	1229.06
421.394	1217.06
421.617	1225.06
421.839	1238.06
422.062	1294.06
422.285	1257.06
422.507	1332.06
422.73	1312.06
422.953	1273.06
423.175	1312.06
423.398	1362.06
423.621	1350.06
423.843	1381.06
424.066	1344.06
424.288	1353.06
424.511	1333.06
424.733	1330.06
424.956	1277.06
425.178	1275.06
425.401	1262.06
425.623	1283.06
425.846	1228.06
426.068	1207.06
426.291	1222.06
426.513	1186.06
426.735	1184.06
426.958	1166.06
427.18	1114.06
427.402	1145.06
427.625	1129.06
427.847	1147.06
428.069	1110.06
428.292	1117.06
428.514	1095.06
428.736	1100.06
428.958	1127.06
429.181	1096.06
429.403	1113.06
429.625	1095.06
429.847	1092.06
430.069	1051.06
430.292	1078.06
430.514	1062.06
430.736	1102.06
430.958	1064.06
431.18	1078.06
431.402	1110.06
431.624	1107.06
431.846	1117.06
432.068	1113.06
432.29	1137.06
432.512	1066.06
432.734	1144.06
432.956	1114.06
433.178	1132.06
433.4	1087.06
433.622	1122.06
433.844	1130.06
434.066	1120.06
434.287	1141.06
434.509	1186.06
434.731	1211.06
434.953	1257.06
435.175	1270.06
435.397	1256.06
435.618	1184.06
435.84	1186.06
436.062	1130.06
436.284	1113.06
436.505	1092.06
436.727	1102.06
436.949	1147.06
437.17	1141.06
437.392	1097.06
437.614	1100.06
437.835	1061.06
438.057	1076.06
438.278	1056.06
438.5	1076.06
438.721	1064.06
438.943	1100.06
439.165	1070.06
439.386	1077.06
439.608	1117.06
439.829	1122.06
440.05	1092.06
440.272	1121.06
440.493	1109.06
440.715	1111.06
440.936	1176.06
441.158	1208.06
441.379	1204.06
441.6	1282.06
441.822	1335.06
442.043	1278.06
442.264	1280.06
442.486	1244.06
442.707	1262.06
442.928	1234.06
443.149	1273.06
443.371	1258.06
443.592	1244.06
443.813	1257.06
444.034	1287.06
444.255	1337.06
444.476	1397.06
444.698	1494.06
444.919	1563.06
445.14	1570.06
445.361	1411.06
445.582	1301.06
445.803	1216.06
446.024	1186.06
446.245	1202.06
446.466	1157.06
446.687	1124.06
446.908	1152.06
447.129	1094.06
447.35	1104.06
447.571	1065.06
447.792	1053.06
448.013	1033.06
448.234	1023.06
448.455	1027.06
448.675	1034.06
448.896	1034.06
449.117	1031.06
449.338	1013.06
449.559	1015.06
449.779	1009.06
450	1027.06
450.221	1023.06
450.442	1047.06
450.662	1020.06
450.883	1028.06
451.104	1083.06
451.324	1066.06
451.545	1033.06
451.766	1049.06
451.986	1038.06
452.207	1052.06
452.428	1025.06
452.648	1013.06
452.869	1013.06
453.089	970.06
453.31	1006.06
453.53	997.06
453.751	1006.06
453.971	1001.06
454.192	988.06
454.412	981.06
454.633	972.06
454.853	960.06
455.073	962.06
455.294	983.06
455.514	976.06
455.734	993.06
455.955	939.06
456.175	938.06
456.395	947.06
456.616	937.06
456.836	970.06
457.056	982.06
457.276	925.06
457.497	963.06
457.717	955.06
457.937	958.06
458.157	976.06
458.377	974.06
458.598	992.06
458.818	1022.06
459.038	1065.06
459.258	1085.06
459.478	1106.06
459.698	1161.06
459.918	1157.06
460.138	1248.06
460.358	1310.06
460.578	1352.06
460.798	1349.06
461.018	1405.06
461.238	1305.06
461.458	1314.06
461.678	1312.06
461.898	1325.06
462.118	1319.06
462.338	1447.06
462.558	1481.06
462.777	1494.06
462.997	1661.06
463.217	1846.06
463.437	1842.06
463.657	1628.06
463.876	1566.06
464.096	1505.06
464.316	1566.06
464.536	1596.06
464.755	1512.06
464.975	1478.06
465.195	1376.06
465.414	1268.06
465.634	1204.06
465.854	1180.06
466.073	1131.06
466.293	1123.06
466.512	1117.06
466.732	1084.06
466.951	1062.06
467.171	1078.06
467.391	1083.06
467.61	1086.06
467.829	1094.06
468.049	1017.06
468.268	1051.06
468.488	974.06
468.707	1020.06
468.927	1039.06
469.146	1029.06
469.365	1017.06
469.585	1045.06
469.804	1075.06
470.023	1056.06
470.243	1118.06
470.462	1108.06
470.681	1131.06
470.901	1109.06
471.12	1110.06
471.339	1053.06
471.558	1045.06
471.777	1028.06
471.997	1020.06
472.216	1038.06
472.435	991.06
472.654	971.06
472.873	994.06
473.092	988.06
473.311	1000.06
473.53	987.06
473.749	1000.06
473.968	1006.06
474.187	996.06
474.406	972.06
474.625	980.06
474.844	982.06
475.063	981.06
475.282	973.06
475.501	974.06
475.72	981.06
475.939	1026.06
476.158	1005.06
476.377	1022.06
476.596	1057.06
476.814	1058.06
477.033	1045.06
477.252	1079.06
477.471	1106.06
477.69	1134.06
477.908	1149.06
478.127	1204.06
478.346	1201.06
478.564	1188.06
478.783	1224.06
479.002	1261.06
479.22	1246.06
479.439	1257.06
479.658	1255.06
479.876	1260.06
480.095	1248.06
480.313	1277.06
480.532	1352.06
480.751	1359.06
480.969	1256.06
481.188	1227.06
481.406	1211.06
481.624	1171.06
481.843	1149.06
482.061	1130.06
482.28	1134.06
482.498	1105.06
482.717	1104.06
482.935	1153.06
483.153	1125.06
483.372	1123.06
483.59	1113.06
483.808	1132.06
484.027	1150.06
484.245	1159.06
484.463	1116.06
484.681	1148.06
484.9	1125.06
485.118	1196.06
485.336	1168.06
485.554	1162.06
485.772	1184.06
485.99	1178.06
486.209	1230.06
486.427	1206.06
486.645	1196.06
486.863	1163.06
487.081	1205.06
487.299	1185.06
487.517	1190.06
487.735	1201.06
487.953	1205.06
488.171	1195.06
488.389	1202.06
488.607	1156.06
488.825	1177.06
489.043	1187.06
489.261	1160.06
489.479	1171.06
489.696	1179.06
489.914	1205.06
490.132	1203.06
490.35	1178.06
490.568	1211.06
490.786	1190.06
491.003	1204.06
491.221	1188.06
491.439	1188.06
491.657	1208.06
491.874	1222.06
492.092	1208.06
492.31	1216.06
492.527	1229.06
492.745	1220.06
492.963	1237.06
493.18	1234.06
493.398	1245.06
493.615	1234.06
493.833	1261.06
494.05	1244.06
494.268	1275.06
494.485	1251.06
494.703	1259.06
494.92	1265.06
495.138	1236.06
495.355	1278.06
495.573	1271.06
495.79	1288.06
496.008	1291.06
496.225	1311.06
496.442	1303.06
496.66	1300.06
496.877	1334.06
497.094	1367.06
497.312	1378.06
497.529	1436.06
497.746	1428.06
497.963	1504.06
498.181	1525.06
498.398	1626.06
498.615	1716.06
498.832	1843.06
499.049	1990.06
499.267	2113.06
499.484	2322.06
499.701	2612.06
499.918	2881.06
500.135	3340.06
500.352	3940.06
500.569	4128.06
500.786	4085.06
501.003	3787.06
501.22	3316.06
501.437	2882.06
501.654	2477.06
501.871	2268.06
502.088	2042.06
502.305	1914.06
502.522	1802.06
502.739	1784.06
502.956	1660.06
503.172	1611.06
503.389	1536.06
503.606	1466.06
503.823	1440.06
504.04	1436.06
504.256	1440.06
504.473	1469.06
504.69	1589.06
504.907	1527.06
505.123	1408.06
505.34	1321.06
505.557	1294.06
505.773	1258.06
505.99	1214.06
506.207	1177.06
506.423	1174.06
506.64	1146.06
506.856	1148.06
507.073	1137.06
507.289	1133.06
507.506	1112.06
507.722	1130.06
507.939	1097.06
508.155	1062.06
508.372	1066.06
508.588	1103.06
508.805	1076.06
509.021	1048.06
509.238	1060.06
509.454	1059.06
509.67	1029.06
509.887	1028.06
510.103	1029.06
510.319	1025.06
510.536	1007.06
510.752	1029.06
510.968	1023.06
511.184	1012.06
511.401	1019.06
511.617	1047.06
511.833	992.06
512.049	1018.06
512.265	1006.06
512.481	977.06
512.698	1005.06
512.914	997.06
513.13	1024.06
513.346	1011.06
513.562	1019.06
513.778	1037.06
513.994	1004.06
514.21	1042.06
514.426	1037.06
514.642	1009.06
514.858	1030.06
515.074	1056.06
515.29	1056.06
515.506	1052.06
515.721	1066.06
515.937	1087.06
516.153	1129.06
516.369	1114.06
516.585	1158.06
516.801	1233.06
517.016	1276.06
517.232	1349.06
517.448	1361.06
517.664	1440.06
517.879	1468.06
518.095	1466.06
518.311	1443.06
518.527	1337.06
518.742	1295.06
518.958	1255.06
519.173	1190.06
519.389	1165.06
519.605	1132.06
519.82	1092.06
520.036	1096.06
520.251	1074.06
520.467	1069.06
520.682	1062.06
520.898	1036.06
521.113	1003.06
521.329	1017.06
521.544	979.06
521.76	1001.06
521.975	999.06
522.19	936.06
522.406	980.06
522.621	959.06
522.836	966.06
523.052	931.06
523.267	967.06
523.482	952.06
523.698	956.06
523.913	938.06
524.128	948.06
524.343	935.06
524.559	934.06
524.774	948.06
524.989	947.06
525.204	928.06
525.419	912.06
525.634	906.06
525.849	910.06
526.064	929.06
526.28	896.06
526.495	925.06
526.71	908.06
526.925	907.06
527.14	913.06
527.355	894.06
527.57	930.06
527.785	934.06
527.999	889.06
528.214	948.06
528.429	907.06
528.644	957.06
528.859	930.06
529.074	950.06
529.289	937.06
529.503	933.06
529.718	901.06
529.933	909.06
530.148	901.06
530.363	928.06
530.577	878.06
530.792	898.06
531.007	893.06
531.221	907.06
531.436	933.06
531.651	941.06
531.865	908.06
532.08	958.06
532.295	949.06
532.509	907.06
532.724	913.06
532.938	934.06
533.153	924.06
533.367	933.06
533.582	928.06
533.796	948.06
534.011	908.06
534.225	892.06
534.44	921.06
534.654	905.06
534.868	885.06
535.083	871.06
535.297	915.06
535.511	887.06
535.726	898.06
535.94	876.06
536.154	890.06
536.369	860.06
536.583	864.06
536.797	851.06
537.011	854.06
537.225	846.06
537.44	838.06
537.654	839.06
537.868	844.06
538.082	854.06
538.296	858.06
538.51	801.06
538.724	828.06
538.938	816.06
539.153	807.06
539.367	805.06
539.581	837.06
539.795	805.06
540.009	826.06
540.222	834.06
540.436	823.06
540.65	826.06
540.864	818.06
541.078	810.06
541.292	833.06
541.506	843.06
541.72	842.06
541.934	848.06
542.147	816.06
542.361	797.06
542.575	822.06
542.789	787.06
543.002	804.06
543.216	817.06
543.43	827.06
543.644	806.06
543.857	809.06
544.071	818.06
544.285	837.06
544.498	810.06
544.712	846.06
544.925	849.06
545.139	855.06
545.352	841.06
545.566	841.06
545.779	855.06
545.993	827.06
546.206	865.06
546.42	843.06
546.633	847.06
546.847	842.06
547.06	837.06
547.274	821.06
547.487	865.06
547.7	851.06
547.914	846.06
548.127	862.06
548.34	857.06
548.554	861.06
548.767	856.06
548.98	842.06
549.193	833.06
549.407	841.06
549.62	872.06
549.833	905.06
550.046	867.06
550.259	849.06
550.473	817.06
550.686	830.06
550.899	819.06
551.112	804.06
551.325	834.06
551.538	814.06
551.751	823.06
551.964	844.06
552.177	816.06
552.39	843.06
552.603	878.06
552.816	894.06
553.029	916.06
553.242	908.06
553.455	935.06
553.667	955.06
553.88	928.06
554.093	923.06
554.306	862.06
554.519	845.06
554.732	840.06
554.944	816.06
555.157	820.06
555.37	798.06
555.583	797.06
555.795	794.06
556.008	770.06
556.221	730.06
556.433	734.06
556.646	748.06
556.859	733.06
557.071	732.06
557.284	705.06
557.496	726.06
557.709	721.06
557.921	718.06
558.134	721.06
558.346	702.06
558.559	717.06
558.771	718.06
558.984	690.06
559.196	688.06
559.409	694.06
559.621	681.06
559.833	716.06
560.046	666.06
560.258	675.06
560.47	696.06
560.683	684.06
560.895	702.06
561.107	680.06
561.32	688.06
561.532	660.06
561.744	695.06
561.956	658.06
562.168	666.06
562.381	711.06
562.593	682.06
562.805	672.06
563.017	694.06
563.229	679.06
563.441	698.06
563.653	690.06
563.865	710.06
564.077	694.06
564.289	693.06
564.501	722.06
564.713	736.06
564.925	744.06
565.137	742.06
565.349	739.06
565.561	775.06
565.773	811.06
565.985	864.06
566.197	908.06
566.408	963.06
566.62	1064.06
566.832	1147.06
567.044	1196.06
567.255	1140.06
567.467	1192.06
567.679	1295.06
567.891	1376.06
568.102	1449.06
568.314	1395.06
568.526	1216.06
568.737	1095.06
568.949	950.06
569.161	882.06
569.372	839.06
569.584	790.06
569.795	748.06
570.007	741.06
570.218	728.06
570.43	704.06
570.641	676.06
570.853	691.06
571.064	720.06
571.276	736.06
571.487	699.06
571.698	656.06
571.91	652.06
572.121	633.06
572.333	621.06
572.544	593.06
572.755	611.06
572.966	586.06
573.178	590.06
573.389	590.06
573.6	565.06
573.811	580.06
574.023	563.06
574.234	563.06
574.445	557.06
574.656	563.06
574.867	575.06
575.078	562.06
575.289	552.06
575.501	555.06
575.712	558.06
575.923	549.06
576.134	540.06
576.345	574.06
576.556	547.06
576.767	547.06
576.978	554.06
577.188	534.06
577.399	523.06
577.61	539.06
577.821	507.06
578.032	517.06
578.243	530.06
578.454	509.06
578.665	511.06
578.875	481.06
579.086	506.06
579.297	519.06
579.508	508.06
579.718	489.06
579.929	502.06
580.14	478.06
580.35	491.06
580.561	478.06
580.772	515.06
580.982	477.06
581.193	497.06
581.403	482.06
581.614	479.06
581.825	494.06
582.035	463.06
582.246	468.06
582.456	489.06
582.667	487.06
582.877	478.06
583.087	473.06
583.298	452.06
583.508	480.06
583.719	467.06
583.929	473.06
584.139	454.06
584.35	448.06
584.56	461.06
584.77	466.06
584.981	461.06
585.191	459.06
585.401	458.06
585.611	449.06
585.821	455.06
586.032	441.06
586.242	442.06
586.452	447.06
586.662	430.06
586.872	435.06
587.082	456.06
587.292	457.06
587.502	444.06
587.713	439.06
587.923	458.06
588.133	457.06
588.343	460.06
588.553	471.06
588.762	435.06
588.972	455.06
589.182	441.06
589.392	464.06
589.602	438.06
589.812	461.06
590.022	429.06
590.232	429.06
590.441	463.06
590.651	456.06
590.861	453.06
591.071	471.06
591.281	459.06
591.49	464.06
591.7	480.06
591.91	479.06
592.119	488.06
592.329	496.06
592.539	502.06
592.748	542.06
592.958	549.06
593.167	586.06
593.377	584.06
593.587	590.06
593.796	602.06
594.006	599.06
594.215	624.06
594.424	584.06
594.634	563.06
594.843	558.06
595.053	552.06
595.262	529.06
595.472	504.06
595.681	492.06
595.89	480.06
596.1	458.06
596.309	436.06
596.518	440.06
596.727	430.06
596.937	434.06
597.146	404.06
597.355	420.06
597.564	401.06
597.774	404.06
597.983	414.06
598.192	395.06
598.401	382.06
598.61	401.06
598.819	395.06
599.028	380.06
599.237	379.06
599.446	385.06
599.655	397.06
599.864	375.06
600.073	368.06
600.282	378.06
600.491	388.06
600.7	374.06
600.909	390.06
601.118	376.06
601.327	378.06
601.536	390.06
601.745	387.06
601.953	390.06
602.162	377.06
602.371	382.06
602.58	366.06
602.789	372.06
602.997	378.06
603.206	354.06
603.415	374.06
603.623	359.06
603.832	360.06
604.041	354.06
604.249	348.06
604.458	353.06
604.666	347.06
604.875	363.06
605.084	361.06
605.292	366.06
605.501	342.06
605.709	349.06
605.918	337.06
606.126	349.06
606.334	348.06
606.543	327.06
606.751	332.06
606.96	347.06
607.168	352.06
607.376	333.06
607.585	353.06
607.793	346.06
608.001	331.06
608.21	322.06
608.418	332.06
608.626	341.06
608.834	323.06
609.043	341.06
609.251	326.06
609.459	328.06
609.667	321.06
609.875	332.06
610.083	337.06
610.291	329.06
610.499	333.06
610.707	351.06
610.916	343.06
611.124	336.06
611.332	347.06
611.54	322.06
611.748	327.06
611.955	338.06
612.163	325.06
612.371	341.06
612.579	331.06
612.787	318.06
612.995	339.06
613.203	333.06
613.411	310.06
613.618	341.06
613.826	331.06
614.034	328.06
614.242	332.06
614.449	321.06
614.657	320.06
614.865	327.06
615.072	322.06
615.28	329.06
615.488	305.06
615.695	329.06
615.903	333.06
616.111	305.06
616.318	335.06
616.526	328.06
616.733	333.06
616.941	341.06
617.148	328.06
617.356	341.06
617.563	330.06
617.771	351.06
617.978	329.06
618.185	326.06
618.393	330.06
618.6	325.06
618.807	344.06
619.015	318.06
619.222	334.06
619.429	324.06
619.637	326.06
619.844	310.06
620.051	323.06
620.258	325.06
620.466	301.06
620.673	321.06
620.88	291.06
621.087	291.06
621.294	289.06
621.501	308.06
621.708	306.06
621.915	294.06
622.122	322.06
622.329	285.06
622.536	300.06
622.743	302.06
622.95	293.06
623.157	304.06
623.364	292.06
623.571	292.06
623.778	293.06
623.985	286.06
624.192	277.06
624.399	269.06
624.606	281.06
624.812	268.06
625.019	284.06
625.226	291.06
625.433	285.06
625.639	282.06
625.846	283.06
626.053	272.06
626.259	270.06
626.466	272.06
626.673	271.06
626.879	279.06
627.086	268.06
627.293	256.06
627.499	242.06
627.706	260.06
627.912	252.06
628.119	267.06
628.325	257.06
628.532	273.06
628.738	270.06
628.945	256.06
629.151	261.06
629.357	250.06
629.564	262.06
629.77	248.06
629.976	260.06
630.183	245.06
630.389	254.06
630.595	234.06
630.802	263.06
631.008	260.06
631.214	265.06
631.42	240.06
631.627	255.06
631.833	252.06
632.039	247.06
632.245	240.06
632.451	228.06
632.657	248.06
632.863	238.06
633.069	258.06
633.275	248.06
633.481	263.06
633.688	233.06
633.893	224.06
634.099	239.06
634.305	240.06
634.511	240.06
634.717	231.06
634.923	227.06
635.129	228.06
635.335	234.06
635.541	233.06
635.747	236.06
635.952	226.06
636.158	225.06
636.364	244.06
636.57	231.06
636.775	222.06
636.981	241.06
637.187	240.06
637.392	224.06
637.598	221.06
637.804	218.06
638.009	224.06
638.215	224.06
638.421	225.06
638.626	232.06
638.832	216.06
639.037	230.06
639.243	211.06
639.448	210.06
639.654	224.06
639.859	212.06
640.065	217.06
640.27	235.06
640.475	205.06
640.681	199.06
640.886	218.06
641.091	214.06
641.297	210.06
641.502	228.06
641.707	212.06
641.913	220.06
642.118	214.06
642.323	203.06
642.528	199.06
642.733	206.06
642.939	212.06
643.144	213.06
643.349	216.06
643.554	201.06
643.759	201.06
643.964	197.06
644.169	213.06
644.374	203.06
644.579	206.06
644.784	221.06
644.989	229.06
645.194	197.06
645.399	206.06
645.604	213.06
645.809	207.06
646.014	202.06
646.219	212.06
646.423	217.06
646.628	201.06
646.833	210.06
647.038	214.06
647.243	207.06
647.447	219.06
647.652	212.06
647.857	224.06
648.062	223.06
648.266	228.06
648.471	216.06
648.676	226.06
648.88	224.06
649.085	226.06
649.289	219.06
649.494	190.06
649.698	200.06
649.903	200.06
650.107	211.06
650.312	221.06
650.516	220.06
650.721	190.06
650.925	194.06
651.13	194.06
651.334	196.06
651.539	173.06
651.743	210.06
651.947	189.06
652.152	169.06
652.356	182.06
652.56	170.06
652.764	186.06
652.969	168.06
653.173	165.06
653.377	156.06
653.581	163.06
653.785	155.06
653.99	163.06
654.194	141.06
654.398	155.06
654.602	136.06
654.806	147.06
655.01	152.06
655.214	137.06
655.418	135.06
655.622	168.06
655.826	152.06
656.03	146.06
656.234	156.06
656.438	154.06
656.642	143.06
656.846	141.06
657.049	144.06
657.253	132.06
657.457	135.06
657.661	125.06
657.865	142.06
658.068	128.06
658.272	120.06
658.476	100.06
658.68	112.06
658.883	106.06
659.087	126.06
659.291	114.06
659.494	106.06
659.698	113.06
659.901	126.06
660.105	108.06
660.309	88.06
660.512	92.06
660.716	86.06
660.919	104.06
661.123	99.06
661.326	101.06
661.53	106.06
661.733	92.06
661.936	93.06
662.14	97.06
662.343	100.06
662.546	85.06
662.75	78.06
662.953	101.06
663.156	92.06
663.36	83.06
663.563	87.06
663.766	85.06
663.969	89.06
664.173	96.06
664.376	76.06
664.579	62.06
664.782	75.06
664.985	80.06
665.188	73.06
665.391	85.06
665.594	84.06
665.797	74.06
666	92.06
666.203	76.06
666.406	76.06
666.609	89.06
666.812	75.06
667.015	88.06
667.218	89.06
667.421	92.06
667.624	82.06
667.827	84.06
668.03	75.06
668.232	85.06
668.435	89.06
668.638	73.06
668.841	75.06
669.043	86.06
669.246	77.06
669.449	76.06
669.651	81.06
669.854	78.06
670.057	76.06
670.259	71.06
670.462	80.06
670.665	68.06
670.867	78.06
671.07	76.06
671.272	82.06
671.475	91.06
671.677	86.06
671.88	88.06
672.082	91.06
672.284	88.06
672.487	77.06
672.689	71.06
672.892	94.06
