Data from Ni(NO3)2Standard.Agarose3%.GreenCap.LampEnergy5.5.E.O_HRD10591_14-41-41-188.txt Node
Date: Mon Jul 22 14:41:41 EDT 2019
User: cochatt
Spectrometer: HR+D1059
Trigger mode: 1
Integration Time (sec): 1.000000E-1
Scans to average: 1
Electric dark correction enabled: true
Nonlinearity correction enabled: false
Boxcar width: 0
XAxis mode: Wavelengths
Number of Pixels in Spectrum: 2048
>>>>>Begin Spectral Data<<<<<
223.165	-16.25
223.4	-16.25
223.635	-16.25
223.869	-4.25
224.104	-23.25
224.338	-15.25
224.573	-24.25
224.808	-11.25
225.042	-8.25
225.277	-13.25
225.511	0.75
225.746	-8.25
225.98	6.75
226.215	3.75
226.449	20.75
226.683	24.75
226.918	35.75
227.152	31.75
227.387	36.75
227.621	32.75
227.856	35.75
228.09	34.75
228.324	39.75
228.559	76.75
228.793	60.75
229.027	60.75
229.262	66.75
229.496	70.75
229.73	50.75
229.964	76.75
230.199	58.75
230.433	77.75
230.667	89.75
230.901	87.75
231.136	68.75
231.37	74.75
231.604	66.75
231.838	80.75
232.072	95.75
232.306	67.75
232.541	71.75
232.775	84.75
233.009	79.75
233.243	82.75
233.477	90.75
233.711	83.75
233.945	87.75
234.179	75.75
234.413	78.75
234.647	79.75
234.881	90.75
235.115	68.75
235.349	68.75
235.583	84.75
235.817	79.75
236.051	82.75
236.285	67.75
236.519	74.75
236.753	79.75
236.987	75.75
237.221	80.75
237.455	78.75
237.689	65.75
237.922	67.75
238.156	76.75
238.39	72.75
238.624	84.75
238.858	76.75
239.091	75.75
239.325	82.75
239.559	78.75
239.793	81.75
240.027	66.75
240.26	77.75
240.494	71.75
240.728	74.75
240.961	82.75
241.195	82.75
241.429	88.75
241.662	75.75
241.896	64.75
242.13	67.75
242.363	84.75
242.597	72.75
242.83	70.75
243.064	73.75
243.298	72.75
243.531	79.75
243.765	73.75
243.998	91.75
244.232	61.75
244.465	67.75
244.699	70.75
244.932	83.75
245.166	84.75
245.399	83.75
245.633	75.75
245.866	83.75
246.099	86.75
246.333	70.75
246.566	66.75
246.8	83.75
247.033	61.75
247.266	74.75
247.5	81.75
247.733	66.75
247.966	77.75
248.2	66.75
248.433	78.75
248.666	79.75
248.899	92.75
249.133	81.75
249.366	81.75
249.599	76.75
249.832	71.75
250.066	76.75
250.299	76.75
250.532	73.75
250.765	73.75
250.998	72.75
251.231	72.75
251.465	69.75
251.698	71.75
251.931	72.75
252.164	76.75
252.397	79.75
252.63	84.75
252.863	51.75
253.096	74.75
253.329	82.75
253.562	86.75
253.795	77.75
254.028	74.75
254.261	78.75
254.494	77.75
254.727	81.75
254.96	70.75
255.193	70.75
255.426	84.75
255.659	81.75
255.892	95.75
256.124	62.75
256.357	63.75
256.59	78.75
256.823	78.75
257.056	76.75
257.289	75.75
257.521	92.75
257.754	83.75
257.987	88.75
258.22	99.75
258.452	62.75
258.685	79.75
258.918	85.75
259.151	85.75
259.383	82.75
259.616	84.75
259.849	71.75
260.081	79.75
260.314	83.75
260.547	71.75
260.779	74.75
261.012	98.75
261.244	82.75
261.477	80.75
261.71	76.75
261.942	85.75
262.175	79.75
262.407	85.75
262.64	79.75
262.872	70.75
263.105	82.75
263.337	78.75
263.57	85.75
263.802	74.75
264.035	82.75
264.267	68.75
264.499	80.75
264.732	94.75
264.964	77.75
265.197	83.75
265.429	80.75
265.661	92.75
265.894	80.75
266.126	84.75
266.358	86.75
266.591	72.75
266.823	83.75
267.055	86.75
267.287	90.75
267.52	80.75
267.752	85.75
267.984	87.75
268.216	76.75
268.448	84.75
268.681	87.75
268.913	77.75
269.145	87.75
269.377	76.75
269.609	84.75
269.841	87.75
270.073	84.75
270.306	67.75
270.538	80.75
270.77	80.75
271.002	70.75
271.234	86.75
271.466	86.75
271.698	84.75
271.93	78.75
272.162	103.75
272.394	98.75
272.626	82.75
272.858	86.75
273.09	69.75
273.322	82.75
273.553	89.75
273.785	90.75
274.017	88.75
274.249	77.75
274.481	79.75
274.713	81.75
274.945	77.75
275.176	78.75
275.408	79.75
275.64	85.75
275.872	77.75
276.104	92.75
276.335	93.75
276.567	85.75
276.799	75.75
277.031	88.75
277.262	77.75
277.494	87.75
277.726	98.75
277.957	74.75
278.189	80.75
278.421	85.75
278.652	65.75
278.884	80.75
279.115	84.75
279.347	91.75
279.579	85.75
279.81	82.75
280.042	91.75
280.273	80.75
280.505	75.75
280.736	75.75
280.968	82.75
281.199	88.75
281.431	84.75
281.662	79.75
281.894	84.75
282.125	76.75
282.356	79.75
282.588	82.75
282.819	83.75
283.051	76.75
283.282	85.75
283.513	75.75
283.745	82.75
283.976	97.75
284.207	99.75
284.439	86.75
284.67	88.75
284.901	84.75
285.132	79.75
285.364	76.75
285.595	87.75
285.826	88.75
286.057	95.75
286.288	97.75
286.52	82.75
286.751	89.75
286.982	100.75
287.213	80.75
287.444	81.75
287.675	89.75
287.906	87.75
288.138	76.75
288.369	86.75
288.6	74.75
288.831	87.75
289.062	91.75
289.293	80.75
289.524	84.75
289.755	93.75
289.986	82.75
290.217	81.75
290.448	82.75
290.679	84.75
290.91	92.75
291.141	88.75
291.371	75.75
291.602	75.75
291.833	78.75
292.064	92.75
292.295	83.75
292.526	71.75
292.757	88.75
292.987	90.75
293.218	85.75
293.449	73.75
293.68	83.75
293.91	76.75
294.141	86.75
294.372	83.75
294.603	88.75
294.833	86.75
295.064	87.75
295.295	79.75
295.525	88.75
295.756	83.75
295.987	68.75
296.217	73.75
296.448	72.75
296.679	81.75
296.909	83.75
297.14	75.75
297.37	77.75
297.601	78.75
297.831	82.75
298.062	82.75
298.292	90.75
298.523	87.75
298.753	87.75
298.984	80.75
299.214	90.75
299.445	96.75
299.675	87.75
299.905	92.75
300.136	92.75
300.366	76.75
300.597	89.75
300.827	93.75
301.057	68.75
301.288	80.75
301.518	80.75
301.748	94.75
301.979	78.75
302.209	76.75
302.439	69.75
302.669	72.75
302.9	90.75
303.13	95.75
303.36	83.75
303.59	86.75
303.82	84.75
304.051	95.75
304.281	96.75
304.511	85.75
304.741	91.75
304.971	84.75
305.201	87.75
305.431	71.75
305.661	91.75
305.891	81.75
306.121	80.75
306.352	85.75
306.582	82.75
306.812	86.75
307.042	88.75
307.272	80.75
307.502	70.75
307.731	104.75
307.961	95.75
308.191	83.75
308.421	90.75
308.651	78.75
308.881	81.75
309.111	87.75
309.341	97.75
309.571	97.75
309.8	95.75
310.03	94.75
310.26	85.75
310.49	84.75
310.72	77.75
310.949	83.75
311.179	90.75
311.409	77.75
311.639	90.75
311.868	79.75
312.098	84.75
312.328	81.75
312.557	89.75
312.787	84.75
313.017	74.75
313.246	94.75
313.476	101.75
313.706	82.75
313.935	80.75
314.165	88.75
314.394	80.75
314.624	73.75
314.853	87.75
315.083	80.75
315.312	79.75
315.542	94.75
315.771	91.75
316.001	98.75
316.23	87.75
316.46	86.75
316.689	85.75
316.919	86.75
317.148	79.75
317.377	80.75
317.607	89.75
317.836	84.75
318.065	91.75
318.295	105.75
318.524	73.75
318.753	77.75
318.983	79.75
319.212	97.75
319.441	83.75
319.67	74.75
319.9	84.75
320.129	86.75
320.358	67.75
320.587	87.75
320.816	86.75
321.046	87.75
321.275	84.75
321.504	101.75
321.733	87.75
321.962	86.75
322.191	79.75
322.42	88.75
322.649	90.75
322.878	92.75
323.108	88.75
323.337	100.75
323.566	88.75
323.795	90.75
324.024	79.75
324.253	77.75
324.482	80.75
324.71	86.75
324.939	92.75
325.168	84.75
325.397	66.75
325.626	81.75
325.855	100.75
326.084	86.75
326.313	82.75
326.542	82.75
326.77	89.75
326.999	91.75
327.228	80.75
327.457	94.75
327.686	75.75
327.914	84.75
328.143	73.75
328.372	78.75
328.6	83.75
328.829	94.75
329.058	88.75
329.287	103.75
329.515	84.75
329.744	84.75
329.972	79.75
330.201	71.75
330.43	87.75
330.658	84.75
330.887	98.75
331.115	86.75
331.344	83.75
331.572	84.75
331.801	86.75
332.03	85.75
332.258	80.75
332.486	79.75
332.715	90.75
332.943	69.75
333.172	79.75
333.4	83.75
333.629	101.75
333.857	78.75
334.085	83.75
334.314	80.75
334.542	68.75
334.771	86.75
334.999	92.75
335.227	82.75
335.455	98.75
335.684	93.75
335.912	84.75
336.14	88.75
336.369	76.75
336.597	90.75
336.825	82.75
337.053	88.75
337.281	89.75
337.51	85.75
337.738	95.75
337.966	71.75
338.194	74.75
338.422	82.75
338.65	93.75
338.878	91.75
339.106	75.75
339.334	88.75
339.562	98.75
339.79	77.75
340.018	83.75
340.246	79.75
340.474	82.75
340.702	76.75
340.93	84.75
341.158	79.75
341.386	90.75
341.614	85.75
341.842	79.75
342.07	76.75
342.298	78.75
342.526	80.75
342.754	76.75
342.981	91.75
343.209	75.75
343.437	94.75
343.665	71.75
343.893	85.75
344.12	94.75
344.348	82.75
344.576	83.75
344.804	84.75
345.031	72.75
345.259	83.75
345.487	95.75
345.714	82.75
345.942	80.75
346.17	83.75
346.397	85.75
346.625	84.75
346.853	95.75
347.08	74.75
347.308	84.75
347.535	89.75
347.763	100.75
347.99	87.75
348.218	85.75
348.445	92.75
348.673	83.75
348.9	85.75
349.128	68.75
349.355	92.75
349.583	84.75
349.81	80.75
350.037	91.75
350.265	78.75
350.492	94.75
350.72	95.75
350.947	95.75
351.174	83.75
351.402	90.75
351.629	79.75
351.856	82.75
352.083	95.75
352.311	96.75
352.538	77.75
352.765	105.75
352.992	89.75
353.22	91.75
353.447	85.75
353.674	85.75
353.901	90.75
354.128	80.75
354.355	84.75
354.583	81.75
354.81	87.75
355.037	80.75
355.264	98.75
355.491	82.75
355.718	82.75
355.945	81.75
356.172	86.75
356.399	76.75
356.626	85.75
356.853	91.75
357.08	77.75
357.307	80.75
357.534	81.75
357.761	74.75
357.988	78.75
358.215	74.75
358.441	90.75
358.668	79.75
358.895	77.75
359.122	85.75
359.349	84.75
359.576	75.75
359.802	87.75
360.029	93.75
360.256	81.75
360.483	102.75
360.709	80.75
360.936	87.75
361.163	86.75
361.39	99.75
361.616	86.75
361.843	82.75
362.07	74.75
362.296	94.75
362.523	73.75
362.749	82.75
362.976	80.75
363.203	79.75
363.429	76.75
363.656	88.75
363.882	75.75
364.109	91.75
364.335	89.75
364.562	73.75
364.788	91.75
365.015	91.75
365.241	73.75
365.468	80.75
365.694	84.75
365.92	83.75
366.147	85.75
366.373	89.75
366.599	89.75
366.826	88.75
367.052	81.75
367.278	78.75
367.505	86.75
367.731	98.75
367.957	84.75
368.184	86.75
368.41	93.75
368.636	82.75
368.862	97.75
369.089	73.75
369.315	76.75
369.541	74.75
369.767	84.75
369.993	92.75
370.219	76.75
370.445	80.75
370.672	83.75
370.898	77.75
371.124	90.75
371.35	72.75
371.576	86.75
371.802	87.75
372.028	85.75
372.254	89.75
372.48	92.75
372.706	73.75
372.932	78.75
373.158	75.75
373.384	90.75
373.61	85.75
373.835	89.75
374.061	85.75
374.287	87.75
374.513	79.75
374.739	89.75
374.965	90.75
375.191	83.75
375.416	86.75
375.642	83.75
375.868	87.75
376.094	74.75
376.319	63.75
376.545	78.75
376.771	84.75
376.997	91.75
377.222	85.75
377.448	88.75
377.674	72.75
377.899	83.75
378.125	87.75
378.35	78.75
378.576	82.75
378.802	91.75
379.027	78.75
379.253	84.75
379.478	92.75
379.704	67.75
379.929	82.75
380.155	79.75
380.38	82.75
380.606	80.75
380.831	91.75
381.057	82.75
381.282	88.75
381.507	82.75
381.733	79.75
381.958	90.75
382.184	83.75
382.409	66.75
382.634	78.75
382.86	89.75
383.085	78.75
383.31	79.75
383.535	75.75
383.761	87.75
383.986	82.75
384.211	78.75
384.436	94.75
384.662	96.75
384.887	87.75
385.112	92.75
385.337	87.75
385.562	72.75
385.787	77.75
386.013	89.75
386.238	80.75
386.463	89.75
386.688	82.75
386.913	81.75
387.138	82.75
387.363	81.75
387.588	87.75
387.813	88.75
388.038	83.75
388.263	92.75
388.488	94.75
388.713	80.75
388.938	85.75
389.163	76.75
389.387	86.75
389.612	96.75
389.837	84.75
390.062	82.75
390.287	97.75
390.512	79.75
390.736	84.75
390.961	76.75
391.186	76.75
391.411	93.75
391.636	82.75
391.86	77.75
392.085	93.75
392.31	90.75
392.534	70.75
392.759	84.75
392.984	87.75
393.208	70.75
393.433	87.75
393.658	78.75
393.882	82.75
394.107	81.75
394.331	74.75
394.556	79.75
394.78	75.75
395.005	77.75
395.229	87.75
395.454	99.75
395.678	99.75
395.903	80.75
396.127	92.75
396.352	78.75
396.576	73.75
396.801	80.75
397.025	66.75
397.249	86.75
397.474	93.75
397.698	106.75
397.922	78.75
398.147	93.75
398.371	88.75
398.595	96.75
398.82	92.75
399.044	83.75
399.268	83.75
399.492	89.75
399.717	84.75
399.941	78.75
400.165	93.75
400.389	94.75
400.613	79.75
400.837	90.75
401.062	77.75
401.286	86.75
401.51	92.75
401.734	79.75
401.958	87.75
402.182	83.75
402.406	81.75
402.63	83.75
402.854	80.75
403.078	75.75
403.302	83.75
403.526	88.75
403.75	91.75
403.974	87.75
404.198	72.75
404.422	81.75
404.645	76.75
404.869	92.75
405.093	91.75
405.317	80.75
405.541	88.75
405.765	92.75
405.988	90.75
406.212	97.75
406.436	94.75
406.66	99.75
406.883	94.75
407.107	86.75
407.331	82.75
407.555	71.75
407.778	91.75
408.002	99.75
408.226	80.75
408.449	90.75
408.673	86.75
408.896	85.75
409.12	88.75
409.344	98.75
409.567	79.75
409.791	81.75
410.014	65.75
410.238	81.75
410.461	77.75
410.685	83.75
410.908	84.75
411.132	71.75
411.355	89.75
411.578	80.75
411.802	87.75
412.025	81.75
412.249	71.75
412.472	81.75
412.695	89.75
412.919	66.75
413.142	78.75
413.365	83.75
413.589	88.75
413.812	77.75
414.035	97.75
414.258	86.75
414.482	88.75
414.705	74.75
414.928	89.75
415.151	75.75
415.374	85.75
415.597	67.75
415.821	84.75
416.044	93.75
416.267	92.75
416.49	80.75
416.713	80.75
416.936	84.75
417.159	94.75
417.382	86.75
417.605	97.75
417.828	96.75
418.051	89.75
418.274	90.75
418.497	82.75
418.72	81.75
418.943	86.75
419.166	89.75
419.389	82.75
419.611	85.75
419.834	87.75
420.057	87.75
420.28	70.75
420.503	88.75
420.726	81.75
420.948	87.75
421.171	78.75
421.394	92.75
421.617	87.75
421.839	87.75
422.062	81.75
422.285	86.75
422.507	78.75
422.73	82.75
422.953	81.75
423.175	75.75
423.398	89.75
423.621	88.75
423.843	81.75
424.066	87.75
424.288	80.75
424.511	80.75
424.733	83.75
424.956	79.75
425.178	101.75
425.401	95.75
425.623	82.75
425.846	95.75
426.068	81.75
426.291	94.75
426.513	78.75
426.735	75.75
426.958	81.75
427.18	78.75
427.402	99.75
427.625	91.75
427.847	76.75
428.069	83.75
428.292	95.75
428.514	96.75
428.736	85.75
428.958	64.75
429.181	89.75
429.403	87.75
429.625	81.75
429.847	90.75
430.069	89.75
430.292	96.75
430.514	80.75
430.736	73.75
430.958	87.75
431.18	74.75
431.402	88.75
431.624	88.75
431.846	83.75
432.068	72.75
432.29	80.75
432.512	82.75
432.734	89.75
432.956	77.75
433.178	92.75
433.4	86.75
433.622	100.75
433.844	89.75
434.066	94.75
434.287	68.75
434.509	81.75
434.731	91.75
434.953	104.75
435.175	80.75
435.397	89.75
435.618	88.75
435.84	88.75
436.062	88.75
436.284	84.75
436.505	80.75
436.727	87.75
436.949	91.75
437.17	92.75
437.392	89.75
437.614	89.75
437.835	77.75
438.057	80.75
438.278	80.75
438.5	85.75
438.721	81.75
438.943	79.75
439.165	87.75
439.386	81.75
439.608	91.75
439.829	84.75
440.05	82.75
440.272	73.75
440.493	92.75
440.715	89.75
440.936	73.75
441.158	80.75
441.379	89.75
441.6	86.75
441.822	95.75
442.043	96.75
442.264	96.75
442.486	77.75
442.707	85.75
442.928	80.75
443.149	74.75
443.371	97.75
443.592	87.75
443.813	86.75
444.034	85.75
444.255	85.75
444.476	76.75
444.698	84.75
444.919	70.75
445.14	187.75
445.361	129.75
445.582	79.75
445.803	75.75
446.024	83.75
446.245	94.75
446.466	72.75
446.687	101.75
446.908	83.75
447.129	88.75
447.35	84.75
447.571	86.75
447.792	92.75
448.013	76.75
448.234	83.75
448.455	73.75
448.675	85.75
448.896	84.75
449.117	74.75
449.338	83.75
449.559	87.75
449.779	93.75
450	90.75
450.221	90.75
450.442	89.75
450.662	74.75
450.883	76.75
451.104	95.75
451.324	91.75
451.545	78.75
451.766	80.75
451.986	87.75
452.207	77.75
452.428	82.75
452.648	81.75
452.869	89.75
453.089	82.75
453.31	86.75
453.53	71.75
453.751	75.75
453.971	89.75
454.192	76.75
454.412	86.75
454.633	93.75
454.853	81.75
455.073	75.75
455.294	80.75
455.514	84.75
455.734	75.75
455.955	67.75
456.175	77.75
456.395	78.75
456.616	76.75
456.836	71.75
457.056	91.75
457.276	79.75
457.497	85.75
457.717	74.75
457.937	84.75
458.157	76.75
458.377	97.75
458.598	100.75
458.818	94.75
459.038	94.75
459.258	72.75
459.478	95.75
459.698	76.75
459.918	75.75
460.138	90.75
460.358	77.75
460.578	86.75
460.798	74.75
461.018	87.75
461.238	100.75
461.458	100.75
461.678	82.75
461.898	87.75
462.118	94.75
462.338	87.75
462.558	91.75
462.777	87.75
462.997	89.75
463.217	80.75
463.437	83.75
463.657	80.75
463.876	98.75
464.096	75.75
464.316	83.75
464.536	90.75
464.755	90.75
464.975	95.75
465.195	93.75
465.414	94.75
465.634	81.75
465.854	83.75
466.073	72.75
466.293	82.75
466.512	91.75
466.732	73.75
466.951	81.75
467.171	85.75
467.391	83.75
467.61	81.75
467.829	91.75
468.049	90.75
468.268	86.75
468.488	89.75
468.707	89.75
468.927	79.75
469.146	84.75
469.365	89.75
469.585	87.75
469.804	71.75
470.023	103.75
470.243	100.75
470.462	81.75
470.681	99.75
470.901	97.75
471.12	70.75
471.339	105.75
471.558	72.75
471.777	83.75
471.997	83.75
472.216	82.75
472.435	84.75
472.654	86.75
472.873	80.75
473.092	96.75
473.311	80.75
473.53	88.75
473.749	74.75
473.968	87.75
474.187	90.75
474.406	82.75
474.625	84.75
474.844	108.75
475.063	78.75
475.282	80.75
475.501	88.75
475.72	86.75
475.939	84.75
476.158	100.75
476.377	85.75
476.596	81.75
476.814	79.75
477.033	98.75
477.252	96.75
477.471	92.75
477.69	86.75
477.908	79.75
478.127	79.75
478.346	87.75
478.564	94.75
478.783	78.75
479.002	89.75
479.22	89.75
479.439	94.75
479.658	85.75
479.876	74.75
480.095	82.75
480.313	85.75
480.532	98.75
480.751	84.75
480.969	95.75
481.188	83.75
481.406	91.75
481.624	77.75
481.843	75.75
482.061	83.75
482.28	92.75
482.498	84.75
482.717	86.75
482.935	92.75
483.153	98.75
483.372	91.75
483.59	86.75
483.808	93.75
484.027	97.75
484.245	83.75
484.463	78.75
484.681	84.75
484.9	91.75
485.118	103.75
485.336	87.75
485.554	88.75
485.772	95.75
485.99	87.75
486.209	87.75
486.427	90.75
486.645	93.75
486.863	91.75
487.081	93.75
487.299	76.75
487.517	79.75
487.735	97.75
487.953	92.75
488.171	78.75
488.389	95.75
488.607	91.75
488.825	105.75
489.043	88.75
489.261	78.75
489.479	75.75
489.696	96.75
489.914	101.75
490.132	83.75
490.35	98.75
490.568	91.75
490.786	88.75
491.003	95.75
491.221	88.75
491.439	85.75
491.657	98.75
491.874	100.75
492.092	98.75
492.31	104.75
492.527	104.75
492.745	99.75
492.963	93.75
493.18	106.75
493.398	90.75
493.615	108.75
493.833	93.75
494.05	91.75
494.268	93.75
494.485	90.75
494.703	80.75
494.92	84.75
495.138	74.75
495.355	97.75
495.573	93.75
495.79	98.75
496.008	100.75
496.225	96.75
496.442	98.75
496.66	99.75
496.877	97.75
497.094	111.75
497.312	93.75
497.529	84.75
497.746	92.75
497.963	83.75
498.181	85.75
498.398	98.75
498.615	108.75
498.832	92.75
499.049	96.75
499.267	97.75
499.484	95.75
499.701	91.75
499.918	118.75
500.135	105.75
500.352	96.75
500.569	99.75
500.786	106.75
501.003	114.75
501.22	111.75
501.437	107.75
501.654	98.75
501.871	94.75
502.088	89.75
502.305	90.75
502.522	88.75
502.739	95.75
502.956	95.75
503.172	84.75
503.389	90.75
503.606	87.75
503.823	107.75
504.04	98.75
504.256	84.75
504.473	91.75
504.69	84.75
504.907	87.75
505.123	96.75
505.34	84.75
505.557	116.75
505.773	90.75
505.99	105.75
506.207	100.75
506.423	91.75
506.64	97.75
506.856	81.75
507.073	66.75
507.289	82.75
507.506	85.75
507.722	88.75
507.939	92.75
508.155	97.75
508.372	87.75
508.588	72.75
508.805	86.75
509.021	85.75
509.238	89.75
509.454	85.75
509.67	83.75
509.887	95.75
510.103	100.75
510.319	94.75
510.536	87.75
510.752	86.75
510.968	90.75
511.184	104.75
511.401	75.75
511.617	95.75
511.833	89.75
512.049	80.75
512.265	94.75
512.481	95.75
512.698	92.75
512.914	85.75
513.13	87.75
513.346	94.75
513.562	86.75
513.778	89.75
513.994	85.75
514.21	83.75
514.426	90.75
514.642	101.75
514.858	83.75
515.074	88.75
515.29	110.75
515.506	91.75
515.721	79.75
515.937	83.75
516.153	90.75
516.369	85.75
516.585	96.75
516.801	91.75
517.016	91.75
517.232	84.75
517.448	68.75
517.664	94.75
517.879	81.75
518.095	82.75
518.311	86.75
518.527	95.75
518.742	101.75
518.958	88.75
519.173	89.75
519.389	84.75
519.605	88.75
519.82	81.75
520.036	98.75
520.251	81.75
520.467	87.75
520.682	104.75
520.898	103.75
521.113	87.75
521.329	103.75
521.544	81.75
521.76	86.75
521.975	85.75
522.19	94.75
522.406	83.75
522.621	83.75
522.836	87.75
523.052	83.75
523.267	84.75
523.482	80.75
523.698	90.75
523.913	88.75
524.128	88.75
524.343	86.75
524.559	106.75
524.774	82.75
524.989	96.75
525.204	110.75
525.419	96.75
525.634	90.75
525.849	85.75
526.064	96.75
526.28	100.75
526.495	86.75
526.71	85.75
526.925	87.75
527.14	82.75
527.355	94.75
527.57	90.75
527.785	112.75
527.999	80.75
528.214	92.75
528.429	84.75
528.644	96.75
528.859	94.75
529.074	96.75
529.289	95.75
529.503	90.75
529.718	81.75
529.933	86.75
530.148	90.75
530.363	104.75
530.577	84.75
530.792	90.75
531.007	86.75
531.221	68.75
531.436	86.75
531.651	96.75
531.865	83.75
532.08	89.75
532.295	96.75
532.509	114.75
532.724	68.75
532.938	90.75
533.153	90.75
533.367	86.75
533.582	91.75
533.796	93.75
534.011	80.75
534.225	94.75
534.44	92.75
534.654	92.75
534.868	76.75
535.083	86.75
535.297	90.75
535.511	81.75
535.726	81.75
535.94	85.75
536.154	78.75
536.369	84.75
536.583	83.75
536.797	81.75
537.011	84.75
537.225	84.75
537.44	89.75
537.654	91.75
537.868	66.75
538.082	82.75
538.296	79.75
538.51	95.75
538.724	103.75
538.938	91.75
539.153	84.75
539.367	87.75
539.581	104.75
539.795	99.75
540.009	84.75
540.222	80.75
540.436	84.75
540.65	94.75
540.864	83.75
541.078	80.75
541.292	90.75
541.506	77.75
541.72	91.75
541.934	78.75
542.147	86.75
542.361	83.75
542.575	91.75
542.789	82.75
543.002	90.75
543.216	87.75
543.43	88.75
543.644	90.75
543.857	86.75
544.071	88.75
544.285	90.75
544.498	94.75
544.712	106.75
544.925	80.75
545.139	87.75
545.352	95.75
545.566	90.75
545.779	89.75
545.993	87.75
546.206	75.75
546.42	75.75
546.633	83.75
546.847	81.75
547.06	100.75
547.274	94.75
547.487	88.75
547.7	72.75
547.914	97.75
548.127	86.75
548.34	96.75
548.554	92.75
548.767	101.75
548.98	92.75
549.193	81.75
549.407	90.75
549.62	80.75
549.833	97.75
550.046	99.75
550.259	92.75
550.473	80.75
550.686	88.75
550.899	99.75
551.112	90.75
551.325	80.75
551.538	83.75
551.751	96.75
551.964	84.75
552.177	94.75
552.39	85.75
552.603	89.75
552.816	102.75
553.029	97.75
553.242	95.75
553.455	94.75
553.667	87.75
553.88	84.75
554.093	83.75
554.306	97.75
554.519	81.75
554.732	81.75
554.944	88.75
555.157	80.75
555.37	86.75
555.583	92.75
555.795	106.75
556.008	90.75
556.221	88.75
556.433	74.75
556.646	86.75
556.859	85.75
557.071	78.75
557.284	94.75
557.496	94.75
557.709	102.75
557.921	98.75
558.134	90.75
558.346	91.75
558.559	87.75
558.771	89.75
558.984	92.75
559.196	90.75
559.409	89.75
559.621	91.75
559.833	85.75
560.046	86.75
560.258	80.75
560.47	87.75
560.683	81.75
560.895	76.75
561.107	81.75
561.32	80.75
561.532	78.75
561.744	86.75
561.956	95.75
562.168	90.75
562.381	100.75
562.593	87.75
562.805	90.75
563.017	104.75
563.229	87.75
563.441	82.75
563.653	72.75
563.865	85.75
564.077	95.75
564.289	94.75
564.501	82.75
564.713	88.75
564.925	91.75
565.137	94.75
565.349	73.75
565.561	88.75
565.773	83.75
565.985	79.75
566.197	84.75
566.408	90.75
566.62	98.75
566.832	91.75
567.044	76.75
567.255	98.75
567.467	87.75
567.679	94.75
567.891	84.75
568.102	88.75
568.314	99.75
568.526	98.75
568.737	106.75
568.949	92.75
569.161	79.75
569.372	77.75
569.584	82.75
569.795	77.75
570.007	87.75
570.218	86.75
570.43	79.75
570.641	87.75
570.853	95.75
571.064	92.75
571.276	88.75
571.487	87.75
571.698	93.75
571.91	70.75
572.121	98.75
572.333	90.75
572.544	85.75
572.755	90.75
572.966	79.75
573.178	87.75
573.389	97.75
573.6	88.75
573.811	84.75
574.023	79.75
574.234	88.75
574.445	79.75
574.656	94.75
574.867	87.75
575.078	87.75
575.289	95.75
575.501	90.75
575.712	82.75
575.923	82.75
576.134	83.75
576.345	82.75
576.556	71.75
576.767	69.75
576.978	91.75
577.188	87.75
577.399	90.75
577.61	90.75
577.821	94.75
578.032	89.75
578.243	80.75
578.454	71.75
578.665	72.75
578.875	79.75
579.086	75.75
579.297	80.75
579.508	75.75
579.718	93.75
579.929	94.75
580.14	81.75
580.35	89.75
580.561	86.75
580.772	86.75
580.982	88.75
581.193	85.75
581.403	82.75
581.614	74.75
581.825	71.75
582.035	81.75
582.246	86.75
582.456	91.75
582.667	83.75
582.877	97.75
583.087	92.75
583.298	81.75
583.508	79.75
583.719	85.75
583.929	81.75
584.139	75.75
584.35	70.75
584.56	88.75
584.77	85.75
584.981	87.75
585.191	71.75
585.401	97.75
585.611	83.75
585.821	92.75
586.032	98.75
586.242	67.75
586.452	87.75
586.662	84.75
586.872	91.75
587.082	87.75
587.292	95.75
587.502	81.75
587.713	86.75
587.923	89.75
588.133	80.75
588.343	84.75
588.553	80.75
588.762	89.75
588.972	83.75
589.182	77.75
589.392	76.75
589.602	82.75
589.812	75.75
590.022	86.75
590.232	73.75
590.441	87.75
590.651	90.75
590.861	100.75
591.071	81.75
591.281	70.75
591.49	84.75
591.7	90.75
591.91	79.75
592.119	73.75
592.329	91.75
592.539	74.75
592.748	74.75
592.958	87.75
593.167	87.75
593.377	74.75
593.587	77.75
593.796	80.75
594.006	82.75
594.215	74.75
594.424	94.75
594.634	89.75
594.843	93.75
595.053	86.75
595.262	89.75
595.472	80.75
595.681	74.75
595.89	87.75
596.1	100.75
596.309	105.75
596.518	90.75
596.727	82.75
596.937	86.75
597.146	91.75
597.355	90.75
597.564	90.75
597.774	84.75
597.983	90.75
598.192	79.75
598.401	69.75
598.61	97.75
598.819	94.75
599.028	88.75
599.237	95.75
599.446	75.75
599.655	93.75
599.864	102.75
600.073	84.75
600.282	87.75
600.491	77.75
600.7	93.75
600.909	78.75
601.118	94.75
601.327	82.75
601.536	72.75
601.745	80.75
601.953	85.75
602.162	89.75
602.371	80.75
602.58	91.75
602.789	89.75
602.997	86.75
603.206	85.75
603.415	78.75
603.623	90.75
603.832	91.75
604.041	72.75
604.249	83.75
604.458	72.75
604.666	67.75
604.875	78.75
605.084	94.75
605.292	85.75
605.501	77.75
605.709	78.75
605.918	90.75
606.126	84.75
606.334	87.75
606.543	93.75
606.751	91.75
606.96	88.75
607.168	81.75
607.376	75.75
607.585	87.75
607.793	87.75
608.001	61.75
608.21	84.75
608.418	68.75
608.626	92.75
608.834	74.75
609.043	77.75
609.251	75.75
609.459	82.75
609.667	87.75
609.875	80.75
610.083	86.75
610.291	96.75
610.499	85.75
610.707	89.75
610.916	83.75
611.124	90.75
611.332	91.75
611.54	82.75
611.748	80.75
611.955	76.75
612.163	88.75
612.371	85.75
612.579	90.75
612.787	79.75
612.995	84.75
613.203	81.75
613.411	70.75
613.618	88.75
613.826	73.75
614.034	86.75
614.242	69.75
614.449	89.75
614.657	87.75
614.865	81.75
615.072	78.75
615.28	97.75
615.488	91.75
615.695	82.75
615.903	86.75
616.111	72.75
616.318	90.75
616.526	93.75
616.733	68.75
616.941	84.75
617.148	74.75
617.356	71.75
617.563	79.75
617.771	89.75
617.978	83.75
618.185	84.75
618.393	73.75
618.6	95.75
618.807	90.75
619.015	97.75
619.222	88.75
619.429	82.75
619.637	75.75
619.844	81.75
620.051	83.75
620.258	71.75
620.466	86.75
620.673	79.75
620.88	74.75
621.087	87.75
621.294	93.75
621.501	82.75
621.708	93.75
621.915	75.75
622.122	85.75
622.329	94.75
622.536	92.75
622.743	97.75
622.95	76.75
623.157	90.75
623.364	90.75
623.571	94.75
623.778	82.75
623.985	83.75
624.192	71.75
624.399	89.75
624.606	96.75
624.812	74.75
625.019	74.75
625.226	83.75
625.433	73.75
625.639	76.75
625.846	87.75
626.053	85.75
626.259	77.75
626.466	94.75
626.673	87.75
626.879	75.75
627.086	71.75
627.293	75.75
627.499	78.75
627.706	87.75
627.912	86.75
628.119	79.75
628.325	75.75
628.532	79.75
628.738	81.75
628.945	95.75
629.151	76.75
629.357	68.75
629.564	75.75
629.77	84.75
629.976	77.75
630.183	71.75
630.389	74.75
630.595	66.75
630.802	76.75
631.008	70.75
631.214	94.75
631.42	76.75
631.627	79.75
631.833	81.75
632.039	92.75
632.245	78.75
632.451	84.75
632.657	86.75
632.863	87.75
633.069	84.75
633.275	105.75
633.481	104.75
633.688	90.75
633.893	82.75
634.099	83.75
634.305	72.75
634.511	85.75
634.717	72.75
634.923	86.75
635.129	85.75
635.335	91.75
635.541	82.75
635.747	72.75
635.952	68.75
636.158	92.75
636.364	91.75
636.57	75.75
636.775	70.75
636.981	89.75
637.187	78.75
637.392	79.75
637.598	89.75
637.804	76.75
638.009	86.75
638.215	85.75
638.421	92.75
638.626	70.75
638.832	86.75
639.037	84.75
639.243	78.75
639.448	75.75
639.654	82.75
639.859	92.75
640.065	77.75
640.27	89.75
640.475	74.75
640.681	94.75
640.886	94.75
641.091	90.75
641.297	80.75
641.502	86.75
641.707	74.75
641.913	76.75
642.118	87.75
642.323	90.75
642.528	90.75
642.733	71.75
642.939	86.75
643.144	78.75
643.349	83.75
643.554	72.75
643.759	89.75
643.964	97.75
644.169	75.75
644.374	80.75
644.579	79.75
644.784	71.75
644.989	84.75
645.194	85.75
645.399	82.75
645.604	91.75
645.809	82.75
646.014	81.75
646.219	87.75
646.423	78.75
646.628	95.75
646.833	80.75
647.038	99.75
647.243	71.75
647.447	75.75
647.652	88.75
647.857	91.75
648.062	90.75
648.266	92.75
648.471	74.75
648.676	83.75
648.88	82.75
649.085	89.75
649.289	77.75
649.494	82.75
649.698	82.75
649.903	63.75
650.107	76.75
650.312	78.75
650.516	82.75
650.721	83.75
650.925	71.75
651.13	89.75
651.334	94.75
651.539	87.75
651.743	90.75
651.947	91.75
652.152	78.75
652.356	88.75
652.56	79.75
652.764	84.75
652.969	83.75
653.173	85.75
653.377	65.75
653.581	94.75
653.785	90.75
653.99	76.75
654.194	80.75
654.398	82.75
654.602	61.75
654.806	71.75
655.01	91.75
655.214	74.75
655.418	81.75
655.622	82.75
655.826	70.75
656.03	74.75
656.234	73.75
656.438	86.75
656.642	79.75
656.846	84.75
657.049	74.75
657.253	92.75
657.457	75.75
657.661	87.75
657.865	88.75
658.068	87.75
658.272	74.75
658.476	83.75
658.68	80.75
658.883	95.75
659.087	71.75
659.291	102.75
659.494	82.75
659.698	80.75
659.901	72.75
660.105	60.75
660.309	79.75
660.512	77.75
660.716	87.75
660.919	90.75
661.123	91.75
661.326	72.75
661.53	69.75
661.733	84.75
661.936	81.75
662.14	89.75
662.343	79.75
662.546	75.75
662.75	90.75
662.953	85.75
663.156	76.75
663.36	84.75
663.563	81.75
663.766	82.75
663.969	83.75
664.173	79.75
664.376	87.75
664.579	86.75
664.782	72.75
664.985	83.75
665.188	78.75
665.391	87.75
665.594	82.75
665.797	82.75
666	71.75
666.203	84.75
666.406	82.75
666.609	74.75
666.812	82.75
667.015	83.75
667.218	87.75
667.421	89.75
667.624	83.75
667.827	80.75
668.03	77.75
668.232	81.75
668.435	79.75
668.638	75.75
668.841	76.75
669.043	80.75
669.246	76.75
669.449	81.75
669.651	85.75
669.854	81.75
670.057	75.75
670.259	92.75
670.462	81.75
670.665	84.75
670.867	88.75
671.07	76.75
671.272	90.75
671.475	97.75
671.677	80.75
671.88	77.75
672.082	77.75
672.284	75.75
672.487	81.75
672.689	73.75
672.892	72.75
