Data from Ni(NO3)2@0.5M.TitratingCurve.Agarose3%dH2O.NegLispCup.LampEnergy10.LIBS07252019_HRD10591_17-59-28-564.txt Node
Date: Thu Jul 25 17:59:28 EDT 2019
User: cochatt
Spectrometer: HR+D1059
Trigger mode: 1
Integration Time (sec): 1.000000E-1
Scans to average: 1
Electric dark correction enabled: true
Nonlinearity correction enabled: false
Boxcar width: 0
XAxis mode: Wavelengths
Number of Pixels in Spectrum: 2048
>>>>>Begin Spectral Data<<<<<
223.165	-11.75
223.4	-11.75
223.635	-11.75
223.869	-18.75
224.104	-26.75
224.338	-9.75
224.573	-10.75
224.808	-4.75
225.042	-2.75
225.277	-7.75
225.511	-6.75
225.746	-1.75
225.98	7.25
226.215	17.25
226.449	16.25
226.683	20.25
226.918	19.25
227.152	21.25
227.387	33.25
227.621	37.25
227.856	52.25
228.09	43.25
228.324	52.25
228.559	55.25
228.793	86.25
229.027	128.25
229.262	163.25
229.496	141.25
229.73	166.25
229.964	204.25
230.199	229.25
230.433	227.25
230.667	222.25
230.901	191.25
231.136	175.25
231.37	173.25
231.604	205.25
231.838	226.25
232.072	242.25
232.306	222.25
232.541	203.25
232.775	182.25
233.009	192.25
233.243	178.25
233.477	167.25
233.711	170.25
233.945	185.25
234.179	180.25
234.413	182.25
234.647	192.25
234.881	206.25
235.115	194.25
235.349	163.25
235.583	168.25
235.817	181.25
236.051	184.25
236.285	167.25
236.519	188.25
236.753	176.25
236.987	164.25
237.221	197.25
237.455	182.25
237.689	193.25
237.922	180.25
238.156	195.25
238.39	204.25
238.624	173.25
238.858	190.25
239.091	194.25
239.325	220.25
239.559	224.25
239.793	243.25
240.027	238.25
240.26	215.25
240.494	205.25
240.728	214.25
240.961	206.25
241.195	228.25
241.429	213.25
241.662	233.25
241.896	261.25
242.13	266.25
242.363	224.25
242.597	197.25
242.83	215.25
243.064	214.25
243.298	221.25
243.531	218.25
243.765	219.25
243.998	238.25
244.232	262.25
244.465	235.25
244.699	231.25
244.932	269.25
245.166	244.25
245.399	227.25
245.633	243.25
245.866	234.25
246.099	254.25
246.333	256.25
246.566	223.25
246.8	248.25
247.033	264.25
247.266	247.25
247.5	256.25
247.733	264.25
247.966	244.25
248.2	269.25
248.433	263.25
248.666	269.25
248.899	291.25
249.133	253.25
249.366	276.25
249.599	264.25
249.832	282.25
250.066	284.25
250.299	269.25
250.532	297.25
250.765	288.25
250.998	311.25
251.231	326.25
251.465	318.25
251.698	333.25
251.931	306.25
252.164	308.25
252.397	291.25
252.63	311.25
252.863	317.25
253.096	302.25
253.329	302.25
253.562	318.25
253.795	310.25
254.028	317.25
254.261	337.25
254.494	312.25
254.727	324.25
254.96	333.25
255.193	334.25
255.426	341.25
255.659	313.25
255.892	328.25
256.124	330.25
256.357	341.25
256.59	343.25
256.823	342.25
257.056	334.25
257.289	341.25
257.521	342.25
257.754	340.25
257.987	358.25
258.22	362.25
258.452	360.25
258.685	364.25
258.918	363.25
259.151	358.25
259.383	374.25
259.616	373.25
259.849	361.25
260.081	378.25
260.314	358.25
260.547	382.25
260.779	377.25
261.012	388.25
261.244	376.25
261.477	384.25
261.71	389.25
261.942	373.25
262.175	372.25
262.407	389.25
262.64	385.25
262.872	398.25
263.105	395.25
263.337	408.25
263.57	403.25
263.802	400.25
264.035	401.25
264.267	393.25
264.499	394.25
264.732	408.25
264.964	417.25
265.197	412.25
265.429	415.25
265.661	418.25
265.894	408.25
266.126	420.25
266.358	431.25
266.591	434.25
266.823	433.25
267.055	415.25
267.287	425.25
267.52	432.25
267.752	436.25
267.984	445.25
268.216	436.25
268.448	452.25
268.681	420.25
268.913	451.25
269.145	440.25
269.377	449.25
269.609	429.25
269.841	444.25
270.073	461.25
270.306	468.25
270.538	448.25
270.77	455.25
271.002	462.25
271.234	481.25
271.466	452.25
271.698	455.25
271.93	468.25
272.162	459.25
272.394	477.25
272.626	467.25
272.858	478.25
273.09	475.25
273.322	444.25
273.553	467.25
273.785	489.25
274.017	467.25
274.249	461.25
274.481	482.25
274.713	488.25
274.945	507.25
275.176	492.25
275.408	494.25
275.64	489.25
275.872	512.25
276.104	522.25
276.335	488.25
276.567	500.25
276.799	538.25
277.031	507.25
277.262	519.25
277.494	502.25
277.726	508.25
277.957	518.25
278.189	506.25
278.421	515.25
278.652	517.25
278.884	498.25
279.115	531.25
279.347	540.25
279.579	526.25
279.81	533.25
280.042	540.25
280.273	522.25
280.505	548.25
280.736	534.25
280.968	546.25
281.199	545.25
281.431	562.25
281.662	563.25
281.894	565.25
282.125	554.25
282.356	553.25
282.588	566.25
282.819	564.25
283.051	569.25
283.282	575.25
283.513	581.25
283.745	542.25
283.976	549.25
284.207	565.25
284.439	585.25
284.67	596.25
284.901	588.25
285.132	578.25
285.364	583.25
285.595	582.25
285.826	578.25
286.057	572.25
286.288	583.25
286.52	582.25
286.751	588.25
286.982	584.25
287.213	595.25
287.444	576.25
287.675	604.25
287.906	601.25
288.138	617.25
288.369	616.25
288.6	603.25
288.831	608.25
289.062	591.25
289.293	609.25
289.524	608.25
289.755	618.25
289.986	595.25
290.217	606.25
290.448	627.25
290.679	626.25
290.91	625.25
291.141	588.25
291.371	618.25
291.602	603.25
291.833	587.25
292.064	616.25
292.295	630.25
292.526	604.25
292.757	631.25
292.987	626.25
293.218	618.25
293.449	624.25
293.68	610.25
293.91	639.25
294.141	652.25
294.372	621.25
294.603	638.25
294.833	640.25
295.064	636.25
295.295	623.25
295.525	619.25
295.756	622.25
295.987	633.25
296.217	630.25
296.448	648.25
296.679	657.25
296.909	648.25
297.14	660.25
297.37	649.25
297.601	644.25
297.831	625.25
298.062	652.25
298.292	666.25
298.523	683.25
298.753	657.25
298.984	642.25
299.214	675.25
299.445	667.25
299.675	680.25
299.905	671.25
300.136	707.25
300.366	738.25
300.597	750.25
300.827	716.25
301.057	736.25
301.288	705.25
301.518	726.25
301.748	708.25
301.979	710.25
302.209	705.25
302.439	674.25
302.669	688.25
302.9	703.25
303.13	685.25
303.36	724.25
303.59	704.25
303.82	742.25
304.051	720.25
304.281	734.25
304.511	721.25
304.741	716.25
304.971	736.25
305.201	742.25
305.431	764.25
305.661	756.25
305.891	735.25
306.121	738.25
306.352	736.25
306.582	708.25
306.812	724.25
307.042	690.25
307.272	726.25
307.502	712.25
307.731	717.25
307.961	702.25
308.191	720.25
308.421	713.25
308.651	723.25
308.881	711.25
309.111	702.25
309.341	728.25
309.571	727.25
309.8	730.25
310.03	776.25
310.26	796.25
310.49	792.25
310.72	761.25
310.949	739.25
311.179	744.25
311.409	756.25
311.639	722.25
311.868	780.25
312.098	759.25
312.328	737.25
312.557	752.25
312.787	761.25
313.017	757.25
313.246	778.25
313.476	804.25
313.706	799.25
313.935	781.25
314.165	797.25
314.394	780.25
314.624	770.25
314.853	757.25
315.083	774.25
315.312	768.25
315.542	785.25
315.771	773.25
316.001	780.25
316.23	798.25
316.46	787.25
316.689	802.25
316.919	795.25
317.148	812.25
317.377	778.25
317.607	798.25
317.836	766.25
318.065	793.25
318.295	816.25
318.524	797.25
318.753	772.25
318.983	803.25
319.212	830.25
319.441	834.25
319.67	805.25
319.9	797.25
320.129	824.25
320.358	802.25
320.587	814.25
320.816	807.25
321.046	809.25
321.275	850.25
321.504	837.25
321.733	833.25
321.962	852.25
322.191	838.25
322.42	834.25
322.649	826.25
322.878	853.25
323.108	850.25
323.337	864.25
323.566	833.25
323.795	873.25
324.024	846.25
324.253	857.25
324.482	857.25
324.71	876.25
324.939	854.25
325.168	877.25
325.397	850.25
325.626	862.25
325.855	865.25
326.084	873.25
326.313	872.25
326.542	882.25
326.77	884.25
326.999	901.25
327.228	889.25
327.457	877.25
327.686	875.25
327.914	888.25
328.143	901.25
328.372	889.25
328.6	882.25
328.829	876.25
329.058	901.25
329.287	897.25
329.515	905.25
329.744	893.25
329.972	909.25
330.201	925.25
330.43	936.25
330.658	912.25
330.887	919.25
331.115	933.25
331.344	972.25
331.572	938.25
331.801	974.25
332.03	961.25
332.258	979.25
332.486	972.25
332.715	1003.25
332.943	964.25
333.172	1012.25
333.4	975.25
333.629	1011.25
333.857	1028.25
334.085	1020.25
334.314	1033.25
334.542	1059.25
334.771	1040.25
334.999	1019.25
335.227	1041.25
335.455	1057.25
335.684	1056.25
335.912	1049.25
336.14	1022.25
336.369	1053.25
336.597	1040.25
336.825	1051.25
337.053	1061.25
337.281	1074.25
337.51	1032.25
337.738	1038.25
337.966	1037.25
338.194	1046.25
338.422	1007.25
338.65	1000.25
338.878	981.25
339.106	1021.25
339.334	1037.25
339.562	1011.25
339.79	1022.25
340.018	989.25
340.246	967.25
340.474	965.25
340.702	967.25
340.93	996.25
341.158	1008.25
341.386	1024.25
341.614	1058.25
341.842	1036.25
342.07	964.25
342.298	972.25
342.526	979.25
342.754	958.25
342.981	974.25
343.209	982.25
343.437	1039.25
343.665	1029.25
343.893	1043.25
344.12	1063.25
344.348	1042.25
344.576	1063.25
344.804	1053.25
345.031	1001.25
345.259	997.25
345.487	1027.25
345.714	1031.25
345.942	1033.25
346.17	1066.25
346.397	1033.25
346.625	979.25
346.853	933.25
347.08	934.25
347.308	967.25
347.535	946.25
347.763	941.25
347.99	950.25
348.218	948.25
348.445	930.25
348.673	947.25
348.9	894.25
349.128	971.25
349.355	997.25
349.583	998.25
349.81	948.25
350.037	923.25
350.265	901.25
350.492	904.25
350.72	942.25
350.947	923.25
351.174	990.25
351.402	976.25
351.629	1010.25
351.856	968.25
352.083	935.25
352.311	978.25
352.538	1046.25
352.765	1017.25
352.992	898.25
353.22	947.25
353.447	902.25
353.674	915.25
353.901	950.25
354.128	917.25
354.355	908.25
354.583	887.25
354.81	913.25
355.037	930.25
355.264	913.25
355.491	909.25
355.718	884.25
355.945	916.25
356.172	905.25
356.399	914.25
356.626	921.25
356.853	956.25
357.08	941.25
357.307	920.25
357.534	911.25
357.761	933.25
357.988	915.25
358.215	905.25
358.441	908.25
358.668	894.25
358.895	910.25
359.122	915.25
359.349	914.25
359.576	933.25
359.802	924.25
360.029	906.25
360.256	879.25
360.483	916.25
360.709	906.25
360.936	934.25
361.163	934.25
361.39	896.25
361.616	932.25
361.843	1003.25
362.07	1000.25
362.296	987.25
362.523	936.25
362.749	945.25
362.976	929.25
363.203	933.25
363.429	901.25
363.656	911.25
363.882	893.25
364.109	930.25
364.335	921.25
364.562	919.25
364.788	928.25
365.015	916.25
365.241	948.25
365.468	917.25
365.694	907.25
365.92	933.25
366.147	923.25
366.373	932.25
366.599	922.25
366.826	940.25
367.052	937.25
367.278	909.25
367.505	930.25
367.731	950.25
367.957	910.25
368.184	954.25
368.41	947.25
368.636	937.25
368.862	957.25
369.089	932.25
369.315	961.25
369.541	946.25
369.767	956.25
369.993	958.25
370.219	963.25
370.445	973.25
370.672	934.25
370.898	987.25
371.124	972.25
371.35	979.25
371.576	985.25
371.802	995.25
372.028	985.25
372.254	987.25
372.48	996.25
372.706	976.25
372.932	986.25
373.158	997.25
373.384	967.25
373.61	981.25
373.835	977.25
374.061	1001.25
374.287	1017.25
374.513	1013.25
374.739	1001.25
374.965	1008.25
375.191	1046.25
375.416	1013.25
375.642	1026.25
375.868	1026.25
376.094	1003.25
376.319	977.25
376.545	974.25
376.771	984.25
376.997	960.25
377.222	967.25
377.448	965.25
377.674	993.25
377.899	986.25
378.125	977.25
378.35	969.25
378.576	967.25
378.802	1005.25
379.027	969.25
379.253	987.25
379.478	978.25
379.704	966.25
379.929	981.25
380.155	992.25
380.38	930.25
380.606	954.25
380.831	996.25
381.057	1015.25
381.282	958.25
381.507	987.25
381.733	992.25
381.958	993.25
382.184	986.25
382.409	993.25
382.634	981.25
382.86	985.25
383.085	1033.25
383.31	1002.25
383.535	1036.25
383.761	1018.25
383.986	1017.25
384.211	1025.25
384.436	1050.25
384.662	1031.25
384.887	1085.25
385.112	1057.25
385.337	1058.25
385.562	1059.25
385.787	1092.25
386.013	1140.25
386.238	1078.25
386.463	1101.25
386.688	1132.25
386.913	1106.25
387.138	1122.25
387.363	1101.25
387.588	1088.25
387.813	1126.25
388.038	1078.25
388.263	1112.25
388.488	1137.25
388.713	1128.25
388.938	1095.25
389.163	1109.25
389.387	1120.25
389.612	1116.25
389.837	1097.25
390.062	1099.25
390.287	1109.25
390.512	1097.25
390.736	1133.25
390.961	1145.25
391.186	1133.25
391.411	1112.25
391.636	1141.25
391.86	1188.25
392.085	1170.25
392.31	1154.25
392.534	1158.25
392.759	1186.25
392.984	1176.25
393.208	1166.25
393.433	1146.25
393.658	1172.25
393.882	1172.25
394.107	1140.25
394.331	1153.25
394.556	1128.25
394.78	1159.25
395.005	1161.25
395.229	1161.25
395.454	1204.25
395.678	1184.25
395.903	1192.25
396.127	1191.25
396.352	1194.25
396.576	1148.25
396.801	1163.25
397.025	1212.25
397.249	1197.25
397.474	1224.25
397.698	1228.25
397.922	1248.25
398.147	1260.25
398.371	1250.25
398.595	1282.25
398.82	1316.25
399.044	1354.25
399.268	1406.25
399.492	1462.25
399.717	1513.25
399.941	1501.25
400.165	1466.25
400.389	1460.25
400.613	1420.25
400.837	1357.25
401.062	1319.25
401.286	1304.25
401.51	1334.25
401.734	1314.25
401.958	1320.25
402.182	1306.25
402.406	1286.25
402.63	1319.25
402.854	1334.25
403.078	1285.25
403.302	1303.25
403.526	1292.25
403.75	1319.25
403.974	1332.25
404.198	1332.25
404.422	1353.25
404.645	1332.25
404.869	1318.25
405.093	1370.25
405.317	1329.25
405.541	1360.25
405.765	1352.25
405.988	1347.25
406.212	1394.25
406.436	1396.25
406.66	1397.25
406.883	1422.25
407.107	1474.25
407.331	1472.25
407.555	1566.25
407.778	1512.25
408.002	1478.25
408.226	1505.25
408.449	1497.25
408.673	1486.25
408.896	1438.25
409.12	1437.25
409.344	1445.25
409.567	1396.25
409.791	1421.25
410.014	1417.25
410.238	1365.25
410.461	1384.25
410.685	1364.25
410.908	1398.25
411.132	1398.25
411.355	1339.25
411.578	1362.25
411.802	1366.25
412.025	1337.25
412.249	1387.25
412.472	1405.25
412.695	1337.25
412.919	1349.25
413.142	1353.25
413.365	1348.25
413.589	1341.25
413.812	1330.25
414.035	1308.25
414.258	1340.25
414.482	1330.25
414.705	1330.25
414.928	1295.25
415.151	1325.25
415.374	1306.25
415.597	1341.25
415.821	1272.25
416.044	1252.25
416.267	1280.25
416.49	1276.25
416.713	1255.25
416.936	1267.25
417.159	1267.25
417.382	1261.25
417.605	1264.25
417.828	1251.25
418.051	1273.25
418.274	1313.25
418.497	1237.25
418.72	1283.25
418.943	1225.25
419.166	1308.25
419.389	1404.25
419.611	1362.25
419.834	1309.25
420.057	1302.25
420.28	1253.25
420.503	1229.25
420.726	1258.25
420.948	1235.25
421.171	1255.25
421.394	1236.25
421.617	1253.25
421.839	1280.25
422.062	1256.25
422.285	1224.25
422.507	1267.25
422.73	1241.25
422.953	1260.25
423.175	1245.25
423.398	1249.25
423.621	1229.25
423.843	1252.25
424.066	1248.25
424.288	1235.25
424.511	1216.25
424.733	1248.25
424.956	1253.25
425.178	1255.25
425.401	1244.25
425.623	1269.25
425.846	1241.25
426.068	1212.25
426.291	1237.25
426.513	1233.25
426.735	1210.25
426.958	1216.25
427.18	1238.25
427.402	1197.25
427.625	1227.25
427.847	1174.25
428.069	1187.25
428.292	1213.25
428.514	1202.25
428.736	1199.25
428.958	1216.25
429.181	1172.25
429.403	1165.25
429.625	1176.25
429.847	1198.25
430.069	1200.25
430.292	1197.25
430.514	1186.25
430.736	1232.25
430.958	1206.25
431.18	1212.25
431.402	1213.25
431.624	1213.25
431.846	1170.25
432.068	1176.25
432.29	1213.25
432.512	1233.25
432.734	1216.25
432.956	1227.25
433.178	1238.25
433.4	1280.25
433.622	1302.25
433.844	1266.25
434.066	1295.25
434.287	1250.25
434.509	1258.25
434.731	1242.25
434.953	1288.25
435.175	1314.25
435.397	1377.25
435.618	1250.25
435.84	1253.25
436.062	1215.25
436.284	1206.25
436.505	1213.25
436.727	1229.25
436.949	1204.25
437.17	1232.25
437.392	1225.25
437.614	1168.25
437.835	1168.25
438.057	1157.25
438.278	1145.25
438.5	1191.25
438.721	1165.25
438.943	1179.25
439.165	1158.25
439.386	1163.25
439.608	1212.25
439.829	1201.25
440.05	1204.25
440.272	1212.25
440.493	1197.25
440.715	1243.25
440.936	1216.25
441.158	1250.25
441.379	1225.25
441.6	1289.25
441.822	1278.25
442.043	1293.25
442.264	1255.25
442.486	1257.25
442.707	1254.25
442.928	1269.25
443.149	1228.25
443.371	1318.25
443.592	1395.25
443.813	1340.25
444.034	1260.25
444.255	1304.25
444.476	1304.25
444.698	1317.25
444.919	1401.25
445.14	1466.25
445.361	1388.25
445.582	1321.25
445.803	1267.25
446.024	1228.25
446.245	1287.25
446.466	1216.25
446.687	1171.25
446.908	1167.25
447.129	1188.25
447.35	1159.25
447.571	1160.25
447.792	1157.25
448.013	1149.25
448.234	1086.25
448.455	1135.25
448.675	1107.25
448.896	1076.25
449.117	1096.25
449.338	1102.25
449.559	1098.25
449.779	1096.25
450	1113.25
450.221	1067.25
450.442	1096.25
450.662	1076.25
450.883	1125.25
451.104	1169.25
451.324	1102.25
451.545	1101.25
451.766	1086.25
451.986	1086.25
452.207	1031.25
452.428	1064.25
452.648	1109.25
452.869	1047.25
453.089	1084.25
453.31	1105.25
453.53	1044.25
453.751	1072.25
453.971	1066.25
454.192	1105.25
454.412	1107.25
454.633	1074.25
454.853	1047.25
455.073	1056.25
455.294	1056.25
455.514	1085.25
455.734	1108.25
455.955	1104.25
456.175	1114.25
456.395	1083.25
456.616	1059.25
456.836	1052.25
457.056	1041.25
457.276	1036.25
457.497	1084.25
457.717	1114.25
457.937	1109.25
458.157	1099.25
458.377	1045.25
458.598	1132.25
458.818	1124.25
459.038	1123.25
459.258	1162.25
459.478	1254.25
459.698	1385.25
459.918	1389.25
460.138	1344.25
460.358	1312.25
460.578	1328.25
460.798	1398.25
461.018	1369.25
461.238	1314.25
461.458	1285.25
461.678	1251.25
461.898	1317.25
462.118	1330.25
462.338	1356.25
462.558	1385.25
462.777	1462.25
462.997	1480.25
463.217	1546.25
463.437	1592.25
463.657	1551.25
463.876	1463.25
464.096	1474.25
464.316	1409.25
464.536	1405.25
464.755	1388.25
464.975	1367.25
465.195	1282.25
465.414	1322.25
465.634	1286.25
465.854	1226.25
466.073	1229.25
466.293	1202.25
466.512	1197.25
466.732	1139.25
466.951	1178.25
467.171	1165.25
467.391	1192.25
467.61	1177.25
467.829	1182.25
468.049	1148.25
468.268	1144.25
468.488	1149.25
468.707	1139.25
468.927	1152.25
469.146	1137.25
469.365	1192.25
469.585	1150.25
469.804	1146.25
470.023	1161.25
470.243	1164.25
470.462	1172.25
470.681	1157.25
470.901	1140.25
471.12	1125.25
471.339	1154.25
471.558	1153.25
471.777	1158.25
471.997	1150.25
472.216	1132.25
472.435	1120.25
472.654	1161.25
472.873	1112.25
473.092	1147.25
473.311	1133.25
473.53	1162.25
473.749	1122.25
473.968	1163.25
474.187	1129.25
474.406	1099.25
474.625	1152.25
474.844	1178.25
475.063	1147.25
475.282	1174.25
475.501	1175.25
475.72	1175.25
475.939	1181.25
476.158	1217.25
476.377	1188.25
476.596	1211.25
476.814	1219.25
477.033	1172.25
477.252	1249.25
477.471	1247.25
477.69	1255.25
477.908	1258.25
478.127	1302.25
478.346	1292.25
478.564	1287.25
478.783	1365.25
479.002	1411.25
479.22	1452.25
479.439	1382.25
479.658	1369.25
479.876	1378.25
480.095	1378.25
480.313	1390.25
480.532	1409.25
480.751	1408.25
480.969	1390.25
481.188	1384.25
481.406	1361.25
481.624	1391.25
481.843	1343.25
482.061	1386.25
482.28	1367.25
482.498	1370.25
482.717	1356.25
482.935	1388.25
483.153	1401.25
483.372	1440.25
483.59	1475.25
483.808	1446.25
484.027	1386.25
484.245	1379.25
484.463	1390.25
484.681	1411.25
484.9	1414.25
485.118	1409.25
485.336	1421.25
485.554	1444.25
485.772	1411.25
485.99	1387.25
486.209	1404.25
486.427	1396.25
486.645	1416.25
486.863	1423.25
487.081	1457.25
487.299	1428.25
487.517	1447.25
487.735	1470.25
487.953	1468.25
488.171	1428.25
488.389	1397.25
488.607	1441.25
488.825	1436.25
489.043	1399.25
489.261	1382.25
489.479	1403.25
489.696	1432.25
489.914	1428.25
490.132	1437.25
490.35	1416.25
490.568	1411.25
490.786	1429.25
491.003	1432.25
491.221	1446.25
491.439	1420.25
491.657	1437.25
491.874	1448.25
492.092	1444.25
492.31	1455.25
492.527	1486.25
492.745	1457.25
492.963	1448.25
493.18	1472.25
493.398	1430.25
493.615	1453.25
493.833	1429.25
494.05	1451.25
494.268	1448.25
494.485	1451.25
494.703	1477.25
494.92	1484.25
495.138	1480.25
495.355	1485.25
495.573	1487.25
495.79	1515.25
496.008	1504.25
496.225	1526.25
496.442	1496.25
496.66	1537.25
496.877	1566.25
497.094	1565.25
497.312	1594.25
497.529	1606.25
497.746	1577.25
497.963	1658.25
498.181	1741.25
498.398	1743.25
498.615	1811.25
498.832	1832.25
499.049	1900.25
499.267	1964.25
499.484	2005.25
499.701	2181.25
499.918	2258.25
500.135	2388.25
500.352	2489.25
500.569	2468.25
500.786	2496.25
501.003	2430.25
501.22	2371.25
501.437	2271.25
501.654	2117.25
501.871	2039.25
502.088	1926.25
502.305	1900.25
502.522	1870.25
502.739	1763.25
502.956	1724.25
503.172	1666.25
503.389	1638.25
503.606	1661.25
503.823	1594.25
504.04	1555.25
504.256	1526.25
504.473	1561.25
504.69	1520.25
504.907	1542.25
505.123	1451.25
505.34	1445.25
505.557	1382.25
505.773	1380.25
505.99	1365.25
506.207	1350.25
506.423	1342.25
506.64	1318.25
506.856	1333.25
507.073	1300.25
507.289	1258.25
507.506	1312.25
507.722	1290.25
507.939	1277.25
508.155	1257.25
508.372	1250.25
508.588	1232.25
508.805	1212.25
509.021	1180.25
509.238	1193.25
509.454	1181.25
509.67	1194.25
509.887	1189.25
510.103	1168.25
510.319	1184.25
510.536	1169.25
510.752	1160.25
510.968	1138.25
511.184	1130.25
511.401	1165.25
511.617	1172.25
511.833	1176.25
512.049	1150.25
512.265	1162.25
512.481	1153.25
512.698	1150.25
512.914	1155.25
513.13	1150.25
513.346	1141.25
513.562	1106.25
513.778	1154.25
513.994	1159.25
514.21	1154.25
514.426	1159.25
514.642	1151.25
514.858	1172.25
515.074	1187.25
515.29	1182.25
515.506	1162.25
515.721	1164.25
515.937	1182.25
516.153	1214.25
516.369	1205.25
516.585	1220.25
516.801	1219.25
517.016	1242.25
517.232	1282.25
517.448	1284.25
517.664	1291.25
517.879	1286.25
518.095	1276.25
518.311	1312.25
518.527	1236.25
518.742	1222.25
518.958	1188.25
519.173	1182.25
519.389	1180.25
519.605	1182.25
519.82	1157.25
520.036	1160.25
520.251	1128.25
520.467	1122.25
520.682	1148.25
520.898	1097.25
521.113	1120.25
521.329	1114.25
521.544	1093.25
521.76	1079.25
521.975	1073.25
522.19	1080.25
522.406	1074.25
522.621	1051.25
522.836	1054.25
523.052	1032.25
523.267	1080.25
523.482	1081.25
523.698	1035.25
523.913	1015.25
524.128	1030.25
524.343	1035.25
524.559	1054.25
524.774	1032.25
524.989	1040.25
525.204	1017.25
525.419	1008.25
525.634	1040.25
525.849	999.25
526.064	985.25
526.28	1003.25
526.495	1010.25
526.71	990.25
526.925	986.25
527.14	1028.25
527.355	993.25
527.57	1007.25
527.785	1033.25
527.999	1028.25
528.214	1025.25
528.429	999.25
528.644	998.25
528.859	1001.25
529.074	983.25
529.289	1021.25
529.503	1009.25
529.718	978.25
529.933	978.25
530.148	985.25
530.363	979.25
530.577	985.25
530.792	957.25
531.007	992.25
531.221	995.25
531.436	983.25
531.651	983.25
531.865	974.25
532.08	983.25
532.295	992.25
532.509	948.25
532.724	971.25
532.938	995.25
533.153	975.25
533.367	938.25
533.582	977.25
533.796	964.25
534.011	944.25
534.225	961.25
534.44	966.25
534.654	910.25
534.868	932.25
535.083	956.25
535.297	981.25
535.511	944.25
535.726	928.25
535.94	944.25
536.154	937.25
536.369	894.25
536.583	928.25
536.797	901.25
537.011	918.25
537.225	902.25
537.44	940.25
537.654	926.25
537.868	913.25
538.082	893.25
538.296	903.25
538.51	891.25
538.724	896.25
538.938	918.25
539.153	891.25
539.367	914.25
539.581	908.25
539.795	885.25
540.009	896.25
540.222	870.25
540.436	899.25
540.65	887.25
540.864	864.25
541.078	913.25
541.292	874.25
541.506	885.25
541.72	902.25
541.934	913.25
542.147	881.25
542.361	853.25
542.575	870.25
542.789	861.25
543.002	877.25
543.216	871.25
543.43	849.25
543.644	884.25
543.857	860.25
544.071	899.25
544.285	877.25
544.498	881.25
544.712	873.25
544.925	881.25
545.139	877.25
545.352	874.25
545.566	876.25
545.779	888.25
545.993	904.25
546.206	889.25
546.42	889.25
546.633	884.25
546.847	893.25
547.06	893.25
547.274	868.25
547.487	869.25
547.7	893.25
547.914	894.25
548.127	881.25
548.34	887.25
548.554	873.25
548.767	867.25
548.98	902.25
549.193	888.25
549.407	867.25
549.62	888.25
549.833	880.25
550.046	855.25
550.259	884.25
550.473	872.25
550.686	866.25
550.899	876.25
551.112	870.25
551.325	859.25
551.538	860.25
551.751	880.25
551.964	859.25
552.177	882.25
552.39	858.25
552.603	858.25
552.816	864.25
553.029	878.25
553.242	889.25
553.455	894.25
553.667	899.25
553.88	855.25
554.093	850.25
554.306	852.25
554.519	836.25
554.732	831.25
554.944	818.25
555.157	829.25
555.37	825.25
555.583	825.25
555.795	791.25
556.008	786.25
556.221	784.25
556.433	776.25
556.646	786.25
556.859	805.25
557.071	774.25
557.284	758.25
557.496	763.25
557.709	768.25
557.921	748.25
558.134	740.25
558.346	783.25
558.559	766.25
558.771	729.25
558.984	748.25
559.196	737.25
559.409	731.25
559.621	757.25
559.833	761.25
560.046	728.25
560.258	738.25
560.47	756.25
560.683	723.25
560.895	723.25
561.107	708.25
561.32	729.25
561.532	740.25
561.744	752.25
561.956	723.25
562.168	719.25
562.381	746.25
562.593	727.25
562.805	749.25
563.017	765.25
563.229	745.25
563.441	749.25
563.653	757.25
563.865	746.25
564.077	772.25
564.289	756.25
564.501	777.25
564.713	778.25
564.925	748.25
565.137	774.25
565.349	802.25
565.561	797.25
565.773	797.25
565.985	846.25
566.197	836.25
566.408	854.25
566.62	893.25
566.832	886.25
567.044	957.25
567.255	910.25
567.467	944.25
567.679	931.25
567.891	972.25
568.102	929.25
568.314	951.25
568.526	899.25
568.737	878.25
568.949	865.25
569.161	821.25
569.372	790.25
569.584	745.25
569.795	744.25
570.007	731.25
570.218	712.25
570.43	692.25
570.641	720.25
570.853	723.25
571.064	704.25
571.276	689.25
571.487	680.25
571.698	671.25
571.91	653.25
572.121	654.25
572.333	654.25
572.544	619.25
572.755	632.25
572.966	616.25
573.178	631.25
573.389	587.25
573.6	602.25
573.811	613.25
574.023	588.25
574.234	622.25
574.445	600.25
574.656	595.25
574.867	582.25
575.078	576.25
575.289	565.25
575.501	557.25
575.712	613.25
575.923	571.25
576.134	578.25
576.345	581.25
576.556	565.25
576.767	546.25
576.978	554.25
577.188	537.25
577.399	550.25
577.61	554.25
577.821	558.25
578.032	538.25
578.243	549.25
578.454	540.25
578.665	557.25
578.875	536.25
579.086	521.25
579.297	524.25
579.508	526.25
579.718	538.25
579.929	540.25
580.14	525.25
580.35	478.25
580.561	520.25
580.772	520.25
580.982	505.25
581.193	520.25
581.403	502.25
581.614	511.25
581.825	521.25
582.035	499.25
582.246	506.25
582.456	490.25
582.667	497.25
582.877	489.25
583.087	476.25
583.298	487.25
583.508	498.25
583.719	492.25
583.929	502.25
584.139	490.25
584.35	491.25
584.56	506.25
584.77	493.25
584.981	490.25
585.191	477.25
585.401	489.25
585.611	496.25
585.821	491.25
586.032	472.25
586.242	497.25
586.452	480.25
586.662	467.25
586.872	489.25
587.082	466.25
587.292	469.25
587.502	476.25
587.713	475.25
587.923	490.25
588.133	477.25
588.343	475.25
588.553	465.25
588.762	496.25
588.972	475.25
589.182	547.25
589.392	530.25
589.602	475.25
589.812	500.25
590.022	498.25
590.232	487.25
590.441	467.25
590.651	487.25
590.861	469.25
591.071	488.25
591.281	481.25
591.49	482.25
591.7	477.25
591.91	494.25
592.119	498.25
592.329	496.25
592.539	483.25
592.748	520.25
592.958	489.25
593.167	518.25
593.377	496.25
593.587	534.25
593.796	510.25
594.006	502.25
594.215	486.25
594.424	490.25
594.634	503.25
594.843	508.25
595.053	481.25
595.262	472.25
595.472	461.25
595.681	432.25
595.89	464.25
596.1	440.25
596.309	451.25
596.518	447.25
596.727	456.25
596.937	449.25
597.146	434.25
597.355	435.25
597.564	421.25
597.774	429.25
597.983	425.25
598.192	449.25
598.401	421.25
598.61	425.25
598.819	410.25
599.028	427.25
599.237	417.25
599.446	401.25
599.655	405.25
599.864	418.25
600.073	389.25
600.282	404.25
600.491	394.25
600.7	409.25
600.909	380.25
601.118	407.25
601.327	384.25
601.536	402.25
601.745	399.25
601.953	383.25
602.162	390.25
602.371	370.25
602.58	378.25
602.789	396.25
602.997	374.25
603.206	399.25
603.415	376.25
603.623	379.25
603.832	363.25
604.041	364.25
604.249	362.25
604.458	372.25
604.666	358.25
604.875	361.25
605.084	359.25
605.292	351.25
605.501	363.25
605.709	377.25
605.918	370.25
606.126	377.25
606.334	376.25
606.543	371.25
606.751	351.25
606.96	361.25
607.168	363.25
607.376	363.25
607.585	360.25
607.793	363.25
608.001	343.25
608.21	358.25
608.418	357.25
608.626	358.25
608.834	356.25
609.043	353.25
609.251	345.25
609.459	363.25
609.667	352.25
609.875	352.25
610.083	354.25
610.291	354.25
610.499	337.25
610.707	336.25
610.916	356.25
611.124	349.25
611.332	351.25
611.54	353.25
611.748	362.25
611.955	349.25
612.163	342.25
612.371	342.25
612.579	345.25
612.787	346.25
612.995	357.25
613.203	356.25
613.411	354.25
613.618	327.25
613.826	351.25
614.034	330.25
614.242	338.25
614.449	347.25
614.657	344.25
614.865	355.25
615.072	348.25
615.28	356.25
615.488	345.25
615.695	345.25
615.903	348.25
616.111	346.25
616.318	346.25
616.526	357.25
616.733	353.25
616.941	329.25
617.148	330.25
617.356	343.25
617.563	325.25
617.771	317.25
617.978	332.25
618.185	318.25
618.393	336.25
618.6	331.25
618.807	336.25
619.015	322.25
619.222	324.25
619.429	336.25
619.637	334.25
619.844	321.25
620.051	309.25
620.258	320.25
620.466	316.25
620.673	300.25
620.88	307.25
621.087	308.25
621.294	301.25
621.501	308.25
621.708	330.25
621.915	310.25
622.122	324.25
622.329	317.25
622.536	301.25
622.743	308.25
622.95	298.25
623.157	311.25
623.364	308.25
623.571	309.25
623.778	320.25
623.985	297.25
624.192	323.25
624.399	290.25
624.606	310.25
624.812	305.25
625.019	299.25
625.226	297.25
625.433	289.25
625.639	310.25
625.846	301.25
626.053	292.25
626.259	309.25
626.466	308.25
626.673	294.25
626.879	286.25
627.086	289.25
627.293	298.25
627.499	287.25
627.706	290.25
627.912	296.25
628.119	288.25
628.325	305.25
628.532	284.25
628.738	286.25
628.945	288.25
629.151	306.25
629.357	274.25
629.564	296.25
629.77	304.25
629.976	286.25
630.183	276.25
630.389	286.25
630.595	287.25
630.802	280.25
631.008	285.25
631.214	269.25
631.42	276.25
631.627	281.25
631.833	270.25
632.039	258.25
632.245	288.25
632.451	268.25
632.657	287.25
632.863	260.25
633.069	288.25
633.275	251.25
633.481	283.25
633.688	267.25
633.893	288.25
634.099	280.25
634.305	274.25
634.511	256.25
634.717	275.25
634.923	271.25
635.129	268.25
635.335	265.25
635.541	290.25
635.747	268.25
635.952	274.25
636.158	250.25
636.364	264.25
636.57	257.25
636.775	278.25
636.981	279.25
637.187	270.25
637.392	265.25
637.598	279.25
637.804	236.25
638.009	269.25
638.215	269.25
638.421	253.25
638.626	269.25
638.832	257.25
639.037	261.25
639.243	248.25
639.448	257.25
639.654	256.25
639.859	253.25
640.065	242.25
640.27	253.25
640.475	260.25
640.681	261.25
640.886	254.25
641.091	251.25
641.297	260.25
641.502	229.25
641.707	238.25
641.913	259.25
642.118	260.25
642.323	256.25
642.528	274.25
642.733	246.25
642.939	264.25
643.144	247.25
643.349	256.25
643.554	265.25
643.759	258.25
643.964	228.25
644.169	244.25
644.374	256.25
644.579	275.25
644.784	252.25
644.989	246.25
645.194	261.25
645.399	252.25
645.604	251.25
645.809	272.25
646.014	255.25
646.219	248.25
646.423	283.25
646.628	257.25
646.833	279.25
647.038	257.25
647.243	271.25
647.447	266.25
647.652	260.25
647.857	278.25
648.062	278.25
648.266	273.25
648.471	273.25
648.676	257.25
648.88	265.25
649.085	262.25
649.289	280.25
649.494	252.25
649.698	268.25
649.903	259.25
650.107	268.25
650.312	266.25
650.516	266.25
650.721	269.25
650.925	264.25
651.13	264.25
651.334	272.25
651.539	255.25
651.743	263.25
651.947	261.25
652.152	260.25
652.356	258.25
652.56	249.25
652.764	256.25
652.969	271.25
653.173	252.25
653.377	262.25
653.581	273.25
653.785	258.25
653.99	257.25
654.194	246.25
654.398	256.25
654.602	250.25
654.806	265.25
655.01	251.25
655.214	266.25
655.418	277.25
655.622	268.25
655.826	284.25
656.03	277.25
656.234	302.25
656.438	300.25
656.642	314.25
656.846	295.25
657.049	286.25
657.253	266.25
657.457	234.25
657.661	204.25
657.865	209.25
658.068	199.25
658.272	199.25
658.476	194.25
658.68	182.25
658.883	170.25
659.087	158.25
659.291	166.25
659.494	143.25
659.698	160.25
659.901	143.25
660.105	155.25
660.309	118.25
660.512	131.25
660.716	120.25
660.919	112.25
661.123	99.25
661.326	108.25
661.53	107.25
661.733	112.25
661.936	105.25
662.14	84.25
662.343	98.25
662.546	99.25
662.75	86.25
662.953	105.25
663.156	100.25
663.36	86.25
663.563	101.25
663.766	97.25
663.969	93.25
664.173	81.25
664.376	97.25
664.579	90.25
664.782	89.25
664.985	79.25
665.188	78.25
665.391	83.25
665.594	78.25
665.797	101.25
666	90.25
666.203	81.25
666.406	76.25
666.609	77.25
666.812	79.25
667.015	100.25
667.218	88.25
667.421	89.25
667.624	75.25
667.827	85.25
668.03	71.25
668.232	88.25
668.435	88.25
668.638	83.25
668.841	81.25
669.043	85.25
669.246	85.25
669.449	91.25
669.651	85.25
669.854	81.25
670.057	87.25
670.259	84.25
670.462	80.25
670.665	90.25
670.867	81.25
671.07	85.25
671.272	87.25
671.475	75.25
671.677	81.25
671.88	82.25
672.082	86.25
672.284	93.25
672.487	83.25
672.689	92.25
672.892	88.25
