Data from Ni(NO3)2@0.125M.TitratingCurve.Agarose3%dH2O.NegLispCup.LampEnergy10.LIBS07252019_HRD10591_18-10-45-568.txt Node
Date: Thu Jul 25 18:10:45 EDT 2019
User: cochatt
Spectrometer: HR+D1059
Trigger mode: 1
Integration Time (sec): 1.000000E-1
Scans to average: 1
Electric dark correction enabled: true
Nonlinearity correction enabled: false
Boxcar width: 0
XAxis mode: Wavelengths
Number of Pixels in Spectrum: 2048
>>>>>Begin Spectral Data<<<<<
223.165	-15.38
223.4	-15.38
223.635	-15.38
223.869	-30.38
224.104	-14.38
224.338	-3.38
224.573	-6.38
224.808	-14.38
225.042	-21.38
225.277	-19.38
225.511	4.62
225.746	9.62
225.98	-1.38
226.215	20.62
226.449	4.62
226.683	22.62
226.918	23.62
227.152	40.62
227.387	39.62
227.621	43.62
227.856	32.62
228.09	51.62
228.324	42.62
228.559	48.62
228.793	70.62
229.027	100.62
229.262	118.62
229.496	116.62
229.73	124.62
229.964	123.62
230.199	126.62
230.433	139.62
230.667	133.62
230.901	136.62
231.136	136.62
231.37	138.62
231.604	142.62
231.838	145.62
232.072	132.62
232.306	145.62
232.541	154.62
232.775	132.62
233.009	147.62
233.243	146.62
233.477	141.62
233.711	160.62
233.945	151.62
234.179	160.62
234.413	164.62
234.647	171.62
234.881	157.62
235.115	155.62
235.349	136.62
235.583	150.62
235.817	171.62
236.051	143.62
236.285	166.62
236.519	158.62
236.753	160.62
236.987	161.62
237.221	156.62
237.455	164.62
237.689	166.62
237.922	170.62
238.156	164.62
238.39	173.62
238.624	168.62
238.858	160.62
239.091	179.62
239.325	179.62
239.559	188.62
239.793	184.62
240.027	190.62
240.26	175.62
240.494	180.62
240.728	194.62
240.961	180.62
241.195	206.62
241.429	184.62
241.662	192.62
241.896	192.62
242.13	189.62
242.363	176.62
242.597	209.62
242.83	214.62
243.064	201.62
243.298	189.62
243.531	204.62
243.765	202.62
243.998	216.62
244.232	213.62
244.465	220.62
244.699	238.62
244.932	206.62
245.166	223.62
245.399	220.62
245.633	236.62
245.866	231.62
246.099	244.62
246.333	216.62
246.566	229.62
246.8	244.62
247.033	239.62
247.266	250.62
247.5	247.62
247.733	227.62
247.966	243.62
248.2	234.62
248.433	242.62
248.666	241.62
248.899	254.62
249.133	265.62
249.366	258.62
249.599	251.62
249.832	245.62
250.066	261.62
250.299	269.62
250.532	265.62
250.765	248.62
250.998	256.62
251.231	279.62
251.465	282.62
251.698	276.62
251.931	269.62
252.164	285.62
252.397	286.62
252.63	284.62
252.863	299.62
253.096	288.62
253.329	313.62
253.562	300.62
253.795	296.62
254.028	292.62
254.261	291.62
254.494	290.62
254.727	310.62
254.96	300.62
255.193	308.62
255.426	304.62
255.659	287.62
255.892	293.62
256.124	287.62
256.357	316.62
256.59	308.62
256.823	313.62
257.056	310.62
257.289	312.62
257.521	331.62
257.754	324.62
257.987	312.62
258.22	313.62
258.452	320.62
258.685	314.62
258.918	312.62
259.151	321.62
259.383	334.62
259.616	325.62
259.849	339.62
260.081	330.62
260.314	335.62
260.547	357.62
260.779	335.62
261.012	339.62
261.244	345.62
261.477	328.62
261.71	346.62
261.942	341.62
262.175	352.62
262.407	348.62
262.64	361.62
262.872	340.62
263.105	336.62
263.337	346.62
263.57	365.62
263.802	361.62
264.035	369.62
264.267	353.62
264.499	339.62
264.732	360.62
264.964	377.62
265.197	366.62
265.429	392.62
265.661	377.62
265.894	368.62
266.126	392.62
266.358	369.62
266.591	376.62
266.823	378.62
267.055	374.62
267.287	389.62
267.52	382.62
267.752	372.62
267.984	372.62
268.216	383.62
268.448	387.62
268.681	382.62
268.913	409.62
269.145	396.62
269.377	399.62
269.609	394.62
269.841	395.62
270.073	396.62
270.306	375.62
270.538	417.62
270.77	388.62
271.002	378.62
271.234	421.62
271.466	393.62
271.698	410.62
271.93	411.62
272.162	434.62
272.394	398.62
272.626	415.62
272.858	428.62
273.09	406.62
273.322	419.62
273.553	444.62
273.785	441.62
274.017	436.62
274.249	442.62
274.481	414.62
274.713	430.62
274.945	424.62
275.176	419.62
275.408	451.62
275.64	438.62
275.872	444.62
276.104	442.62
276.335	452.62
276.567	432.62
276.799	445.62
277.031	452.62
277.262	465.62
277.494	439.62
277.726	452.62
277.957	448.62
278.189	459.62
278.421	449.62
278.652	452.62
278.884	467.62
279.115	451.62
279.347	463.62
279.579	485.62
279.81	475.62
280.042	463.62
280.273	474.62
280.505	475.62
280.736	472.62
280.968	468.62
281.199	481.62
281.431	461.62
281.662	501.62
281.894	486.62
282.125	500.62
282.356	512.62
282.588	492.62
282.819	471.62
283.051	500.62
283.282	492.62
283.513	508.62
283.745	494.62
283.976	510.62
284.207	520.62
284.439	513.62
284.67	521.62
284.901	497.62
285.132	492.62
285.364	530.62
285.595	533.62
285.826	516.62
286.057	520.62
286.288	530.62
286.52	508.62
286.751	532.62
286.982	531.62
287.213	529.62
287.444	541.62
287.675	541.62
287.906	521.62
288.138	538.62
288.369	551.62
288.6	521.62
288.831	558.62
289.062	537.62
289.293	552.62
289.524	553.62
289.755	521.62
289.986	526.62
290.217	521.62
290.448	566.62
290.679	571.62
290.91	545.62
291.141	550.62
291.371	536.62
291.602	568.62
291.833	568.62
292.064	570.62
292.295	566.62
292.526	565.62
292.757	537.62
292.987	569.62
293.218	549.62
293.449	580.62
293.68	578.62
293.91	534.62
294.141	572.62
294.372	554.62
294.603	572.62
294.833	568.62
295.064	574.62
295.295	563.62
295.525	565.62
295.756	569.62
295.987	580.62
296.217	599.62
296.448	602.62
296.679	578.62
296.909	558.62
297.14	603.62
297.37	599.62
297.601	582.62
297.831	593.62
298.062	596.62
298.292	624.62
298.523	627.62
298.753	626.62
298.984	617.62
299.214	610.62
299.445	609.62
299.675	615.62
299.905	598.62
300.136	613.62
300.366	612.62
300.597	622.62
300.827	646.62
301.057	648.62
301.288	649.62
301.518	654.62
301.748	644.62
301.979	640.62
302.209	628.62
302.439	646.62
302.669	628.62
302.9	640.62
303.13	617.62
303.36	645.62
303.59	594.62
303.82	639.62
304.051	634.62
304.281	618.62
304.511	636.62
304.741	631.62
304.971	618.62
305.201	632.62
305.431	612.62
305.661	620.62
305.891	631.62
306.121	628.62
306.352	604.62
306.582	620.62
306.812	621.62
307.042	639.62
307.272	609.62
307.502	589.62
307.731	619.62
307.961	602.62
308.191	621.62
308.421	628.62
308.651	644.62
308.881	611.62
309.111	630.62
309.341	594.62
309.571	608.62
309.8	621.62
310.03	609.62
310.26	630.62
310.49	609.62
310.72	616.62
310.949	622.62
311.179	602.62
311.409	629.62
311.639	651.62
311.868	640.62
312.098	622.62
312.328	636.62
312.557	644.62
312.787	636.62
313.017	644.62
313.246	667.62
313.476	659.62
313.706	673.62
313.935	676.62
314.165	677.62
314.394	691.62
314.624	649.62
314.853	663.62
315.083	666.62
315.312	676.62
315.542	659.62
315.771	663.62
316.001	657.62
316.23	691.62
316.46	630.62
316.689	640.62
316.919	639.62
317.148	669.62
317.377	667.62
317.607	638.62
317.836	634.62
318.065	647.62
318.295	634.62
318.524	664.62
318.753	650.62
318.983	641.62
319.212	656.62
319.441	654.62
319.67	655.62
319.9	644.62
320.129	658.62
320.358	661.62
320.587	676.62
320.816	683.62
321.046	665.62
321.275	650.62
321.504	646.62
321.733	656.62
321.962	645.62
322.191	668.62
322.42	715.62
322.649	684.62
322.878	656.62
323.108	646.62
323.337	680.62
323.566	675.62
323.795	657.62
324.024	675.62
324.253	684.62
324.482	660.62
324.71	672.62
324.939	692.62
325.168	700.62
325.397	690.62
325.626	696.62
325.855	692.62
326.084	727.62
326.313	729.62
326.542	745.62
326.77	749.62
326.999	715.62
327.228	722.62
327.457	720.62
327.686	741.62
327.914	725.62
328.143	758.62
328.372	737.62
328.6	733.62
328.829	722.62
329.058	716.62
329.287	721.62
329.515	730.62
329.744	747.62
329.972	727.62
330.201	746.62
330.43	764.62
330.658	745.62
330.887	725.62
331.115	761.62
331.344	749.62
331.572	757.62
331.801	788.62
332.03	786.62
332.258	827.62
332.486	840.62
332.715	854.62
332.943	903.62
333.172	944.62
333.4	968.62
333.629	1003.62
333.857	982.62
334.085	986.62
334.314	978.62
334.542	944.62
334.771	932.62
334.999	920.62
335.227	937.62
335.455	934.62
335.684	898.62
335.912	903.62
336.14	863.62
336.369	846.62
336.597	906.62
336.825	875.62
337.053	898.62
337.281	874.62
337.51	864.62
337.738	848.62
337.966	812.62
338.194	818.62
338.422	808.62
338.65	806.62
338.878	801.62
339.106	816.62
339.334	813.62
339.562	791.62
339.79	760.62
340.018	753.62
340.246	752.62
340.474	777.62
340.702	747.62
340.93	770.62
341.158	763.62
341.386	790.62
341.614	753.62
341.842	770.62
342.07	758.62
342.298	744.62
342.526	740.62
342.754	743.62
342.981	772.62
343.209	752.62
343.437	817.62
343.665	856.62
343.893	898.62
344.12	948.62
344.348	888.62
344.576	888.62
344.804	829.62
345.031	797.62
345.259	793.62
345.487	759.62
345.714	768.62
345.942	742.62
346.17	734.62
346.397	745.62
346.625	754.62
346.853	738.62
347.08	746.62
347.308	742.62
347.535	756.62
347.763	746.62
347.99	758.62
348.218	755.62
348.445	754.62
348.673	728.62
348.9	719.62
349.128	761.62
349.355	734.62
349.583	724.62
349.81	708.62
350.037	734.62
350.265	722.62
350.492	712.62
350.72	692.62
350.947	725.62
351.174	721.62
351.402	716.62
351.629	726.62
351.856	725.62
352.083	697.62
352.311	694.62
352.538	735.62
352.765	717.62
352.992	680.62
353.22	704.62
353.447	721.62
353.674	715.62
353.901	713.62
354.128	707.62
354.355	715.62
354.583	735.62
354.81	738.62
355.037	715.62
355.264	720.62
355.491	713.62
355.718	702.62
355.945	700.62
356.172	746.62
356.399	729.62
356.626	718.62
356.853	722.62
357.08	714.62
357.307	711.62
357.534	690.62
357.761	723.62
357.988	739.62
358.215	716.62
358.441	721.62
358.668	711.62
358.895	709.62
359.122	704.62
359.349	716.62
359.576	704.62
359.802	690.62
360.029	704.62
360.256	726.62
360.483	729.62
360.709	738.62
360.936	708.62
361.163	694.62
361.39	715.62
361.616	706.62
361.843	706.62
362.07	711.62
362.296	710.62
362.523	714.62
362.749	718.62
362.976	705.62
363.203	705.62
363.429	700.62
363.656	714.62
363.882	724.62
364.109	688.62
364.335	734.62
364.562	692.62
364.788	689.62
365.015	691.62
365.241	690.62
365.468	707.62
365.694	700.62
365.92	698.62
366.147	684.62
366.373	706.62
366.599	695.62
366.826	717.62
367.052	696.62
367.278	699.62
367.505	700.62
367.731	701.62
367.957	710.62
368.184	716.62
368.41	726.62
368.636	724.62
368.862	726.62
369.089	740.62
369.315	747.62
369.541	716.62
369.767	725.62
369.993	754.62
370.219	739.62
370.445	728.62
370.672	737.62
370.898	776.62
371.124	768.62
371.35	746.62
371.576	746.62
371.802	778.62
372.028	775.62
372.254	760.62
372.48	786.62
372.706	794.62
372.932	847.62
373.158	791.62
373.384	782.62
373.61	765.62
373.835	782.62
374.061	776.62
374.287	797.62
374.513	786.62
374.739	839.62
374.965	858.62
375.191	885.62
375.416	875.62
375.642	834.62
375.868	844.62
376.094	785.62
376.319	774.62
376.545	780.62
376.771	779.62
376.997	781.62
377.222	781.62
377.448	762.62
377.674	770.62
377.899	749.62
378.125	763.62
378.35	773.62
378.576	777.62
378.802	727.62
379.027	752.62
379.253	762.62
379.478	724.62
379.704	744.62
379.929	782.62
380.155	719.62
380.38	772.62
380.606	755.62
380.831	776.62
381.057	779.62
381.282	778.62
381.507	757.62
381.733	789.62
381.958	771.62
382.184	787.62
382.409	789.62
382.634	816.62
382.86	793.62
383.085	833.62
383.31	829.62
383.535	837.62
383.761	840.62
383.986	859.62
384.211	892.62
384.436	940.62
384.662	892.62
384.887	939.62
385.112	928.62
385.337	928.62
385.562	928.62
385.787	918.62
386.013	933.62
386.238	942.62
386.463	916.62
386.688	954.62
386.913	926.62
387.138	908.62
387.363	914.62
387.588	937.62
387.813	914.62
388.038	947.62
388.263	917.62
388.488	906.62
388.713	883.62
388.938	878.62
389.163	875.62
389.387	871.62
389.612	904.62
389.837	891.62
390.062	902.62
390.287	895.62
390.512	902.62
390.736	905.62
390.961	959.62
391.186	946.62
391.411	989.62
391.636	1034.62
391.86	1026.62
392.085	1054.62
392.31	1079.62
392.534	1032.62
392.759	992.62
392.984	979.62
393.208	949.62
393.433	948.62
393.658	987.62
393.882	985.62
394.107	979.62
394.331	979.62
394.556	999.62
394.78	1001.62
395.005	1013.62
395.229	1009.62
395.454	1020.62
395.678	1028.62
395.903	1032.62
396.127	1017.62
396.352	985.62
396.576	964.62
396.801	948.62
397.025	992.62
397.249	1003.62
397.474	1048.62
397.698	1061.62
397.922	996.62
398.147	1005.62
398.371	1061.62
398.595	1058.62
398.82	1122.62
399.044	1194.62
399.268	1313.62
399.492	1578.62
399.717	1796.62
399.941	1814.62
400.165	1577.62
400.389	1413.62
400.613	1294.62
400.837	1253.62
401.062	1184.62
401.286	1166.62
401.51	1173.62
401.734	1156.62
401.958	1158.62
402.182	1158.62
402.406	1189.62
402.63	1172.62
402.854	1245.62
403.078	1248.62
403.302	1275.62
403.526	1328.62
403.75	1368.62
403.974	1356.62
404.198	1372.62
404.422	1408.62
404.645	1385.62
404.869	1351.62
405.093	1310.62
405.317	1286.62
405.541	1320.62
405.765	1282.62
405.988	1282.62
406.212	1281.62
406.436	1267.62
406.66	1290.62
406.883	1300.62
407.107	1402.62
407.331	1491.62
407.555	1484.62
407.778	1487.62
408.002	1468.62
408.226	1453.62
408.449	1400.62
408.673	1344.62
408.896	1292.62
409.12	1340.62
409.344	1306.62
409.567	1314.62
409.791	1344.62
410.014	1314.62
410.238	1328.62
410.461	1330.62
410.685	1333.62
410.908	1271.62
411.132	1273.62
411.355	1224.62
411.578	1198.62
411.802	1202.62
412.025	1208.62
412.249	1226.62
412.472	1212.62
412.695	1166.62
412.919	1164.62
413.142	1176.62
413.365	1152.62
413.589	1181.62
413.812	1163.62
414.035	1132.62
414.258	1144.62
414.482	1176.62
414.705	1172.62
414.928	1176.62
415.151	1190.62
415.374	1188.62
415.597	1203.62
415.821	1152.62
416.044	1145.62
416.267	1127.62
416.49	1101.62
416.713	1140.62
416.936	1152.62
417.159	1130.62
417.382	1162.62
417.605	1124.62
417.828	1140.62
418.051	1144.62
418.274	1169.62
418.497	1172.62
418.72	1181.62
418.943	1196.62
419.166	1249.62
419.389	1321.62
419.611	1306.62
419.834	1218.62
420.057	1216.62
420.28	1182.62
420.503	1138.62
420.726	1115.62
420.948	1160.62
421.171	1152.62
421.394	1177.62
421.617	1118.62
421.839	1130.62
422.062	1133.62
422.285	1149.62
422.507	1180.62
422.73	1176.62
422.953	1167.62
423.175	1248.62
423.398	1257.62
423.621	1240.62
423.843	1244.62
424.066	1264.62
424.288	1256.62
424.511	1220.62
424.733	1208.62
424.956	1196.62
425.178	1114.62
425.401	1155.62
425.623	1152.62
425.846	1106.62
426.068	1101.62
426.291	1088.62
426.513	1092.62
426.735	1051.62
426.958	1053.62
427.18	1041.62
427.402	1076.62
427.625	1074.62
427.847	1044.62
428.069	1046.62
428.292	1036.62
428.514	1039.62
428.736	1015.62
428.958	1029.62
429.181	1001.62
429.403	1009.62
429.625	994.62
429.847	978.62
430.069	1019.62
430.292	992.62
430.514	1008.62
430.736	991.62
430.958	983.62
431.18	994.62
431.402	1020.62
431.624	993.62
431.846	1030.62
432.068	1074.62
432.29	1091.62
432.512	1026.62
432.734	995.62
432.956	1035.62
433.178	1023.62
433.4	1069.62
433.622	1038.62
433.844	1016.62
434.066	1055.62
434.287	1060.62
434.509	1080.62
434.731	1117.62
434.953	1169.62
435.175	1183.62
435.397	1162.62
435.618	1091.62
435.84	1060.62
436.062	1048.62
436.284	1009.62
436.505	999.62
436.727	1028.62
436.949	1055.62
437.17	1049.62
437.392	1028.62
437.614	1045.62
437.835	954.62
438.057	991.62
438.278	982.62
438.5	973.62
438.721	995.62
438.943	989.62
439.165	987.62
439.386	994.62
439.608	1018.62
439.829	1029.62
440.05	1014.62
440.272	1020.62
440.493	1038.62
440.715	1053.62
440.936	1088.62
441.158	1084.62
441.379	1113.62
441.6	1194.62
441.822	1176.62
442.043	1190.62
442.264	1138.62
442.486	1122.62
442.707	1136.62
442.928	1133.62
443.149	1164.62
443.371	1147.62
443.592	1125.62
443.813	1128.62
444.034	1191.62
444.255	1218.62
444.476	1258.62
444.698	1364.62
444.919	1452.62
445.14	1442.62
445.361	1311.62
445.582	1180.62
445.803	1131.62
446.024	1095.62
446.245	1057.62
446.466	1060.62
446.687	1019.62
446.908	1049.62
447.129	1024.62
447.35	997.62
447.571	972.62
447.792	984.62
448.013	1005.62
448.234	1005.62
448.455	977.62
448.675	926.62
448.896	940.62
449.117	944.62
449.338	932.62
449.559	931.62
449.779	925.62
450	931.62
450.221	942.62
450.442	925.62
450.662	937.62
450.883	968.62
451.104	976.62
451.324	978.62
451.545	985.62
451.766	963.62
451.986	961.62
452.207	952.62
452.428	944.62
452.648	949.62
452.869	918.62
453.089	923.62
453.31	954.62
453.53	933.62
453.751	896.62
453.971	907.62
454.192	915.62
454.412	906.62
454.633	897.62
454.853	884.62
455.073	874.62
455.294	896.62
455.514	902.62
455.734	862.62
455.955	874.62
456.175	878.62
456.395	884.62
456.616	836.62
456.836	888.62
457.056	870.62
457.276	895.62
457.497	876.62
457.717	882.62
457.937	900.62
458.157	888.62
458.377	919.62
458.598	938.62
458.818	968.62
459.038	965.62
459.258	1034.62
459.478	1048.62
459.698	1052.62
459.918	1121.62
460.138	1134.62
460.358	1243.62
460.578	1204.62
460.798	1200.62
461.018	1215.62
461.238	1213.62
461.458	1217.62
461.678	1232.62
461.898	1234.62
462.118	1250.62
462.338	1328.62
462.558	1320.62
462.777	1369.62
462.997	1541.62
463.217	1668.62
463.437	1682.62
463.657	1508.62
463.876	1429.62
464.096	1460.62
464.316	1428.62
464.536	1417.62
464.755	1380.62
464.975	1302.62
465.195	1276.62
465.414	1210.62
465.634	1091.62
465.854	1066.62
466.073	1082.62
466.293	1053.62
466.512	988.62
466.732	986.62
466.951	978.62
467.171	978.62
467.391	995.62
467.61	982.62
467.829	984.62
468.049	976.62
468.268	937.62
468.488	948.62
468.707	961.62
468.927	933.62
469.146	922.62
469.365	982.62
469.585	946.62
469.804	996.62
470.023	1005.62
470.243	981.62
470.462	1024.62
470.681	1033.62
470.901	1032.62
471.12	1027.62
471.339	988.62
471.558	959.62
471.777	971.62
471.997	930.62
472.216	919.62
472.435	940.62
472.654	949.62
472.873	904.62
473.092	920.62
473.311	905.62
473.53	923.62
473.749	923.62
473.968	898.62
474.187	874.62
474.406	909.62
474.625	892.62
474.844	941.62
475.063	933.62
475.282	927.62
475.501	924.62
475.72	950.62
475.939	925.62
476.158	950.62
476.377	956.62
476.596	980.62
476.814	990.62
477.033	972.62
477.252	967.62
477.471	1005.62
477.69	1034.62
477.908	1029.62
478.127	1050.62
478.346	1070.62
478.564	1116.62
478.783	1118.62
479.002	1150.62
479.22	1148.62
479.439	1142.62
479.658	1147.62
479.876	1152.62
480.095	1150.62
480.313	1194.62
480.532	1253.62
480.751	1255.62
480.969	1184.62
481.188	1131.62
481.406	1104.62
481.624	1053.62
481.843	1051.62
482.061	1053.62
482.28	1050.62
482.498	1060.62
482.717	1044.62
482.935	1051.62
483.153	1054.62
483.372	1060.62
483.59	1028.62
483.808	1043.62
484.027	1027.62
484.245	1061.62
484.463	1049.62
484.681	1060.62
484.9	1094.62
485.118	1117.62
485.336	1083.62
485.554	1088.62
485.772	1086.62
485.99	1141.62
486.209	1102.62
486.427	1127.62
486.645	1097.62
486.863	1109.62
487.081	1064.62
487.299	1103.62
487.517	1073.62
487.735	1084.62
487.953	1101.62
488.171	1089.62
488.389	1082.62
488.607	1064.62
488.825	1074.62
489.043	1063.62
489.261	1061.62
489.479	1132.62
489.696	1096.62
489.914	1111.62
490.132	1091.62
490.35	1082.62
490.568	1065.62
490.786	1105.62
491.003	1084.62
491.221	1078.62
491.439	1064.62
491.657	1126.62
491.874	1111.62
492.092	1111.62
492.31	1128.62
492.527	1117.62
492.745	1122.62
492.963	1117.62
493.18	1130.62
493.398	1150.62
493.615	1178.62
493.833	1156.62
494.05	1150.62
494.268	1160.62
494.485	1150.62
494.703	1140.62
494.92	1142.62
495.138	1129.62
495.355	1133.62
495.573	1166.62
495.79	1131.62
496.008	1180.62
496.225	1162.62
496.442	1181.62
496.66	1208.62
496.877	1196.62
497.094	1255.62
497.312	1273.62
497.529	1263.62
497.746	1277.62
497.963	1390.62
498.181	1369.62
498.398	1481.62
498.615	1555.62
498.832	1658.62
499.049	1791.62
499.267	1902.62
499.484	2119.62
499.701	2372.62
499.918	2621.62
500.135	2988.62
500.352	3546.62
500.569	3805.62
500.786	3688.62
501.003	3403.62
501.22	2973.62
501.437	2592.62
501.654	2244.62
501.871	2046.62
502.088	1905.62
502.305	1777.62
502.522	1685.62
502.739	1609.62
502.956	1506.62
503.172	1438.62
503.389	1367.62
503.606	1344.62
503.823	1340.62
504.04	1305.62
504.256	1320.62
504.473	1356.62
504.69	1424.62
504.907	1378.62
505.123	1282.62
505.34	1226.62
505.557	1159.62
505.773	1121.62
505.99	1129.62
506.207	1091.62
506.423	1069.62
506.64	1044.62
506.856	1031.62
507.073	1028.62
507.289	1044.62
507.506	1048.62
507.722	999.62
507.939	1040.62
508.155	1038.62
508.372	1005.62
508.588	969.62
508.805	962.62
509.021	973.62
509.238	961.62
509.454	970.62
509.67	957.62
509.887	958.62
510.103	950.62
510.319	916.62
510.536	944.62
510.752	941.62
510.968	968.62
511.184	933.62
511.401	926.62
511.617	944.62
511.833	954.62
512.049	917.62
512.265	944.62
512.481	940.62
512.698	925.62
512.914	938.62
513.13	917.62
513.346	928.62
513.562	922.62
513.778	929.62
513.994	939.62
514.21	960.62
514.426	945.62
514.642	952.62
514.858	950.62
515.074	983.62
515.29	965.62
515.506	966.62
515.721	990.62
515.937	999.62
516.153	1013.62
516.369	1051.62
516.585	1050.62
516.801	1120.62
517.016	1152.62
517.232	1233.62
517.448	1281.62
517.664	1336.62
517.879	1342.62
518.095	1333.62
518.311	1349.62
518.527	1245.62
518.742	1213.62
518.958	1115.62
519.173	1096.62
519.389	1081.62
519.605	1044.62
519.82	1009.62
520.036	984.62
520.251	960.62
520.467	964.62
520.682	955.62
520.898	931.62
521.113	944.62
521.329	929.62
521.544	912.62
521.76	917.62
521.975	903.62
522.19	898.62
522.406	883.62
522.621	880.62
522.836	904.62
523.052	908.62
523.267	856.62
523.482	871.62
523.698	884.62
523.913	852.62
524.128	865.62
524.343	882.62
524.559	876.62
524.774	863.62
524.989	847.62
525.204	852.62
525.419	853.62
525.634	848.62
525.849	880.62
526.064	854.62
526.28	840.62
526.495	836.62
526.71	849.62
526.925	825.62
527.14	845.62
527.355	838.62
527.57	838.62
527.785	813.62
527.999	844.62
528.214	842.62
528.429	866.62
528.644	849.62
528.859	854.62
529.074	861.62
529.289	850.62
529.503	851.62
529.718	845.62
529.933	832.62
530.148	833.62
530.363	840.62
530.577	815.62
530.792	860.62
531.007	843.62
531.221	853.62
531.436	842.62
531.651	835.62
531.865	864.62
532.08	838.62
532.295	850.62
532.509	845.62
532.724	871.62
532.938	846.62
533.153	845.62
533.367	834.62
533.582	846.62
533.796	816.62
534.011	856.62
534.225	843.62
534.44	811.62
534.654	835.62
534.868	840.62
535.083	809.62
535.297	836.62
535.511	831.62
535.726	820.62
535.94	796.62
536.154	810.62
536.369	796.62
536.583	765.62
536.797	793.62
537.011	828.62
537.225	800.62
537.44	786.62
537.654	759.62
537.868	758.62
538.082	757.62
538.296	772.62
538.51	745.62
538.724	732.62
538.938	761.62
539.153	774.62
539.367	760.62
539.581	766.62
539.795	758.62
540.009	753.62
540.222	746.62
540.436	755.62
540.65	758.62
540.864	740.62
541.078	708.62
541.292	728.62
541.506	747.62
541.72	772.62
541.934	757.62
542.147	759.62
542.361	740.62
542.575	752.62
542.789	731.62
543.002	750.62
543.216	737.62
543.43	754.62
543.644	717.62
543.857	734.62
544.071	775.62
544.285	768.62
544.498	763.62
544.712	769.62
544.925	766.62
545.139	779.62
545.352	774.62
545.566	773.62
545.779	773.62
545.993	756.62
546.206	784.62
546.42	779.62
546.633	768.62
546.847	781.62
547.06	762.62
547.274	753.62
547.487	755.62
547.7	792.62
547.914	789.62
548.127	775.62
548.34	770.62
548.554	762.62
548.767	774.62
548.98	777.62
549.193	785.62
549.407	792.62
549.62	787.62
549.833	805.62
550.046	793.62
550.259	787.62
550.473	758.62
550.686	782.62
550.899	755.62
551.112	746.62
551.325	741.62
551.538	765.62
551.751	738.62
551.964	740.62
552.177	780.62
552.39	760.62
552.603	802.62
552.816	785.62
553.029	829.62
553.242	865.62
553.455	858.62
553.667	892.62
553.88	847.62
554.093	820.62
554.306	801.62
554.519	789.62
554.732	771.62
554.944	745.62
555.157	730.62
555.37	747.62
555.583	725.62
555.795	705.62
556.008	716.62
556.221	706.62
556.433	670.62
556.646	683.62
556.859	682.62
557.071	685.62
557.284	655.62
557.496	661.62
557.709	673.62
557.921	682.62
558.134	633.62
558.346	642.62
558.559	645.62
558.771	655.62
558.984	642.62
559.196	648.62
559.409	630.62
559.621	610.62
559.833	648.62
560.046	632.62
560.258	622.62
560.47	640.62
560.683	619.62
560.895	630.62
561.107	641.62
561.32	645.62
561.532	602.62
561.744	621.62
561.956	626.62
562.168	611.62
562.381	606.62
562.593	629.62
562.805	635.62
563.017	671.62
563.229	628.62
563.441	660.62
563.653	663.62
563.865	663.62
564.077	668.62
564.289	679.62
564.501	678.62
564.713	682.62
564.925	685.62
565.137	716.62
565.349	698.62
565.561	743.62
565.773	753.62
565.985	793.62
566.197	816.62
566.408	902.62
566.62	989.62
566.832	1074.62
567.044	1074.62
567.255	1065.62
567.467	1104.62
567.679	1146.62
567.891	1267.62
568.102	1322.62
568.314	1257.62
568.526	1092.62
568.737	999.62
568.949	905.62
569.161	843.62
569.372	759.62
569.584	732.62
569.795	685.62
570.007	672.62
570.218	642.62
570.43	664.62
570.641	658.62
570.853	660.62
571.064	684.62
571.276	675.62
571.487	637.62
571.698	622.62
571.91	616.62
572.121	579.62
572.333	603.62
572.544	578.62
572.755	564.62
572.966	556.62
573.178	555.62
573.389	544.62
573.6	527.62
573.811	513.62
574.023	530.62
574.234	539.62
574.445	528.62
574.656	529.62
574.867	527.62
575.078	526.62
575.289	524.62
575.501	523.62
575.712	520.62
575.923	504.62
576.134	521.62
576.345	513.62
576.556	516.62
576.767	489.62
576.978	496.62
577.188	488.62
577.399	495.62
577.61	472.62
577.821	476.62
578.032	460.62
578.243	471.62
578.454	468.62
578.665	467.62
578.875	469.62
579.086	468.62
579.297	469.62
579.508	466.62
579.718	481.62
579.929	440.62
580.14	456.62
580.35	466.62
580.561	444.62
580.772	443.62
580.982	438.62
581.193	460.62
581.403	472.62
581.614	460.62
581.825	461.62
582.035	446.62
582.246	464.62
582.456	462.62
582.667	452.62
582.877	443.62
583.087	417.62
583.298	425.62
583.508	438.62
583.719	445.62
583.929	461.62
584.139	446.62
584.35	423.62
584.56	422.62
584.77	432.62
584.981	432.62
585.191	435.62
585.401	427.62
585.611	424.62
585.821	415.62
586.032	425.62
586.242	412.62
586.452	430.62
586.662	414.62
586.872	418.62
587.082	419.62
587.292	405.62
587.502	414.62
587.713	421.62
587.923	445.62
588.133	419.62
588.343	426.62
588.553	431.62
588.762	430.62
588.972	434.62
589.182	427.62
589.392	421.62
589.602	410.62
589.812	446.62
590.022	412.62
590.232	420.62
590.441	405.62
590.651	436.62
590.861	420.62
591.071	411.62
591.281	418.62
591.49	421.62
591.7	441.62
591.91	446.62
592.119	456.62
592.329	472.62
592.539	480.62
592.748	481.62
592.958	557.62
593.167	533.62
593.377	554.62
593.587	542.62
593.796	524.62
594.006	546.62
594.215	566.62
594.424	586.62
594.634	550.62
594.843	524.62
595.053	514.62
595.262	482.62
595.472	482.62
595.681	438.62
595.89	437.62
596.1	415.62
596.309	432.62
596.518	408.62
596.727	390.62
596.937	385.62
597.146	406.62
597.355	388.62
597.564	384.62
597.774	381.62
597.983	365.62
598.192	372.62
598.401	372.62
598.61	368.62
598.819	371.62
599.028	362.62
599.237	382.62
599.446	368.62
599.655	363.62
599.864	373.62
600.073	364.62
600.282	361.62
600.491	343.62
600.7	372.62
600.909	334.62
601.118	364.62
601.327	341.62
601.536	371.62
601.745	342.62
601.953	347.62
602.162	340.62
602.371	348.62
602.58	356.62
602.789	349.62
602.997	348.62
603.206	344.62
603.415	333.62
603.623	348.62
603.832	327.62
604.041	338.62
604.249	327.62
604.458	332.62
604.666	330.62
604.875	318.62
605.084	331.62
605.292	324.62
605.501	339.62
605.709	316.62
605.918	321.62
606.126	335.62
606.334	332.62
606.543	326.62
606.751	326.62
606.96	327.62
607.168	322.62
607.376	318.62
607.585	324.62
607.793	332.62
608.001	306.62
608.21	320.62
608.418	325.62
608.626	321.62
608.834	322.62
609.043	317.62
609.251	323.62
609.459	322.62
609.667	318.62
609.875	317.62
610.083	324.62
610.291	322.62
610.499	318.62
610.707	306.62
610.916	311.62
611.124	315.62
611.332	313.62
611.54	306.62
611.748	298.62
611.955	310.62
612.163	325.62
612.371	319.62
612.579	317.62
612.787	309.62
612.995	300.62
613.203	306.62
613.411	312.62
613.618	299.62
613.826	290.62
614.034	325.62
614.242	331.62
614.449	313.62
614.657	299.62
614.865	324.62
615.072	304.62
615.28	309.62
615.488	296.62
615.695	312.62
615.903	315.62
616.111	318.62
616.318	320.62
616.526	289.62
616.733	340.62
616.941	313.62
617.148	296.62
617.356	315.62
617.563	297.62
617.771	308.62
617.978	314.62
618.185	308.62
618.393	308.62
618.6	307.62
618.807	306.62
619.015	280.62
619.222	297.62
619.429	285.62
619.637	302.62
619.844	301.62
620.051	285.62
620.258	296.62
620.466	296.62
620.673	267.62
620.88	273.62
621.087	283.62
621.294	294.62
621.501	274.62
621.708	287.62
621.915	272.62
622.122	286.62
622.329	292.62
622.536	295.62
622.743	289.62
622.95	274.62
623.157	278.62
623.364	267.62
623.571	273.62
623.778	275.62
623.985	263.62
624.192	274.62
624.399	283.62
624.606	281.62
624.812	257.62
625.019	277.62
625.226	273.62
625.433	272.62
625.639	255.62
625.846	260.62
626.053	249.62
626.259	262.62
626.466	260.62
626.673	242.62
626.879	273.62
627.086	260.62
627.293	244.62
627.499	259.62
627.706	263.62
627.912	260.62
628.119	238.62
628.325	242.62
628.532	267.62
628.738	249.62
628.945	230.62
629.151	252.62
629.357	256.62
629.564	254.62
629.77	244.62
629.976	248.62
630.183	224.62
630.389	246.62
630.595	232.62
630.802	231.62
631.008	230.62
631.214	252.62
631.42	241.62
631.627	232.62
631.833	220.62
632.039	225.62
632.245	233.62
632.451	229.62
632.657	233.62
632.863	236.62
633.069	225.62
633.275	223.62
633.481	210.62
633.688	250.62
633.893	225.62
634.099	226.62
634.305	237.62
634.511	204.62
634.717	229.62
634.923	220.62
635.129	249.62
635.335	225.62
635.541	216.62
635.747	213.62
635.952	200.62
636.158	223.62
636.364	234.62
636.57	228.62
636.775	217.62
636.981	212.62
637.187	217.62
637.392	211.62
637.598	217.62
637.804	220.62
638.009	232.62
638.215	205.62
638.421	215.62
638.626	206.62
638.832	213.62
639.037	211.62
639.243	201.62
639.448	219.62
639.654	230.62
639.859	210.62
640.065	201.62
640.27	196.62
640.475	196.62
640.681	207.62
640.886	205.62
641.091	189.62
641.297	205.62
641.502	187.62
641.707	208.62
641.913	199.62
642.118	206.62
642.323	200.62
642.528	210.62
642.733	203.62
642.939	195.62
643.144	169.62
643.349	185.62
643.554	194.62
643.759	204.62
643.964	204.62
644.169	193.62
644.374	199.62
644.579	203.62
644.784	187.62
644.989	196.62
645.194	196.62
645.399	201.62
645.604	195.62
645.809	191.62
646.014	198.62
646.219	211.62
646.423	192.62
646.628	191.62
646.833	196.62
647.038	188.62
647.243	196.62
647.447	181.62
647.652	203.62
647.857	201.62
648.062	205.62
648.266	208.62
648.471	210.62
648.676	221.62
648.88	206.62
649.085	199.62
649.289	199.62
649.494	203.62
649.698	201.62
649.903	202.62
650.107	188.62
650.312	195.62
650.516	184.62
650.721	178.62
650.925	188.62
651.13	170.62
651.334	164.62
651.539	179.62
651.743	176.62
651.947	185.62
652.152	143.62
652.356	142.62
652.56	152.62
652.764	160.62
652.969	168.62
653.173	165.62
653.377	145.62
653.581	161.62
653.785	148.62
653.99	139.62
654.194	141.62
654.398	141.62
654.602	134.62
654.806	149.62
655.01	129.62
655.214	139.62
655.418	132.62
655.622	137.62
655.826	141.62
656.03	149.62
656.234	138.62
656.438	143.62
656.642	133.62
656.846	150.62
657.049	135.62
657.253	123.62
657.457	148.62
657.661	126.62
657.865	126.62
658.068	124.62
658.272	114.62
658.476	118.62
658.68	114.62
658.883	104.62
659.087	110.62
659.291	94.62
659.494	94.62
659.698	107.62
659.901	95.62
660.105	103.62
660.309	102.62
660.512	100.62
660.716	100.62
660.919	89.62
661.123	106.62
661.326	99.62
661.53	87.62
661.733	85.62
661.936	88.62
662.14	92.62
662.343	94.62
662.546	91.62
662.75	71.62
662.953	92.62
663.156	79.62
663.36	88.62
663.563	93.62
663.766	92.62
663.969	77.62
664.173	91.62
664.376	81.62
664.579	80.62
664.782	95.62
664.985	84.62
665.188	81.62
665.391	91.62
665.594	81.62
665.797	87.62
666	85.62
666.203	79.62
666.406	74.62
666.609	73.62
666.812	70.62
667.015	86.62
667.218	87.62
667.421	77.62
667.624	83.62
667.827	88.62
668.03	80.62
668.232	71.62
668.435	84.62
668.638	78.62
668.841	99.62
669.043	86.62
669.246	91.62
669.449	94.62
669.651	101.62
669.854	73.62
670.057	72.62
670.259	82.62
670.462	73.62
670.665	82.62
670.867	88.62
671.07	82.62
671.272	84.62
671.475	78.62
671.677	84.62
671.88	71.62
672.082	80.62
672.284	76.62
672.487	86.62
672.689	84.62
672.892	71.62
