Data from Ni(NO3)2@0.25M.TitratingCurve.Agarose3%dH2O.NegLispCup.LampEnergy10.LIBS07252019_HRD10591_18-04-05-565.txt Node
Date: Thu Jul 25 18:04:05 EDT 2019
User: cochatt
Spectrometer: HR+D1059
Trigger mode: 1
Integration Time (sec): 1.000000E-1
Scans to average: 1
Electric dark correction enabled: true
Nonlinearity correction enabled: false
Boxcar width: 0
XAxis mode: Wavelengths
Number of Pixels in Spectrum: 2048
>>>>>Begin Spectral Data<<<<<
223.165	-2.12
223.4	-2.12
223.635	-2.12
223.869	-34.12
224.104	-18.12
224.338	-0.12
224.573	-15.12
224.808	-1.12
225.042	-12.12
225.277	-6.12
225.511	-6.12
225.746	-0.12
225.98	6.88
226.215	7.88
226.449	9.88
226.683	20.88
226.918	17.88
227.152	31.88
227.387	23.88
227.621	43.88
227.856	27.88
228.09	47.88
228.324	52.88
228.559	42.88
228.793	58.88
229.027	75.88
229.262	93.88
229.496	74.88
229.73	91.88
229.964	67.88
230.199	90.88
230.433	91.88
230.667	87.88
230.901	95.88
231.136	105.88
231.37	94.88
231.604	107.88
231.838	113.88
232.072	96.88
232.306	100.88
232.541	105.88
232.775	106.88
233.009	108.88
233.243	117.88
233.477	108.88
233.711	108.88
233.945	110.88
234.179	96.88
234.413	101.88
234.647	99.88
234.881	116.88
235.115	107.88
235.349	98.88
235.583	107.88
235.817	99.88
236.051	81.88
236.285	90.88
236.519	83.88
236.753	99.88
236.987	101.88
237.221	82.88
237.455	106.88
237.689	98.88
237.922	103.88
238.156	120.88
238.39	97.88
238.624	103.88
238.858	106.88
239.091	96.88
239.325	100.88
239.559	103.88
239.793	123.88
240.027	111.88
240.26	102.88
240.494	93.88
240.728	99.88
240.961	105.88
241.195	103.88
241.429	115.88
241.662	113.88
241.896	127.88
242.13	97.88
242.363	118.88
242.597	90.88
242.83	115.88
243.064	121.88
243.298	110.88
243.531	121.88
243.765	112.88
243.998	117.88
244.232	126.88
244.465	119.88
244.699	110.88
244.932	123.88
245.166	121.88
245.399	129.88
245.633	127.88
245.866	117.88
246.099	127.88
246.333	117.88
246.566	134.88
246.8	123.88
247.033	119.88
247.266	135.88
247.5	128.88
247.733	120.88
247.966	127.88
248.2	138.88
248.433	139.88
248.666	141.88
248.899	135.88
249.133	133.88
249.366	145.88
249.599	145.88
249.832	141.88
250.066	159.88
250.299	149.88
250.532	162.88
250.765	133.88
250.998	135.88
251.231	176.88
251.465	161.88
251.698	146.88
251.931	146.88
252.164	170.88
252.397	158.88
252.63	159.88
252.863	152.88
253.096	169.88
253.329	170.88
253.562	157.88
253.795	176.88
254.028	179.88
254.261	157.88
254.494	177.88
254.727	180.88
254.96	176.88
255.193	179.88
255.426	180.88
255.659	179.88
255.892	196.88
256.124	168.88
256.357	199.88
256.59	189.88
256.823	187.88
257.056	180.88
257.289	182.88
257.521	179.88
257.754	196.88
257.987	198.88
258.22	209.88
258.452	184.88
258.685	200.88
258.918	183.88
259.151	194.88
259.383	224.88
259.616	219.88
259.849	218.88
260.081	210.88
260.314	207.88
260.547	209.88
260.779	203.88
261.012	207.88
261.244	218.88
261.477	214.88
261.71	204.88
261.942	215.88
262.175	220.88
262.407	229.88
262.64	226.88
262.872	245.88
263.105	215.88
263.337	232.88
263.57	211.88
263.802	229.88
264.035	207.88
264.267	211.88
264.499	223.88
264.732	224.88
264.964	236.88
265.197	223.88
265.429	221.88
265.661	230.88
265.894	223.88
266.126	237.88
266.358	218.88
266.591	235.88
266.823	226.88
267.055	227.88
267.287	237.88
267.52	221.88
267.752	237.88
267.984	241.88
268.216	246.88
268.448	233.88
268.681	231.88
268.913	230.88
269.145	226.88
269.377	253.88
269.609	237.88
269.841	237.88
270.073	238.88
270.306	239.88
270.538	251.88
270.77	238.88
271.002	234.88
271.234	253.88
271.466	222.88
271.698	237.88
271.93	259.88
272.162	253.88
272.394	264.88
272.626	235.88
272.858	242.88
273.09	258.88
273.322	256.88
273.553	243.88
273.785	253.88
274.017	285.88
274.249	265.88
274.481	255.88
274.713	246.88
274.945	254.88
275.176	269.88
275.408	273.88
275.64	262.88
275.872	257.88
276.104	257.88
276.335	256.88
276.567	255.88
276.799	254.88
277.031	263.88
277.262	259.88
277.494	259.88
277.726	278.88
277.957	263.88
278.189	275.88
278.421	257.88
278.652	257.88
278.884	272.88
279.115	253.88
279.347	252.88
279.579	270.88
279.81	286.88
280.042	273.88
280.273	279.88
280.505	260.88
280.736	272.88
280.968	281.88
281.199	265.88
281.431	270.88
281.662	271.88
281.894	257.88
282.125	305.88
282.356	266.88
282.588	283.88
282.819	261.88
283.051	265.88
283.282	272.88
283.513	276.88
283.745	289.88
283.976	288.88
284.207	291.88
284.439	264.88
284.67	267.88
284.901	273.88
285.132	293.88
285.364	289.88
285.595	259.88
285.826	286.88
286.057	268.88
286.288	287.88
286.52	277.88
286.751	295.88
286.982	289.88
287.213	277.88
287.444	287.88
287.675	292.88
287.906	271.88
288.138	280.88
288.369	290.88
288.6	287.88
288.831	274.88
289.062	296.88
289.293	282.88
289.524	290.88
289.755	285.88
289.986	290.88
290.217	288.88
290.448	297.88
290.679	304.88
290.91	298.88
291.141	279.88
291.371	293.88
291.602	285.88
291.833	290.88
292.064	297.88
292.295	275.88
292.526	306.88
292.757	288.88
292.987	289.88
293.218	295.88
293.449	295.88
293.68	298.88
293.91	298.88
294.141	290.88
294.372	281.88
294.603	283.88
294.833	291.88
295.064	309.88
295.295	294.88
295.525	304.88
295.756	281.88
295.987	292.88
296.217	299.88
296.448	297.88
296.679	298.88
296.909	285.88
297.14	294.88
297.37	307.88
297.601	289.88
297.831	294.88
298.062	305.88
298.292	287.88
298.523	318.88
298.753	301.88
298.984	314.88
299.214	326.88
299.445	313.88
299.675	323.88
299.905	320.88
300.136	306.88
300.366	319.88
300.597	328.88
300.827	337.88
301.057	311.88
301.288	306.88
301.518	334.88
301.748	335.88
301.979	334.88
302.209	326.88
302.439	311.88
302.669	325.88
302.9	308.88
303.13	320.88
303.36	336.88
303.59	321.88
303.82	317.88
304.051	348.88
304.281	352.88
304.511	334.88
304.741	338.88
304.971	338.88
305.201	335.88
305.431	352.88
305.661	323.88
305.891	335.88
306.121	311.88
306.352	316.88
306.582	314.88
306.812	324.88
307.042	351.88
307.272	326.88
307.502	312.88
307.731	314.88
307.961	343.88
308.191	319.88
308.421	320.88
308.651	356.88
308.881	330.88
309.111	315.88
309.341	348.88
309.571	350.88
309.8	338.88
310.03	345.88
310.26	333.88
310.49	353.88
310.72	349.88
310.949	341.88
311.179	342.88
311.409	337.88
311.639	344.88
311.868	359.88
312.098	355.88
312.328	354.88
312.557	360.88
312.787	369.88
313.017	339.88
313.246	354.88
313.476	377.88
313.706	379.88
313.935	373.88
314.165	382.88
314.394	365.88
314.624	388.88
314.853	381.88
315.083	371.88
315.312	383.88
315.542	406.88
315.771	387.88
316.001	361.88
316.23	365.88
316.46	389.88
316.689	374.88
316.919	366.88
317.148	402.88
317.377	391.88
317.607	389.88
317.836	372.88
318.065	385.88
318.295	377.88
318.524	386.88
318.753	389.88
318.983	384.88
319.212	392.88
319.441	408.88
319.67	398.88
319.9	398.88
320.129	415.88
320.358	400.88
320.587	425.88
320.816	426.88
321.046	429.88
321.275	429.88
321.504	428.88
321.733	407.88
321.962	405.88
322.191	422.88
322.42	430.88
322.649	429.88
322.878	413.88
323.108	445.88
323.337	439.88
323.566	440.88
323.795	436.88
324.024	444.88
324.253	432.88
324.482	419.88
324.71	455.88
324.939	476.88
325.168	486.88
325.397	465.88
325.626	467.88
325.855	466.88
326.084	485.88
326.313	493.88
326.542	490.88
326.77	475.88
326.999	469.88
327.228	477.88
327.457	494.88
327.686	495.88
327.914	484.88
328.143	514.88
328.372	498.88
328.6	489.88
328.829	495.88
329.058	493.88
329.287	517.88
329.515	507.88
329.744	497.88
329.972	530.88
330.201	522.88
330.43	521.88
330.658	513.88
330.887	539.88
331.115	529.88
331.344	566.88
331.572	566.88
331.801	543.88
332.03	563.88
332.258	581.88
332.486	555.88
332.715	599.88
332.943	613.88
333.172	603.88
333.4	625.88
333.629	635.88
333.857	646.88
334.085	624.88
334.314	656.88
334.542	634.88
334.771	645.88
334.999	610.88
335.227	641.88
335.455	633.88
335.684	647.88
335.912	639.88
336.14	624.88
336.369	633.88
336.597	628.88
336.825	625.88
337.053	631.88
337.281	651.88
337.51	628.88
337.738	605.88
337.966	618.88
338.194	613.88
338.422	616.88
338.65	582.88
338.878	582.88
339.106	612.88
339.334	582.88
339.562	603.88
339.79	595.88
340.018	585.88
340.246	584.88
340.474	558.88
340.702	562.88
340.93	578.88
341.158	600.88
341.386	603.88
341.614	624.88
341.842	613.88
342.07	575.88
342.298	577.88
342.526	574.88
342.754	587.88
342.981	584.88
343.209	599.88
343.437	598.88
343.665	605.88
343.893	632.88
344.12	652.88
344.348	646.88
344.576	638.88
344.804	609.88
345.031	629.88
345.259	585.88
345.487	613.88
345.714	600.88
345.942	607.88
346.17	617.88
346.397	603.88
346.625	570.88
346.853	575.88
347.08	573.88
347.308	586.88
347.535	583.88
347.763	569.88
347.99	558.88
348.218	575.88
348.445	572.88
348.673	579.88
348.9	537.88
349.128	560.88
349.355	574.88
349.583	549.88
349.81	554.88
350.037	570.88
350.265	580.88
350.492	556.88
350.72	538.88
350.947	544.88
351.174	581.88
351.402	580.88
351.629	585.88
351.856	561.88
352.083	537.88
352.311	544.88
352.538	570.88
352.765	577.88
352.992	546.88
353.22	532.88
353.447	543.88
353.674	531.88
353.901	545.88
354.128	545.88
354.355	539.88
354.583	548.88
354.81	539.88
355.037	550.88
355.264	534.88
355.491	542.88
355.718	551.88
355.945	531.88
356.172	528.88
356.399	548.88
356.626	572.88
356.853	548.88
357.08	554.88
357.307	545.88
357.534	529.88
357.761	535.88
357.988	554.88
358.215	539.88
358.441	524.88
358.668	544.88
358.895	530.88
359.122	532.88
359.349	526.88
359.576	542.88
359.802	547.88
360.029	529.88
360.256	540.88
360.483	546.88
360.709	524.88
360.936	535.88
361.163	532.88
361.39	537.88
361.616	549.88
361.843	534.88
362.07	581.88
362.296	578.88
362.523	527.88
362.749	536.88
362.976	553.88
363.203	536.88
363.429	555.88
363.656	537.88
363.882	515.88
364.109	557.88
364.335	528.88
364.562	537.88
364.788	522.88
365.015	519.88
365.241	513.88
365.468	532.88
365.694	545.88
365.92	533.88
366.147	533.88
366.373	523.88
366.599	529.88
366.826	549.88
367.052	520.88
367.278	526.88
367.505	533.88
367.731	555.88
367.957	530.88
368.184	521.88
368.41	545.88
368.636	547.88
368.862	523.88
369.089	532.88
369.315	529.88
369.541	531.88
369.767	545.88
369.993	539.88
370.219	534.88
370.445	543.88
370.672	555.88
370.898	579.88
371.124	547.88
371.35	554.88
371.576	558.88
371.802	554.88
372.028	551.88
372.254	573.88
372.48	553.88
372.706	560.88
372.932	537.88
373.158	548.88
373.384	568.88
373.61	565.88
373.835	541.88
374.061	544.88
374.287	542.88
374.513	569.88
374.739	562.88
374.965	549.88
375.191	572.88
375.416	580.88
375.642	560.88
375.868	567.88
376.094	565.88
376.319	544.88
376.545	557.88
376.771	559.88
376.997	544.88
377.222	550.88
377.448	527.88
377.674	522.88
377.899	538.88
378.125	533.88
378.35	518.88
378.576	529.88
378.802	529.88
379.027	530.88
379.253	521.88
379.478	525.88
379.704	519.88
379.929	535.88
380.155	534.88
380.38	528.88
380.606	536.88
380.831	537.88
381.057	539.88
381.282	536.88
381.507	525.88
381.733	537.88
381.958	539.88
382.184	538.88
382.409	535.88
382.634	545.88
382.86	537.88
383.085	559.88
383.31	549.88
383.535	575.88
383.761	566.88
383.986	562.88
384.211	563.88
384.436	575.88
384.662	587.88
384.887	570.88
385.112	584.88
385.337	607.88
385.562	619.88
385.787	597.88
386.013	616.88
386.238	599.88
386.463	609.88
386.688	619.88
386.913	589.88
387.138	600.88
387.363	605.88
387.588	602.88
387.813	600.88
388.038	605.88
388.263	608.88
388.488	606.88
388.713	586.88
388.938	583.88
389.163	616.88
389.387	602.88
389.612	627.88
389.837	608.88
390.062	601.88
390.287	600.88
390.512	618.88
390.736	615.88
390.961	596.88
391.186	637.88
391.411	647.88
391.636	642.88
391.86	639.88
392.085	656.88
392.31	675.88
392.534	660.88
392.759	639.88
392.984	651.88
393.208	639.88
393.433	631.88
393.658	654.88
393.882	619.88
394.107	635.88
394.331	639.88
394.556	644.88
394.78	643.88
395.005	631.88
395.229	647.88
395.454	674.88
395.678	669.88
395.903	666.88
396.127	685.88
396.352	661.88
396.576	648.88
396.801	657.88
397.025	660.88
397.249	697.88
397.474	713.88
397.698	686.88
397.922	689.88
398.147	708.88
398.371	699.88
398.595	713.88
398.82	757.88
399.044	781.88
399.268	824.88
399.492	897.88
399.717	932.88
399.941	933.88
400.165	897.88
400.389	864.88
400.613	828.88
400.837	805.88
401.062	781.88
401.286	740.88
401.51	735.88
401.734	764.88
401.958	774.88
402.182	742.88
402.406	758.88
402.63	753.88
402.854	756.88
403.078	772.88
403.302	746.88
403.526	807.88
403.75	779.88
403.974	788.88
404.198	817.88
404.422	804.88
404.645	808.88
404.869	802.88
405.093	793.88
405.317	809.88
405.541	833.88
405.765	829.88
405.988	772.88
406.212	839.88
406.436	811.88
406.66	838.88
406.883	865.88
407.107	882.88
407.331	898.88
407.555	938.88
407.778	919.88
408.002	901.88
408.226	890.88
408.449	884.88
408.673	839.88
408.896	871.88
409.12	839.88
409.344	808.88
409.567	836.88
409.791	847.88
410.014	851.88
410.238	855.88
410.461	846.88
410.685	829.88
410.908	823.88
411.132	822.88
411.355	812.88
411.578	814.88
411.802	792.88
412.025	807.88
412.249	793.88
412.472	837.88
412.695	782.88
412.919	779.88
413.142	805.88
413.365	797.88
413.589	801.88
413.812	829.88
414.035	785.88
414.258	799.88
414.482	791.88
414.705	793.88
414.928	792.88
415.151	797.88
415.374	790.88
415.597	791.88
415.821	791.88
416.044	783.88
416.267	776.88
416.49	767.88
416.713	754.88
416.936	775.88
417.159	755.88
417.382	759.88
417.605	764.88
417.828	762.88
418.051	796.88
418.274	782.88
418.497	793.88
418.72	796.88
418.943	781.88
419.166	835.88
419.389	902.88
419.611	891.88
419.834	835.88
420.057	839.88
420.28	835.88
420.503	805.88
420.726	794.88
420.948	790.88
421.171	771.88
421.394	787.88
421.617	765.88
421.839	790.88
422.062	796.88
422.285	764.88
422.507	801.88
422.73	791.88
422.953	804.88
423.175	803.88
423.398	808.88
423.621	833.88
423.843	831.88
424.066	844.88
424.288	819.88
424.511	824.88
424.733	830.88
424.956	829.88
425.178	798.88
425.401	822.88
425.623	820.88
425.846	807.88
426.068	790.88
426.291	754.88
426.513	806.88
426.735	795.88
426.958	776.88
427.18	765.88
427.402	776.88
427.625	772.88
427.847	752.88
428.069	751.88
428.292	751.88
428.514	756.88
428.736	788.88
428.958	771.88
429.181	777.88
429.403	732.88
429.625	755.88
429.847	777.88
430.069	762.88
430.292	744.88
430.514	749.88
430.736	765.88
430.958	753.88
431.18	746.88
431.402	791.88
431.624	771.88
431.846	787.88
432.068	756.88
432.29	773.88
432.512	774.88
432.734	783.88
432.956	800.88
433.178	789.88
433.4	775.88
433.622	795.88
433.844	799.88
434.066	785.88
434.287	791.88
434.509	769.88
434.731	821.88
434.953	815.88
435.175	862.88
435.397	865.88
435.618	808.88
435.84	806.88
436.062	779.88
436.284	791.88
436.505	773.88
436.727	805.88
436.949	783.88
437.17	775.88
437.392	746.88
437.614	741.88
437.835	745.88
438.057	745.88
438.278	734.88
438.5	751.88
438.721	763.88
438.943	766.88
439.165	731.88
439.386	783.88
439.608	803.88
439.829	806.88
440.05	785.88
440.272	797.88
440.493	801.88
440.715	813.88
440.936	799.88
441.158	838.88
441.379	815.88
441.6	862.88
441.822	837.88
442.043	837.88
442.264	849.88
442.486	843.88
442.707	834.88
442.928	859.88
443.149	846.88
443.371	865.88
443.592	852.88
443.813	852.88
444.034	847.88
444.255	842.88
444.476	886.88
444.698	881.88
444.919	934.88
445.14	1001.88
445.361	923.88
445.582	868.88
445.803	875.88
446.024	838.88
446.245	845.88
446.466	817.88
446.687	811.88
446.908	799.88
447.129	824.88
447.35	800.88
447.571	784.88
447.792	757.88
448.013	758.88
448.234	727.88
448.455	727.88
448.675	742.88
448.896	728.88
449.117	766.88
449.338	742.88
449.559	735.88
449.779	728.88
450	720.88
450.221	750.88
450.442	738.88
450.662	720.88
450.883	726.88
451.104	752.88
451.324	751.88
451.545	727.88
451.766	727.88
451.986	729.88
452.207	709.88
452.428	720.88
452.648	725.88
452.869	714.88
453.089	702.88
453.31	710.88
453.53	694.88
453.751	689.88
453.971	705.88
454.192	676.88
454.412	683.88
454.633	703.88
454.853	685.88
455.073	702.88
455.294	691.88
455.514	679.88
455.734	690.88
455.955	683.88
456.175	695.88
456.395	671.88
456.616	693.88
456.836	707.88
457.056	681.88
457.276	685.88
457.497	688.88
457.717	694.88
457.937	687.88
458.157	690.88
458.377	721.88
458.598	766.88
458.818	745.88
459.038	734.88
459.258	757.88
459.478	784.88
459.698	797.88
459.918	799.88
460.138	820.88
460.358	865.88
460.578	861.88
460.798	887.88
461.018	888.88
461.238	892.88
461.458	863.88
461.678	871.88
461.898	888.88
462.118	893.88
462.338	950.88
462.558	951.88
462.777	969.88
462.997	1015.88
463.217	1034.88
463.437	1036.88
463.657	1038.88
463.876	960.88
464.096	982.88
464.316	992.88
464.536	975.88
464.755	970.88
464.975	919.88
465.195	902.88
465.414	867.88
465.634	848.88
465.854	810.88
466.073	819.88
466.293	793.88
466.512	785.88
466.732	778.88
466.951	787.88
467.171	779.88
467.391	775.88
467.61	761.88
467.829	750.88
468.049	768.88
468.268	740.88
468.488	737.88
468.707	757.88
468.927	772.88
469.146	755.88
469.365	772.88
469.585	771.88
469.804	767.88
470.023	769.88
470.243	772.88
470.462	801.88
470.681	766.88
470.901	786.88
471.12	780.88
471.339	771.88
471.558	763.88
471.777	766.88
471.997	758.88
472.216	713.88
472.435	734.88
472.654	730.88
472.873	731.88
473.092	722.88
473.311	732.88
473.53	761.88
473.749	763.88
473.968	740.88
474.187	734.88
474.406	718.88
474.625	741.88
474.844	752.88
475.063	757.88
475.282	739.88
475.501	751.88
475.72	770.88
475.939	752.88
476.158	762.88
476.377	774.88
476.596	791.88
476.814	778.88
477.033	769.88
477.252	789.88
477.471	787.88
477.69	832.88
477.908	850.88
478.127	856.88
478.346	877.88
478.564	859.88
478.783	843.88
479.002	927.88
479.22	861.88
479.439	883.88
479.658	898.88
479.876	894.88
480.095	886.88
480.313	918.88
480.532	924.88
480.751	912.88
480.969	863.88
481.188	844.88
481.406	870.88
481.624	879.88
481.843	857.88
482.061	866.88
482.28	855.88
482.498	839.88
482.717	841.88
482.935	859.88
483.153	859.88
483.372	862.88
483.59	853.88
483.808	854.88
484.027	867.88
484.245	860.88
484.463	854.88
484.681	894.88
484.9	886.88
485.118	870.88
485.336	868.88
485.554	870.88
485.772	889.88
485.99	873.88
486.209	862.88
486.427	885.88
486.645	856.88
486.863	864.88
487.081	881.88
487.299	906.88
487.517	859.88
487.735	902.88
487.953	910.88
488.171	920.88
488.389	897.88
488.607	883.88
488.825	873.88
489.043	865.88
489.261	882.88
489.479	868.88
489.696	885.88
489.914	890.88
490.132	906.88
490.35	926.88
490.568	930.88
490.786	930.88
491.003	924.88
491.221	918.88
491.439	930.88
491.657	940.88
491.874	925.88
492.092	962.88
492.31	971.88
492.527	938.88
492.745	974.88
492.963	991.88
493.18	952.88
493.398	940.88
493.615	961.88
493.833	944.88
494.05	944.88
494.268	977.88
494.485	992.88
494.703	962.88
494.92	965.88
495.138	965.88
495.355	981.88
495.573	997.88
495.79	1011.88
496.008	1024.88
496.225	1020.88
496.442	1005.88
496.66	1047.88
496.877	1043.88
497.094	1024.88
497.312	1070.88
497.529	1096.88
497.746	1106.88
497.963	1109.88
498.181	1139.88
498.398	1195.88
498.615	1231.88
498.832	1302.88
499.049	1354.88
499.267	1411.88
499.484	1514.88
499.701	1625.88
499.918	1711.88
500.135	1840.88
500.352	1981.88
500.569	2001.88
500.786	1967.88
501.003	1893.88
501.22	1796.88
501.437	1682.88
501.654	1597.88
501.871	1518.88
502.088	1416.88
502.305	1343.88
502.522	1302.88
502.739	1269.88
502.956	1216.88
503.172	1197.88
503.389	1129.88
503.606	1125.88
503.823	1097.88
504.04	1086.88
504.256	1089.88
504.473	1098.88
504.69	1064.88
504.907	1084.88
505.123	1025.88
505.34	1001.88
505.557	957.88
505.773	971.88
505.99	945.88
506.207	931.88
506.423	910.88
506.64	868.88
506.856	884.88
507.073	901.88
507.289	880.88
507.506	873.88
507.722	881.88
507.939	869.88
508.155	840.88
508.372	844.88
508.588	849.88
508.805	830.88
509.021	825.88
509.238	843.88
509.454	813.88
509.67	800.88
509.887	777.88
510.103	800.88
510.319	795.88
510.536	793.88
510.752	788.88
510.968	791.88
511.184	783.88
511.401	782.88
511.617	771.88
511.833	813.88
512.049	775.88
512.265	741.88
512.481	788.88
512.698	785.88
512.914	785.88
513.13	797.88
513.346	794.88
513.562	747.88
513.778	780.88
513.994	785.88
514.21	764.88
514.426	806.88
514.642	803.88
514.858	808.88
515.074	787.88
515.29	814.88
515.506	818.88
515.721	814.88
515.937	829.88
516.153	828.88
516.369	858.88
516.585	833.88
516.801	864.88
517.016	904.88
517.232	921.88
517.448	938.88
517.664	928.88
517.879	944.88
518.095	948.88
518.311	960.88
518.527	914.88
518.742	888.88
518.958	895.88
519.173	880.88
519.389	809.88
519.605	809.88
519.82	820.88
520.036	836.88
520.251	805.88
520.467	792.88
520.682	767.88
520.898	779.88
521.113	772.88
521.329	770.88
521.544	765.88
521.76	763.88
521.975	721.88
522.19	753.88
522.406	751.88
522.621	759.88
522.836	728.88
523.052	759.88
523.267	722.88
523.482	719.88
523.698	719.88
523.913	733.88
524.128	753.88
524.343	724.88
524.559	726.88
524.774	706.88
524.989	729.88
525.204	705.88
525.419	738.88
525.634	702.88
525.849	724.88
526.064	720.88
526.28	714.88
526.495	680.88
526.71	716.88
526.925	700.88
527.14	672.88
527.355	689.88
527.57	682.88
527.785	691.88
527.999	677.88
528.214	703.88
528.429	711.88
528.644	736.88
528.859	704.88
529.074	694.88
529.289	738.88
529.503	713.88
529.718	689.88
529.933	730.88
530.148	705.88
530.363	703.88
530.577	680.88
530.792	699.88
531.007	688.88
531.221	699.88
531.436	697.88
531.651	697.88
531.865	679.88
532.08	681.88
532.295	676.88
532.509	693.88
532.724	700.88
532.938	685.88
533.153	692.88
533.367	690.88
533.582	672.88
533.796	701.88
534.011	674.88
534.225	693.88
534.44	669.88
534.654	668.88
534.868	687.88
535.083	679.88
535.297	665.88
535.511	673.88
535.726	678.88
535.94	687.88
536.154	660.88
536.369	647.88
536.583	652.88
536.797	661.88
537.011	640.88
537.225	634.88
537.44	646.88
537.654	662.88
537.868	638.88
538.082	637.88
538.296	650.88
538.51	632.88
538.724	677.88
538.938	634.88
539.153	655.88
539.367	637.88
539.581	615.88
539.795	614.88
540.009	644.88
540.222	634.88
540.436	647.88
540.65	613.88
540.864	654.88
541.078	625.88
541.292	639.88
541.506	648.88
541.72	662.88
541.934	640.88
542.147	671.88
542.361	648.88
542.575	645.88
542.789	619.88
543.002	621.88
543.216	623.88
543.43	627.88
543.644	650.88
543.857	632.88
544.071	641.88
544.285	651.88
544.498	654.88
544.712	657.88
544.925	663.88
545.139	661.88
545.352	649.88
545.566	673.88
545.779	651.88
545.993	659.88
546.206	668.88
546.42	650.88
546.633	655.88
546.847	638.88
547.06	678.88
547.274	648.88
547.487	687.88
547.7	667.88
547.914	657.88
548.127	657.88
548.34	647.88
548.554	644.88
548.767	659.88
548.98	673.88
549.193	659.88
549.407	655.88
549.62	666.88
549.833	643.88
550.046	640.88
550.259	643.88
550.473	644.88
550.686	666.88
550.899	639.88
551.112	651.88
551.325	649.88
551.538	659.88
551.751	616.88
551.964	639.88
552.177	646.88
552.39	633.88
552.603	660.88
552.816	662.88
553.029	660.88
553.242	679.88
553.455	682.88
553.667	675.88
553.88	650.88
554.093	632.88
554.306	641.88
554.519	644.88
554.732	633.88
554.944	641.88
555.157	622.88
555.37	617.88
555.583	610.88
555.795	590.88
556.008	587.88
556.221	563.88
556.433	598.88
556.646	566.88
556.859	583.88
557.071	583.88
557.284	564.88
557.496	580.88
557.709	585.88
557.921	579.88
558.134	554.88
558.346	562.88
558.559	567.88
558.771	560.88
558.984	551.88
559.196	559.88
559.409	543.88
559.621	536.88
559.833	538.88
560.046	545.88
560.258	556.88
560.47	552.88
560.683	536.88
560.895	537.88
561.107	551.88
561.32	544.88
561.532	550.88
561.744	551.88
561.956	537.88
562.168	547.88
562.381	521.88
562.593	554.88
562.805	542.88
563.017	558.88
563.229	546.88
563.441	541.88
563.653	571.88
563.865	541.88
564.077	567.88
564.289	573.88
564.501	584.88
564.713	582.88
564.925	596.88
565.137	601.88
565.349	607.88
565.561	611.88
565.773	617.88
565.985	633.88
566.197	642.88
566.408	689.88
566.62	688.88
566.832	698.88
567.044	728.88
567.255	726.88
567.467	759.88
567.679	742.88
567.891	777.88
568.102	756.88
568.314	726.88
568.526	688.88
568.737	679.88
568.949	651.88
569.161	587.88
569.372	587.88
569.584	560.88
569.795	576.88
570.007	529.88
570.218	540.88
570.43	522.88
570.641	542.88
570.853	542.88
571.064	519.88
571.276	521.88
571.487	530.88
571.698	503.88
571.91	503.88
572.121	490.88
572.333	478.88
572.544	477.88
572.755	460.88
572.966	462.88
573.178	441.88
573.389	455.88
573.6	457.88
573.811	425.88
574.023	447.88
574.234	440.88
574.445	439.88
574.656	434.88
574.867	452.88
575.078	450.88
575.289	426.88
575.501	453.88
575.712	433.88
575.923	417.88
576.134	419.88
576.345	424.88
576.556	414.88
576.767	402.88
576.978	421.88
577.188	436.88
577.399	405.88
577.61	399.88
577.821	394.88
578.032	402.88
578.243	409.88
578.454	409.88
578.665	392.88
578.875	413.88
579.086	376.88
579.297	388.88
579.508	404.88
579.718	393.88
579.929	392.88
580.14	405.88
580.35	386.88
580.561	380.88
580.772	386.88
580.982	373.88
581.193	377.88
581.403	371.88
581.614	361.88
581.825	352.88
582.035	373.88
582.246	371.88
582.456	367.88
582.667	378.88
582.877	372.88
583.087	386.88
583.298	373.88
583.508	376.88
583.719	372.88
583.929	375.88
584.139	353.88
584.35	370.88
584.56	365.88
584.77	362.88
584.981	369.88
585.191	351.88
585.401	353.88
585.611	358.88
585.821	370.88
586.032	370.88
586.242	359.88
586.452	342.88
586.662	350.88
586.872	357.88
587.082	356.88
587.292	347.88
587.502	352.88
587.713	361.88
587.923	357.88
588.133	360.88
588.343	361.88
588.553	355.88
588.762	349.88
588.972	351.88
589.182	359.88
589.392	376.88
589.602	343.88
589.812	365.88
590.022	358.88
590.232	359.88
590.441	357.88
590.651	363.88
590.861	362.88
591.071	357.88
591.281	369.88
591.49	357.88
591.7	351.88
591.91	374.88
592.119	357.88
592.329	372.88
592.539	367.88
592.748	397.88
592.958	394.88
593.167	389.88
593.377	376.88
593.587	392.88
593.796	385.88
594.006	379.88
594.215	395.88
594.424	383.88
594.634	379.88
594.843	374.88
595.053	370.88
595.262	372.88
595.472	352.88
595.681	354.88
595.89	342.88
596.1	357.88
596.309	346.88
596.518	317.88
596.727	345.88
596.937	330.88
597.146	325.88
597.355	329.88
597.564	321.88
597.774	315.88
597.983	304.88
598.192	321.88
598.401	289.88
598.61	303.88
598.819	309.88
599.028	322.88
599.237	295.88
599.446	317.88
599.655	310.88
599.864	303.88
600.073	278.88
600.282	291.88
600.491	307.88
600.7	302.88
600.909	295.88
601.118	298.88
601.327	285.88
601.536	293.88
601.745	293.88
601.953	291.88
602.162	305.88
602.371	301.88
602.58	306.88
602.789	304.88
602.997	288.88
603.206	274.88
603.415	274.88
603.623	290.88
603.832	287.88
604.041	262.88
604.249	288.88
604.458	281.88
604.666	264.88
604.875	270.88
605.084	278.88
605.292	296.88
605.501	297.88
605.709	273.88
605.918	277.88
606.126	294.88
606.334	273.88
606.543	271.88
606.751	284.88
606.96	290.88
607.168	278.88
607.376	280.88
607.585	270.88
607.793	291.88
608.001	270.88
608.21	260.88
608.418	270.88
608.626	258.88
608.834	284.88
609.043	271.88
609.251	265.88
609.459	286.88
609.667	268.88
609.875	258.88
610.083	255.88
610.291	257.88
610.499	265.88
610.707	279.88
610.916	254.88
611.124	276.88
611.332	257.88
611.54	262.88
611.748	266.88
611.955	259.88
612.163	263.88
612.371	273.88
612.579	267.88
612.787	266.88
612.995	250.88
613.203	259.88
613.411	257.88
613.618	259.88
613.826	250.88
614.034	241.88
614.242	266.88
614.449	271.88
614.657	262.88
614.865	253.88
615.072	267.88
615.28	257.88
615.488	252.88
615.695	266.88
615.903	257.88
616.111	239.88
616.318	270.88
616.526	253.88
616.733	251.88
616.941	263.88
617.148	265.88
617.356	249.88
617.563	239.88
617.771	255.88
617.978	244.88
618.185	242.88
618.393	239.88
618.6	255.88
618.807	251.88
619.015	265.88
619.222	235.88
619.429	248.88
619.637	247.88
619.844	249.88
620.051	236.88
620.258	231.88
620.466	250.88
620.673	242.88
620.88	222.88
621.087	234.88
621.294	246.88
621.501	242.88
621.708	241.88
621.915	248.88
622.122	248.88
622.329	225.88
622.536	233.88
622.743	218.88
622.95	222.88
623.157	230.88
623.364	232.88
623.571	247.88
623.778	227.88
623.985	225.88
624.192	238.88
624.399	235.88
624.606	224.88
624.812	223.88
625.019	228.88
625.226	240.88
625.433	224.88
625.639	218.88
625.846	206.88
626.053	208.88
626.259	230.88
626.466	205.88
626.673	216.88
626.879	204.88
627.086	219.88
627.293	220.88
627.499	230.88
627.706	227.88
627.912	207.88
628.119	199.88
628.325	232.88
628.532	210.88
628.738	224.88
628.945	199.88
629.151	210.88
629.357	214.88
629.564	196.88
629.77	223.88
629.976	229.88
630.183	223.88
630.389	218.88
630.595	197.88
630.802	218.88
631.008	215.88
631.214	213.88
631.42	214.88
631.627	205.88
631.833	202.88
632.039	186.88
632.245	204.88
632.451	208.88
632.657	212.88
632.863	204.88
633.069	180.88
633.275	191.88
633.481	203.88
633.688	204.88
633.893	195.88
634.099	186.88
634.305	179.88
634.511	186.88
634.717	180.88
634.923	203.88
635.129	190.88
635.335	182.88
635.541	198.88
635.747	206.88
635.952	193.88
636.158	190.88
636.364	185.88
636.57	183.88
636.775	191.88
636.981	192.88
637.187	194.88
637.392	202.88
637.598	181.88
637.804	187.88
638.009	184.88
638.215	189.88
638.421	175.88
638.626	185.88
638.832	198.88
639.037	202.88
639.243	187.88
639.448	172.88
639.654	176.88
639.859	186.88
640.065	177.88
640.27	191.88
640.475	195.88
640.681	181.88
640.886	181.88
641.091	198.88
641.297	183.88
641.502	184.88
641.707	197.88
641.913	192.88
642.118	178.88
642.323	168.88
642.528	183.88
642.733	170.88
642.939	167.88
643.144	181.88
643.349	160.88
643.554	199.88
643.759	168.88
643.964	165.88
644.169	185.88
644.374	168.88
644.579	178.88
644.784	168.88
644.989	171.88
645.194	156.88
645.399	176.88
645.604	177.88
645.809	175.88
646.014	192.88
646.219	180.88
646.423	184.88
646.628	162.88
646.833	173.88
647.038	170.88
647.243	171.88
647.447	177.88
647.652	164.88
647.857	157.88
648.062	178.88
648.266	172.88
648.471	187.88
648.676	193.88
648.88	178.88
649.085	169.88
649.289	183.88
649.494	173.88
649.698	168.88
649.903	151.88
650.107	162.88
650.312	176.88
650.516	170.88
650.721	160.88
650.925	161.88
651.13	153.88
651.334	160.88
651.539	173.88
651.743	173.88
651.947	144.88
652.152	158.88
652.356	166.88
652.56	143.88
652.764	143.88
652.969	154.88
653.173	151.88
653.377	147.88
653.581	150.88
653.785	132.88
653.99	132.88
654.194	130.88
654.398	149.88
654.602	152.88
654.806	142.88
655.01	144.88
655.214	122.88
655.418	134.88
655.622	147.88
655.826	151.88
656.03	134.88
656.234	137.88
656.438	148.88
656.642	133.88
656.846	126.88
657.049	138.88
657.253	129.88
657.457	113.88
657.661	126.88
657.865	103.88
658.068	111.88
658.272	108.88
658.476	107.88
658.68	87.88
658.883	96.88
659.087	109.88
659.291	119.88
659.494	104.88
659.698	93.88
659.901	98.88
660.105	107.88
660.309	105.88
660.512	88.88
660.716	105.88
660.919	90.88
661.123	96.88
661.326	83.88
661.53	97.88
661.733	80.88
661.936	88.88
662.14	92.88
662.343	91.88
662.546	85.88
662.75	81.88
662.953	92.88
663.156	71.88
663.36	89.88
663.563	76.88
663.766	72.88
663.969	83.88
664.173	82.88
664.376	86.88
664.579	97.88
664.782	79.88
664.985	78.88
665.188	89.88
665.391	70.88
665.594	74.88
665.797	77.88
666	88.88
666.203	85.88
666.406	73.88
666.609	85.88
666.812	88.88
667.015	87.88
667.218	83.88
667.421	70.88
667.624	80.88
667.827	64.88
668.03	79.88
668.232	70.88
668.435	71.88
668.638	63.88
668.841	86.88
669.043	79.88
669.246	69.88
669.449	90.88
669.651	76.88
669.854	75.88
670.057	85.88
670.259	70.88
670.462	95.88
670.665	81.88
670.867	84.88
671.07	77.88
671.272	85.88
671.475	81.88
671.677	84.88
671.88	74.88
672.082	83.88
672.284	58.88
672.487	70.88
672.689	69.88
672.892	73.88
