Data from Ni(NO3)2@0.125M.TitratingCurve.Agarose3%dH2O.NegLispCup.LampEnergy10.LIBS07252019_HRD10591_18-08-36-567.txt Node
Date: Thu Jul 25 18:08:36 EDT 2019
User: cochatt
Spectrometer: HR+D1059
Trigger mode: 1
Integration Time (sec): 1.000000E-1
Scans to average: 1
Electric dark correction enabled: true
Nonlinearity correction enabled: false
Boxcar width: 0
XAxis mode: Wavelengths
Number of Pixels in Spectrum: 2048
>>>>>Begin Spectral Data<<<<<
223.165	-20.31
223.4	-20.31
223.635	-20.31
223.869	-22.31
224.104	-24.31
224.338	-12.31
224.573	-11.31
224.808	-10.31
225.042	-6.31
225.277	-0.31
225.511	-0.31
225.746	1.69
225.98	16.69
226.215	1.69
226.449	13.69
226.683	9.69
226.918	24.69
227.152	39.69
227.387	34.69
227.621	39.69
227.856	43.69
228.09	44.69
228.324	62.69
228.559	62.69
228.793	75.69
229.027	111.69
229.262	122.69
229.496	135.69
229.73	118.69
229.964	149.69
230.199	175.69
230.433	153.69
230.667	166.69
230.901	150.69
231.136	144.69
231.37	150.69
231.604	163.69
231.838	180.69
232.072	178.69
232.306	182.69
232.541	176.69
232.775	183.69
233.009	170.69
233.243	174.69
233.477	160.69
233.711	168.69
233.945	187.69
234.179	170.69
234.413	171.69
234.647	171.69
234.881	179.69
235.115	176.69
235.349	181.69
235.583	176.69
235.817	186.69
236.051	191.69
236.285	177.69
236.519	177.69
236.753	187.69
236.987	193.69
237.221	168.69
237.455	197.69
237.689	197.69
237.922	199.69
238.156	186.69
238.39	194.69
238.624	215.69
238.858	210.69
239.091	224.69
239.325	201.69
239.559	201.69
239.793	217.69
240.027	231.69
240.26	204.69
240.494	203.69
240.728	205.69
240.961	202.69
241.195	216.69
241.429	230.69
241.662	218.69
241.896	229.69
242.13	240.69
242.363	231.69
242.597	234.69
242.83	256.69
243.064	226.69
243.298	242.69
243.531	250.69
243.765	239.69
243.998	242.69
244.232	274.69
244.465	262.69
244.699	257.69
244.932	252.69
245.166	272.69
245.399	280.69
245.633	269.69
245.866	289.69
246.099	264.69
246.333	273.69
246.566	265.69
246.8	270.69
247.033	295.69
247.266	276.69
247.5	276.69
247.733	293.69
247.966	270.69
248.2	292.69
248.433	283.69
248.666	308.69
248.899	320.69
249.133	292.69
249.366	332.69
249.599	302.69
249.832	295.69
250.066	284.69
250.299	300.69
250.532	305.69
250.765	310.69
250.998	323.69
251.231	331.69
251.465	348.69
251.698	335.69
251.931	340.69
252.164	343.69
252.397	362.69
252.63	327.69
252.863	342.69
253.096	347.69
253.329	340.69
253.562	351.69
253.795	348.69
254.028	349.69
254.261	349.69
254.494	350.69
254.727	369.69
254.96	386.69
255.193	382.69
255.426	353.69
255.659	362.69
255.892	385.69
256.124	364.69
256.357	392.69
256.59	383.69
256.823	396.69
257.056	373.69
257.289	367.69
257.521	361.69
257.754	392.69
257.987	392.69
258.22	380.69
258.452	378.69
258.685	395.69
258.918	390.69
259.151	408.69
259.383	409.69
259.616	388.69
259.849	420.69
260.081	417.69
260.314	398.69
260.547	427.69
260.779	414.69
261.012	417.69
261.244	421.69
261.477	414.69
261.71	424.69
261.942	419.69
262.175	423.69
262.407	439.69
262.64	419.69
262.872	416.69
263.105	441.69
263.337	462.69
263.57	463.69
263.802	463.69
264.035	442.69
264.267	445.69
264.499	443.69
264.732	457.69
264.964	454.69
265.197	465.69
265.429	449.69
265.661	454.69
265.894	464.69
266.126	458.69
266.358	487.69
266.591	477.69
266.823	463.69
267.055	466.69
267.287	477.69
267.52	452.69
267.752	485.69
267.984	489.69
268.216	479.69
268.448	506.69
268.681	476.69
268.913	499.69
269.145	491.69
269.377	481.69
269.609	487.69
269.841	488.69
270.073	481.69
270.306	509.69
270.538	501.69
270.77	497.69
271.002	500.69
271.234	518.69
271.466	512.69
271.698	500.69
271.93	508.69
272.162	523.69
272.394	506.69
272.626	500.69
272.858	527.69
273.09	564.69
273.322	535.69
273.553	547.69
273.785	542.69
274.017	536.69
274.249	543.69
274.481	526.69
274.713	545.69
274.945	540.69
275.176	544.69
275.408	565.69
275.64	553.69
275.872	556.69
276.104	565.69
276.335	567.69
276.567	534.69
276.799	564.69
277.031	547.69
277.262	560.69
277.494	574.69
277.726	580.69
277.957	579.69
278.189	561.69
278.421	567.69
278.652	575.69
278.884	574.69
279.115	569.69
279.347	578.69
279.579	570.69
279.81	572.69
280.042	585.69
280.273	579.69
280.505	584.69
280.736	595.69
280.968	582.69
281.199	603.69
281.431	620.69
281.662	602.69
281.894	617.69
282.125	608.69
282.356	634.69
282.588	613.69
282.819	628.69
283.051	623.69
283.282	643.69
283.513	600.69
283.745	625.69
283.976	626.69
284.207	618.69
284.439	631.69
284.67	633.69
284.901	637.69
285.132	670.69
285.364	638.69
285.595	643.69
285.826	632.69
286.057	658.69
286.288	624.69
286.52	650.69
286.751	679.69
286.982	661.69
287.213	660.69
287.444	680.69
287.675	659.69
287.906	647.69
288.138	675.69
288.369	677.69
288.6	662.69
288.831	684.69
289.062	673.69
289.293	688.69
289.524	669.69
289.755	704.69
289.986	660.69
290.217	688.69
290.448	697.69
290.679	671.69
290.91	678.69
291.141	697.69
291.371	690.69
291.602	715.69
291.833	698.69
292.064	681.69
292.295	693.69
292.526	680.69
292.757	664.69
292.987	682.69
293.218	682.69
293.449	671.69
293.68	684.69
293.91	667.69
294.141	684.69
294.372	702.69
294.603	690.69
294.833	693.69
295.064	705.69
295.295	694.69
295.525	706.69
295.756	698.69
295.987	706.69
296.217	729.69
296.448	718.69
296.679	725.69
296.909	730.69
297.14	756.69
297.37	735.69
297.601	744.69
297.831	741.69
298.062	744.69
298.292	743.69
298.523	762.69
298.753	758.69
298.984	741.69
299.214	737.69
299.445	754.69
299.675	743.69
299.905	733.69
300.136	737.69
300.366	766.69
300.597	784.69
300.827	788.69
301.057	764.69
301.288	788.69
301.518	783.69
301.748	800.69
301.979	765.69
302.209	806.69
302.439	793.69
302.669	770.69
302.9	801.69
303.13	767.69
303.36	787.69
303.59	791.69
303.82	798.69
304.051	785.69
304.281	799.69
304.511	802.69
304.741	756.69
304.971	768.69
305.201	778.69
305.431	763.69
305.661	784.69
305.891	779.69
306.121	756.69
306.352	788.69
306.582	784.69
306.812	755.69
307.042	768.69
307.272	756.69
307.502	740.69
307.731	767.69
307.961	770.69
308.191	766.69
308.421	776.69
308.651	784.69
308.881	759.69
309.111	769.69
309.341	756.69
309.571	796.69
309.8	771.69
310.03	774.69
310.26	781.69
310.49	780.69
310.72	764.69
310.949	765.69
311.179	773.69
311.409	792.69
311.639	775.69
311.868	786.69
312.098	802.69
312.328	812.69
312.557	806.69
312.787	784.69
313.017	818.69
313.246	809.69
313.476	809.69
313.706	836.69
313.935	868.69
314.165	816.69
314.394	827.69
314.624	834.69
314.853	839.69
315.083	818.69
315.312	818.69
315.542	820.69
315.771	820.69
316.001	800.69
316.23	823.69
316.46	812.69
316.689	815.69
316.919	817.69
317.148	807.69
317.377	825.69
317.607	835.69
317.836	807.69
318.065	807.69
318.295	787.69
318.524	799.69
318.753	820.69
318.983	810.69
319.212	798.69
319.441	805.69
319.67	816.69
319.9	808.69
320.129	829.69
320.358	820.69
320.587	819.69
320.816	827.69
321.046	843.69
321.275	828.69
321.504	806.69
321.733	853.69
321.962	830.69
322.191	838.69
322.42	844.69
322.649	844.69
322.878	855.69
323.108	842.69
323.337	833.69
323.566	860.69
323.795	857.69
324.024	885.69
324.253	862.69
324.482	850.69
324.71	875.69
324.939	886.69
325.168	896.69
325.397	861.69
325.626	884.69
325.855	916.69
326.084	897.69
326.313	918.69
326.542	928.69
326.77	933.69
326.999	919.69
327.228	892.69
327.457	900.69
327.686	908.69
327.914	907.69
328.143	909.69
328.372	931.69
328.6	947.69
328.829	922.69
329.058	922.69
329.287	922.69
329.515	944.69
329.744	929.69
329.972	961.69
330.201	947.69
330.43	961.69
330.658	941.69
330.887	957.69
331.115	962.69
331.344	988.69
331.572	1000.69
331.801	1025.69
332.03	1035.69
332.258	1055.69
332.486	1117.69
332.715	1139.69
332.943	1177.69
333.172	1215.69
333.4	1243.69
333.629	1320.69
333.857	1353.69
334.085	1302.69
334.314	1294.69
334.542	1255.69
334.771	1250.69
334.999	1183.69
335.227	1167.69
335.455	1182.69
335.684	1150.69
335.912	1171.69
336.14	1136.69
336.369	1128.69
336.597	1125.69
336.825	1140.69
337.053	1140.69
337.281	1131.69
337.51	1080.69
337.738	1091.69
337.966	1062.69
338.194	1074.69
338.422	1046.69
338.65	1080.69
338.878	1074.69
339.106	1030.69
339.334	1024.69
339.562	1014.69
339.79	995.69
340.018	970.69
340.246	976.69
340.474	965.69
340.702	998.69
340.93	990.69
341.158	978.69
341.386	964.69
341.614	998.69
341.842	981.69
342.07	987.69
342.298	1014.69
342.526	958.69
342.754	976.69
342.981	987.69
343.209	1017.69
343.437	1034.69
343.665	1098.69
343.893	1238.69
344.12	1273.69
344.348	1205.69
344.576	1103.69
344.804	1081.69
345.031	1070.69
345.259	987.69
345.487	1011.69
345.714	1012.69
345.942	986.69
346.17	1004.69
346.397	984.69
346.625	984.69
346.853	951.69
347.08	967.69
347.308	1007.69
347.535	968.69
347.763	977.69
347.99	987.69
348.218	978.69
348.445	963.69
348.673	968.69
348.9	956.69
349.128	972.69
349.355	959.69
349.583	955.69
349.81	969.69
350.037	922.69
350.265	933.69
350.492	950.69
350.72	903.69
350.947	932.69
351.174	929.69
351.402	927.69
351.629	958.69
351.856	926.69
352.083	912.69
352.311	894.69
352.538	921.69
352.765	926.69
352.992	938.69
353.22	896.69
353.447	901.69
353.674	905.69
353.901	916.69
354.128	904.69
354.355	896.69
354.583	914.69
354.81	908.69
355.037	905.69
355.264	929.69
355.491	919.69
355.718	910.69
355.945	921.69
356.172	922.69
356.399	904.69
356.626	948.69
356.853	934.69
357.08	949.69
357.307	916.69
357.534	893.69
357.761	919.69
357.988	923.69
358.215	913.69
358.441	921.69
358.668	917.69
358.895	907.69
359.122	911.69
359.349	895.69
359.576	901.69
359.802	919.69
360.029	895.69
360.256	897.69
360.483	931.69
360.709	901.69
360.936	915.69
361.163	914.69
361.39	917.69
361.616	909.69
361.843	906.69
362.07	929.69
362.296	923.69
362.523	907.69
362.749	928.69
362.976	923.69
363.203	881.69
363.429	894.69
363.656	907.69
363.882	890.69
364.109	903.69
364.335	891.69
364.562	911.69
364.788	922.69
365.015	907.69
365.241	928.69
365.468	915.69
365.694	884.69
365.92	889.69
366.147	902.69
366.373	921.69
366.599	908.69
366.826	883.69
367.052	893.69
367.278	904.69
367.505	903.69
367.731	919.69
367.957	908.69
368.184	910.69
368.41	926.69
368.636	906.69
368.862	930.69
369.089	930.69
369.315	920.69
369.541	947.69
369.767	938.69
369.993	924.69
370.219	934.69
370.445	963.69
370.672	952.69
370.898	956.69
371.124	963.69
371.35	1008.69
371.576	987.69
371.802	977.69
372.028	971.69
372.254	967.69
372.48	970.69
372.706	999.69
372.932	1048.69
373.158	1042.69
373.384	1009.69
373.61	971.69
373.835	984.69
374.061	964.69
374.287	970.69
374.513	995.69
374.739	1013.69
374.965	1054.69
375.191	1100.69
375.416	1085.69
375.642	1046.69
375.868	1078.69
376.094	1035.69
376.319	1028.69
376.545	999.69
376.771	1013.69
376.997	1006.69
377.222	998.69
377.448	986.69
377.674	975.69
377.899	1011.69
378.125	962.69
378.35	966.69
378.576	950.69
378.802	975.69
379.027	963.69
379.253	946.69
379.478	967.69
379.704	976.69
379.929	955.69
380.155	990.69
380.38	934.69
380.606	984.69
380.831	958.69
381.057	971.69
381.282	995.69
381.507	978.69
381.733	998.69
381.958	972.69
382.184	990.69
382.409	1016.69
382.634	1034.69
382.86	1027.69
383.085	1017.69
383.31	1062.69
383.535	1081.69
383.761	1078.69
383.986	1100.69
384.211	1119.69
384.436	1134.69
384.662	1147.69
384.887	1180.69
385.112	1175.69
385.337	1178.69
385.562	1178.69
385.787	1179.69
386.013	1199.69
386.238	1211.69
386.463	1223.69
386.688	1190.69
386.913	1150.69
387.138	1160.69
387.363	1157.69
387.588	1188.69
387.813	1152.69
388.038	1171.69
388.263	1153.69
388.488	1173.69
388.713	1161.69
388.938	1148.69
389.163	1116.69
389.387	1150.69
389.612	1152.69
389.837	1142.69
390.062	1135.69
390.287	1139.69
390.512	1137.69
390.736	1167.69
390.961	1172.69
391.186	1198.69
391.411	1233.69
391.636	1292.69
391.86	1291.69
392.085	1331.69
392.31	1356.69
392.534	1321.69
392.759	1312.69
392.984	1228.69
393.208	1243.69
393.433	1235.69
393.658	1245.69
393.882	1246.69
394.107	1229.69
394.331	1254.69
394.556	1221.69
394.78	1280.69
395.005	1284.69
395.229	1264.69
395.454	1303.69
395.678	1334.69
395.903	1347.69
396.127	1332.69
396.352	1246.69
396.576	1252.69
396.801	1226.69
397.025	1238.69
397.249	1300.69
397.474	1318.69
397.698	1319.69
397.922	1310.69
398.147	1305.69
398.371	1350.69
398.595	1388.69
398.82	1482.69
399.044	1530.69
399.268	1737.69
399.492	2046.69
399.717	2360.69
399.941	2377.69
400.165	2036.69
400.389	1824.69
400.613	1620.69
400.837	1552.69
401.062	1513.69
401.286	1499.69
401.51	1472.69
401.734	1449.69
401.958	1498.69
402.182	1539.69
402.406	1515.69
402.63	1584.69
402.854	1603.69
403.078	1635.69
403.302	1674.69
403.526	1705.69
403.75	1767.69
403.974	1756.69
404.198	1740.69
404.422	1747.69
404.645	1758.69
404.869	1696.69
405.093	1695.69
405.317	1674.69
405.541	1657.69
405.765	1660.69
405.988	1635.69
406.212	1647.69
406.436	1638.69
406.66	1696.69
406.883	1703.69
407.107	1820.69
407.331	1903.69
407.555	1938.69
407.778	1955.69
408.002	1883.69
408.226	1824.69
408.449	1792.69
408.673	1683.69
408.896	1662.69
409.12	1667.69
409.344	1723.69
409.567	1644.69
409.791	1704.69
410.014	1695.69
410.238	1668.69
410.461	1636.69
410.685	1658.69
410.908	1637.69
411.132	1557.69
411.355	1535.69
411.578	1540.69
411.802	1506.69
412.025	1562.69
412.249	1616.69
412.472	1574.69
412.695	1520.69
412.919	1482.69
413.142	1511.69
413.365	1479.69
413.589	1532.69
413.812	1499.69
414.035	1460.69
414.258	1441.69
414.482	1477.69
414.705	1566.69
414.928	1521.69
415.151	1539.69
415.374	1473.69
415.597	1488.69
415.821	1488.69
416.044	1452.69
416.267	1443.69
416.49	1446.69
416.713	1437.69
416.936	1455.69
417.159	1480.69
417.382	1456.69
417.605	1476.69
417.828	1472.69
418.051	1510.69
418.274	1525.69
418.497	1476.69
418.72	1544.69
418.943	1530.69
419.166	1630.69
419.389	1756.69
419.611	1666.69
419.834	1598.69
420.057	1605.69
420.28	1527.69
420.503	1499.69
420.726	1480.69
420.948	1464.69
421.171	1511.69
421.394	1491.69
421.617	1508.69
421.839	1487.69
422.062	1509.69
422.285	1475.69
422.507	1532.69
422.73	1539.69
422.953	1532.69
423.175	1530.69
423.398	1629.69
423.621	1609.69
423.843	1621.69
424.066	1620.69
424.288	1599.69
424.511	1597.69
424.733	1571.69
424.956	1566.69
425.178	1515.69
425.401	1534.69
425.623	1513.69
425.846	1467.69
426.068	1464.69
426.291	1405.69
426.513	1436.69
426.735	1370.69
426.958	1398.69
427.18	1319.69
427.402	1395.69
427.625	1356.69
427.847	1377.69
428.069	1348.69
428.292	1338.69
428.514	1309.69
428.736	1339.69
428.958	1336.69
429.181	1290.69
429.403	1285.69
429.625	1276.69
429.847	1273.69
430.069	1263.69
430.292	1319.69
430.514	1282.69
430.736	1286.69
430.958	1308.69
431.18	1305.69
431.402	1321.69
431.624	1300.69
431.846	1295.69
432.068	1305.69
432.29	1370.69
432.512	1323.69
432.734	1350.69
432.956	1322.69
433.178	1367.69
433.4	1330.69
433.622	1353.69
433.844	1354.69
434.066	1352.69
434.287	1332.69
434.509	1435.69
434.731	1470.69
434.953	1494.69
435.175	1536.69
435.397	1504.69
435.618	1441.69
435.84	1395.69
436.062	1370.69
436.284	1339.69
436.505	1345.69
436.727	1327.69
436.949	1337.69
437.17	1345.69
437.392	1310.69
437.614	1317.69
437.835	1250.69
438.057	1287.69
438.278	1278.69
438.5	1254.69
438.721	1268.69
438.943	1280.69
439.165	1301.69
439.386	1298.69
439.608	1318.69
439.829	1318.69
440.05	1318.69
440.272	1355.69
440.493	1340.69
440.715	1358.69
440.936	1390.69
441.158	1414.69
441.379	1450.69
441.6	1543.69
441.822	1538.69
442.043	1528.69
442.264	1531.69
442.486	1480.69
442.707	1482.69
442.928	1460.69
443.149	1497.69
443.371	1481.69
443.592	1524.69
443.813	1515.69
444.034	1534.69
444.255	1582.69
444.476	1651.69
444.698	1778.69
444.919	1859.69
445.14	1930.69
445.361	1742.69
445.582	1563.69
445.803	1480.69
446.024	1400.69
446.245	1428.69
446.466	1351.69
446.687	1352.69
446.908	1360.69
447.129	1323.69
447.35	1294.69
447.571	1288.69
447.792	1276.69
448.013	1266.69
448.234	1248.69
448.455	1223.69
448.675	1210.69
448.896	1248.69
449.117	1191.69
449.338	1219.69
449.559	1200.69
449.779	1200.69
450	1204.69
450.221	1213.69
450.442	1230.69
450.662	1228.69
450.883	1225.69
451.104	1292.69
451.324	1247.69
451.545	1246.69
451.766	1277.69
451.986	1218.69
452.207	1226.69
452.428	1226.69
452.648	1218.69
452.869	1189.69
453.089	1168.69
453.31	1219.69
453.53	1202.69
453.751	1193.69
453.971	1180.69
454.192	1184.69
454.412	1175.69
454.633	1168.69
454.853	1168.69
455.073	1147.69
455.294	1161.69
455.514	1168.69
455.734	1161.69
455.955	1137.69
456.175	1146.69
456.395	1140.69
456.616	1136.69
456.836	1161.69
457.056	1142.69
457.276	1094.69
457.497	1163.69
457.717	1108.69
457.937	1139.69
458.157	1184.69
458.377	1154.69
458.598	1212.69
458.818	1188.69
459.038	1262.69
459.258	1321.69
459.478	1380.69
459.698	1439.69
459.918	1442.69
460.138	1493.69
460.358	1592.69
460.578	1659.69
460.798	1617.69
461.018	1660.69
461.238	1626.69
461.458	1604.69
461.678	1576.69
461.898	1576.69
462.118	1622.69
462.338	1697.69
462.558	1734.69
462.777	1822.69
462.997	2010.69
463.217	2225.69
463.437	2243.69
463.657	2065.69
463.876	1878.69
464.096	1891.69
464.316	1872.69
464.536	1941.69
464.755	1840.69
464.975	1770.69
465.195	1673.69
465.414	1549.69
465.634	1460.69
465.854	1378.69
466.073	1384.69
466.293	1335.69
466.512	1328.69
466.732	1296.69
466.951	1316.69
467.171	1258.69
467.391	1313.69
467.61	1288.69
467.829	1306.69
468.049	1272.69
468.268	1218.69
468.488	1244.69
468.707	1218.69
468.927	1215.69
469.146	1243.69
469.365	1272.69
469.585	1251.69
469.804	1257.69
470.023	1318.69
470.243	1317.69
470.462	1340.69
470.681	1334.69
470.901	1344.69
471.12	1338.69
471.339	1286.69
471.558	1298.69
471.777	1260.69
471.997	1243.69
472.216	1218.69
472.435	1211.69
472.654	1235.69
472.873	1177.69
473.092	1211.69
473.311	1176.69
473.53	1177.69
473.749	1198.69
473.968	1186.69
474.187	1172.69
474.406	1170.69
474.625	1177.69
474.844	1201.69
475.063	1211.69
475.282	1242.69
475.501	1228.69
475.72	1242.69
475.939	1232.69
476.158	1226.69
476.377	1230.69
476.596	1222.69
476.814	1264.69
477.033	1262.69
477.252	1272.69
477.471	1307.69
477.69	1348.69
477.908	1390.69
478.127	1403.69
478.346	1421.69
478.564	1458.69
478.783	1466.69
479.002	1483.69
479.22	1548.69
479.439	1519.69
479.658	1494.69
479.876	1500.69
480.095	1532.69
480.313	1579.69
480.532	1714.69
480.751	1661.69
480.969	1564.69
481.188	1527.69
481.406	1435.69
481.624	1422.69
481.843	1374.69
482.061	1385.69
482.28	1384.69
482.498	1366.69
482.717	1359.69
482.935	1349.69
483.153	1364.69
483.372	1374.69
483.59	1379.69
483.808	1385.69
484.027	1347.69
484.245	1343.69
484.463	1395.69
484.681	1398.69
484.9	1413.69
485.118	1425.69
485.336	1426.69
485.554	1443.69
485.772	1466.69
485.99	1443.69
486.209	1461.69
486.427	1446.69
486.645	1419.69
486.863	1468.69
487.081	1435.69
487.299	1420.69
487.517	1438.69
487.735	1422.69
487.953	1416.69
488.171	1438.69
488.389	1433.69
488.607	1433.69
488.825	1438.69
489.043	1394.69
489.261	1411.69
489.479	1414.69
489.696	1441.69
489.914	1457.69
490.132	1458.69
490.35	1425.69
490.568	1450.69
490.786	1435.69
491.003	1468.69
491.221	1449.69
491.439	1450.69
491.657	1451.69
491.874	1476.69
492.092	1467.69
492.31	1473.69
492.527	1510.69
492.745	1481.69
492.963	1502.69
493.18	1491.69
493.398	1521.69
493.615	1500.69
493.833	1530.69
494.05	1526.69
494.268	1521.69
494.485	1515.69
494.703	1538.69
494.92	1542.69
495.138	1557.69
495.355	1540.69
495.573	1563.69
495.79	1546.69
496.008	1600.69
496.225	1558.69
496.442	1602.69
496.66	1589.69
496.877	1610.69
497.094	1659.69
497.312	1693.69
497.529	1698.69
497.746	1789.69
497.963	1770.69
498.181	1926.69
498.398	1946.69
498.615	2083.69
498.832	2248.69
499.049	2416.69
499.267	2595.69
499.484	2861.69
499.701	3174.69
499.918	3586.69
500.135	4080.69
500.352	4829.69
500.569	5000.69
500.786	4976.69
501.003	4595.69
501.22	4105.69
501.437	3571.69
501.654	3094.69
501.871	2824.69
502.088	2542.69
502.305	2342.69
502.522	2245.69
502.739	2141.69
502.956	2035.69
503.172	1950.69
503.389	1858.69
503.606	1816.69
503.823	1769.69
504.04	1788.69
504.256	1779.69
504.473	1847.69
504.69	1889.69
504.907	1822.69
505.123	1670.69
505.34	1594.69
505.557	1554.69
505.773	1480.69
505.99	1481.69
506.207	1428.69
506.423	1430.69
506.64	1440.69
506.856	1382.69
507.073	1368.69
507.289	1324.69
507.506	1355.69
507.722	1354.69
507.939	1328.69
508.155	1337.69
508.372	1326.69
508.588	1274.69
508.805	1272.69
509.021	1304.69
509.238	1286.69
509.454	1260.69
509.67	1271.69
509.887	1267.69
510.103	1267.69
510.319	1235.69
510.536	1259.69
510.752	1245.69
510.968	1236.69
511.184	1220.69
511.401	1235.69
511.617	1221.69
511.833	1270.69
512.049	1223.69
512.265	1224.69
512.481	1237.69
512.698	1235.69
512.914	1214.69
513.13	1214.69
513.346	1225.69
513.562	1234.69
513.778	1248.69
513.994	1250.69
514.21	1220.69
514.426	1229.69
514.642	1258.69
514.858	1279.69
515.074	1311.69
515.29	1305.69
515.506	1300.69
515.721	1298.69
515.937	1309.69
516.153	1358.69
516.369	1411.69
516.585	1424.69
516.801	1476.69
517.016	1535.69
517.232	1590.69
517.448	1713.69
517.664	1748.69
517.879	1794.69
518.095	1812.69
518.311	1730.69
518.527	1663.69
518.742	1580.69
518.958	1514.69
519.173	1467.69
519.389	1424.69
519.605	1359.69
519.82	1368.69
520.036	1321.69
520.251	1272.69
520.467	1265.69
520.682	1256.69
520.898	1243.69
521.113	1219.69
521.329	1224.69
521.544	1176.69
521.76	1208.69
521.975	1204.69
522.19	1163.69
522.406	1175.69
522.621	1176.69
522.836	1128.69
523.052	1172.69
523.267	1148.69
523.482	1142.69
523.698	1152.69
523.913	1167.69
524.128	1148.69
524.343	1138.69
524.559	1122.69
524.774	1139.69
524.989	1144.69
525.204	1140.69
525.419	1109.69
525.634	1123.69
525.849	1138.69
526.064	1117.69
526.28	1106.69
526.495	1110.69
526.71	1124.69
526.925	1120.69
527.14	1108.69
527.355	1101.69
527.57	1116.69
527.785	1139.69
527.999	1126.69
528.214	1108.69
528.429	1134.69
528.644	1133.69
528.859	1120.69
529.074	1098.69
529.289	1122.69
529.503	1142.69
529.718	1129.69
529.933	1120.69
530.148	1102.69
530.363	1104.69
530.577	1128.69
530.792	1123.69
531.007	1123.69
531.221	1135.69
531.436	1117.69
531.651	1145.69
531.865	1132.69
532.08	1102.69
532.295	1097.69
532.509	1106.69
532.724	1083.69
532.938	1116.69
533.153	1093.69
533.367	1134.69
533.582	1099.69
533.796	1112.69
534.011	1101.69
534.225	1087.69
534.44	1095.69
534.654	1055.69
534.868	1102.69
535.083	1047.69
535.297	1061.69
535.511	1075.69
535.726	1059.69
535.94	1050.69
536.154	1047.69
536.369	1018.69
536.583	1041.69
536.797	1042.69
537.011	1040.69
537.225	1022.69
537.44	1021.69
537.654	1037.69
537.868	1053.69
538.082	1009.69
538.296	1027.69
538.51	1019.69
538.724	1020.69
538.938	980.69
539.153	1002.69
539.367	1022.69
539.581	1014.69
539.795	1036.69
540.009	1020.69
540.222	972.69
540.436	967.69
540.65	966.69
540.864	1010.69
541.078	976.69
541.292	997.69
541.506	986.69
541.72	1023.69
541.934	996.69
542.147	995.69
542.361	981.69
542.575	969.69
542.789	981.69
543.002	990.69
543.216	995.69
543.43	992.69
543.644	977.69
543.857	969.69
544.071	987.69
544.285	1003.69
544.498	1029.69
544.712	997.69
544.925	1010.69
545.139	1022.69
545.352	1015.69
545.566	1011.69
545.779	1035.69
545.993	1002.69
546.206	989.69
546.42	1002.69
546.633	991.69
546.847	977.69
547.06	1013.69
547.274	1042.69
547.487	1010.69
547.7	1009.69
547.914	1040.69
548.127	1019.69
548.34	1021.69
548.554	997.69
548.767	1034.69
548.98	1000.69
549.193	1022.69
549.407	1031.69
549.62	1040.69
549.833	1075.69
550.046	1057.69
550.259	1067.69
550.473	1007.69
550.686	1001.69
550.899	1008.69
551.112	986.69
551.325	1024.69
551.538	996.69
551.751	1001.69
551.964	1004.69
552.177	1010.69
552.39	990.69
552.603	1063.69
552.816	1061.69
553.029	1109.69
553.242	1116.69
553.455	1147.69
553.667	1183.69
553.88	1138.69
554.093	1096.69
554.306	1077.69
554.519	1059.69
554.732	1019.69
554.944	977.69
555.157	982.69
555.37	966.69
555.583	977.69
555.795	956.69
556.008	899.69
556.221	900.69
556.433	894.69
556.646	878.69
556.859	865.69
557.071	871.69
557.284	862.69
557.496	863.69
557.709	875.69
557.921	869.69
558.134	867.69
558.346	834.69
558.559	856.69
558.771	839.69
558.984	844.69
559.196	846.69
559.409	839.69
559.621	812.69
559.833	830.69
560.046	851.69
560.258	850.69
560.47	803.69
560.683	817.69
560.895	830.69
561.107	832.69
561.32	823.69
561.532	812.69
561.744	830.69
561.956	822.69
562.168	835.69
562.381	834.69
562.593	831.69
562.805	858.69
563.017	847.69
563.229	826.69
563.441	845.69
563.653	825.69
563.865	806.69
564.077	856.69
564.289	868.69
564.501	858.69
564.713	909.69
564.925	902.69
565.137	891.69
565.349	951.69
565.561	946.69
565.773	1006.69
565.985	1052.69
566.197	1107.69
566.408	1214.69
566.62	1295.69
566.832	1394.69
567.044	1412.69
567.255	1422.69
567.467	1466.69
567.679	1565.69
567.891	1702.69
568.102	1772.69
568.314	1648.69
568.526	1499.69
568.737	1328.69
568.949	1209.69
569.161	1130.69
569.372	1012.69
569.584	961.69
569.795	922.69
570.007	888.69
570.218	867.69
570.43	859.69
570.641	853.69
570.853	841.69
571.064	885.69
571.276	886.69
571.487	840.69
571.698	834.69
571.91	796.69
572.121	757.69
572.333	728.69
572.544	750.69
572.755	729.69
572.966	720.69
573.178	714.69
573.389	723.69
573.6	700.69
573.811	686.69
574.023	672.69
574.234	684.69
574.445	671.69
574.656	674.69
574.867	690.69
575.078	691.69
575.289	688.69
575.501	665.69
575.712	675.69
575.923	648.69
576.134	652.69
576.345	636.69
576.556	629.69
576.767	643.69
576.978	651.69
577.188	623.69
577.399	612.69
577.61	618.69
577.821	614.69
578.032	602.69
578.243	624.69
578.454	622.69
578.665	615.69
578.875	598.69
579.086	603.69
579.297	595.69
579.508	593.69
579.718	590.69
579.929	582.69
580.14	599.69
580.35	590.69
580.561	600.69
580.772	598.69
580.982	587.69
581.193	579.69
581.403	571.69
581.614	543.69
581.825	572.69
582.035	574.69
582.246	559.69
582.456	568.69
582.667	562.69
582.877	570.69
583.087	577.69
583.298	568.69
583.508	585.69
583.719	563.69
583.929	555.69
584.139	558.69
584.35	555.69
584.56	574.69
584.77	561.69
584.981	561.69
585.191	552.69
585.401	570.69
585.611	551.69
585.821	543.69
586.032	529.69
586.242	559.69
586.452	567.69
586.662	562.69
586.872	534.69
587.082	552.69
587.292	556.69
587.502	528.69
587.713	544.69
587.923	546.69
588.133	547.69
588.343	536.69
588.553	522.69
588.762	530.69
588.972	539.69
589.182	545.69
589.392	540.69
589.602	540.69
589.812	555.69
590.022	537.69
590.232	540.69
590.441	528.69
590.651	566.69
590.861	563.69
591.071	537.69
591.281	549.69
591.49	585.69
591.7	601.69
591.91	587.69
592.119	588.69
592.329	597.69
592.539	635.69
592.748	660.69
592.958	672.69
593.167	695.69
593.377	699.69
593.587	700.69
593.796	682.69
594.006	740.69
594.215	731.69
594.424	742.69
594.634	731.69
594.843	682.69
595.053	640.69
595.262	631.69
595.472	598.69
595.681	554.69
595.89	537.69
596.1	551.69
596.309	537.69
596.518	550.69
596.727	522.69
596.937	508.69
597.146	482.69
597.355	512.69
597.564	497.69
597.774	484.69
597.983	498.69
598.192	489.69
598.401	474.69
598.61	488.69
598.819	479.69
599.028	484.69
599.237	451.69
599.446	454.69
599.655	479.69
599.864	461.69
600.073	463.69
600.282	459.69
600.491	456.69
600.7	450.69
600.909	472.69
601.118	452.69
601.327	440.69
601.536	430.69
601.745	443.69
601.953	447.69
602.162	442.69
602.371	422.69
602.58	441.69
602.789	446.69
602.997	426.69
603.206	447.69
603.415	446.69
603.623	411.69
603.832	432.69
604.041	417.69
604.249	432.69
604.458	398.69
604.666	431.69
604.875	412.69
605.084	392.69
605.292	415.69
605.501	443.69
605.709	407.69
605.918	433.69
606.126	438.69
606.334	397.69
606.543	402.69
606.751	407.69
606.96	400.69
607.168	404.69
607.376	389.69
607.585	392.69
607.793	396.69
608.001	422.69
608.21	394.69
608.418	396.69
608.626	385.69
608.834	374.69
609.043	382.69
609.251	399.69
609.459	415.69
609.667	399.69
609.875	385.69
610.083	377.69
610.291	408.69
610.499	413.69
610.707	395.69
610.916	392.69
611.124	397.69
611.332	389.69
611.54	399.69
611.748	383.69
611.955	387.69
612.163	378.69
612.371	396.69
612.579	380.69
612.787	377.69
612.995	383.69
613.203	410.69
613.411	379.69
613.618	372.69
613.826	384.69
614.034	375.69
614.242	382.69
614.449	374.69
614.657	375.69
614.865	374.69
615.072	375.69
615.28	382.69
615.488	371.69
615.695	386.69
615.903	379.69
616.111	376.69
616.318	370.69
616.526	386.69
616.733	404.69
616.941	379.69
617.148	379.69
617.356	376.69
617.563	376.69
617.771	394.69
617.978	370.69
618.185	374.69
618.393	369.69
618.6	390.69
618.807	383.69
619.015	380.69
619.222	399.69
619.429	359.69
619.637	373.69
619.844	374.69
620.051	351.69
620.258	349.69
620.466	361.69
620.673	355.69
620.88	353.69
621.087	344.69
621.294	372.69
621.501	369.69
621.708	360.69
621.915	338.69
622.122	350.69
622.329	343.69
622.536	359.69
622.743	342.69
622.95	366.69
623.157	345.69
623.364	341.69
623.571	319.69
623.778	330.69
623.985	361.69
624.192	340.69
624.399	334.69
624.606	349.69
624.812	335.69
625.019	336.69
625.226	331.69
625.433	329.69
625.639	318.69
625.846	327.69
626.053	310.69
626.259	322.69
626.466	320.69
626.673	336.69
626.879	318.69
627.086	311.69
627.293	311.69
627.499	325.69
627.706	310.69
627.912	296.69
628.119	294.69
628.325	302.69
628.532	314.69
628.738	306.69
628.945	300.69
629.151	303.69
629.357	311.69
629.564	296.69
629.77	287.69
629.976	291.69
630.183	308.69
630.389	297.69
630.595	293.69
630.802	304.69
631.008	288.69
631.214	282.69
631.42	296.69
631.627	303.69
631.833	303.69
632.039	279.69
632.245	275.69
632.451	289.69
632.657	277.69
632.863	286.69
633.069	297.69
633.275	283.69
633.481	268.69
633.688	265.69
633.893	287.69
634.099	281.69
634.305	286.69
634.511	272.69
634.717	289.69
634.923	282.69
635.129	259.69
635.335	272.69
635.541	253.69
635.747	281.69
635.952	278.69
636.158	259.69
636.364	282.69
636.57	284.69
636.775	265.69
636.981	283.69
637.187	261.69
637.392	277.69
637.598	272.69
637.804	283.69
638.009	258.69
638.215	261.69
638.421	270.69
638.626	255.69
638.832	266.69
639.037	266.69
639.243	264.69
639.448	263.69
639.654	250.69
639.859	264.69
640.065	249.69
640.27	262.69
640.475	254.69
640.681	252.69
640.886	247.69
641.091	251.69
641.297	234.69
641.502	246.69
641.707	245.69
641.913	236.69
642.118	232.69
642.323	241.69
642.528	247.69
642.733	242.69
642.939	243.69
643.144	236.69
643.349	245.69
643.554	260.69
643.759	259.69
643.964	231.69
644.169	242.69
644.374	232.69
644.579	240.69
644.784	225.69
644.989	247.69
645.194	233.69
645.399	236.69
645.604	223.69
645.809	219.69
646.014	243.69
646.219	233.69
646.423	243.69
646.628	249.69
646.833	233.69
647.038	233.69
647.243	250.69
647.447	219.69
647.652	248.69
647.857	237.69
648.062	238.69
648.266	262.69
648.471	238.69
648.676	251.69
648.88	242.69
649.085	228.69
649.289	225.69
649.494	224.69
649.698	234.69
649.903	228.69
650.107	209.69
650.312	218.69
650.516	233.69
650.721	217.69
650.925	220.69
651.13	223.69
651.334	203.69
651.539	192.69
651.743	196.69
651.947	208.69
652.152	195.69
652.356	201.69
652.56	186.69
652.764	187.69
652.969	182.69
653.173	195.69
653.377	154.69
653.581	175.69
653.785	179.69
653.99	177.69
654.194	178.69
654.398	167.69
654.602	163.69
654.806	159.69
655.01	167.69
655.214	166.69
655.418	171.69
655.622	179.69
655.826	160.69
656.03	161.69
656.234	152.69
656.438	158.69
656.642	148.69
656.846	161.69
657.049	150.69
657.253	141.69
657.457	125.69
657.661	138.69
657.865	135.69
658.068	130.69
658.272	128.69
658.476	108.69
658.68	113.69
658.883	120.69
659.087	130.69
659.291	101.69
659.494	94.69
659.698	111.69
659.901	105.69
660.105	111.69
660.309	102.69
660.512	103.69
660.716	106.69
660.919	99.69
661.123	98.69
661.326	100.69
661.53	83.69
661.733	84.69
661.936	88.69
662.14	82.69
662.343	85.69
662.546	79.69
662.75	80.69
662.953	90.69
663.156	88.69
663.36	83.69
663.563	74.69
663.766	91.69
663.969	84.69
664.173	85.69
664.376	90.69
664.579	75.69
664.782	78.69
664.985	88.69
665.188	79.69
665.391	82.69
665.594	71.69
665.797	76.69
666	73.69
666.203	79.69
666.406	92.69
666.609	79.69
666.812	90.69
667.015	83.69
667.218	72.69
667.421	62.69
667.624	70.69
667.827	82.69
668.03	90.69
668.232	81.69
668.435	90.69
668.638	83.69
668.841	70.69
669.043	79.69
669.246	91.69
669.449	86.69
669.651	86.69
669.854	83.69
670.057	74.69
670.259	84.69
670.462	86.69
670.665	84.69
670.867	83.69
671.07	91.69
671.272	82.69
671.475	98.69
671.677	86.69
671.88	66.69
672.082	70.69
672.284	89.69
672.487	91.69
672.689	68.69
672.892	101.69
