Data from Ni(NO3)2@0.5M.TitratingCurve.Agarose3%dH2O.NegLispCup.LampEnergy10.LIBS07252019_HRD10591_17-58-41-565.txt Node
Date: Thu Jul 25 17:58:41 EDT 2019
User: cochatt
Spectrometer: HR+D1059
Trigger mode: 1
Integration Time (sec): 1.000000E-1
Scans to average: 1
Electric dark correction enabled: true
Nonlinearity correction enabled: false
Boxcar width: 0
XAxis mode: Wavelengths
Number of Pixels in Spectrum: 2048
>>>>>Begin Spectral Data<<<<<
223.165	-22.88
223.4	-22.88
223.635	-22.88
223.869	-23.88
224.104	-19.88
224.338	-10.88
224.573	-20.88
224.808	-2.88
225.042	-3.88
225.277	-5.88
225.511	-9.88
225.746	0.12
225.98	12.12
226.215	20.12
226.449	14.12
226.683	17.12
226.918	26.12
227.152	31.12
227.387	43.12
227.621	19.12
227.856	40.12
228.09	44.12
228.324	54.12
228.559	54.12
228.793	90.12
229.027	131.12
229.262	160.12
229.496	147.12
229.73	166.12
229.964	194.12
230.199	230.12
230.433	220.12
230.667	215.12
230.901	214.12
231.136	200.12
231.37	195.12
231.604	199.12
231.838	230.12
232.072	236.12
232.306	222.12
232.541	207.12
232.775	201.12
233.009	187.12
233.243	186.12
233.477	170.12
233.711	189.12
233.945	185.12
234.179	186.12
234.413	193.12
234.647	197.12
234.881	199.12
235.115	187.12
235.349	175.12
235.583	175.12
235.817	180.12
236.051	168.12
236.285	189.12
236.519	183.12
236.753	180.12
236.987	193.12
237.221	188.12
237.455	183.12
237.689	180.12
237.922	188.12
238.156	185.12
238.39	190.12
238.624	192.12
238.858	201.12
239.091	206.12
239.325	223.12
239.559	221.12
239.793	278.12
240.027	260.12
240.26	224.12
240.494	212.12
240.728	198.12
240.961	204.12
241.195	200.12
241.429	230.12
241.662	238.12
241.896	242.12
242.13	259.12
242.363	262.12
242.597	240.12
242.83	219.12
243.064	233.12
243.298	209.12
243.531	230.12
243.765	249.12
243.998	261.12
244.232	271.12
244.465	267.12
244.699	251.12
244.932	235.12
245.166	247.12
245.399	243.12
245.633	264.12
245.866	250.12
246.099	265.12
246.333	268.12
246.566	250.12
246.8	256.12
247.033	248.12
247.266	252.12
247.5	254.12
247.733	267.12
247.966	287.12
248.2	276.12
248.433	272.12
248.666	272.12
248.899	286.12
249.133	271.12
249.366	280.12
249.599	284.12
249.832	291.12
250.066	284.12
250.299	307.12
250.532	293.12
250.765	298.12
250.998	299.12
251.231	346.12
251.465	375.12
251.698	345.12
251.931	344.12
252.164	332.12
252.397	327.12
252.63	325.12
252.863	326.12
253.096	344.12
253.329	332.12
253.562	327.12
253.795	349.12
254.028	327.12
254.261	336.12
254.494	319.12
254.727	334.12
254.96	356.12
255.193	363.12
255.426	350.12
255.659	366.12
255.892	361.12
256.124	372.12
256.357	349.12
256.59	373.12
256.823	368.12
257.056	395.12
257.289	368.12
257.521	365.12
257.754	379.12
257.987	368.12
258.22	364.12
258.452	378.12
258.685	381.12
258.918	381.12
259.151	391.12
259.383	414.12
259.616	415.12
259.849	401.12
260.081	393.12
260.314	381.12
260.547	387.12
260.779	403.12
261.012	421.12
261.244	424.12
261.477	428.12
261.71	411.12
261.942	425.12
262.175	397.12
262.407	411.12
262.64	404.12
262.872	428.12
263.105	433.12
263.337	441.12
263.57	423.12
263.802	412.12
264.035	413.12
264.267	436.12
264.499	439.12
264.732	443.12
264.964	448.12
265.197	442.12
265.429	446.12
265.661	447.12
265.894	440.12
266.126	428.12
266.358	457.12
266.591	451.12
266.823	452.12
267.055	450.12
267.287	457.12
267.52	461.12
267.752	463.12
267.984	469.12
268.216	484.12
268.448	482.12
268.681	479.12
268.913	483.12
269.145	502.12
269.377	483.12
269.609	460.12
269.841	464.12
270.073	468.12
270.306	485.12
270.538	509.12
270.77	502.12
271.002	511.12
271.234	485.12
271.466	488.12
271.698	485.12
271.93	488.12
272.162	485.12
272.394	513.12
272.626	519.12
272.858	504.12
273.09	510.12
273.322	525.12
273.553	493.12
273.785	503.12
274.017	529.12
274.249	530.12
274.481	526.12
274.713	526.12
274.945	538.12
275.176	526.12
275.408	527.12
275.64	503.12
275.872	536.12
276.104	547.12
276.335	521.12
276.567	528.12
276.799	558.12
277.031	567.12
277.262	548.12
277.494	550.12
277.726	559.12
277.957	574.12
278.189	583.12
278.421	540.12
278.652	565.12
278.884	563.12
279.115	548.12
279.347	556.12
279.579	574.12
279.81	577.12
280.042	544.12
280.273	557.12
280.505	583.12
280.736	565.12
280.968	571.12
281.199	576.12
281.431	591.12
281.662	595.12
281.894	616.12
282.125	573.12
282.356	582.12
282.588	597.12
282.819	591.12
283.051	591.12
283.282	599.12
283.513	595.12
283.745	597.12
283.976	602.12
284.207	613.12
284.439	612.12
284.67	585.12
284.901	598.12
285.132	618.12
285.364	614.12
285.595	613.12
285.826	622.12
286.057	613.12
286.288	604.12
286.52	637.12
286.751	644.12
286.982	634.12
287.213	652.12
287.444	628.12
287.675	657.12
287.906	647.12
288.138	635.12
288.369	619.12
288.6	647.12
288.831	641.12
289.062	641.12
289.293	638.12
289.524	618.12
289.755	635.12
289.986	641.12
290.217	647.12
290.448	664.12
290.679	662.12
290.91	639.12
291.141	658.12
291.371	657.12
291.602	652.12
291.833	645.12
292.064	636.12
292.295	629.12
292.526	655.12
292.757	640.12
292.987	669.12
293.218	650.12
293.449	657.12
293.68	651.12
293.91	640.12
294.141	659.12
294.372	635.12
294.603	687.12
294.833	670.12
295.064	663.12
295.295	679.12
295.525	672.12
295.756	664.12
295.987	667.12
296.217	672.12
296.448	638.12
296.679	661.12
296.909	650.12
297.14	664.12
297.37	697.12
297.601	688.12
297.831	678.12
298.062	694.12
298.292	681.12
298.523	707.12
298.753	735.12
298.984	708.12
299.214	707.12
299.445	683.12
299.675	710.12
299.905	741.12
300.136	716.12
300.366	765.12
300.597	786.12
300.827	768.12
301.057	736.12
301.288	736.12
301.518	771.12
301.748	761.12
301.979	733.12
302.209	729.12
302.439	757.12
302.669	760.12
302.9	759.12
303.13	748.12
303.36	740.12
303.59	750.12
303.82	769.12
304.051	797.12
304.281	783.12
304.511	755.12
304.741	771.12
304.971	806.12
305.201	796.12
305.431	778.12
305.661	787.12
305.891	809.12
306.121	777.12
306.352	761.12
306.582	751.12
306.812	753.12
307.042	742.12
307.272	765.12
307.502	745.12
307.731	766.12
307.961	739.12
308.191	742.12
308.421	759.12
308.651	738.12
308.881	750.12
309.111	762.12
309.341	783.12
309.571	760.12
309.8	801.12
310.03	812.12
310.26	862.12
310.49	847.12
310.72	800.12
310.949	799.12
311.179	797.12
311.409	803.12
311.639	807.12
311.868	807.12
312.098	797.12
312.328	819.12
312.557	809.12
312.787	765.12
313.017	842.12
313.246	823.12
313.476	845.12
313.706	859.12
313.935	839.12
314.165	844.12
314.394	847.12
314.624	852.12
314.853	831.12
315.083	844.12
315.312	820.12
315.542	856.12
315.771	860.12
316.001	842.12
316.23	844.12
316.46	837.12
316.689	863.12
316.919	852.12
317.148	844.12
317.377	856.12
317.607	833.12
317.836	839.12
318.065	867.12
318.295	879.12
318.524	864.12
318.753	849.12
318.983	859.12
319.212	877.12
319.441	855.12
319.67	893.12
319.9	855.12
320.129	887.12
320.358	853.12
320.587	878.12
320.816	899.12
321.046	908.12
321.275	918.12
321.504	892.12
321.733	912.12
321.962	921.12
322.191	915.12
322.42	927.12
322.649	897.12
322.878	919.12
323.108	911.12
323.337	934.12
323.566	942.12
323.795	930.12
324.024	955.12
324.253	933.12
324.482	947.12
324.71	923.12
324.939	936.12
325.168	941.12
325.397	956.12
325.626	947.12
325.855	973.12
326.084	967.12
326.313	965.12
326.542	973.12
326.77	969.12
326.999	948.12
327.228	937.12
327.457	985.12
327.686	958.12
327.914	997.12
328.143	939.12
328.372	967.12
328.6	997.12
328.829	978.12
329.058	947.12
329.287	968.12
329.515	981.12
329.744	981.12
329.972	972.12
330.201	983.12
330.43	995.12
330.658	999.12
330.887	1006.12
331.115	996.12
331.344	1021.12
331.572	1018.12
331.801	1024.12
332.03	1036.12
332.258	1066.12
332.486	1052.12
332.715	1085.12
332.943	1068.12
333.172	1055.12
333.4	1074.12
333.629	1108.12
333.857	1110.12
334.085	1073.12
334.314	1116.12
334.542	1120.12
334.771	1145.12
334.999	1112.12
335.227	1139.12
335.455	1109.12
335.684	1131.12
335.912	1142.12
336.14	1127.12
336.369	1148.12
336.597	1152.12
336.825	1164.12
337.053	1185.12
337.281	1170.12
337.51	1161.12
337.738	1151.12
337.966	1162.12
338.194	1193.12
338.422	1167.12
338.65	1125.12
338.878	1120.12
339.106	1117.12
339.334	1143.12
339.562	1131.12
339.79	1100.12
340.018	1068.12
340.246	1096.12
340.474	1087.12
340.702	1107.12
340.93	1118.12
341.158	1126.12
341.386	1155.12
341.614	1183.12
341.842	1145.12
342.07	1091.12
342.298	1085.12
342.526	1081.12
342.754	1110.12
342.981	1098.12
343.209	1100.12
343.437	1141.12
343.665	1137.12
343.893	1144.12
344.12	1129.12
344.348	1121.12
344.576	1168.12
344.804	1183.12
345.031	1114.12
345.259	1143.12
345.487	1155.12
345.714	1148.12
345.942	1124.12
346.17	1141.12
346.397	1140.12
346.625	1088.12
346.853	1063.12
347.08	1055.12
347.308	1080.12
347.535	1086.12
347.763	1062.12
347.99	1050.12
348.218	1051.12
348.445	1049.12
348.673	1055.12
348.9	1055.12
349.128	1042.12
349.355	1085.12
349.583	1120.12
349.81	1070.12
350.037	1060.12
350.265	1045.12
350.492	1055.12
350.72	997.12
350.947	1059.12
351.174	1071.12
351.402	1105.12
351.629	1143.12
351.856	1131.12
352.083	1069.12
352.311	1084.12
352.538	1104.12
352.765	1131.12
352.992	1030.12
353.22	1014.12
353.447	1019.12
353.674	1025.12
353.901	1009.12
354.128	1006.12
354.355	1003.12
354.583	986.12
354.81	989.12
355.037	1038.12
355.264	1025.12
355.491	990.12
355.718	1023.12
355.945	1020.12
356.172	1034.12
356.399	1028.12
356.626	1069.12
356.853	1086.12
357.08	1030.12
357.307	1025.12
357.534	1050.12
357.761	1002.12
357.988	1006.12
358.215	1012.12
358.441	1040.12
358.668	1002.12
358.895	1006.12
359.122	1048.12
359.349	982.12
359.576	1001.12
359.802	1031.12
360.029	1053.12
360.256	1038.12
360.483	1000.12
360.709	1032.12
360.936	1043.12
361.163	1059.12
361.39	1036.12
361.616	1016.12
361.843	1075.12
362.07	1098.12
362.296	1107.12
362.523	1016.12
362.749	1064.12
362.976	1027.12
363.203	1008.12
363.429	993.12
363.656	1026.12
363.882	1031.12
364.109	1045.12
364.335	1012.12
364.562	1029.12
364.788	1020.12
365.015	1041.12
365.241	1068.12
365.468	1033.12
365.694	1048.12
365.92	1017.12
366.147	1019.12
366.373	1039.12
366.599	1039.12
366.826	1037.12
367.052	1044.12
367.278	1028.12
367.505	1065.12
367.731	1045.12
367.957	1062.12
368.184	1025.12
368.41	1077.12
368.636	1019.12
368.862	1092.12
369.089	1060.12
369.315	1055.12
369.541	1066.12
369.767	1085.12
369.993	1038.12
370.219	1081.12
370.445	1066.12
370.672	1066.12
370.898	1099.12
371.124	1075.12
371.35	1095.12
371.576	1091.12
371.802	1095.12
372.028	1106.12
372.254	1083.12
372.48	1125.12
372.706	1136.12
372.932	1102.12
373.158	1109.12
373.384	1091.12
373.61	1074.12
373.835	1104.12
374.061	1086.12
374.287	1066.12
374.513	1111.12
374.739	1098.12
374.965	1111.12
375.191	1113.12
375.416	1109.12
375.642	1089.12
375.868	1104.12
376.094	1108.12
376.319	1117.12
376.545	1102.12
376.771	1096.12
376.997	1069.12
377.222	1065.12
377.448	1072.12
377.674	1085.12
377.899	1095.12
378.125	1063.12
378.35	1083.12
378.576	1105.12
378.802	1087.12
379.027	1114.12
379.253	1096.12
379.478	1072.12
379.704	1047.12
379.929	1087.12
380.155	1066.12
380.38	1085.12
380.606	1088.12
380.831	1097.12
381.057	1098.12
381.282	1099.12
381.507	1088.12
381.733	1099.12
381.958	1085.12
382.184	1127.12
382.409	1130.12
382.634	1103.12
382.86	1097.12
383.085	1130.12
383.31	1152.12
383.535	1131.12
383.761	1115.12
383.986	1151.12
384.211	1152.12
384.436	1141.12
384.662	1143.12
384.887	1148.12
385.112	1164.12
385.337	1179.12
385.562	1191.12
385.787	1182.12
386.013	1223.12
386.238	1209.12
386.463	1231.12
386.688	1199.12
386.913	1157.12
387.138	1227.12
387.363	1236.12
387.588	1213.12
387.813	1191.12
388.038	1229.12
388.263	1249.12
388.488	1251.12
388.713	1227.12
388.938	1194.12
389.163	1195.12
389.387	1225.12
389.612	1208.12
389.837	1239.12
390.062	1207.12
390.287	1251.12
390.512	1228.12
390.736	1203.12
390.961	1262.12
391.186	1248.12
391.411	1253.12
391.636	1244.12
391.86	1269.12
392.085	1281.12
392.31	1271.12
392.534	1268.12
392.759	1305.12
392.984	1280.12
393.208	1294.12
393.433	1275.12
393.658	1254.12
393.882	1273.12
394.107	1266.12
394.331	1270.12
394.556	1288.12
394.78	1287.12
395.005	1264.12
395.229	1247.12
395.454	1288.12
395.678	1304.12
395.903	1290.12
396.127	1319.12
396.352	1301.12
396.576	1310.12
396.801	1328.12
397.025	1319.12
397.249	1328.12
397.474	1342.12
397.698	1349.12
397.922	1388.12
398.147	1364.12
398.371	1401.12
398.595	1411.12
398.82	1428.12
399.044	1464.12
399.268	1457.12
399.492	1547.12
399.717	1573.12
399.941	1587.12
400.165	1567.12
400.389	1557.12
400.613	1525.12
400.837	1486.12
401.062	1495.12
401.286	1459.12
401.51	1444.12
401.734	1420.12
401.958	1444.12
402.182	1422.12
402.406	1411.12
402.63	1425.12
402.854	1417.12
403.078	1405.12
403.302	1482.12
403.526	1440.12
403.75	1420.12
403.974	1467.12
404.198	1411.12
404.422	1430.12
404.645	1424.12
404.869	1449.12
405.093	1450.12
405.317	1451.12
405.541	1450.12
405.765	1518.12
405.988	1454.12
406.212	1507.12
406.436	1513.12
406.66	1527.12
406.883	1526.12
407.107	1579.12
407.331	1580.12
407.555	1632.12
407.778	1583.12
408.002	1570.12
408.226	1581.12
408.449	1635.12
408.673	1597.12
408.896	1541.12
409.12	1551.12
409.344	1588.12
409.567	1529.12
409.791	1526.12
410.014	1518.12
410.238	1516.12
410.461	1485.12
410.685	1513.12
410.908	1502.12
411.132	1520.12
411.355	1486.12
411.578	1475.12
411.802	1471.12
412.025	1457.12
412.249	1516.12
412.472	1467.12
412.695	1447.12
412.919	1451.12
413.142	1436.12
413.365	1444.12
413.589	1455.12
413.812	1429.12
414.035	1449.12
414.258	1454.12
414.482	1442.12
414.705	1466.12
414.928	1402.12
415.151	1414.12
415.374	1433.12
415.597	1457.12
415.821	1396.12
416.044	1412.12
416.267	1411.12
416.49	1378.12
416.713	1358.12
416.936	1398.12
417.159	1365.12
417.382	1395.12
417.605	1390.12
417.828	1332.12
418.051	1361.12
418.274	1384.12
418.497	1333.12
418.72	1386.12
418.943	1372.12
419.166	1443.12
419.389	1516.12
419.611	1476.12
419.834	1460.12
420.057	1431.12
420.28	1407.12
420.503	1377.12
420.726	1335.12
420.948	1360.12
421.171	1350.12
421.394	1347.12
421.617	1363.12
421.839	1390.12
422.062	1360.12
422.285	1349.12
422.507	1359.12
422.73	1335.12
422.953	1356.12
423.175	1349.12
423.398	1353.12
423.621	1386.12
423.843	1358.12
424.066	1351.12
424.288	1374.12
424.511	1342.12
424.733	1376.12
424.956	1361.12
425.178	1371.12
425.401	1360.12
425.623	1366.12
425.846	1308.12
426.068	1378.12
426.291	1360.12
426.513	1366.12
426.735	1353.12
426.958	1342.12
427.18	1329.12
427.402	1341.12
427.625	1324.12
427.847	1346.12
428.069	1346.12
428.292	1344.12
428.514	1336.12
428.736	1315.12
428.958	1344.12
429.181	1315.12
429.403	1315.12
429.625	1314.12
429.847	1323.12
430.069	1294.12
430.292	1315.12
430.514	1315.12
430.736	1364.12
430.958	1342.12
431.18	1330.12
431.402	1308.12
431.624	1327.12
431.846	1318.12
432.068	1308.12
432.29	1345.12
432.512	1308.12
432.734	1314.12
432.956	1349.12
433.178	1368.12
433.4	1388.12
433.622	1387.12
433.844	1408.12
434.066	1366.12
434.287	1370.12
434.509	1383.12
434.731	1381.12
434.953	1377.12
435.175	1426.12
435.397	1424.12
435.618	1402.12
435.84	1369.12
436.062	1342.12
436.284	1384.12
436.505	1339.12
436.727	1362.12
436.949	1316.12
437.17	1363.12
437.392	1352.12
437.614	1324.12
437.835	1334.12
438.057	1264.12
438.278	1276.12
438.5	1288.12
438.721	1321.12
438.943	1285.12
439.165	1288.12
439.386	1302.12
439.608	1309.12
439.829	1332.12
440.05	1289.12
440.272	1347.12
440.493	1376.12
440.715	1331.12
440.936	1358.12
441.158	1376.12
441.379	1335.12
441.6	1400.12
441.822	1399.12
442.043	1384.12
442.264	1384.12
442.486	1379.12
442.707	1351.12
442.928	1405.12
443.149	1419.12
443.371	1421.12
443.592	1488.12
443.813	1470.12
444.034	1416.12
444.255	1429.12
444.476	1446.12
444.698	1469.12
444.919	1498.12
445.14	1556.12
445.361	1523.12
445.582	1422.12
445.803	1388.12
446.024	1367.12
446.245	1348.12
446.466	1342.12
446.687	1290.12
446.908	1336.12
447.129	1325.12
447.35	1287.12
447.571	1264.12
447.792	1275.12
448.013	1263.12
448.234	1251.12
448.455	1256.12
448.675	1254.12
448.896	1219.12
449.117	1257.12
449.338	1235.12
449.559	1217.12
449.779	1210.12
450	1251.12
450.221	1214.12
450.442	1205.12
450.662	1226.12
450.883	1269.12
451.104	1289.12
451.324	1241.12
451.545	1249.12
451.766	1225.12
451.986	1215.12
452.207	1216.12
452.428	1183.12
452.648	1213.12
452.869	1204.12
453.089	1222.12
453.31	1259.12
453.53	1225.12
453.751	1199.12
453.971	1181.12
454.192	1217.12
454.412	1227.12
454.633	1204.12
454.853	1200.12
455.073	1209.12
455.294	1239.12
455.514	1233.12
455.734	1249.12
455.955	1219.12
456.175	1261.12
456.395	1233.12
456.616	1219.12
456.836	1165.12
457.056	1211.12
457.276	1216.12
457.497	1204.12
457.717	1263.12
457.937	1263.12
458.157	1252.12
458.377	1242.12
458.598	1264.12
458.818	1244.12
459.038	1258.12
459.258	1317.12
459.478	1390.12
459.698	1459.12
459.918	1469.12
460.138	1430.12
460.358	1452.12
460.578	1453.12
460.798	1542.12
461.018	1499.12
461.238	1419.12
461.458	1425.12
461.678	1404.12
461.898	1443.12
462.118	1455.12
462.338	1488.12
462.558	1555.12
462.777	1543.12
462.997	1583.12
463.217	1640.12
463.437	1699.12
463.657	1618.12
463.876	1557.12
464.096	1592.12
464.316	1563.12
464.536	1513.12
464.755	1535.12
464.975	1468.12
465.195	1423.12
465.414	1425.12
465.634	1395.12
465.854	1349.12
466.073	1374.12
466.293	1307.12
466.512	1309.12
466.732	1311.12
466.951	1332.12
467.171	1333.12
467.391	1311.12
467.61	1285.12
467.829	1284.12
468.049	1265.12
468.268	1267.12
468.488	1283.12
468.707	1274.12
468.927	1259.12
469.146	1302.12
469.365	1333.12
469.585	1288.12
469.804	1282.12
470.023	1329.12
470.243	1290.12
470.462	1285.12
470.681	1320.12
470.901	1295.12
471.12	1280.12
471.339	1324.12
471.558	1327.12
471.777	1332.12
471.997	1307.12
472.216	1257.12
472.435	1261.12
472.654	1252.12
472.873	1292.12
473.092	1291.12
473.311	1283.12
473.53	1263.12
473.749	1300.12
473.968	1290.12
474.187	1318.12
474.406	1260.12
474.625	1294.12
474.844	1319.12
475.063	1304.12
475.282	1347.12
475.501	1339.12
475.72	1324.12
475.939	1329.12
476.158	1322.12
476.377	1371.12
476.596	1361.12
476.814	1359.12
477.033	1352.12
477.252	1390.12
477.471	1414.12
477.69	1407.12
477.908	1447.12
478.127	1456.12
478.346	1461.12
478.564	1470.12
478.783	1492.12
479.002	1549.12
479.22	1568.12
479.439	1539.12
479.658	1518.12
479.876	1502.12
480.095	1500.12
480.313	1520.12
480.532	1588.12
480.751	1509.12
480.969	1520.12
481.188	1490.12
481.406	1484.12
481.624	1499.12
481.843	1478.12
482.061	1475.12
482.28	1500.12
482.498	1490.12
482.717	1485.12
482.935	1515.12
483.153	1523.12
483.372	1551.12
483.59	1617.12
483.808	1558.12
484.027	1517.12
484.245	1519.12
484.463	1543.12
484.681	1530.12
484.9	1543.12
485.118	1567.12
485.336	1499.12
485.554	1523.12
485.772	1541.12
485.99	1548.12
486.209	1501.12
486.427	1546.12
486.645	1556.12
486.863	1562.12
487.081	1545.12
487.299	1527.12
487.517	1540.12
487.735	1578.12
487.953	1622.12
488.171	1589.12
488.389	1591.12
488.607	1520.12
488.825	1565.12
489.043	1531.12
489.261	1497.12
489.479	1553.12
489.696	1535.12
489.914	1507.12
490.132	1562.12
490.35	1577.12
490.568	1551.12
490.786	1562.12
491.003	1570.12
491.221	1586.12
491.439	1580.12
491.657	1573.12
491.874	1591.12
492.092	1611.12
492.31	1632.12
492.527	1644.12
492.745	1659.12
492.963	1628.12
493.18	1605.12
493.398	1582.12
493.615	1595.12
493.833	1644.12
494.05	1629.12
494.268	1658.12
494.485	1656.12
494.703	1603.12
494.92	1668.12
495.138	1653.12
495.355	1638.12
495.573	1672.12
495.79	1660.12
496.008	1699.12
496.225	1701.12
496.442	1691.12
496.66	1763.12
496.877	1740.12
497.094	1738.12
497.312	1768.12
497.529	1791.12
497.746	1872.12
497.963	1868.12
498.181	1915.12
498.398	1936.12
498.615	2043.12
498.832	2017.12
499.049	2076.12
499.267	2135.12
499.484	2203.12
499.701	2265.12
499.918	2365.12
500.135	2419.12
500.352	2499.12
500.569	2501.12
500.786	2508.12
501.003	2461.12
501.22	2471.12
501.437	2340.12
501.654	2274.12
501.871	2204.12
502.088	2161.12
502.305	2107.12
502.522	2090.12
502.739	2045.12
502.956	1929.12
503.172	1920.12
503.389	1861.12
503.606	1868.12
503.823	1827.12
504.04	1801.12
504.256	1771.12
504.473	1718.12
504.69	1766.12
504.907	1758.12
505.123	1661.12
505.34	1644.12
505.557	1631.12
505.773	1621.12
505.99	1585.12
506.207	1529.12
506.423	1520.12
506.64	1517.12
506.856	1482.12
507.073	1524.12
507.289	1483.12
507.506	1478.12
507.722	1467.12
507.939	1475.12
508.155	1476.12
508.372	1493.12
508.588	1455.12
508.805	1409.12
509.021	1406.12
509.238	1385.12
509.454	1379.12
509.67	1414.12
509.887	1398.12
510.103	1383.12
510.319	1344.12
510.536	1339.12
510.752	1309.12
510.968	1348.12
511.184	1333.12
511.401	1348.12
511.617	1352.12
511.833	1377.12
512.049	1365.12
512.265	1328.12
512.481	1331.12
512.698	1359.12
512.914	1319.12
513.13	1334.12
513.346	1331.12
513.562	1302.12
513.778	1351.12
513.994	1342.12
514.21	1351.12
514.426	1300.12
514.642	1343.12
514.858	1342.12
515.074	1351.12
515.29	1358.12
515.506	1345.12
515.721	1402.12
515.937	1405.12
516.153	1361.12
516.369	1369.12
516.585	1400.12
516.801	1383.12
517.016	1408.12
517.232	1425.12
517.448	1407.12
517.664	1437.12
517.879	1433.12
518.095	1424.12
518.311	1454.12
518.527	1466.12
518.742	1400.12
518.958	1407.12
519.173	1374.12
519.389	1367.12
519.605	1369.12
519.82	1353.12
520.036	1339.12
520.251	1285.12
520.467	1312.12
520.682	1265.12
520.898	1278.12
521.113	1275.12
521.329	1259.12
521.544	1228.12
521.76	1241.12
521.975	1259.12
522.19	1232.12
522.406	1250.12
522.621	1240.12
522.836	1209.12
523.052	1255.12
523.267	1230.12
523.482	1240.12
523.698	1210.12
523.913	1231.12
524.128	1224.12
524.343	1229.12
524.559	1216.12
524.774	1205.12
524.989	1201.12
525.204	1231.12
525.419	1220.12
525.634	1198.12
525.849	1166.12
526.064	1190.12
526.28	1203.12
526.495	1179.12
526.71	1193.12
526.925	1178.12
527.14	1175.12
527.355	1175.12
527.57	1132.12
527.785	1175.12
527.999	1146.12
528.214	1157.12
528.429	1175.12
528.644	1144.12
528.859	1169.12
529.074	1163.12
529.289	1168.12
529.503	1178.12
529.718	1165.12
529.933	1149.12
530.148	1175.12
530.363	1146.12
530.577	1149.12
530.792	1142.12
531.007	1107.12
531.221	1142.12
531.436	1133.12
531.651	1143.12
531.865	1167.12
532.08	1148.12
532.295	1132.12
532.509	1119.12
532.724	1148.12
532.938	1123.12
533.153	1116.12
533.367	1115.12
533.582	1124.12
533.796	1113.12
534.011	1117.12
534.225	1088.12
534.44	1068.12
534.654	1081.12
534.868	1100.12
535.083	1098.12
535.297	1089.12
535.511	1105.12
535.726	1078.12
535.94	1117.12
536.154	1067.12
536.369	1071.12
536.583	1080.12
536.797	1068.12
537.011	1060.12
537.225	1091.12
537.44	1068.12
537.654	1057.12
537.868	1068.12
538.082	1047.12
538.296	1054.12
538.51	1068.12
538.724	1061.12
538.938	1051.12
539.153	1049.12
539.367	1056.12
539.581	1050.12
539.795	1033.12
540.009	1023.12
540.222	1016.12
540.436	1052.12
540.65	1036.12
540.864	1023.12
541.078	1043.12
541.292	1039.12
541.506	1023.12
541.72	1051.12
541.934	1054.12
542.147	1060.12
542.361	1049.12
542.575	1040.12
542.789	1050.12
543.002	1004.12
543.216	1021.12
543.43	1034.12
543.644	1008.12
543.857	1035.12
544.071	1050.12
544.285	1033.12
544.498	1029.12
544.712	1014.12
544.925	998.12
545.139	1009.12
545.352	998.12
545.566	1008.12
545.779	1011.12
545.993	1023.12
546.206	1039.12
546.42	1034.12
546.633	1021.12
546.847	1024.12
547.06	1013.12
547.274	1024.12
547.487	1036.12
547.7	1024.12
547.914	1055.12
548.127	1025.12
548.34	1038.12
548.554	1019.12
548.767	1021.12
548.98	1004.12
549.193	1034.12
549.407	1011.12
549.62	1006.12
549.833	1009.12
550.046	1015.12
550.259	987.12
550.473	1008.12
550.686	973.12
550.899	1011.12
551.112	995.12
551.325	943.12
551.538	979.12
551.751	1013.12
551.964	1019.12
552.177	1003.12
552.39	1002.12
552.603	1026.12
552.816	1028.12
553.029	1022.12
553.242	1012.12
553.455	977.12
553.667	1049.12
553.88	987.12
554.093	976.12
554.306	968.12
554.519	921.12
554.732	955.12
554.944	969.12
555.157	961.12
555.37	947.12
555.583	953.12
555.795	911.12
556.008	899.12
556.221	901.12
556.433	892.12
556.646	889.12
556.859	888.12
557.071	897.12
557.284	912.12
557.496	890.12
557.709	890.12
557.921	860.12
558.134	866.12
558.346	877.12
558.559	875.12
558.771	868.12
558.984	872.12
559.196	856.12
559.409	854.12
559.621	849.12
559.833	850.12
560.046	853.12
560.258	852.12
560.47	856.12
560.683	888.12
560.895	860.12
561.107	850.12
561.32	828.12
561.532	853.12
561.744	866.12
561.956	862.12
562.168	833.12
562.381	864.12
562.593	832.12
562.805	883.12
563.017	859.12
563.229	881.12
563.441	872.12
563.653	861.12
563.865	857.12
564.077	863.12
564.289	861.12
564.501	852.12
564.713	894.12
564.925	881.12
565.137	877.12
565.349	901.12
565.561	892.12
565.773	933.12
565.985	953.12
566.197	972.12
566.408	976.12
566.62	988.12
566.832	1000.12
567.044	1025.12
567.255	980.12
567.467	980.12
567.679	1007.12
567.891	1015.12
568.102	1010.12
568.314	967.12
568.526	964.12
568.737	950.12
568.949	908.12
569.161	892.12
569.372	886.12
569.584	889.12
569.795	875.12
570.007	857.12
570.218	836.12
570.43	830.12
570.641	821.12
570.853	780.12
571.064	804.12
571.276	801.12
571.487	768.12
571.698	743.12
571.91	763.12
572.121	747.12
572.333	746.12
572.544	715.12
572.755	748.12
572.966	730.12
573.178	745.12
573.389	683.12
573.6	689.12
573.811	706.12
574.023	718.12
574.234	706.12
574.445	717.12
574.656	687.12
574.867	660.12
575.078	653.12
575.289	668.12
575.501	685.12
575.712	658.12
575.923	632.12
576.134	676.12
576.345	667.12
576.556	661.12
576.767	655.12
576.978	643.12
577.188	652.12
577.399	633.12
577.61	639.12
577.821	623.12
578.032	621.12
578.243	624.12
578.454	623.12
578.665	632.12
578.875	633.12
579.086	634.12
579.297	611.12
579.508	579.12
579.718	602.12
579.929	604.12
580.14	614.12
580.35	609.12
580.561	577.12
580.772	593.12
580.982	605.12
581.193	576.12
581.403	575.12
581.614	582.12
581.825	598.12
582.035	596.12
582.246	564.12
582.456	585.12
582.667	579.12
582.877	572.12
583.087	587.12
583.298	604.12
583.508	555.12
583.719	574.12
583.929	557.12
584.139	573.12
584.35	558.12
584.56	563.12
584.77	560.12
584.981	564.12
585.191	578.12
585.401	544.12
585.611	598.12
585.821	571.12
586.032	539.12
586.242	561.12
586.452	556.12
586.662	540.12
586.872	540.12
587.082	584.12
587.292	541.12
587.502	535.12
587.713	554.12
587.923	546.12
588.133	545.12
588.343	565.12
588.553	559.12
588.762	544.12
588.972	558.12
589.182	623.12
589.392	611.12
589.602	584.12
589.812	599.12
590.022	572.12
590.232	521.12
590.441	568.12
590.651	552.12
590.861	539.12
591.071	543.12
591.281	547.12
591.49	544.12
591.7	567.12
591.91	559.12
592.119	551.12
592.329	553.12
592.539	550.12
592.748	556.12
592.958	553.12
593.167	572.12
593.377	560.12
593.587	560.12
593.796	553.12
594.006	540.12
594.215	555.12
594.424	549.12
594.634	561.12
594.843	527.12
595.053	528.12
595.262	515.12
595.472	519.12
595.681	520.12
595.89	545.12
596.1	522.12
596.309	501.12
596.518	494.12
596.727	499.12
596.937	511.12
597.146	486.12
597.355	491.12
597.564	499.12
597.774	490.12
597.983	476.12
598.192	491.12
598.401	484.12
598.61	497.12
598.819	476.12
599.028	459.12
599.237	461.12
599.446	440.12
599.655	456.12
599.864	466.12
600.073	460.12
600.282	468.12
600.491	465.12
600.7	475.12
600.909	468.12
601.118	462.12
601.327	448.12
601.536	457.12
601.745	446.12
601.953	450.12
602.162	466.12
602.371	441.12
602.58	435.12
602.789	449.12
602.997	436.12
603.206	429.12
603.415	439.12
603.623	425.12
603.832	429.12
604.041	447.12
604.249	429.12
604.458	428.12
604.666	428.12
604.875	401.12
605.084	421.12
605.292	446.12
605.501	441.12
605.709	424.12
605.918	426.12
606.126	435.12
606.334	395.12
606.543	419.12
606.751	424.12
606.96	422.12
607.168	406.12
607.376	393.12
607.585	410.12
607.793	399.12
608.001	427.12
608.21	413.12
608.418	415.12
608.626	411.12
608.834	417.12
609.043	397.12
609.251	411.12
609.459	386.12
609.667	384.12
609.875	422.12
610.083	399.12
610.291	397.12
610.499	415.12
610.707	401.12
610.916	389.12
611.124	406.12
611.332	394.12
611.54	393.12
611.748	395.12
611.955	383.12
612.163	410.12
612.371	371.12
612.579	371.12
612.787	386.12
612.995	383.12
613.203	371.12
613.411	368.12
613.618	393.12
613.826	387.12
614.034	383.12
614.242	390.12
614.449	379.12
614.657	403.12
614.865	387.12
615.072	387.12
615.28	392.12
615.488	389.12
615.695	380.12
615.903	355.12
616.111	365.12
616.318	390.12
616.526	383.12
616.733	380.12
616.941	375.12
617.148	375.12
617.356	371.12
617.563	361.12
617.771	383.12
617.978	379.12
618.185	363.12
618.393	364.12
618.6	362.12
618.807	374.12
619.015	390.12
619.222	382.12
619.429	368.12
619.637	349.12
619.844	355.12
620.051	367.12
620.258	364.12
620.466	350.12
620.673	352.12
620.88	352.12
621.087	353.12
621.294	384.12
621.501	346.12
621.708	339.12
621.915	360.12
622.122	365.12
622.329	356.12
622.536	359.12
622.743	344.12
622.95	362.12
623.157	340.12
623.364	357.12
623.571	345.12
623.778	352.12
623.985	345.12
624.192	343.12
624.399	351.12
624.606	326.12
624.812	353.12
625.019	336.12
625.226	339.12
625.433	350.12
625.639	335.12
625.846	327.12
626.053	347.12
626.259	345.12
626.466	330.12
626.673	315.12
626.879	328.12
627.086	330.12
627.293	322.12
627.499	335.12
627.706	351.12
627.912	332.12
628.119	315.12
628.325	324.12
628.532	310.12
628.738	309.12
628.945	326.12
629.151	308.12
629.357	313.12
629.564	320.12
629.77	320.12
629.976	315.12
630.183	311.12
630.389	304.12
630.595	301.12
630.802	323.12
631.008	308.12
631.214	304.12
631.42	309.12
631.627	325.12
631.833	310.12
632.039	297.12
632.245	270.12
632.451	313.12
632.657	313.12
632.863	295.12
633.069	288.12
633.275	289.12
633.481	307.12
633.688	298.12
633.893	302.12
634.099	299.12
634.305	297.12
634.511	291.12
634.717	298.12
634.923	300.12
635.129	289.12
635.335	292.12
635.541	284.12
635.747	287.12
635.952	306.12
636.158	301.12
636.364	288.12
636.57	293.12
636.775	288.12
636.981	280.12
637.187	293.12
637.392	278.12
637.598	281.12
637.804	290.12
638.009	276.12
638.215	289.12
638.421	268.12
638.626	263.12
638.832	283.12
639.037	281.12
639.243	284.12
639.448	283.12
639.654	280.12
639.859	277.12
640.065	282.12
640.27	281.12
640.475	291.12
640.681	260.12
640.886	278.12
641.091	277.12
641.297	278.12
641.502	262.12
641.707	262.12
641.913	266.12
642.118	277.12
642.323	266.12
642.528	263.12
642.733	277.12
642.939	266.12
643.144	268.12
643.349	270.12
643.554	279.12
643.759	270.12
643.964	268.12
644.169	263.12
644.374	270.12
644.579	274.12
644.784	271.12
644.989	273.12
645.194	277.12
645.399	263.12
645.604	277.12
645.809	267.12
646.014	282.12
646.219	277.12
646.423	260.12
646.628	269.12
646.833	262.12
647.038	279.12
647.243	270.12
647.447	274.12
647.652	256.12
647.857	263.12
648.062	268.12
648.266	263.12
648.471	269.12
648.676	265.12
648.88	263.12
649.085	276.12
649.289	271.12
649.494	265.12
649.698	265.12
649.903	267.12
650.107	274.12
650.312	267.12
650.516	256.12
650.721	253.12
650.925	276.12
651.13	263.12
651.334	269.12
651.539	265.12
651.743	231.12
651.947	262.12
652.152	241.12
652.356	232.12
652.56	252.12
652.764	237.12
652.969	221.12
653.173	240.12
653.377	239.12
653.581	229.12
653.785	224.12
653.99	221.12
654.194	227.12
654.398	223.12
654.602	215.12
654.806	234.12
655.01	239.12
655.214	240.12
655.418	237.12
655.622	231.12
655.826	233.12
656.03	237.12
656.234	228.12
656.438	227.12
656.642	235.12
656.846	205.12
657.049	221.12
657.253	206.12
657.457	189.12
657.661	183.12
657.865	174.12
658.068	187.12
658.272	165.12
658.476	163.12
658.68	168.12
658.883	162.12
659.087	146.12
659.291	141.12
659.494	151.12
659.698	120.12
659.901	133.12
660.105	136.12
660.309	125.12
660.512	117.12
660.716	135.12
660.919	112.12
661.123	123.12
661.326	109.12
661.53	109.12
661.733	104.12
661.936	96.12
662.14	106.12
662.343	91.12
662.546	99.12
662.75	86.12
662.953	96.12
663.156	104.12
663.36	89.12
663.563	103.12
663.766	91.12
663.969	93.12
664.173	85.12
664.376	88.12
664.579	101.12
664.782	86.12
664.985	79.12
665.188	86.12
665.391	86.12
665.594	75.12
665.797	81.12
666	93.12
666.203	97.12
666.406	87.12
666.609	87.12
666.812	84.12
667.015	88.12
667.218	86.12
667.421	91.12
667.624	89.12
667.827	87.12
668.03	83.12
668.232	91.12
668.435	88.12
668.638	83.12
668.841	86.12
669.043	86.12
669.246	75.12
669.449	88.12
669.651	79.12
669.854	99.12
670.057	91.12
670.259	91.12
670.462	80.12
670.665	77.12
670.867	83.12
671.07	86.12
671.272	83.12
671.475	82.12
671.677	77.12
671.88	83.12
672.082	82.12
672.284	90.12
672.487	77.12
672.689	77.12
672.892	80.12
