Data from Ni(NO3)2@0.0625M.TitratingCurve.Agarose3%dH2O.NegLispCup.LampEnergy10.LIBS07252019_HRD10591_18-15-41-570.txt Node
Date: Thu Jul 25 18:15:41 EDT 2019
User: cochatt
Spectrometer: HR+D1059
Trigger mode: 1
Integration Time (sec): 1.000000E-1
Scans to average: 1
Electric dark correction enabled: true
Nonlinearity correction enabled: false
Boxcar width: 0
XAxis mode: Wavelengths
Number of Pixels in Spectrum: 2048
>>>>>Begin Spectral Data<<<<<
223.165	-21.56
223.4	-21.56
223.635	-21.56
223.869	-29.56
224.104	-19.56
224.338	-24.56
224.573	-10.56
224.808	-3.56
225.042	-4.56
225.277	-22.56
225.511	3.44
225.746	9.44
225.98	-2.56
226.215	25.44
226.449	24.44
226.683	19.44
226.918	21.44
227.152	35.44
227.387	47.44
227.621	31.44
227.856	28.44
228.09	58.44
228.324	39.44
228.559	51.44
228.793	61.44
229.027	92.44
229.262	104.44
229.496	100.44
229.73	98.44
229.964	117.44
230.199	107.44
230.433	111.44
230.667	113.44
230.901	125.44
231.136	119.44
231.37	126.44
231.604	127.44
231.838	127.44
232.072	128.44
232.306	125.44
232.541	135.44
232.775	128.44
233.009	147.44
233.243	129.44
233.477	135.44
233.711	141.44
233.945	128.44
234.179	142.44
234.413	129.44
234.647	135.44
234.881	129.44
235.115	117.44
235.349	130.44
235.583	131.44
235.817	139.44
236.051	152.44
236.285	141.44
236.519	149.44
236.753	137.44
236.987	131.44
237.221	159.44
237.455	151.44
237.689	139.44
237.922	118.44
238.156	136.44
238.39	122.44
238.624	139.44
238.858	148.44
239.091	141.44
239.325	137.44
239.559	140.44
239.793	161.44
240.027	145.44
240.26	156.44
240.494	147.44
240.728	154.44
240.961	162.44
241.195	160.44
241.429	171.44
241.662	169.44
241.896	171.44
242.13	166.44
242.363	167.44
242.597	161.44
242.83	159.44
243.064	160.44
243.298	156.44
243.531	183.44
243.765	169.44
243.998	181.44
244.232	160.44
244.465	179.44
244.699	171.44
244.932	194.44
245.166	180.44
245.399	177.44
245.633	191.44
245.866	180.44
246.099	184.44
246.333	203.44
246.566	182.44
246.8	182.44
247.033	187.44
247.266	184.44
247.5	194.44
247.733	204.44
247.966	193.44
248.2	196.44
248.433	201.44
248.666	203.44
248.899	191.44
249.133	188.44
249.366	210.44
249.599	199.44
249.832	185.44
250.066	218.44
250.299	203.44
250.532	240.44
250.765	223.44
250.998	227.44
251.231	223.44
251.465	223.44
251.698	197.44
251.931	216.44
252.164	222.44
252.397	232.44
252.63	227.44
252.863	231.44
253.096	217.44
253.329	229.44
253.562	222.44
253.795	218.44
254.028	231.44
254.261	231.44
254.494	230.44
254.727	234.44
254.96	237.44
255.193	245.44
255.426	232.44
255.659	224.44
255.892	247.44
256.124	245.44
256.357	241.44
256.59	226.44
256.823	239.44
257.056	247.44
257.289	239.44
257.521	260.44
257.754	230.44
257.987	251.44
258.22	254.44
258.452	241.44
258.685	255.44
258.918	258.44
259.151	245.44
259.383	241.44
259.616	247.44
259.849	257.44
260.081	276.44
260.314	265.44
260.547	265.44
260.779	277.44
261.012	266.44
261.244	269.44
261.477	266.44
261.71	266.44
261.942	274.44
262.175	272.44
262.407	279.44
262.64	292.44
262.872	281.44
263.105	269.44
263.337	272.44
263.57	292.44
263.802	292.44
264.035	282.44
264.267	289.44
264.499	291.44
264.732	275.44
264.964	283.44
265.197	277.44
265.429	287.44
265.661	290.44
265.894	303.44
266.126	300.44
266.358	293.44
266.591	304.44
266.823	288.44
267.055	306.44
267.287	285.44
267.52	306.44
267.752	316.44
267.984	324.44
268.216	304.44
268.448	307.44
268.681	294.44
268.913	319.44
269.145	294.44
269.377	295.44
269.609	296.44
269.841	305.44
270.073	302.44
270.306	313.44
270.538	323.44
270.77	300.44
271.002	313.44
271.234	309.44
271.466	295.44
271.698	299.44
271.93	305.44
272.162	316.44
272.394	320.44
272.626	315.44
272.858	321.44
273.09	326.44
273.322	329.44
273.553	320.44
273.785	332.44
274.017	312.44
274.249	334.44
274.481	332.44
274.713	337.44
274.945	342.44
275.176	331.44
275.408	324.44
275.64	341.44
275.872	337.44
276.104	348.44
276.335	349.44
276.567	329.44
276.799	336.44
277.031	347.44
277.262	348.44
277.494	340.44
277.726	342.44
277.957	346.44
278.189	344.44
278.421	368.44
278.652	355.44
278.884	365.44
279.115	362.44
279.347	349.44
279.579	361.44
279.81	364.44
280.042	371.44
280.273	354.44
280.505	369.44
280.736	372.44
280.968	354.44
281.199	358.44
281.431	367.44
281.662	358.44
281.894	383.44
282.125	375.44
282.356	368.44
282.588	359.44
282.819	364.44
283.051	375.44
283.282	373.44
283.513	386.44
283.745	381.44
283.976	380.44
284.207	368.44
284.439	379.44
284.67	388.44
284.901	401.44
285.132	383.44
285.364	387.44
285.595	392.44
285.826	379.44
286.057	387.44
286.288	403.44
286.52	410.44
286.751	406.44
286.982	396.44
287.213	408.44
287.444	408.44
287.675	411.44
287.906	399.44
288.138	418.44
288.369	425.44
288.6	406.44
288.831	402.44
289.062	408.44
289.293	435.44
289.524	440.44
289.755	432.44
289.986	425.44
290.217	431.44
290.448	434.44
290.679	423.44
290.91	395.44
291.141	428.44
291.371	415.44
291.602	417.44
291.833	449.44
292.064	404.44
292.295	431.44
292.526	410.44
292.757	434.44
292.987	411.44
293.218	413.44
293.449	439.44
293.68	431.44
293.91	429.44
294.141	426.44
294.372	444.44
294.603	431.44
294.833	438.44
295.064	464.44
295.295	449.44
295.525	430.44
295.756	413.44
295.987	435.44
296.217	449.44
296.448	447.44
296.679	436.44
296.909	457.44
297.14	447.44
297.37	462.44
297.601	468.44
297.831	458.44
298.062	455.44
298.292	500.44
298.523	503.44
298.753	491.44
298.984	473.44
299.214	464.44
299.445	480.44
299.675	488.44
299.905	473.44
300.136	455.44
300.366	467.44
300.597	467.44
300.827	497.44
301.057	488.44
301.288	489.44
301.518	503.44
301.748	524.44
301.979	499.44
302.209	495.44
302.439	481.44
302.669	483.44
302.9	491.44
303.13	490.44
303.36	491.44
303.59	485.44
303.82	490.44
304.051	491.44
304.281	489.44
304.511	502.44
304.741	472.44
304.971	473.44
305.201	465.44
305.431	483.44
305.661	484.44
305.891	469.44
306.121	464.44
306.352	489.44
306.582	469.44
306.812	497.44
307.042	508.44
307.272	475.44
307.502	460.44
307.731	467.44
307.961	461.44
308.191	467.44
308.421	476.44
308.651	474.44
308.881	465.44
309.111	470.44
309.341	458.44
309.571	470.44
309.8	474.44
310.03	469.44
310.26	471.44
310.49	456.44
310.72	477.44
310.949	477.44
311.179	485.44
311.409	477.44
311.639	463.44
311.868	476.44
312.098	487.44
312.328	484.44
312.557	489.44
312.787	498.44
313.017	494.44
313.246	474.44
313.476	483.44
313.706	487.44
313.935	478.44
314.165	525.44
314.394	492.44
314.624	500.44
314.853	499.44
315.083	504.44
315.312	489.44
315.542	494.44
315.771	499.44
316.001	489.44
316.23	491.44
316.46	479.44
316.689	508.44
316.919	485.44
317.148	474.44
317.377	485.44
317.607	501.44
317.836	492.44
318.065	492.44
318.295	460.44
318.524	480.44
318.753	521.44
318.983	476.44
319.212	492.44
319.441	473.44
319.67	499.44
319.9	483.44
320.129	497.44
320.358	501.44
320.587	500.44
320.816	513.44
321.046	479.44
321.275	490.44
321.504	497.44
321.733	495.44
321.962	500.44
322.191	505.44
322.42	483.44
322.649	494.44
322.878	501.44
323.108	488.44
323.337	495.44
323.566	489.44
323.795	527.44
324.024	509.44
324.253	497.44
324.482	516.44
324.71	517.44
324.939	499.44
325.168	495.44
325.397	509.44
325.626	520.44
325.855	523.44
326.084	528.44
326.313	559.44
326.542	571.44
326.77	573.44
326.999	552.44
327.228	531.44
327.457	543.44
327.686	554.44
327.914	537.44
328.143	555.44
328.372	533.44
328.6	543.44
328.829	541.44
329.058	548.44
329.287	523.44
329.515	556.44
329.744	523.44
329.972	565.44
330.201	537.44
330.43	542.44
330.658	544.44
330.887	571.44
331.115	587.44
331.344	582.44
331.572	595.44
331.801	579.44
332.03	572.44
332.258	602.44
332.486	620.44
332.715	659.44
332.943	666.44
333.172	661.44
333.4	732.44
333.629	733.44
333.857	754.44
334.085	726.44
334.314	723.44
334.542	721.44
334.771	698.44
334.999	687.44
335.227	693.44
335.455	674.44
335.684	684.44
335.912	676.44
336.14	660.44
336.369	652.44
336.597	667.44
336.825	662.44
337.053	644.44
337.281	636.44
337.51	637.44
337.738	620.44
337.966	598.44
338.194	610.44
338.422	606.44
338.65	569.44
338.878	620.44
339.106	594.44
339.334	574.44
339.562	588.44
339.79	568.44
340.018	549.44
340.246	563.44
340.474	566.44
340.702	577.44
340.93	562.44
341.158	565.44
341.386	582.44
341.614	572.44
341.842	561.44
342.07	551.44
342.298	535.44
342.526	564.44
342.754	567.44
342.981	567.44
343.209	579.44
343.437	613.44
343.665	631.44
343.893	679.44
344.12	739.44
344.348	670.44
344.576	631.44
344.804	608.44
345.031	595.44
345.259	574.44
345.487	563.44
345.714	581.44
345.942	578.44
346.17	564.44
346.397	559.44
346.625	543.44
346.853	561.44
347.08	548.44
347.308	579.44
347.535	590.44
347.763	587.44
347.99	558.44
348.218	582.44
348.445	571.44
348.673	566.44
348.9	568.44
349.128	573.44
349.355	527.44
349.583	548.44
349.81	551.44
350.037	533.44
350.265	558.44
350.492	539.44
350.72	536.44
350.947	553.44
351.174	539.44
351.402	521.44
351.629	524.44
351.856	532.44
352.083	540.44
352.311	527.44
352.538	549.44
352.765	520.44
352.992	520.44
353.22	515.44
353.447	523.44
353.674	525.44
353.901	512.44
354.128	511.44
354.355	525.44
354.583	527.44
354.81	525.44
355.037	513.44
355.264	540.44
355.491	532.44
355.718	536.44
355.945	523.44
356.172	526.44
356.399	540.44
356.626	523.44
356.853	540.44
357.08	535.44
357.307	535.44
357.534	536.44
357.761	518.44
357.988	522.44
358.215	517.44
358.441	525.44
358.668	518.44
358.895	536.44
359.122	533.44
359.349	527.44
359.576	539.44
359.802	512.44
360.029	539.44
360.256	534.44
360.483	535.44
360.709	558.44
360.936	550.44
361.163	523.44
361.39	531.44
361.616	520.44
361.843	541.44
362.07	555.44
362.296	524.44
362.523	533.44
362.749	521.44
362.976	542.44
363.203	528.44
363.429	495.44
363.656	531.44
363.882	532.44
364.109	522.44
364.335	519.44
364.562	525.44
364.788	519.44
365.015	521.44
365.241	541.44
365.468	535.44
365.694	535.44
365.92	526.44
366.147	539.44
366.373	521.44
366.599	510.44
366.826	529.44
367.052	525.44
367.278	536.44
367.505	549.44
367.731	543.44
367.957	567.44
368.184	531.44
368.41	548.44
368.636	549.44
368.862	546.44
369.089	543.44
369.315	546.44
369.541	544.44
369.767	560.44
369.993	547.44
370.219	553.44
370.445	544.44
370.672	569.44
370.898	571.44
371.124	570.44
371.35	591.44
371.576	577.44
371.802	590.44
372.028	575.44
372.254	565.44
372.48	581.44
372.706	596.44
372.932	608.44
373.158	607.44
373.384	579.44
373.61	584.44
373.835	572.44
374.061	581.44
374.287	570.44
374.513	596.44
374.739	613.44
374.965	639.44
375.191	634.44
375.416	649.44
375.642	633.44
375.868	633.44
376.094	610.44
376.319	603.44
376.545	596.44
376.771	590.44
376.997	589.44
377.222	567.44
377.448	595.44
377.674	607.44
377.899	586.44
378.125	571.44
378.35	556.44
378.576	569.44
378.802	577.44
379.027	579.44
379.253	572.44
379.478	565.44
379.704	574.44
379.929	583.44
380.155	577.44
380.38	567.44
380.606	588.44
380.831	589.44
381.057	588.44
381.282	565.44
381.507	575.44
381.733	579.44
381.958	596.44
382.184	596.44
382.409	624.44
382.634	602.44
382.86	595.44
383.085	608.44
383.31	615.44
383.535	616.44
383.761	663.44
383.986	666.44
384.211	682.44
384.436	689.44
384.662	691.44
384.887	704.44
385.112	727.44
385.337	714.44
385.562	711.44
385.787	705.44
386.013	721.44
386.238	700.44
386.463	697.44
386.688	688.44
386.913	695.44
387.138	678.44
387.363	685.44
387.588	665.44
387.813	685.44
388.038	664.44
388.263	677.44
388.488	700.44
388.713	670.44
388.938	669.44
389.163	684.44
389.387	679.44
389.612	668.44
389.837	684.44
390.062	656.44
390.287	697.44
390.512	698.44
390.736	678.44
390.961	701.44
391.186	685.44
391.411	708.44
391.636	746.44
391.86	755.44
392.085	772.44
392.31	784.44
392.534	748.44
392.759	737.44
392.984	704.44
393.208	714.44
393.433	737.44
393.658	699.44
393.882	762.44
394.107	721.44
394.331	760.44
394.556	773.44
394.78	751.44
395.005	730.44
395.229	754.44
395.454	803.44
395.678	781.44
395.903	792.44
396.127	758.44
396.352	731.44
396.576	735.44
396.801	723.44
397.025	716.44
397.249	732.44
397.474	793.44
397.698	786.44
397.922	786.44
398.147	760.44
398.371	800.44
398.595	803.44
398.82	838.44
399.044	886.44
399.268	986.44
399.492	1165.44
399.717	1357.44
399.941	1339.44
400.165	1168.44
400.389	1051.44
400.613	953.44
400.837	889.44
401.062	876.44
401.286	864.44
401.51	865.44
401.734	883.44
401.958	868.44
402.182	883.44
402.406	903.44
402.63	898.44
402.854	943.44
403.078	949.44
403.302	971.44
403.526	996.44
403.75	1026.44
403.974	1035.44
404.198	1036.44
404.422	1025.44
404.645	992.44
404.869	975.44
405.093	1026.44
405.317	981.44
405.541	959.44
405.765	960.44
405.988	961.44
406.212	963.44
406.436	955.44
406.66	961.44
406.883	973.44
407.107	1038.44
407.331	1107.44
407.555	1159.44
407.778	1138.44
408.002	1141.44
408.226	1068.44
408.449	1035.44
408.673	1017.44
408.896	981.44
409.12	994.44
409.344	1016.44
409.567	1014.44
409.791	1028.44
410.014	1012.44
410.238	1008.44
410.461	994.44
410.685	950.44
410.908	988.44
411.132	946.44
411.355	914.44
411.578	889.44
411.802	912.44
412.025	909.44
412.249	934.44
412.472	927.44
412.695	895.44
412.919	882.44
413.142	861.44
413.365	856.44
413.589	897.44
413.812	866.44
414.035	852.44
414.258	870.44
414.482	865.44
414.705	897.44
414.928	881.44
415.151	883.44
415.374	845.44
415.597	850.44
415.821	850.44
416.044	856.44
416.267	841.44
416.49	829.44
416.713	838.44
416.936	861.44
417.159	859.44
417.382	855.44
417.605	826.44
417.828	891.44
418.051	908.44
418.274	883.44
418.497	865.44
418.72	887.44
418.943	876.44
419.166	945.44
419.389	984.44
419.611	989.44
419.834	951.44
420.057	910.44
420.28	897.44
420.503	841.44
420.726	863.44
420.948	860.44
421.171	836.44
421.394	835.44
421.617	865.44
421.839	858.44
422.062	847.44
422.285	836.44
422.507	870.44
422.73	886.44
422.953	892.44
423.175	904.44
423.398	920.44
423.621	925.44
423.843	944.44
424.066	937.44
424.288	929.44
424.511	946.44
424.733	906.44
424.956	884.44
425.178	889.44
425.401	885.44
425.623	867.44
425.846	828.44
426.068	866.44
426.291	839.44
426.513	810.44
426.735	813.44
426.958	800.44
427.18	796.44
427.402	799.44
427.625	788.44
427.847	782.44
428.069	775.44
428.292	743.44
428.514	739.44
428.736	757.44
428.958	777.44
429.181	753.44
429.403	763.44
429.625	747.44
429.847	761.44
430.069	761.44
430.292	736.44
430.514	744.44
430.736	741.44
430.958	754.44
431.18	763.44
431.402	748.44
431.624	747.44
431.846	785.44
432.068	767.44
432.29	802.44
432.512	787.44
432.734	780.44
432.956	781.44
433.178	785.44
433.4	775.44
433.622	782.44
433.844	803.44
434.066	785.44
434.287	804.44
434.509	825.44
434.731	843.44
434.953	861.44
435.175	873.44
435.397	903.44
435.618	831.44
435.84	800.44
436.062	802.44
436.284	768.44
436.505	783.44
436.727	748.44
436.949	803.44
437.17	751.44
437.392	756.44
437.614	771.44
437.835	731.44
438.057	725.44
438.278	739.44
438.5	730.44
438.721	754.44
438.943	753.44
439.165	746.44
439.386	766.44
439.608	761.44
439.829	784.44
440.05	764.44
440.272	781.44
440.493	799.44
440.715	817.44
440.936	799.44
441.158	829.44
441.379	859.44
441.6	887.44
441.822	904.44
442.043	875.44
442.264	881.44
442.486	849.44
442.707	864.44
442.928	855.44
443.149	853.44
443.371	858.44
443.592	859.44
443.813	876.44
444.034	880.44
444.255	930.44
444.476	969.44
444.698	989.44
444.919	1076.44
445.14	1165.44
445.361	1000.44
445.582	879.44
445.803	834.44
446.024	836.44
446.245	831.44
446.466	800.44
446.687	797.44
446.908	804.44
447.129	761.44
447.35	755.44
447.571	743.44
447.792	743.44
448.013	768.44
448.234	707.44
448.455	712.44
448.675	709.44
448.896	730.44
449.117	720.44
449.338	712.44
449.559	706.44
449.779	709.44
450	692.44
450.221	728.44
450.442	707.44
450.662	718.44
450.883	741.44
451.104	740.44
451.324	764.44
451.545	749.44
451.766	754.44
451.986	741.44
452.207	722.44
452.428	734.44
452.648	715.44
452.869	687.44
453.089	708.44
453.31	744.44
453.53	706.44
453.751	704.44
453.971	690.44
454.192	712.44
454.412	679.44
454.633	683.44
454.853	710.44
455.073	699.44
455.294	673.44
455.514	667.44
455.734	673.44
455.955	652.44
456.175	683.44
456.395	676.44
456.616	693.44
456.836	664.44
457.056	671.44
457.276	671.44
457.497	680.44
457.717	659.44
457.937	677.44
458.157	676.44
458.377	683.44
458.598	692.44
458.818	707.44
459.038	708.44
459.258	742.44
459.478	805.44
459.698	803.44
459.918	835.44
460.138	845.44
460.358	919.44
460.578	922.44
460.798	933.44
461.018	933.44
461.238	932.44
461.458	905.44
461.678	895.44
461.898	915.44
462.118	954.44
462.338	987.44
462.558	1017.44
462.777	1043.44
462.997	1143.44
463.217	1255.44
463.437	1272.44
463.657	1180.44
463.876	1109.44
464.096	1120.44
464.316	1111.44
464.536	1100.44
464.755	1068.44
464.975	1011.44
465.195	970.44
465.414	904.44
465.634	854.44
465.854	837.44
466.073	791.44
466.293	771.44
466.512	779.44
466.732	738.44
466.951	760.44
467.171	746.44
467.391	773.44
467.61	763.44
467.829	758.44
468.049	744.44
468.268	724.44
468.488	726.44
468.707	679.44
468.927	724.44
469.146	725.44
469.365	731.44
469.585	713.44
469.804	752.44
470.023	785.44
470.243	746.44
470.462	819.44
470.681	809.44
470.901	783.44
471.12	787.44
471.339	757.44
471.558	712.44
471.777	731.44
471.997	738.44
472.216	718.44
472.435	712.44
472.654	691.44
472.873	690.44
473.092	699.44
473.311	703.44
473.53	676.44
473.749	672.44
473.968	688.44
474.187	693.44
474.406	701.44
474.625	683.44
474.844	710.44
475.063	703.44
475.282	706.44
475.501	704.44
475.72	716.44
475.939	707.44
476.158	703.44
476.377	723.44
476.596	721.44
476.814	723.44
477.033	749.44
477.252	746.44
477.471	791.44
477.69	787.44
477.908	815.44
478.127	809.44
478.346	858.44
478.564	843.44
478.783	857.44
479.002	893.44
479.22	875.44
479.439	868.44
479.658	858.44
479.876	876.44
480.095	891.44
480.313	932.44
480.532	956.44
480.751	945.44
480.969	877.44
481.188	883.44
481.406	821.44
481.624	831.44
481.843	809.44
482.061	812.44
482.28	800.44
482.498	796.44
482.717	793.44
482.935	779.44
483.153	797.44
483.372	801.44
483.59	813.44
483.808	793.44
484.027	812.44
484.245	810.44
484.463	819.44
484.681	832.44
484.9	813.44
485.118	838.44
485.336	831.44
485.554	834.44
485.772	849.44
485.99	900.44
486.209	873.44
486.427	863.44
486.645	863.44
486.863	862.44
487.081	855.44
487.299	856.44
487.517	831.44
487.735	841.44
487.953	870.44
488.171	846.44
488.389	847.44
488.607	806.44
488.825	836.44
489.043	841.44
489.261	824.44
489.479	833.44
489.696	852.44
489.914	820.44
490.132	855.44
490.35	868.44
490.568	853.44
490.786	836.44
491.003	840.44
491.221	839.44
491.439	821.44
491.657	862.44
491.874	856.44
492.092	823.44
492.31	857.44
492.527	858.44
492.745	828.44
492.963	853.44
493.18	871.44
493.398	881.44
493.615	876.44
493.833	869.44
494.05	874.44
494.268	901.44
494.485	856.44
494.703	911.44
494.92	895.44
495.138	882.44
495.355	871.44
495.573	894.44
495.79	894.44
496.008	909.44
496.225	892.44
496.442	909.44
496.66	922.44
496.877	912.44
497.094	944.44
497.312	954.44
497.529	962.44
497.746	987.44
497.963	1016.44
498.181	1064.44
498.398	1095.44
498.615	1174.44
498.832	1237.44
499.049	1327.44
499.267	1428.44
499.484	1560.44
499.701	1770.44
499.918	1975.44
500.135	2261.44
500.352	2661.44
500.569	2813.44
500.786	2821.44
501.003	2520.44
501.22	2252.44
501.437	1986.44
501.654	1738.44
501.871	1538.44
502.088	1420.44
502.305	1321.44
502.522	1231.44
502.739	1233.44
502.956	1141.44
503.172	1090.44
503.389	1074.44
503.606	1024.44
503.823	1016.44
504.04	999.44
504.256	1031.44
504.473	1033.44
504.69	1113.44
504.907	1056.44
505.123	967.44
505.34	927.44
505.557	901.44
505.773	850.44
505.99	846.44
506.207	839.44
506.423	844.44
506.64	835.44
506.856	805.44
507.073	805.44
507.289	817.44
507.506	779.44
507.722	775.44
507.939	760.44
508.155	764.44
508.372	739.44
508.588	772.44
508.805	737.44
509.021	738.44
509.238	748.44
509.454	753.44
509.67	716.44
509.887	722.44
510.103	745.44
510.319	737.44
510.536	738.44
510.752	727.44
510.968	736.44
511.184	699.44
511.401	705.44
511.617	710.44
511.833	719.44
512.049	703.44
512.265	721.44
512.481	733.44
512.698	712.44
512.914	712.44
513.13	714.44
513.346	741.44
513.562	724.44
513.778	736.44
513.994	722.44
514.21	730.44
514.426	715.44
514.642	723.44
514.858	740.44
515.074	754.44
515.29	743.44
515.506	771.44
515.721	783.44
515.937	784.44
516.153	774.44
516.369	815.44
516.585	833.44
516.801	861.44
517.016	895.44
517.232	933.44
517.448	964.44
517.664	1045.44
517.879	1003.44
518.095	1019.44
518.311	1035.44
518.527	938.44
518.742	913.44
518.958	886.44
519.173	860.44
519.389	817.44
519.605	798.44
519.82	795.44
520.036	760.44
520.251	755.44
520.467	753.44
520.682	740.44
520.898	735.44
521.113	729.44
521.329	729.44
521.544	692.44
521.76	707.44
521.975	707.44
522.19	678.44
522.406	701.44
522.621	684.44
522.836	680.44
523.052	691.44
523.267	663.44
523.482	659.44
523.698	674.44
523.913	671.44
524.128	693.44
524.343	661.44
524.559	667.44
524.774	677.44
524.989	669.44
525.204	653.44
525.419	692.44
525.634	691.44
525.849	649.44
526.064	653.44
526.28	671.44
526.495	681.44
526.71	682.44
526.925	632.44
527.14	643.44
527.355	643.44
527.57	657.44
527.785	671.44
527.999	658.44
528.214	693.44
528.429	677.44
528.644	654.44
528.859	671.44
529.074	667.44
529.289	649.44
529.503	656.44
529.718	665.44
529.933	645.44
530.148	638.44
530.363	655.44
530.577	654.44
530.792	643.44
531.007	655.44
531.221	673.44
531.436	679.44
531.651	676.44
531.865	657.44
532.08	647.44
532.295	675.44
532.509	654.44
532.724	670.44
532.938	664.44
533.153	670.44
533.367	670.44
533.582	657.44
533.796	666.44
534.011	655.44
534.225	665.44
534.44	635.44
534.654	650.44
534.868	649.44
535.083	628.44
535.297	641.44
535.511	636.44
535.726	647.44
535.94	651.44
536.154	617.44
536.369	617.44
536.583	625.44
536.797	614.44
537.011	639.44
537.225	603.44
537.44	616.44
537.654	602.44
537.868	604.44
538.082	602.44
538.296	581.44
538.51	603.44
538.724	593.44
538.938	603.44
539.153	614.44
539.367	596.44
539.581	593.44
539.795	594.44
540.009	589.44
540.222	617.44
540.436	606.44
540.65	580.44
540.864	571.44
541.078	611.44
541.292	601.44
541.506	599.44
541.72	574.44
541.934	587.44
542.147	608.44
542.361	594.44
542.575	595.44
542.789	580.44
543.002	567.44
543.216	584.44
543.43	582.44
543.644	595.44
543.857	579.44
544.071	579.44
544.285	576.44
544.498	580.44
544.712	596.44
544.925	604.44
545.139	597.44
545.352	617.44
545.566	613.44
545.779	610.44
545.993	612.44
546.206	624.44
546.42	580.44
546.633	579.44
546.847	602.44
547.06	579.44
547.274	601.44
547.487	607.44
547.7	593.44
547.914	613.44
548.127	608.44
548.34	633.44
548.554	604.44
548.767	600.44
548.98	598.44
549.193	590.44
549.407	629.44
549.62	661.44
549.833	629.44
550.046	611.44
550.259	585.44
550.473	593.44
550.686	612.44
550.899	604.44
551.112	581.44
551.325	563.44
551.538	584.44
551.751	609.44
551.964	582.44
552.177	611.44
552.39	609.44
552.603	632.44
552.816	654.44
553.029	665.44
553.242	656.44
553.455	664.44
553.667	691.44
553.88	651.44
554.093	636.44
554.306	629.44
554.519	607.44
554.732	612.44
554.944	581.44
555.157	565.44
555.37	556.44
555.583	599.44
555.795	574.44
556.008	555.44
556.221	526.44
556.433	537.44
556.646	565.44
556.859	556.44
557.071	531.44
557.284	524.44
557.496	513.44
557.709	518.44
557.921	517.44
558.134	525.44
558.346	519.44
558.559	512.44
558.771	512.44
558.984	512.44
559.196	512.44
559.409	515.44
559.621	519.44
559.833	524.44
560.046	493.44
560.258	479.44
560.47	502.44
560.683	509.44
560.895	485.44
561.107	485.44
561.32	483.44
561.532	490.44
561.744	518.44
561.956	520.44
562.168	492.44
562.381	469.44
562.593	503.44
562.805	519.44
563.017	509.44
563.229	512.44
563.441	511.44
563.653	518.44
563.865	520.44
564.077	520.44
564.289	502.44
564.501	522.44
564.713	533.44
564.925	555.44
565.137	565.44
565.349	559.44
565.561	575.44
565.773	602.44
565.985	614.44
566.197	658.44
566.408	706.44
566.62	759.44
566.832	806.44
567.044	801.44
567.255	805.44
567.467	848.44
567.679	905.44
567.891	985.44
568.102	1016.44
568.314	969.44
568.526	841.44
568.737	774.44
568.949	703.44
569.161	646.44
569.372	633.44
569.584	573.44
569.795	549.44
570.007	539.44
570.218	526.44
570.43	529.44
570.641	521.44
570.853	522.44
571.064	533.44
571.276	525.44
571.487	524.44
571.698	496.44
571.91	469.44
572.121	451.44
572.333	488.44
572.544	447.44
572.755	450.44
572.966	448.44
573.178	449.44
573.389	444.44
573.6	431.44
573.811	424.44
574.023	418.44
574.234	436.44
574.445	433.44
574.656	415.44
574.867	423.44
575.078	421.44
575.289	422.44
575.501	405.44
575.712	412.44
575.923	422.44
576.134	410.44
576.345	404.44
576.556	409.44
576.767	387.44
576.978	396.44
577.188	408.44
577.399	394.44
577.61	382.44
577.821	387.44
578.032	377.44
578.243	375.44
578.454	388.44
578.665	373.44
578.875	386.44
579.086	364.44
579.297	389.44
579.508	364.44
579.718	369.44
579.929	369.44
580.14	384.44
580.35	379.44
580.561	380.44
580.772	377.44
580.982	368.44
581.193	380.44
581.403	379.44
581.614	363.44
581.825	383.44
582.035	371.44
582.246	385.44
582.456	370.44
582.667	379.44
582.877	346.44
583.087	349.44
583.298	332.44
583.508	356.44
583.719	345.44
583.929	351.44
584.139	342.44
584.35	361.44
584.56	372.44
584.77	344.44
584.981	369.44
585.191	367.44
585.401	360.44
585.611	344.44
585.821	344.44
586.032	347.44
586.242	339.44
586.452	358.44
586.662	337.44
586.872	352.44
587.082	342.44
587.292	340.44
587.502	354.44
587.713	328.44
587.923	355.44
588.133	352.44
588.343	347.44
588.553	341.44
588.762	356.44
588.972	343.44
589.182	342.44
589.392	344.44
589.602	345.44
589.812	343.44
590.022	358.44
590.232	357.44
590.441	348.44
590.651	357.44
590.861	332.44
591.071	358.44
591.281	347.44
591.49	357.44
591.7	377.44
591.91	363.44
592.119	353.44
592.329	375.44
592.539	383.44
592.748	406.44
592.958	397.44
593.167	432.44
593.377	416.44
593.587	444.44
593.796	435.44
594.006	451.44
594.215	437.44
594.424	452.44
594.634	438.44
594.843	403.44
595.053	404.44
595.262	384.44
595.472	372.44
595.681	371.44
595.89	359.44
596.1	332.44
596.309	333.44
596.518	330.44
596.727	323.44
596.937	328.44
597.146	313.44
597.355	346.44
597.564	327.44
597.774	317.44
597.983	306.44
598.192	307.44
598.401	307.44
598.61	299.44
598.819	297.44
599.028	297.44
599.237	309.44
599.446	293.44
599.655	280.44
599.864	311.44
600.073	284.44
600.282	291.44
600.491	289.44
600.7	306.44
600.909	300.44
601.118	269.44
601.327	300.44
601.536	277.44
601.745	290.44
601.953	306.44
602.162	293.44
602.371	266.44
602.58	296.44
602.789	292.44
602.997	288.44
603.206	283.44
603.415	286.44
603.623	267.44
603.832	272.44
604.041	263.44
604.249	284.44
604.458	283.44
604.666	282.44
604.875	271.44
605.084	262.44
605.292	281.44
605.501	296.44
605.709	279.44
605.918	268.44
606.126	268.44
606.334	282.44
606.543	273.44
606.751	280.44
606.96	260.44
607.168	283.44
607.376	263.44
607.585	279.44
607.793	277.44
608.001	265.44
608.21	253.44
608.418	290.44
608.626	245.44
608.834	267.44
609.043	264.44
609.251	281.44
609.459	264.44
609.667	274.44
609.875	265.44
610.083	263.44
610.291	266.44
610.499	248.44
610.707	274.44
610.916	245.44
611.124	275.44
611.332	259.44
611.54	274.44
611.748	261.44
611.955	264.44
612.163	258.44
612.371	255.44
612.579	258.44
612.787	248.44
612.995	237.44
613.203	275.44
613.411	249.44
613.618	259.44
613.826	252.44
614.034	261.44
614.242	253.44
614.449	263.44
614.657	269.44
614.865	253.44
615.072	251.44
615.28	248.44
615.488	260.44
615.695	255.44
615.903	261.44
616.111	284.44
616.318	252.44
616.526	269.44
616.733	269.44
616.941	267.44
617.148	253.44
617.356	253.44
617.563	258.44
617.771	267.44
617.978	255.44
618.185	253.44
618.393	248.44
618.6	252.44
618.807	247.44
619.015	246.44
619.222	240.44
619.429	241.44
619.637	248.44
619.844	276.44
620.051	253.44
620.258	243.44
620.466	244.44
620.673	244.44
620.88	234.44
621.087	236.44
621.294	245.44
621.501	247.44
621.708	253.44
621.915	253.44
622.122	242.44
622.329	232.44
622.536	235.44
622.743	232.44
622.95	251.44
623.157	236.44
623.364	215.44
623.571	226.44
623.778	225.44
623.985	230.44
624.192	222.44
624.399	218.44
624.606	232.44
624.812	210.44
625.019	224.44
625.226	232.44
625.433	208.44
625.639	210.44
625.846	218.44
626.053	218.44
626.259	205.44
626.466	217.44
626.673	214.44
626.879	208.44
627.086	222.44
627.293	197.44
627.499	207.44
627.706	216.44
627.912	216.44
628.119	220.44
628.325	224.44
628.532	220.44
628.738	194.44
628.945	222.44
629.151	215.44
629.357	197.44
629.564	199.44
629.77	196.44
629.976	209.44
630.183	208.44
630.389	220.44
630.595	204.44
630.802	207.44
631.008	198.44
631.214	197.44
631.42	205.44
631.627	202.44
631.833	211.44
632.039	197.44
632.245	195.44
632.451	186.44
632.657	210.44
632.863	204.44
633.069	210.44
633.275	194.44
633.481	195.44
633.688	197.44
633.893	199.44
634.099	188.44
634.305	179.44
634.511	199.44
634.717	202.44
634.923	205.44
635.129	189.44
635.335	198.44
635.541	194.44
635.747	179.44
635.952	195.44
636.158	194.44
636.364	180.44
636.57	210.44
636.775	207.44
636.981	201.44
637.187	171.44
637.392	173.44
637.598	179.44
637.804	184.44
638.009	186.44
638.215	192.44
638.421	184.44
638.626	177.44
638.832	175.44
639.037	181.44
639.243	179.44
639.448	185.44
639.654	202.44
639.859	171.44
640.065	182.44
640.27	190.44
640.475	175.44
640.681	172.44
640.886	187.44
641.091	177.44
641.297	177.44
641.502	167.44
641.707	177.44
641.913	174.44
642.118	173.44
642.323	182.44
642.528	184.44
642.733	180.44
642.939	170.44
643.144	166.44
643.349	163.44
643.554	185.44
643.759	162.44
643.964	171.44
644.169	187.44
644.374	190.44
644.579	177.44
644.784	182.44
644.989	154.44
645.194	168.44
645.399	158.44
645.604	177.44
645.809	189.44
646.014	171.44
646.219	152.44
646.423	187.44
646.628	179.44
646.833	170.44
647.038	163.44
647.243	186.44
647.447	166.44
647.652	163.44
647.857	172.44
648.062	184.44
648.266	177.44
648.471	183.44
648.676	176.44
648.88	155.44
649.085	185.44
649.289	183.44
649.494	167.44
649.698	169.44
649.903	175.44
650.107	168.44
650.312	195.44
650.516	189.44
650.721	164.44
650.925	163.44
651.13	161.44
651.334	168.44
651.539	158.44
651.743	169.44
651.947	166.44
652.152	151.44
652.356	156.44
652.56	155.44
652.764	134.44
652.969	131.44
653.173	152.44
653.377	152.44
653.581	155.44
653.785	134.44
653.99	146.44
654.194	144.44
654.398	146.44
654.602	146.44
654.806	143.44
655.01	131.44
655.214	143.44
655.418	140.44
655.622	151.44
655.826	123.44
656.03	132.44
656.234	135.44
656.438	147.44
656.642	142.44
656.846	133.44
657.049	131.44
657.253	129.44
657.457	118.44
657.661	118.44
657.865	114.44
658.068	101.44
658.272	111.44
658.476	126.44
658.68	103.44
658.883	102.44
659.087	102.44
659.291	114.44
659.494	100.44
659.698	99.44
659.901	93.44
660.105	98.44
660.309	87.44
660.512	97.44
660.716	96.44
660.919	91.44
661.123	101.44
661.326	86.44
661.53	83.44
661.733	93.44
661.936	74.44
662.14	81.44
662.343	85.44
662.546	92.44
662.75	76.44
662.953	96.44
663.156	80.44
663.36	96.44
663.563	90.44
663.766	89.44
663.969	97.44
664.173	82.44
664.376	87.44
664.579	72.44
664.782	90.44
664.985	75.44
665.188	74.44
665.391	83.44
665.594	83.44
665.797	85.44
666	84.44
666.203	76.44
666.406	82.44
666.609	76.44
666.812	92.44
667.015	68.44
667.218	89.44
667.421	82.44
667.624	82.44
667.827	80.44
668.03	84.44
668.232	79.44
668.435	78.44
668.638	81.44
668.841	77.44
669.043	77.44
669.246	85.44
669.449	86.44
669.651	74.44
669.854	98.44
670.057	80.44
670.259	88.44
670.462	69.44
670.665	85.44
670.867	78.44
671.07	77.44
671.272	63.44
671.475	74.44
671.677	79.44
671.88	72.44
672.082	75.44
672.284	77.44
672.487	77.44
672.689	76.44
672.892	84.44
