Data from Ni(NO3)2@0.5M.TitratingCurve.Agarose3%dH2O.NegLispCup.LampEnergy10.LIBS07252019_HRD10591_17-57-45-564.txt Node
Date: Thu Jul 25 17:57:45 EDT 2019
User: cochatt
Spectrometer: HR+D1059
Trigger mode: 1
Integration Time (sec): 1.000000E-1
Scans to average: 1
Electric dark correction enabled: true
Nonlinearity correction enabled: false
Boxcar width: 0
XAxis mode: Wavelengths
Number of Pixels in Spectrum: 2048
>>>>>Begin Spectral Data<<<<<
223.165	-9.88
223.4	-9.88
223.635	-9.88
223.869	-15.88
224.104	-15.88
224.338	-5.88
224.573	-24.88
224.808	-24.88
225.042	-19.88
225.277	-13.88
225.511	4.12
225.746	1.12
225.98	4.12
226.215	22.12
226.449	22.12
226.683	26.12
226.918	34.12
227.152	17.12
227.387	19.12
227.621	27.12
227.856	36.12
228.09	32.12
228.324	49.12
228.559	54.12
228.793	58.12
229.027	128.12
229.262	155.12
229.496	128.12
229.73	149.12
229.964	192.12
230.199	223.12
230.433	201.12
230.667	207.12
230.901	199.12
231.136	174.12
231.37	197.12
231.604	199.12
231.838	227.12
232.072	224.12
232.306	199.12
232.541	216.12
232.775	193.12
233.009	187.12
233.243	200.12
233.477	160.12
233.711	164.12
233.945	196.12
234.179	200.12
234.413	192.12
234.647	190.12
234.881	217.12
235.115	186.12
235.349	179.12
235.583	173.12
235.817	169.12
236.051	201.12
236.285	188.12
236.519	187.12
236.753	190.12
236.987	185.12
237.221	195.12
237.455	194.12
237.689	194.12
237.922	212.12
238.156	199.12
238.39	202.12
238.624	197.12
238.858	192.12
239.091	198.12
239.325	201.12
239.559	226.12
239.793	253.12
240.027	252.12
240.26	225.12
240.494	209.12
240.728	210.12
240.961	207.12
241.195	215.12
241.429	234.12
241.662	252.12
241.896	254.12
242.13	277.12
242.363	235.12
242.597	220.12
242.83	220.12
243.064	232.12
243.298	249.12
243.531	243.12
243.765	248.12
243.998	247.12
244.232	263.12
244.465	275.12
244.699	248.12
244.932	236.12
245.166	257.12
245.399	244.12
245.633	248.12
245.866	270.12
246.099	273.12
246.333	267.12
246.566	281.12
246.8	268.12
247.033	267.12
247.266	271.12
247.5	290.12
247.733	299.12
247.966	265.12
248.2	280.12
248.433	283.12
248.666	281.12
248.899	315.12
249.133	316.12
249.366	294.12
249.599	316.12
249.832	322.12
250.066	294.12
250.299	299.12
250.532	321.12
250.765	333.12
250.998	321.12
251.231	361.12
251.465	395.12
251.698	381.12
251.931	368.12
252.164	357.12
252.397	349.12
252.63	365.12
252.863	354.12
253.096	355.12
253.329	364.12
253.562	358.12
253.795	386.12
254.028	380.12
254.261	371.12
254.494	377.12
254.727	399.12
254.96	410.12
255.193	379.12
255.426	402.12
255.659	399.12
255.892	401.12
256.124	398.12
256.357	410.12
256.59	394.12
256.823	405.12
257.056	405.12
257.289	413.12
257.521	410.12
257.754	416.12
257.987	415.12
258.22	436.12
258.452	441.12
258.685	437.12
258.918	448.12
259.151	464.12
259.383	451.12
259.616	433.12
259.849	452.12
260.081	451.12
260.314	456.12
260.547	455.12
260.779	441.12
261.012	434.12
261.244	460.12
261.477	487.12
261.71	480.12
261.942	498.12
262.175	478.12
262.407	486.12
262.64	470.12
262.872	500.12
263.105	511.12
263.337	496.12
263.57	501.12
263.802	504.12
264.035	503.12
264.267	504.12
264.499	495.12
264.732	513.12
264.964	515.12
265.197	497.12
265.429	499.12
265.661	504.12
265.894	518.12
266.126	520.12
266.358	528.12
266.591	539.12
266.823	538.12
267.055	528.12
267.287	538.12
267.52	535.12
267.752	535.12
267.984	532.12
268.216	524.12
268.448	505.12
268.681	552.12
268.913	542.12
269.145	553.12
269.377	534.12
269.609	552.12
269.841	539.12
270.073	524.12
270.306	546.12
270.538	575.12
270.77	554.12
271.002	563.12
271.234	556.12
271.466	570.12
271.698	565.12
271.93	535.12
272.162	585.12
272.394	597.12
272.626	543.12
272.858	581.12
273.09	570.12
273.322	609.12
273.553	599.12
273.785	603.12
274.017	557.12
274.249	569.12
274.481	568.12
274.713	592.12
274.945	580.12
275.176	609.12
275.408	586.12
275.64	625.12
275.872	598.12
276.104	633.12
276.335	609.12
276.567	608.12
276.799	622.12
277.031	641.12
277.262	611.12
277.494	632.12
277.726	626.12
277.957	621.12
278.189	625.12
278.421	629.12
278.652	631.12
278.884	653.12
279.115	627.12
279.347	667.12
279.579	629.12
279.81	639.12
280.042	645.12
280.273	636.12
280.505	629.12
280.736	651.12
280.968	657.12
281.199	663.12
281.431	647.12
281.662	646.12
281.894	667.12
282.125	649.12
282.356	663.12
282.588	675.12
282.819	663.12
283.051	652.12
283.282	647.12
283.513	660.12
283.745	713.12
283.976	693.12
284.207	684.12
284.439	661.12
284.67	687.12
284.901	699.12
285.132	680.12
285.364	673.12
285.595	672.12
285.826	673.12
286.057	688.12
286.288	695.12
286.52	665.12
286.751	689.12
286.982	698.12
287.213	684.12
287.444	677.12
287.675	703.12
287.906	699.12
288.138	673.12
288.369	671.12
288.6	694.12
288.831	705.12
289.062	671.12
289.293	668.12
289.524	703.12
289.755	705.12
289.986	707.12
290.217	731.12
290.448	726.12
290.679	710.12
290.91	731.12
291.141	721.12
291.371	690.12
291.602	690.12
291.833	712.12
292.064	730.12
292.295	738.12
292.526	715.12
292.757	720.12
292.987	694.12
293.218	706.12
293.449	703.12
293.68	684.12
293.91	710.12
294.141	721.12
294.372	684.12
294.603	729.12
294.833	721.12
295.064	732.12
295.295	726.12
295.525	716.12
295.756	726.12
295.987	710.12
296.217	758.12
296.448	714.12
296.679	742.12
296.909	724.12
297.14	711.12
297.37	754.12
297.601	717.12
297.831	723.12
298.062	743.12
298.292	757.12
298.523	775.12
298.753	780.12
298.984	731.12
299.214	739.12
299.445	768.12
299.675	769.12
299.905	780.12
300.136	769.12
300.366	797.12
300.597	789.12
300.827	794.12
301.057	794.12
301.288	773.12
301.518	803.12
301.748	799.12
301.979	774.12
302.209	797.12
302.439	800.12
302.669	774.12
302.9	794.12
303.13	783.12
303.36	818.12
303.59	803.12
303.82	810.12
304.051	796.12
304.281	832.12
304.511	793.12
304.741	818.12
304.971	820.12
305.201	851.12
305.431	837.12
305.661	832.12
305.891	848.12
306.121	837.12
306.352	823.12
306.582	831.12
306.812	793.12
307.042	839.12
307.272	789.12
307.502	804.12
307.731	821.12
307.961	838.12
308.191	839.12
308.421	851.12
308.651	839.12
308.881	835.12
309.111	849.12
309.341	826.12
309.571	839.12
309.8	859.12
310.03	900.12
310.26	915.12
310.49	895.12
310.72	872.12
310.949	846.12
311.179	877.12
311.409	866.12
311.639	863.12
311.868	911.12
312.098	873.12
312.328	888.12
312.557	918.12
312.787	911.12
313.017	918.12
313.246	921.12
313.476	923.12
313.706	939.12
313.935	929.12
314.165	916.12
314.394	899.12
314.624	917.12
314.853	935.12
315.083	928.12
315.312	930.12
315.542	923.12
315.771	940.12
316.001	950.12
316.23	959.12
316.46	955.12
316.689	959.12
316.919	936.12
317.148	941.12
317.377	960.12
317.607	966.12
317.836	965.12
318.065	972.12
318.295	978.12
318.524	991.12
318.753	982.12
318.983	996.12
319.212	990.12
319.441	995.12
319.67	1004.12
319.9	1030.12
320.129	977.12
320.358	1017.12
320.587	986.12
320.816	1029.12
321.046	998.12
321.275	1027.12
321.504	1025.12
321.733	1031.12
321.962	1024.12
322.191	1047.12
322.42	1047.12
322.649	1063.12
322.878	1040.12
323.108	1043.12
323.337	1084.12
323.566	1053.12
323.795	1055.12
324.024	1072.12
324.253	1071.12
324.482	1081.12
324.71	1096.12
324.939	1113.12
325.168	1101.12
325.397	1089.12
325.626	1100.12
325.855	1068.12
326.084	1120.12
326.313	1144.12
326.542	1121.12
326.77	1118.12
326.999	1106.12
327.228	1111.12
327.457	1130.12
327.686	1128.12
327.914	1129.12
328.143	1127.12
328.372	1148.12
328.6	1135.12
328.829	1132.12
329.058	1155.12
329.287	1151.12
329.515	1131.12
329.744	1135.12
329.972	1137.12
330.201	1133.12
330.43	1158.12
330.658	1161.12
330.887	1152.12
331.115	1163.12
331.344	1206.12
331.572	1169.12
331.801	1193.12
332.03	1188.12
332.258	1192.12
332.486	1183.12
332.715	1188.12
332.943	1203.12
333.172	1184.12
333.4	1227.12
333.629	1223.12
333.857	1238.12
334.085	1202.12
334.314	1217.12
334.542	1221.12
334.771	1233.12
334.999	1235.12
335.227	1219.12
335.455	1241.12
335.684	1217.12
335.912	1204.12
336.14	1234.12
336.369	1241.12
336.597	1275.12
336.825	1263.12
337.053	1298.12
337.281	1285.12
337.51	1253.12
337.738	1289.12
337.966	1232.12
338.194	1272.12
338.422	1265.12
338.65	1227.12
338.878	1236.12
339.106	1232.12
339.334	1249.12
339.562	1245.12
339.79	1235.12
340.018	1243.12
340.246	1226.12
340.474	1233.12
340.702	1251.12
340.93	1241.12
341.158	1254.12
341.386	1258.12
341.614	1312.12
341.842	1269.12
342.07	1225.12
342.298	1231.12
342.526	1264.12
342.754	1245.12
342.981	1223.12
343.209	1221.12
343.437	1259.12
343.665	1270.12
343.893	1287.12
344.12	1233.12
344.348	1241.12
344.576	1232.12
344.804	1301.12
345.031	1240.12
345.259	1250.12
345.487	1224.12
345.714	1245.12
345.942	1244.12
346.17	1306.12
346.397	1240.12
346.625	1201.12
346.853	1187.12
347.08	1210.12
347.308	1208.12
347.535	1257.12
347.763	1233.12
347.99	1200.12
348.218	1183.12
348.445	1231.12
348.673	1194.12
348.9	1207.12
349.128	1214.12
349.355	1253.12
349.583	1250.12
349.81	1193.12
350.037	1215.12
350.265	1171.12
350.492	1188.12
350.72	1201.12
350.947	1197.12
351.174	1217.12
351.402	1226.12
351.629	1268.12
351.856	1250.12
352.083	1250.12
352.311	1216.12
352.538	1256.12
352.765	1268.12
352.992	1151.12
353.22	1185.12
353.447	1168.12
353.674	1198.12
353.901	1154.12
354.128	1207.12
354.355	1157.12
354.583	1165.12
354.81	1170.12
355.037	1201.12
355.264	1207.12
355.491	1133.12
355.718	1169.12
355.945	1175.12
356.172	1188.12
356.399	1199.12
356.626	1234.12
356.853	1213.12
357.08	1189.12
357.307	1204.12
357.534	1223.12
357.761	1171.12
357.988	1187.12
358.215	1183.12
358.441	1178.12
358.668	1183.12
358.895	1170.12
359.122	1215.12
359.349	1144.12
359.576	1175.12
359.802	1158.12
360.029	1211.12
360.256	1204.12
360.483	1190.12
360.709	1166.12
360.936	1191.12
361.163	1184.12
361.39	1217.12
361.616	1208.12
361.843	1219.12
362.07	1276.12
362.296	1237.12
362.523	1165.12
362.749	1201.12
362.976	1189.12
363.203	1171.12
363.429	1168.12
363.656	1166.12
363.882	1190.12
364.109	1161.12
364.335	1177.12
364.562	1191.12
364.788	1181.12
365.015	1203.12
365.241	1183.12
365.468	1190.12
365.694	1195.12
365.92	1184.12
366.147	1187.12
366.373	1191.12
366.599	1193.12
366.826	1185.12
367.052	1194.12
367.278	1191.12
367.505	1240.12
367.731	1176.12
367.957	1179.12
368.184	1195.12
368.41	1186.12
368.636	1195.12
368.862	1189.12
369.089	1223.12
369.315	1208.12
369.541	1188.12
369.767	1194.12
369.993	1222.12
370.219	1168.12
370.445	1207.12
370.672	1211.12
370.898	1204.12
371.124	1203.12
371.35	1227.12
371.576	1203.12
371.802	1213.12
372.028	1227.12
372.254	1203.12
372.48	1224.12
372.706	1199.12
372.932	1215.12
373.158	1212.12
373.384	1237.12
373.61	1219.12
373.835	1244.12
374.061	1232.12
374.287	1194.12
374.513	1233.12
374.739	1223.12
374.965	1255.12
375.191	1228.12
375.416	1215.12
375.642	1203.12
375.868	1241.12
376.094	1188.12
376.319	1188.12
376.545	1212.12
376.771	1189.12
376.997	1184.12
377.222	1181.12
377.448	1180.12
377.674	1194.12
377.899	1168.12
378.125	1191.12
378.35	1185.12
378.576	1222.12
378.802	1191.12
379.027	1185.12
379.253	1201.12
379.478	1195.12
379.704	1181.12
379.929	1190.12
380.155	1155.12
380.38	1173.12
380.606	1164.12
380.831	1167.12
381.057	1192.12
381.282	1165.12
381.507	1167.12
381.733	1172.12
381.958	1175.12
382.184	1155.12
382.409	1196.12
382.634	1213.12
382.86	1197.12
383.085	1202.12
383.31	1188.12
383.535	1207.12
383.761	1188.12
383.986	1194.12
384.211	1233.12
384.436	1196.12
384.662	1212.12
384.887	1224.12
385.112	1224.12
385.337	1228.12
385.562	1247.12
385.787	1214.12
386.013	1254.12
386.238	1251.12
386.463	1222.12
386.688	1243.12
386.913	1240.12
387.138	1235.12
387.363	1247.12
387.588	1243.12
387.813	1257.12
388.038	1230.12
388.263	1220.12
388.488	1228.12
388.713	1219.12
388.938	1237.12
389.163	1250.12
389.387	1240.12
389.612	1215.12
389.837	1265.12
390.062	1219.12
390.287	1244.12
390.512	1239.12
390.736	1235.12
390.961	1231.12
391.186	1224.12
391.411	1215.12
391.636	1250.12
391.86	1259.12
392.085	1247.12
392.31	1248.12
392.534	1236.12
392.759	1289.12
392.984	1192.12
393.208	1256.12
393.433	1248.12
393.658	1251.12
393.882	1206.12
394.107	1275.12
394.331	1241.12
394.556	1213.12
394.78	1276.12
395.005	1252.12
395.229	1303.12
395.454	1267.12
395.678	1280.12
395.903	1281.12
396.127	1288.12
396.352	1268.12
396.576	1265.12
396.801	1293.12
397.025	1285.12
397.249	1313.12
397.474	1267.12
397.698	1292.12
397.922	1293.12
398.147	1283.12
398.371	1319.12
398.595	1297.12
398.82	1348.12
399.044	1322.12
399.268	1331.12
399.492	1333.12
399.717	1337.12
399.941	1367.12
400.165	1367.12
400.389	1397.12
400.613	1383.12
400.837	1355.12
401.062	1338.12
401.286	1316.12
401.51	1325.12
401.734	1301.12
401.958	1315.12
402.182	1316.12
402.406	1335.12
402.63	1369.12
402.854	1331.12
403.078	1330.12
403.302	1350.12
403.526	1381.12
403.75	1321.12
403.974	1340.12
404.198	1365.12
404.422	1329.12
404.645	1329.12
404.869	1351.12
405.093	1371.12
405.317	1335.12
405.541	1339.12
405.765	1335.12
405.988	1356.12
406.212	1379.12
406.436	1361.12
406.66	1388.12
406.883	1371.12
407.107	1376.12
407.331	1420.12
407.555	1441.12
407.778	1437.12
408.002	1395.12
408.226	1388.12
408.449	1422.12
408.673	1394.12
408.896	1388.12
409.12	1424.12
409.344	1452.12
409.567	1391.12
409.791	1410.12
410.014	1371.12
410.238	1391.12
410.461	1395.12
410.685	1378.12
410.908	1356.12
411.132	1383.12
411.355	1347.12
411.578	1395.12
411.802	1338.12
412.025	1370.12
412.249	1364.12
412.472	1377.12
412.695	1335.12
412.919	1338.12
413.142	1343.12
413.365	1372.12
413.589	1343.12
413.812	1345.12
414.035	1347.12
414.258	1319.12
414.482	1316.12
414.705	1338.12
414.928	1347.12
415.151	1332.12
415.374	1315.12
415.597	1321.12
415.821	1314.12
416.044	1296.12
416.267	1296.12
416.49	1334.12
416.713	1276.12
416.936	1286.12
417.159	1293.12
417.382	1265.12
417.605	1251.12
417.828	1285.12
418.051	1296.12
418.274	1291.12
418.497	1290.12
418.72	1311.12
418.943	1270.12
419.166	1324.12
419.389	1416.12
419.611	1381.12
419.834	1325.12
420.057	1327.12
420.28	1325.12
420.503	1258.12
420.726	1239.12
420.948	1263.12
421.171	1279.12
421.394	1293.12
421.617	1267.12
421.839	1315.12
422.062	1307.12
422.285	1258.12
422.507	1299.12
422.73	1307.12
422.953	1291.12
423.175	1277.12
423.398	1288.12
423.621	1288.12
423.843	1294.12
424.066	1306.12
424.288	1265.12
424.511	1291.12
424.733	1302.12
424.956	1279.12
425.178	1291.12
425.401	1297.12
425.623	1331.12
425.846	1256.12
426.068	1277.12
426.291	1285.12
426.513	1299.12
426.735	1266.12
426.958	1312.12
427.18	1233.12
427.402	1299.12
427.625	1287.12
427.847	1273.12
428.069	1292.12
428.292	1289.12
428.514	1295.12
428.736	1293.12
428.958	1303.12
429.181	1287.12
429.403	1315.12
429.625	1309.12
429.847	1293.12
430.069	1291.12
430.292	1300.12
430.514	1260.12
430.736	1276.12
430.958	1306.12
431.18	1293.12
431.402	1290.12
431.624	1264.12
431.846	1274.12
432.068	1231.12
432.29	1308.12
432.512	1279.12
432.734	1327.12
432.956	1278.12
433.178	1322.12
433.4	1350.12
433.622	1370.12
433.844	1347.12
434.066	1355.12
434.287	1303.12
434.509	1328.12
434.731	1311.12
434.953	1305.12
435.175	1311.12
435.397	1352.12
435.618	1331.12
435.84	1313.12
436.062	1300.12
436.284	1299.12
436.505	1272.12
436.727	1280.12
436.949	1304.12
437.17	1298.12
437.392	1278.12
437.614	1291.12
437.835	1257.12
438.057	1277.12
438.278	1272.12
438.5	1285.12
438.721	1299.12
438.943	1293.12
439.165	1280.12
439.386	1269.12
439.608	1308.12
439.829	1307.12
440.05	1277.12
440.272	1302.12
440.493	1318.12
440.715	1337.12
440.936	1292.12
441.158	1299.12
441.379	1303.12
441.6	1341.12
441.822	1329.12
442.043	1322.12
442.264	1340.12
442.486	1290.12
442.707	1303.12
442.928	1306.12
443.149	1322.12
443.371	1357.12
443.592	1405.12
443.813	1383.12
444.034	1335.12
444.255	1342.12
444.476	1313.12
444.698	1327.12
444.919	1345.12
445.14	1474.12
445.361	1421.12
445.582	1341.12
445.803	1283.12
446.024	1293.12
446.245	1283.12
446.466	1282.12
446.687	1241.12
446.908	1315.12
447.129	1246.12
447.35	1254.12
447.571	1244.12
447.792	1228.12
448.013	1249.12
448.234	1203.12
448.455	1239.12
448.675	1184.12
448.896	1194.12
449.117	1205.12
449.338	1211.12
449.559	1203.12
449.779	1169.12
450	1201.12
450.221	1211.12
450.442	1233.12
450.662	1219.12
450.883	1203.12
451.104	1256.12
451.324	1234.12
451.545	1224.12
451.766	1180.12
451.986	1179.12
452.207	1204.12
452.428	1188.12
452.648	1189.12
452.869	1212.12
453.089	1218.12
453.31	1207.12
453.53	1186.12
453.751	1169.12
453.971	1161.12
454.192	1188.12
454.412	1228.12
454.633	1204.12
454.853	1179.12
455.073	1176.12
455.294	1180.12
455.514	1180.12
455.734	1181.12
455.955	1211.12
456.175	1191.12
456.395	1164.12
456.616	1164.12
456.836	1143.12
457.056	1155.12
457.276	1179.12
457.497	1206.12
457.717	1213.12
457.937	1232.12
458.157	1209.12
458.377	1172.12
458.598	1172.12
458.818	1173.12
459.038	1243.12
459.258	1238.12
459.478	1294.12
459.698	1358.12
459.918	1347.12
460.138	1310.12
460.358	1279.12
460.578	1323.12
460.798	1357.12
461.018	1339.12
461.238	1315.12
461.458	1280.12
461.678	1281.12
461.898	1289.12
462.118	1283.12
462.338	1300.12
462.558	1306.12
462.777	1350.12
462.997	1402.12
463.217	1399.12
463.437	1434.12
463.657	1394.12
463.876	1365.12
464.096	1341.12
464.316	1288.12
464.536	1353.12
464.755	1295.12
464.975	1284.12
465.195	1322.12
465.414	1289.12
465.634	1237.12
465.854	1268.12
466.073	1258.12
466.293	1268.12
466.512	1243.12
466.732	1237.12
466.951	1261.12
467.171	1232.12
467.391	1247.12
467.61	1244.12
467.829	1239.12
468.049	1268.12
468.268	1246.12
468.488	1221.12
468.707	1227.12
468.927	1233.12
469.146	1259.12
469.365	1251.12
469.585	1244.12
469.804	1257.12
470.023	1273.12
470.243	1243.12
470.462	1263.12
470.681	1256.12
470.901	1267.12
471.12	1257.12
471.339	1256.12
471.558	1244.12
471.777	1245.12
471.997	1248.12
472.216	1272.12
472.435	1234.12
472.654	1267.12
472.873	1261.12
473.092	1240.12
473.311	1284.12
473.53	1279.12
473.749	1280.12
473.968	1319.12
474.187	1286.12
474.406	1256.12
474.625	1283.12
474.844	1313.12
475.063	1299.12
475.282	1329.12
475.501	1324.12
475.72	1328.12
475.939	1305.12
476.158	1319.12
476.377	1335.12
476.596	1333.12
476.814	1324.12
477.033	1333.12
477.252	1354.12
477.471	1363.12
477.69	1392.12
477.908	1378.12
478.127	1407.12
478.346	1401.12
478.564	1432.12
478.783	1454.12
479.002	1516.12
479.22	1551.12
479.439	1474.12
479.658	1475.12
479.876	1431.12
480.095	1472.12
480.313	1487.12
480.532	1449.12
480.751	1483.12
480.969	1457.12
481.188	1496.12
481.406	1449.12
481.624	1447.12
481.843	1494.12
482.061	1470.12
482.28	1469.12
482.498	1493.12
482.717	1484.12
482.935	1535.12
483.153	1550.12
483.372	1580.12
483.59	1629.12
483.808	1578.12
484.027	1525.12
484.245	1487.12
484.463	1507.12
484.681	1513.12
484.9	1550.12
485.118	1522.12
485.336	1533.12
485.554	1536.12
485.772	1548.12
485.99	1528.12
486.209	1530.12
486.427	1552.12
486.645	1523.12
486.863	1540.12
487.081	1516.12
487.299	1556.12
487.517	1579.12
487.735	1585.12
487.953	1610.12
488.171	1588.12
488.389	1623.12
488.607	1562.12
488.825	1563.12
489.043	1559.12
489.261	1541.12
489.479	1529.12
489.696	1537.12
489.914	1553.12
490.132	1524.12
490.35	1553.12
490.568	1568.12
490.786	1575.12
491.003	1610.12
491.221	1586.12
491.439	1629.12
491.657	1632.12
491.874	1645.12
492.092	1650.12
492.31	1681.12
492.527	1633.12
492.745	1613.12
492.963	1611.12
493.18	1640.12
493.398	1580.12
493.615	1594.12
493.833	1626.12
494.05	1652.12
494.268	1610.12
494.485	1609.12
494.703	1609.12
494.92	1608.12
495.138	1618.12
495.355	1612.12
495.573	1659.12
495.79	1617.12
496.008	1671.12
496.225	1662.12
496.442	1639.12
496.66	1653.12
496.877	1630.12
497.094	1656.12
497.312	1679.12
497.529	1705.12
497.746	1718.12
497.963	1695.12
498.181	1738.12
498.398	1716.12
498.615	1756.12
498.832	1727.12
499.049	1767.12
499.267	1772.12
499.484	1783.12
499.701	1810.12
499.918	1861.12
500.135	1874.12
500.352	1907.12
500.569	1903.12
500.786	1880.12
501.003	1882.12
501.22	1873.12
501.437	1851.12
501.654	1816.12
501.871	1821.12
502.088	1805.12
502.305	1792.12
502.522	1808.12
502.739	1747.12
502.956	1709.12
503.172	1671.12
503.389	1680.12
503.606	1668.12
503.823	1678.12
504.04	1651.12
504.256	1606.12
504.473	1608.12
504.69	1574.12
504.907	1590.12
505.123	1592.12
505.34	1582.12
505.557	1555.12
505.773	1565.12
505.99	1487.12
506.207	1529.12
506.423	1474.12
506.64	1512.12
506.856	1501.12
507.073	1459.12
507.289	1438.12
507.506	1456.12
507.722	1458.12
507.939	1473.12
508.155	1421.12
508.372	1476.12
508.588	1414.12
508.805	1415.12
509.021	1388.12
509.238	1391.12
509.454	1401.12
509.67	1430.12
509.887	1362.12
510.103	1390.12
510.319	1380.12
510.536	1380.12
510.752	1313.12
510.968	1345.12
511.184	1364.12
511.401	1379.12
511.617	1313.12
511.833	1355.12
512.049	1349.12
512.265	1353.12
512.481	1323.12
512.698	1343.12
512.914	1311.12
513.13	1337.12
513.346	1352.12
513.562	1331.12
513.778	1301.12
513.994	1325.12
514.21	1327.12
514.426	1313.12
514.642	1307.12
514.858	1324.12
515.074	1313.12
515.29	1337.12
515.506	1303.12
515.721	1336.12
515.937	1359.12
516.153	1320.12
516.369	1299.12
516.585	1337.12
516.801	1334.12
517.016	1326.12
517.232	1357.12
517.448	1348.12
517.664	1359.12
517.879	1362.12
518.095	1362.12
518.311	1365.12
518.527	1337.12
518.742	1349.12
518.958	1323.12
519.173	1310.12
519.389	1320.12
519.605	1332.12
519.82	1304.12
520.036	1323.12
520.251	1274.12
520.467	1277.12
520.682	1309.12
520.898	1267.12
521.113	1275.12
521.329	1265.12
521.544	1268.12
521.76	1246.12
521.975	1245.12
522.19	1243.12
522.406	1266.12
522.621	1260.12
522.836	1241.12
523.052	1242.12
523.267	1234.12
523.482	1236.12
523.698	1228.12
523.913	1226.12
524.128	1237.12
524.343	1231.12
524.559	1248.12
524.774	1228.12
524.989	1210.12
525.204	1255.12
525.419	1226.12
525.634	1219.12
525.849	1212.12
526.064	1208.12
526.28	1181.12
526.495	1177.12
526.71	1180.12
526.925	1156.12
527.14	1177.12
527.355	1189.12
527.57	1164.12
527.785	1185.12
527.999	1175.12
528.214	1186.12
528.429	1150.12
528.644	1209.12
528.859	1183.12
529.074	1183.12
529.289	1150.12
529.503	1175.12
529.718	1171.12
529.933	1149.12
530.148	1165.12
530.363	1160.12
530.577	1157.12
530.792	1151.12
531.007	1142.12
531.221	1143.12
531.436	1168.12
531.651	1127.12
531.865	1148.12
532.08	1170.12
532.295	1115.12
532.509	1124.12
532.724	1119.12
532.938	1132.12
533.153	1107.12
533.367	1151.12
533.582	1167.12
533.796	1155.12
534.011	1103.12
534.225	1108.12
534.44	1112.12
534.654	1126.12
534.868	1100.12
535.083	1108.12
535.297	1103.12
535.511	1122.12
535.726	1074.12
535.94	1094.12
536.154	1089.12
536.369	1104.12
536.583	1059.12
536.797	1093.12
537.011	1052.12
537.225	1064.12
537.44	1080.12
537.654	1076.12
537.868	1046.12
538.082	1053.12
538.296	1073.12
538.51	1057.12
538.724	1061.12
538.938	1064.12
539.153	1049.12
539.367	1055.12
539.581	1022.12
539.795	1036.12
540.009	1041.12
540.222	1024.12
540.436	1037.12
540.65	1046.12
540.864	1047.12
541.078	1045.12
541.292	1074.12
541.506	1076.12
541.72	1045.12
541.934	1056.12
542.147	1056.12
542.361	1069.12
542.575	1072.12
542.789	1013.12
543.002	1034.12
543.216	1007.12
543.43	990.12
543.644	1017.12
543.857	1044.12
544.071	1020.12
544.285	999.12
544.498	1023.12
544.712	1019.12
544.925	1020.12
545.139	1006.12
545.352	983.12
545.566	1025.12
545.779	1004.12
545.993	1019.12
546.206	1011.12
546.42	1000.12
546.633	1007.12
546.847	1005.12
547.06	978.12
547.274	985.12
547.487	1016.12
547.7	1040.12
547.914	1040.12
548.127	1023.12
548.34	1011.12
548.554	985.12
548.767	1001.12
548.98	1004.12
549.193	981.12
549.407	965.12
549.62	986.12
549.833	952.12
550.046	959.12
550.259	976.12
550.473	967.12
550.686	948.12
550.899	964.12
551.112	940.12
551.325	959.12
551.538	983.12
551.751	921.12
551.964	953.12
552.177	953.12
552.39	956.12
552.603	964.12
552.816	937.12
553.029	945.12
553.242	944.12
553.455	955.12
553.667	952.12
553.88	972.12
554.093	947.12
554.306	960.12
554.519	929.12
554.732	938.12
554.944	919.12
555.157	918.12
555.37	918.12
555.583	923.12
555.795	902.12
556.008	917.12
556.221	918.12
556.433	905.12
556.646	872.12
556.859	865.12
557.071	895.12
557.284	895.12
557.496	881.12
557.709	884.12
557.921	881.12
558.134	857.12
558.346	874.12
558.559	868.12
558.771	866.12
558.984	873.12
559.196	854.12
559.409	849.12
559.621	856.12
559.833	833.12
560.046	819.12
560.258	840.12
560.47	839.12
560.683	825.12
560.895	824.12
561.107	823.12
561.32	835.12
561.532	828.12
561.744	842.12
561.956	827.12
562.168	833.12
562.381	841.12
562.593	806.12
562.805	805.12
563.017	821.12
563.229	831.12
563.441	826.12
563.653	835.12
563.865	834.12
564.077	840.12
564.289	837.12
564.501	825.12
564.713	832.12
564.925	845.12
565.137	835.12
565.349	790.12
565.561	813.12
565.773	835.12
565.985	833.12
566.197	827.12
566.408	818.12
566.62	847.12
566.832	835.12
567.044	840.12
567.255	829.12
567.467	848.12
567.679	821.12
567.891	796.12
568.102	819.12
568.314	788.12
568.526	800.12
568.737	826.12
568.949	788.12
569.161	785.12
569.372	743.12
569.584	738.12
569.795	741.12
570.007	780.12
570.218	728.12
570.43	729.12
570.641	722.12
570.853	719.12
571.064	730.12
571.276	731.12
571.487	721.12
571.698	746.12
571.91	723.12
572.121	729.12
572.333	713.12
572.544	676.12
572.755	671.12
572.966	681.12
573.178	697.12
573.389	683.12
573.6	680.12
573.811	650.12
574.023	645.12
574.234	650.12
574.445	648.12
574.656	641.12
574.867	643.12
575.078	648.12
575.289	653.12
575.501	629.12
575.712	622.12
575.923	637.12
576.134	618.12
576.345	624.12
576.556	620.12
576.767	625.12
576.978	620.12
577.188	602.12
577.399	616.12
577.61	629.12
577.821	617.12
578.032	597.12
578.243	594.12
578.454	611.12
578.665	590.12
578.875	607.12
579.086	589.12
579.297	612.12
579.508	582.12
579.718	604.12
579.929	604.12
580.14	578.12
580.35	578.12
580.561	571.12
580.772	586.12
580.982	568.12
581.193	540.12
581.403	569.12
581.614	581.12
581.825	561.12
582.035	556.12
582.246	576.12
582.456	583.12
582.667	571.12
582.877	541.12
583.087	564.12
583.298	549.12
583.508	539.12
583.719	544.12
583.929	544.12
584.139	528.12
584.35	542.12
584.56	552.12
584.77	556.12
584.981	547.12
585.191	530.12
585.401	529.12
585.611	522.12
585.821	551.12
586.032	539.12
586.242	517.12
586.452	524.12
586.662	541.12
586.872	522.12
587.082	532.12
587.292	525.12
587.502	529.12
587.713	525.12
587.923	528.12
588.133	511.12
588.343	512.12
588.553	514.12
588.762	548.12
588.972	543.12
589.182	563.12
589.392	579.12
589.602	509.12
589.812	555.12
590.022	536.12
590.232	525.12
590.441	491.12
590.651	523.12
590.861	502.12
591.071	504.12
591.281	516.12
591.49	493.12
591.7	508.12
591.91	502.12
592.119	505.12
592.329	489.12
592.539	507.12
592.748	516.12
592.958	487.12
593.167	513.12
593.377	471.12
593.587	498.12
593.796	489.12
594.006	487.12
594.215	501.12
594.424	490.12
594.634	489.12
594.843	499.12
595.053	478.12
595.262	485.12
595.472	480.12
595.681	482.12
595.89	461.12
596.1	476.12
596.309	441.12
596.518	471.12
596.727	457.12
596.937	477.12
597.146	451.12
597.355	487.12
597.564	456.12
597.774	453.12
597.983	439.12
598.192	465.12
598.401	451.12
598.61	470.12
598.819	451.12
599.028	444.12
599.237	441.12
599.446	445.12
599.655	435.12
599.864	451.12
600.073	436.12
600.282	406.12
600.491	431.12
600.7	426.12
600.909	439.12
601.118	438.12
601.327	416.12
601.536	415.12
601.745	434.12
601.953	424.12
602.162	431.12
602.371	413.12
602.58	409.12
602.789	420.12
602.997	415.12
603.206	419.12
603.415	417.12
603.623	405.12
603.832	412.12
604.041	403.12
604.249	408.12
604.458	401.12
604.666	386.12
604.875	397.12
605.084	400.12
605.292	395.12
605.501	407.12
605.709	421.12
605.918	416.12
606.126	387.12
606.334	403.12
606.543	400.12
606.751	415.12
606.96	383.12
607.168	388.12
607.376	389.12
607.585	384.12
607.793	395.12
608.001	389.12
608.21	380.12
608.418	399.12
608.626	386.12
608.834	377.12
609.043	373.12
609.251	376.12
609.459	389.12
609.667	398.12
609.875	377.12
610.083	373.12
610.291	367.12
610.499	383.12
610.707	357.12
610.916	379.12
611.124	373.12
611.332	376.12
611.54	370.12
611.748	369.12
611.955	377.12
612.163	362.12
612.371	387.12
612.579	362.12
612.787	379.12
612.995	355.12
613.203	379.12
613.411	363.12
613.618	360.12
613.826	358.12
614.034	369.12
614.242	381.12
614.449	356.12
614.657	374.12
614.865	383.12
615.072	378.12
615.28	344.12
615.488	360.12
615.695	381.12
615.903	359.12
616.111	351.12
616.318	381.12
616.526	361.12
616.733	369.12
616.941	355.12
617.148	359.12
617.356	353.12
617.563	340.12
617.771	374.12
617.978	357.12
618.185	351.12
618.393	357.12
618.6	356.12
618.807	352.12
619.015	363.12
619.222	333.12
619.429	333.12
619.637	346.12
619.844	337.12
620.051	350.12
620.258	336.12
620.466	352.12
620.673	331.12
620.88	315.12
621.087	325.12
621.294	348.12
621.501	320.12
621.708	338.12
621.915	342.12
622.122	348.12
622.329	329.12
622.536	312.12
622.743	325.12
622.95	335.12
623.157	314.12
623.364	320.12
623.571	319.12
623.778	334.12
623.985	333.12
624.192	319.12
624.399	298.12
624.606	330.12
624.812	314.12
625.019	325.12
625.226	322.12
625.433	330.12
625.639	307.12
625.846	318.12
626.053	316.12
626.259	319.12
626.466	313.12
626.673	316.12
626.879	308.12
627.086	307.12
627.293	308.12
627.499	276.12
627.706	307.12
627.912	294.12
628.119	294.12
628.325	304.12
628.532	304.12
628.738	320.12
628.945	295.12
629.151	297.12
629.357	297.12
629.564	305.12
629.77	295.12
629.976	305.12
630.183	293.12
630.389	296.12
630.595	307.12
630.802	289.12
631.008	294.12
631.214	279.12
631.42	281.12
631.627	303.12
631.833	285.12
632.039	291.12
632.245	283.12
632.451	290.12
632.657	273.12
632.863	266.12
633.069	270.12
633.275	279.12
633.481	273.12
633.688	260.12
633.893	287.12
634.099	283.12
634.305	283.12
634.511	275.12
634.717	280.12
634.923	291.12
635.129	268.12
635.335	264.12
635.541	283.12
635.747	278.12
635.952	256.12
636.158	281.12
636.364	269.12
636.57	274.12
636.775	261.12
636.981	280.12
637.187	270.12
637.392	267.12
637.598	251.12
637.804	256.12
638.009	275.12
638.215	268.12
638.421	267.12
638.626	261.12
638.832	252.12
639.037	264.12
639.243	265.12
639.448	259.12
639.654	264.12
639.859	242.12
640.065	256.12
640.27	262.12
640.475	262.12
640.681	266.12
640.886	267.12
641.091	261.12
641.297	252.12
641.502	262.12
641.707	248.12
641.913	247.12
642.118	267.12
642.323	261.12
642.528	255.12
642.733	269.12
642.939	257.12
643.144	258.12
643.349	244.12
643.554	276.12
643.759	264.12
643.964	257.12
644.169	256.12
644.374	247.12
644.579	251.12
644.784	237.12
644.989	241.12
645.194	245.12
645.399	231.12
645.604	235.12
645.809	244.12
646.014	259.12
646.219	250.12
646.423	252.12
646.628	257.12
646.833	261.12
647.038	248.12
647.243	252.12
647.447	270.12
647.652	249.12
647.857	261.12
648.062	243.12
648.266	250.12
648.471	246.12
648.676	252.12
648.88	235.12
649.085	252.12
649.289	257.12
649.494	240.12
649.698	244.12
649.903	244.12
650.107	270.12
650.312	241.12
650.516	241.12
650.721	233.12
650.925	236.12
651.13	233.12
651.334	239.12
651.539	232.12
651.743	226.12
651.947	242.12
652.152	237.12
652.356	235.12
652.56	229.12
652.764	220.12
652.969	240.12
653.173	214.12
653.377	220.12
653.581	218.12
653.785	225.12
653.99	218.12
654.194	225.12
654.398	218.12
654.602	211.12
654.806	219.12
655.01	209.12
655.214	213.12
655.418	219.12
655.622	212.12
655.826	187.12
656.03	212.12
656.234	217.12
656.438	234.12
656.642	211.12
656.846	209.12
657.049	211.12
657.253	188.12
657.457	171.12
657.661	165.12
657.865	172.12
658.068	164.12
658.272	148.12
658.476	155.12
658.68	161.12
658.883	153.12
659.087	129.12
659.291	130.12
659.494	135.12
659.698	122.12
659.901	118.12
660.105	123.12
660.309	134.12
660.512	126.12
660.716	108.12
660.919	113.12
661.123	113.12
661.326	109.12
661.53	96.12
661.733	107.12
661.936	100.12
662.14	120.12
662.343	99.12
662.546	90.12
662.75	83.12
662.953	95.12
663.156	87.12
663.36	90.12
663.563	85.12
663.766	86.12
663.969	98.12
664.173	80.12
664.376	89.12
664.579	77.12
664.782	84.12
664.985	90.12
665.188	70.12
665.391	85.12
665.594	79.12
665.797	70.12
666	89.12
666.203	80.12
666.406	81.12
666.609	80.12
666.812	90.12
667.015	83.12
667.218	91.12
667.421	63.12
667.624	82.12
667.827	87.12
668.03	82.12
668.232	76.12
668.435	79.12
668.638	76.12
668.841	87.12
669.043	78.12
669.246	75.12
669.449	90.12
669.651	87.12
669.854	82.12
670.057	92.12
670.259	77.12
670.462	76.12
670.665	77.12
670.867	80.12
671.07	76.12
671.272	84.12
671.475	87.12
671.677	95.12
671.88	85.12
672.082	82.12
672.284	76.12
672.487	71.12
672.689	74.12
672.892	81.12
