Data from Ni(NO3)2@0.25M.TitratingCurve.Agarose3%dH2O.NegLispCup.LampEnergy10.LIBS07252019_HRD10591_18-03-47-565.txt Node
Date: Thu Jul 25 18:03:47 EDT 2019
User: cochatt
Spectrometer: HR+D1059
Trigger mode: 1
Integration Time (sec): 1.000000E-1
Scans to average: 1
Electric dark correction enabled: true
Nonlinearity correction enabled: false
Boxcar width: 0
XAxis mode: Wavelengths
Number of Pixels in Spectrum: 2048
>>>>>Begin Spectral Data<<<<<
223.165	-8.94
223.4	-8.94
223.635	-8.94
223.869	-15.94
224.104	-19.94
224.338	-16.94
224.573	-19.94
224.808	-5.94
225.042	-11.94
225.277	-11.94
225.511	-4.94
225.746	-0.94
225.98	4.06
226.215	6.06
226.449	9.06
226.683	41.06
226.918	14.06
227.152	43.06
227.387	41.06
227.621	48.06
227.856	48.06
228.09	43.06
228.324	40.06
228.559	54.06
228.793	72.06
229.027	89.06
229.262	105.06
229.496	85.06
229.73	88.06
229.964	109.06
230.199	109.06
230.433	113.06
230.667	128.06
230.901	116.06
231.136	107.06
231.37	101.06
231.604	117.06
231.838	112.06
232.072	120.06
232.306	125.06
232.541	114.06
232.775	119.06
233.009	127.06
233.243	109.06
233.477	122.06
233.711	116.06
233.945	124.06
234.179	117.06
234.413	109.06
234.647	120.06
234.881	114.06
235.115	127.06
235.349	113.06
235.583	113.06
235.817	124.06
236.051	131.06
236.285	126.06
236.519	125.06
236.753	117.06
236.987	126.06
237.221	117.06
237.455	113.06
237.689	121.06
237.922	126.06
238.156	130.06
238.39	123.06
238.624	107.06
238.858	112.06
239.091	115.06
239.325	132.06
239.559	128.06
239.793	153.06
240.027	125.06
240.26	152.06
240.494	129.06
240.728	130.06
240.961	138.06
241.195	137.06
241.429	130.06
241.662	127.06
241.896	139.06
242.13	129.06
242.363	142.06
242.597	124.06
242.83	142.06
243.064	129.06
243.298	132.06
243.531	144.06
243.765	155.06
243.998	128.06
244.232	152.06
244.465	136.06
244.699	153.06
244.932	147.06
245.166	128.06
245.399	134.06
245.633	154.06
245.866	145.06
246.099	152.06
246.333	153.06
246.566	157.06
246.8	151.06
247.033	154.06
247.266	164.06
247.5	137.06
247.733	145.06
247.966	149.06
248.2	154.06
248.433	164.06
248.666	159.06
248.899	168.06
249.133	170.06
249.366	176.06
249.599	157.06
249.832	173.06
250.066	174.06
250.299	192.06
250.532	166.06
250.765	152.06
250.998	192.06
251.231	190.06
251.465	183.06
251.698	189.06
251.931	187.06
252.164	173.06
252.397	180.06
252.63	189.06
252.863	191.06
253.096	185.06
253.329	209.06
253.562	208.06
253.795	190.06
254.028	224.06
254.261	210.06
254.494	201.06
254.727	212.06
254.96	204.06
255.193	226.06
255.426	206.06
255.659	222.06
255.892	202.06
256.124	209.06
256.357	228.06
256.59	228.06
256.823	233.06
257.056	231.06
257.289	226.06
257.521	230.06
257.754	233.06
257.987	220.06
258.22	248.06
258.452	232.06
258.685	245.06
258.918	239.06
259.151	231.06
259.383	258.06
259.616	235.06
259.849	238.06
260.081	240.06
260.314	256.06
260.547	246.06
260.779	265.06
261.012	251.06
261.244	248.06
261.477	254.06
261.71	248.06
261.942	256.06
262.175	251.06
262.407	253.06
262.64	241.06
262.872	273.06
263.105	266.06
263.337	271.06
263.57	250.06
263.802	272.06
264.035	276.06
264.267	279.06
264.499	286.06
264.732	265.06
264.964	280.06
265.197	266.06
265.429	271.06
265.661	275.06
265.894	279.06
266.126	278.06
266.358	286.06
266.591	273.06
266.823	287.06
267.055	262.06
267.287	298.06
267.52	273.06
267.752	272.06
267.984	291.06
268.216	278.06
268.448	280.06
268.681	289.06
268.913	287.06
269.145	291.06
269.377	296.06
269.609	271.06
269.841	277.06
270.073	278.06
270.306	293.06
270.538	286.06
270.77	284.06
271.002	278.06
271.234	290.06
271.466	296.06
271.698	302.06
271.93	305.06
272.162	297.06
272.394	290.06
272.626	303.06
272.858	304.06
273.09	301.06
273.322	306.06
273.553	309.06
273.785	314.06
274.017	308.06
274.249	327.06
274.481	307.06
274.713	314.06
274.945	318.06
275.176	314.06
275.408	313.06
275.64	319.06
275.872	314.06
276.104	317.06
276.335	291.06
276.567	303.06
276.799	318.06
277.031	320.06
277.262	306.06
277.494	313.06
277.726	315.06
277.957	328.06
278.189	308.06
278.421	327.06
278.652	295.06
278.884	317.06
279.115	330.06
279.347	314.06
279.579	320.06
279.81	308.06
280.042	313.06
280.273	321.06
280.505	326.06
280.736	326.06
280.968	312.06
281.199	321.06
281.431	329.06
281.662	333.06
281.894	331.06
282.125	320.06
282.356	339.06
282.588	332.06
282.819	336.06
283.051	347.06
283.282	345.06
283.513	335.06
283.745	333.06
283.976	327.06
284.207	337.06
284.439	332.06
284.67	332.06
284.901	347.06
285.132	340.06
285.364	345.06
285.595	334.06
285.826	346.06
286.057	357.06
286.288	337.06
286.52	359.06
286.751	340.06
286.982	334.06
287.213	350.06
287.444	344.06
287.675	351.06
287.906	350.06
288.138	353.06
288.369	353.06
288.6	358.06
288.831	340.06
289.062	345.06
289.293	356.06
289.524	341.06
289.755	345.06
289.986	335.06
290.217	335.06
290.448	355.06
290.679	350.06
290.91	356.06
291.141	349.06
291.371	348.06
291.602	358.06
291.833	354.06
292.064	342.06
292.295	347.06
292.526	353.06
292.757	342.06
292.987	332.06
293.218	334.06
293.449	349.06
293.68	357.06
293.91	367.06
294.141	352.06
294.372	347.06
294.603	337.06
294.833	352.06
295.064	350.06
295.295	345.06
295.525	367.06
295.756	362.06
295.987	357.06
296.217	365.06
296.448	362.06
296.679	356.06
296.909	372.06
297.14	372.06
297.37	350.06
297.601	379.06
297.831	358.06
298.062	374.06
298.292	364.06
298.523	360.06
298.753	360.06
298.984	377.06
299.214	372.06
299.445	372.06
299.675	384.06
299.905	394.06
300.136	377.06
300.366	390.06
300.597	397.06
300.827	379.06
301.057	371.06
301.288	384.06
301.518	403.06
301.748	386.06
301.979	386.06
302.209	378.06
302.439	400.06
302.669	394.06
302.9	385.06
303.13	398.06
303.36	406.06
303.59	386.06
303.82	408.06
304.051	421.06
304.281	414.06
304.511	402.06
304.741	389.06
304.971	383.06
305.201	401.06
305.431	411.06
305.661	417.06
305.891	416.06
306.121	416.06
306.352	402.06
306.582	382.06
306.812	365.06
307.042	408.06
307.272	413.06
307.502	388.06
307.731	381.06
307.961	379.06
308.191	399.06
308.421	390.06
308.651	411.06
308.881	398.06
309.111	396.06
309.341	414.06
309.571	400.06
309.8	431.06
310.03	411.06
310.26	427.06
310.49	427.06
310.72	420.06
310.949	406.06
311.179	416.06
311.409	414.06
311.639	415.06
311.868	429.06
312.098	431.06
312.328	448.06
312.557	412.06
312.787	418.06
313.017	431.06
313.246	448.06
313.476	449.06
313.706	438.06
313.935	454.06
314.165	448.06
314.394	457.06
314.624	439.06
314.853	455.06
315.083	447.06
315.312	470.06
315.542	460.06
315.771	445.06
316.001	434.06
316.23	466.06
316.46	469.06
316.689	473.06
316.919	457.06
317.148	453.06
317.377	477.06
317.607	475.06
317.836	472.06
318.065	479.06
318.295	509.06
318.524	462.06
318.753	467.06
318.983	486.06
319.212	450.06
319.441	472.06
319.67	496.06
319.9	485.06
320.129	484.06
320.358	495.06
320.587	495.06
320.816	488.06
321.046	494.06
321.275	507.06
321.504	500.06
321.733	508.06
321.962	522.06
322.191	524.06
322.42	524.06
322.649	530.06
322.878	521.06
323.108	525.06
323.337	546.06
323.566	520.06
323.795	556.06
324.024	549.06
324.253	553.06
324.482	558.06
324.71	558.06
324.939	548.06
325.168	555.06
325.397	550.06
325.626	531.06
325.855	583.06
326.084	592.06
326.313	605.06
326.542	604.06
326.77	581.06
326.999	587.06
327.228	580.06
327.457	576.06
327.686	574.06
327.914	598.06
328.143	585.06
328.372	584.06
328.6	600.06
328.829	604.06
329.058	609.06
329.287	599.06
329.515	612.06
329.744	609.06
329.972	625.06
330.201	611.06
330.43	633.06
330.658	639.06
330.887	623.06
331.115	648.06
331.344	624.06
331.572	628.06
331.801	644.06
332.03	658.06
332.258	681.06
332.486	686.06
332.715	678.06
332.943	699.06
333.172	710.06
333.4	720.06
333.629	730.06
333.857	753.06
334.085	718.06
334.314	767.06
334.542	751.06
334.771	787.06
334.999	778.06
335.227	778.06
335.455	763.06
335.684	770.06
335.912	737.06
336.14	754.06
336.369	740.06
336.597	767.06
336.825	747.06
337.053	776.06
337.281	742.06
337.51	724.06
337.738	748.06
337.966	720.06
338.194	743.06
338.422	730.06
338.65	728.06
338.878	710.06
339.106	734.06
339.334	715.06
339.562	713.06
339.79	698.06
340.018	702.06
340.246	701.06
340.474	684.06
340.702	667.06
340.93	677.06
341.158	678.06
341.386	689.06
341.614	701.06
341.842	707.06
342.07	695.06
342.298	690.06
342.526	698.06
342.754	719.06
342.981	690.06
343.209	712.06
343.437	717.06
343.665	737.06
343.893	719.06
344.12	756.06
344.348	751.06
344.576	766.06
344.804	767.06
345.031	711.06
345.259	732.06
345.487	721.06
345.714	703.06
345.942	688.06
346.17	705.06
346.397	703.06
346.625	677.06
346.853	676.06
347.08	658.06
347.308	687.06
347.535	688.06
347.763	655.06
347.99	682.06
348.218	677.06
348.445	682.06
348.673	667.06
348.9	666.06
349.128	644.06
349.355	694.06
349.583	677.06
349.81	662.06
350.037	653.06
350.265	648.06
350.492	641.06
350.72	649.06
350.947	654.06
351.174	652.06
351.402	678.06
351.629	682.06
351.856	669.06
352.083	646.06
352.311	666.06
352.538	669.06
352.765	662.06
352.992	664.06
353.22	630.06
353.447	643.06
353.674	652.06
353.901	655.06
354.128	615.06
354.355	629.06
354.583	625.06
354.81	649.06
355.037	620.06
355.264	668.06
355.491	655.06
355.718	629.06
355.945	640.06
356.172	642.06
356.399	635.06
356.626	665.06
356.853	664.06
357.08	661.06
357.307	658.06
357.534	656.06
357.761	665.06
357.988	650.06
358.215	644.06
358.441	641.06
358.668	643.06
358.895	632.06
359.122	667.06
359.349	640.06
359.576	625.06
359.802	622.06
360.029	650.06
360.256	640.06
360.483	634.06
360.709	618.06
360.936	658.06
361.163	646.06
361.39	660.06
361.616	650.06
361.843	635.06
362.07	670.06
362.296	675.06
362.523	651.06
362.749	649.06
362.976	621.06
363.203	622.06
363.429	621.06
363.656	634.06
363.882	645.06
364.109	646.06
364.335	638.06
364.562	634.06
364.788	625.06
365.015	638.06
365.241	636.06
365.468	622.06
365.694	635.06
365.92	631.06
366.147	624.06
366.373	621.06
366.599	612.06
366.826	622.06
367.052	648.06
367.278	626.06
367.505	638.06
367.731	639.06
367.957	624.06
368.184	638.06
368.41	639.06
368.636	645.06
368.862	638.06
369.089	654.06
369.315	639.06
369.541	648.06
369.767	645.06
369.993	657.06
370.219	649.06
370.445	639.06
370.672	639.06
370.898	635.06
371.124	652.06
371.35	664.06
371.576	636.06
371.802	641.06
372.028	629.06
372.254	664.06
372.48	680.06
372.706	665.06
372.932	666.06
373.158	663.06
373.384	647.06
373.61	648.06
373.835	668.06
374.061	676.06
374.287	677.06
374.513	690.06
374.739	653.06
374.965	697.06
375.191	682.06
375.416	706.06
375.642	682.06
375.868	678.06
376.094	668.06
376.319	652.06
376.545	649.06
376.771	658.06
376.997	653.06
377.222	655.06
377.448	646.06
377.674	656.06
377.899	630.06
378.125	626.06
378.35	634.06
378.576	640.06
378.802	622.06
379.027	609.06
379.253	625.06
379.478	624.06
379.704	638.06
379.929	630.06
380.155	628.06
380.38	635.06
380.606	626.06
380.831	617.06
381.057	654.06
381.282	625.06
381.507	646.06
381.733	650.06
381.958	649.06
382.184	651.06
382.409	653.06
382.634	657.06
382.86	636.06
383.085	660.06
383.31	649.06
383.535	676.06
383.761	659.06
383.986	662.06
384.211	655.06
384.436	688.06
384.662	703.06
384.887	696.06
385.112	684.06
385.337	706.06
385.562	710.06
385.787	697.06
386.013	732.06
386.238	722.06
386.463	703.06
386.688	718.06
386.913	694.06
387.138	718.06
387.363	734.06
387.588	702.06
387.813	700.06
388.038	702.06
388.263	712.06
388.488	713.06
388.713	709.06
388.938	723.06
389.163	714.06
389.387	726.06
389.612	739.06
389.837	730.06
390.062	724.06
390.287	695.06
390.512	727.06
390.736	731.06
390.961	737.06
391.186	734.06
391.411	733.06
391.636	756.06
391.86	749.06
392.085	777.06
392.31	751.06
392.534	778.06
392.759	751.06
392.984	748.06
393.208	733.06
393.433	752.06
393.658	749.06
393.882	750.06
394.107	733.06
394.331	770.06
394.556	766.06
394.78	758.06
395.005	747.06
395.229	760.06
395.454	780.06
395.678	767.06
395.903	794.06
396.127	773.06
396.352	786.06
396.576	780.06
396.801	773.06
397.025	788.06
397.249	795.06
397.474	795.06
397.698	838.06
397.922	794.06
398.147	809.06
398.371	832.06
398.595	844.06
398.82	871.06
399.044	907.06
399.268	962.06
399.492	1010.06
399.717	1053.06
399.941	1110.06
400.165	998.06
400.389	994.06
400.613	979.06
400.837	925.06
401.062	923.06
401.286	885.06
401.51	905.06
401.734	872.06
401.958	898.06
402.182	915.06
402.406	885.06
402.63	907.06
402.854	884.06
403.078	891.06
403.302	897.06
403.526	920.06
403.75	906.06
403.974	932.06
404.198	917.06
404.422	932.06
404.645	937.06
404.869	902.06
405.093	912.06
405.317	931.06
405.541	928.06
405.765	929.06
405.988	969.06
406.212	968.06
406.436	940.06
406.66	989.06
406.883	972.06
407.107	1018.06
407.331	1008.06
407.555	1036.06
407.778	1062.06
408.002	1035.06
408.226	1061.06
408.449	1039.06
408.673	1036.06
408.896	983.06
409.12	990.06
409.344	983.06
409.567	1000.06
409.791	998.06
410.014	989.06
410.238	990.06
410.461	990.06
410.685	964.06
410.908	963.06
411.132	954.06
411.355	916.06
411.578	954.06
411.802	951.06
412.025	916.06
412.249	942.06
412.472	950.06
412.695	944.06
412.919	936.06
413.142	948.06
413.365	935.06
413.589	929.06
413.812	903.06
414.035	900.06
414.258	929.06
414.482	939.06
414.705	931.06
414.928	957.06
415.151	918.06
415.374	902.06
415.597	906.06
415.821	886.06
416.044	908.06
416.267	903.06
416.49	909.06
416.713	873.06
416.936	933.06
417.159	920.06
417.382	902.06
417.605	867.06
417.828	898.06
418.051	879.06
418.274	937.06
418.497	894.06
418.72	929.06
418.943	897.06
419.166	933.06
419.389	1017.06
419.611	994.06
419.834	980.06
420.057	977.06
420.28	943.06
420.503	926.06
420.726	935.06
420.948	918.06
421.171	911.06
421.394	906.06
421.617	937.06
421.839	920.06
422.062	926.06
422.285	905.06
422.507	920.06
422.73	916.06
422.953	921.06
423.175	918.06
423.398	941.06
423.621	899.06
423.843	922.06
424.066	914.06
424.288	947.06
424.511	918.06
424.733	932.06
424.956	934.06
425.178	923.06
425.401	925.06
425.623	927.06
425.846	905.06
426.068	917.06
426.291	908.06
426.513	905.06
426.735	922.06
426.958	904.06
427.18	891.06
427.402	920.06
427.625	894.06
427.847	878.06
428.069	890.06
428.292	882.06
428.514	893.06
428.736	898.06
428.958	914.06
429.181	914.06
429.403	905.06
429.625	901.06
429.847	866.06
430.069	886.06
430.292	878.06
430.514	896.06
430.736	914.06
430.958	877.06
431.18	874.06
431.402	913.06
431.624	898.06
431.846	880.06
432.068	887.06
432.29	902.06
432.512	898.06
432.734	905.06
432.956	895.06
433.178	881.06
433.4	898.06
433.622	910.06
433.844	936.06
434.066	947.06
434.287	923.06
434.509	913.06
434.731	957.06
434.953	938.06
435.175	944.06
435.397	966.06
435.618	936.06
435.84	914.06
436.062	912.06
436.284	913.06
436.505	902.06
436.727	910.06
436.949	925.06
437.17	886.06
437.392	900.06
437.614	891.06
437.835	870.06
438.057	840.06
438.278	870.06
438.5	879.06
438.721	864.06
438.943	900.06
439.165	884.06
439.386	901.06
439.608	907.06
439.829	912.06
440.05	894.06
440.272	926.06
440.493	904.06
440.715	936.06
440.936	898.06
441.158	954.06
441.379	926.06
441.6	989.06
441.822	980.06
442.043	955.06
442.264	947.06
442.486	945.06
442.707	974.06
442.928	975.06
443.149	954.06
443.371	964.06
443.592	970.06
443.813	964.06
444.034	962.06
444.255	997.06
444.476	1026.06
444.698	1041.06
444.919	1060.06
445.14	1101.06
445.361	1050.06
445.582	997.06
445.803	982.06
446.024	969.06
446.245	976.06
446.466	957.06
446.687	930.06
446.908	968.06
447.129	893.06
447.35	898.06
447.571	920.06
447.792	881.06
448.013	876.06
448.234	871.06
448.455	847.06
448.675	872.06
448.896	873.06
449.117	852.06
449.338	853.06
449.559	861.06
449.779	850.06
450	858.06
450.221	846.06
450.442	845.06
450.662	854.06
450.883	842.06
451.104	878.06
451.324	849.06
451.545	866.06
451.766	861.06
451.986	832.06
452.207	834.06
452.428	829.06
452.648	836.06
452.869	812.06
453.089	808.06
453.31	809.06
453.53	807.06
453.751	790.06
453.971	791.06
454.192	821.06
454.412	817.06
454.633	759.06
454.853	782.06
455.073	795.06
455.294	810.06
455.514	793.06
455.734	806.06
455.955	792.06
456.175	799.06
456.395	801.06
456.616	773.06
456.836	823.06
457.056	813.06
457.276	790.06
457.497	811.06
457.717	828.06
457.937	805.06
458.157	786.06
458.377	842.06
458.598	838.06
458.818	876.06
459.038	872.06
459.258	867.06
459.478	903.06
459.698	914.06
459.918	913.06
460.138	944.06
460.358	978.06
460.578	985.06
460.798	1026.06
461.018	1024.06
461.238	1009.06
461.458	1029.06
461.678	999.06
461.898	1015.06
462.118	1023.06
462.338	1058.06
462.558	1086.06
462.777	1101.06
462.997	1128.06
463.217	1136.06
463.437	1170.06
463.657	1149.06
463.876	1133.06
464.096	1154.06
464.316	1113.06
464.536	1093.06
464.755	1068.06
464.975	1065.06
465.195	994.06
465.414	970.06
465.634	960.06
465.854	948.06
466.073	917.06
466.293	929.06
466.512	914.06
466.732	885.06
466.951	942.06
467.171	893.06
467.391	915.06
467.61	880.06
467.829	886.06
468.049	850.06
468.268	878.06
468.488	876.06
468.707	847.06
468.927	848.06
469.146	856.06
469.365	881.06
469.585	888.06
469.804	900.06
470.023	904.06
470.243	888.06
470.462	905.06
470.681	895.06
470.901	879.06
471.12	865.06
471.339	905.06
471.558	899.06
471.777	900.06
471.997	885.06
472.216	901.06
472.435	897.06
472.654	854.06
472.873	849.06
473.092	847.06
473.311	877.06
473.53	834.06
473.749	856.06
473.968	850.06
474.187	869.06
474.406	854.06
474.625	854.06
474.844	861.06
475.063	860.06
475.282	866.06
475.501	849.06
475.72	894.06
475.939	906.06
476.158	896.06
476.377	892.06
476.596	866.06
476.814	904.06
477.033	902.06
477.252	936.06
477.471	937.06
477.69	975.06
477.908	963.06
478.127	994.06
478.346	988.06
478.564	990.06
478.783	1024.06
479.002	1012.06
479.22	1029.06
479.439	1027.06
479.658	1038.06
479.876	994.06
480.095	1048.06
480.313	1045.06
480.532	1029.06
480.751	1053.06
480.969	1043.06
481.188	1029.06
481.406	992.06
481.624	984.06
481.843	982.06
482.061	967.06
482.28	984.06
482.498	997.06
482.717	978.06
482.935	960.06
483.153	982.06
483.372	966.06
483.59	1000.06
483.808	979.06
484.027	1004.06
484.245	996.06
484.463	983.06
484.681	987.06
484.9	986.06
485.118	1017.06
485.336	1028.06
485.554	1022.06
485.772	1004.06
485.99	1032.06
486.209	1020.06
486.427	1006.06
486.645	1003.06
486.863	1015.06
487.081	1028.06
487.299	1029.06
487.517	1033.06
487.735	1021.06
487.953	1034.06
488.171	1053.06
488.389	1007.06
488.607	1057.06
488.825	1015.06
489.043	1015.06
489.261	983.06
489.479	1030.06
489.696	1008.06
489.914	1015.06
490.132	1054.06
490.35	1044.06
490.568	1036.06
490.786	1073.06
491.003	1063.06
491.221	1054.06
491.439	1059.06
491.657	1069.06
491.874	1083.06
492.092	1103.06
492.31	1119.06
492.527	1122.06
492.745	1128.06
492.963	1089.06
493.18	1084.06
493.398	1100.06
493.615	1098.06
493.833	1106.06
494.05	1108.06
494.268	1101.06
494.485	1104.06
494.703	1156.06
494.92	1148.06
495.138	1129.06
495.355	1128.06
495.573	1128.06
495.79	1165.06
496.008	1158.06
496.225	1193.06
496.442	1177.06
496.66	1211.06
496.877	1205.06
497.094	1225.06
497.312	1251.06
497.529	1266.06
497.746	1275.06
497.963	1302.06
498.181	1356.06
498.398	1391.06
498.615	1460.06
498.832	1478.06
499.049	1565.06
499.267	1679.06
499.484	1699.06
499.701	1846.06
499.918	1926.06
500.135	2002.06
500.352	2144.06
500.569	2101.06
500.786	2112.06
501.003	2100.06
501.22	1990.06
501.437	1920.06
501.654	1793.06
501.871	1720.06
502.088	1662.06
502.305	1558.06
502.522	1507.06
502.739	1449.06
502.956	1403.06
503.172	1386.06
503.389	1336.06
503.606	1325.06
503.823	1299.06
504.04	1284.06
504.256	1265.06
504.473	1233.06
504.69	1226.06
504.907	1206.06
505.123	1213.06
505.34	1145.06
505.557	1141.06
505.773	1115.06
505.99	1070.06
506.207	1086.06
506.423	1067.06
506.64	1039.06
506.856	1032.06
507.073	1039.06
507.289	1015.06
507.506	993.06
507.722	989.06
507.939	991.06
508.155	1001.06
508.372	958.06
508.588	987.06
508.805	970.06
509.021	951.06
509.238	932.06
509.454	950.06
509.67	936.06
509.887	929.06
510.103	922.06
510.319	927.06
510.536	925.06
510.752	895.06
510.968	937.06
511.184	918.06
511.401	891.06
511.617	915.06
511.833	914.06
512.049	912.06
512.265	911.06
512.481	913.06
512.698	887.06
512.914	880.06
513.13	932.06
513.346	916.06
513.562	915.06
513.778	921.06
513.994	889.06
514.21	885.06
514.426	919.06
514.642	927.06
514.858	952.06
515.074	951.06
515.29	946.06
515.506	961.06
515.721	941.06
515.937	935.06
516.153	952.06
516.369	967.06
516.585	992.06
516.801	983.06
517.016	997.06
517.232	1029.06
517.448	1033.06
517.664	1048.06
517.879	1082.06
518.095	1092.06
518.311	1101.06
518.527	1042.06
518.742	1018.06
518.958	996.06
519.173	978.06
519.389	981.06
519.605	961.06
519.82	950.06
520.036	953.06
520.251	930.06
520.467	942.06
520.682	919.06
520.898	901.06
521.113	895.06
521.329	873.06
521.544	913.06
521.76	870.06
521.975	882.06
522.19	873.06
522.406	867.06
522.621	858.06
522.836	876.06
523.052	851.06
523.267	839.06
523.482	849.06
523.698	833.06
523.913	828.06
524.128	837.06
524.343	852.06
524.559	844.06
524.774	824.06
524.989	855.06
525.204	825.06
525.419	813.06
525.634	826.06
525.849	827.06
526.064	805.06
526.28	836.06
526.495	813.06
526.71	805.06
526.925	781.06
527.14	797.06
527.355	780.06
527.57	790.06
527.785	819.06
527.999	824.06
528.214	793.06
528.429	824.06
528.644	824.06
528.859	823.06
529.074	833.06
529.289	820.06
529.503	829.06
529.718	801.06
529.933	818.06
530.148	808.06
530.363	798.06
530.577	810.06
530.792	775.06
531.007	799.06
531.221	788.06
531.436	772.06
531.651	781.06
531.865	799.06
532.08	808.06
532.295	795.06
532.509	763.06
532.724	758.06
532.938	813.06
533.153	774.06
533.367	806.06
533.582	792.06
533.796	803.06
534.011	786.06
534.225	769.06
534.44	763.06
534.654	782.06
534.868	782.06
535.083	758.06
535.297	754.06
535.511	774.06
535.726	782.06
535.94	761.06
536.154	753.06
536.369	762.06
536.583	745.06
536.797	752.06
537.011	738.06
537.225	728.06
537.44	742.06
537.654	727.06
537.868	725.06
538.082	746.06
538.296	749.06
538.51	731.06
538.724	759.06
538.938	747.06
539.153	735.06
539.367	728.06
539.581	737.06
539.795	746.06
540.009	727.06
540.222	722.06
540.436	725.06
540.65	717.06
540.864	735.06
541.078	729.06
541.292	733.06
541.506	725.06
541.72	710.06
541.934	754.06
542.147	753.06
542.361	738.06
542.575	737.06
542.789	719.06
543.002	729.06
543.216	723.06
543.43	722.06
543.644	722.06
543.857	718.06
544.071	720.06
544.285	714.06
544.498	742.06
544.712	746.06
544.925	738.06
545.139	739.06
545.352	730.06
545.566	757.06
545.779	744.06
545.993	756.06
546.206	741.06
546.42	737.06
546.633	746.06
546.847	739.06
547.06	733.06
547.274	762.06
547.487	764.06
547.7	746.06
547.914	759.06
548.127	761.06
548.34	756.06
548.554	767.06
548.767	741.06
548.98	728.06
549.193	746.06
549.407	760.06
549.62	739.06
549.833	752.06
550.046	776.06
550.259	764.06
550.473	762.06
550.686	732.06
550.899	718.06
551.112	723.06
551.325	737.06
551.538	733.06
551.751	713.06
551.964	728.06
552.177	739.06
552.39	736.06
552.603	752.06
552.816	764.06
553.029	763.06
553.242	760.06
553.455	745.06
553.667	734.06
553.88	755.06
554.093	750.06
554.306	733.06
554.519	732.06
554.732	711.06
554.944	734.06
555.157	716.06
555.37	708.06
555.583	693.06
555.795	678.06
556.008	693.06
556.221	648.06
556.433	650.06
556.646	655.06
556.859	680.06
557.071	676.06
557.284	658.06
557.496	676.06
557.709	654.06
557.921	657.06
558.134	639.06
558.346	639.06
558.559	624.06
558.771	638.06
558.984	623.06
559.196	634.06
559.409	636.06
559.621	629.06
559.833	638.06
560.046	649.06
560.258	621.06
560.47	637.06
560.683	611.06
560.895	621.06
561.107	615.06
561.32	626.06
561.532	642.06
561.744	633.06
561.956	630.06
562.168	632.06
562.381	616.06
562.593	629.06
562.805	628.06
563.017	638.06
563.229	635.06
563.441	649.06
563.653	639.06
563.865	615.06
564.077	653.06
564.289	641.06
564.501	650.06
564.713	667.06
564.925	681.06
565.137	684.06
565.349	692.06
565.561	703.06
565.773	690.06
565.985	719.06
566.197	734.06
566.408	742.06
566.62	795.06
566.832	804.06
567.044	805.06
567.255	824.06
567.467	844.06
567.679	843.06
567.891	861.06
568.102	822.06
568.314	818.06
568.526	780.06
568.737	737.06
568.949	720.06
569.161	705.06
569.372	673.06
569.584	662.06
569.795	643.06
570.007	625.06
570.218	618.06
570.43	582.06
570.641	606.06
570.853	611.06
571.064	617.06
571.276	566.06
571.487	588.06
571.698	578.06
571.91	568.06
572.121	556.06
572.333	538.06
572.544	539.06
572.755	526.06
572.966	530.06
573.178	525.06
573.389	527.06
573.6	524.06
573.811	520.06
574.023	501.06
574.234	509.06
574.445	524.06
574.656	478.06
574.867	504.06
575.078	484.06
575.289	493.06
575.501	490.06
575.712	479.06
575.923	494.06
576.134	495.06
576.345	476.06
576.556	504.06
576.767	467.06
576.978	488.06
577.188	472.06
577.399	472.06
577.61	440.06
577.821	459.06
578.032	458.06
578.243	443.06
578.454	462.06
578.665	457.06
578.875	453.06
579.086	443.06
579.297	455.06
579.508	456.06
579.718	445.06
579.929	438.06
580.14	415.06
580.35	442.06
580.561	446.06
580.772	440.06
580.982	435.06
581.193	442.06
581.403	451.06
581.614	424.06
581.825	455.06
582.035	416.06
582.246	432.06
582.456	437.06
582.667	438.06
582.877	411.06
583.087	427.06
583.298	418.06
583.508	424.06
583.719	425.06
583.929	418.06
584.139	416.06
584.35	441.06
584.56	421.06
584.77	420.06
584.981	412.06
585.191	424.06
585.401	407.06
585.611	389.06
585.821	415.06
586.032	426.06
586.242	411.06
586.452	400.06
586.662	427.06
586.872	432.06
587.082	399.06
587.292	395.06
587.502	392.06
587.713	391.06
587.923	424.06
588.133	409.06
588.343	390.06
588.553	411.06
588.762	419.06
588.972	411.06
589.182	429.06
589.392	415.06
589.602	410.06
589.812	409.06
590.022	412.06
590.232	417.06
590.441	401.06
590.651	413.06
590.861	411.06
591.071	412.06
591.281	421.06
591.49	410.06
591.7	427.06
591.91	429.06
592.119	407.06
592.329	425.06
592.539	413.06
592.748	427.06
592.958	423.06
593.167	448.06
593.377	456.06
593.587	421.06
593.796	423.06
594.006	438.06
594.215	436.06
594.424	434.06
594.634	427.06
594.843	422.06
595.053	409.06
595.262	417.06
595.472	417.06
595.681	387.06
595.89	399.06
596.1	401.06
596.309	377.06
596.518	377.06
596.727	364.06
596.937	384.06
597.146	372.06
597.355	371.06
597.564	362.06
597.774	349.06
597.983	380.06
598.192	362.06
598.401	356.06
598.61	357.06
598.819	360.06
599.028	338.06
599.237	329.06
599.446	345.06
599.655	344.06
599.864	358.06
600.073	336.06
600.282	330.06
600.491	332.06
600.7	352.06
600.909	333.06
601.118	336.06
601.327	318.06
601.536	344.06
601.745	337.06
601.953	330.06
602.162	345.06
602.371	342.06
602.58	339.06
602.789	341.06
602.997	327.06
603.206	330.06
603.415	330.06
603.623	325.06
603.832	326.06
604.041	330.06
604.249	316.06
604.458	324.06
604.666	333.06
604.875	325.06
605.084	321.06
605.292	331.06
605.501	310.06
605.709	302.06
605.918	309.06
606.126	300.06
606.334	321.06
606.543	292.06
606.751	312.06
606.96	315.06
607.168	312.06
607.376	305.06
607.585	305.06
607.793	317.06
608.001	316.06
608.21	331.06
608.418	313.06
608.626	318.06
608.834	300.06
609.043	316.06
609.251	305.06
609.459	301.06
609.667	298.06
609.875	293.06
610.083	319.06
610.291	326.06
610.499	317.06
610.707	303.06
610.916	301.06
611.124	305.06
611.332	306.06
611.54	300.06
611.748	306.06
611.955	287.06
612.163	288.06
612.371	298.06
612.579	303.06
612.787	304.06
612.995	296.06
613.203	300.06
613.411	300.06
613.618	299.06
613.826	288.06
614.034	304.06
614.242	275.06
614.449	296.06
614.657	304.06
614.865	317.06
615.072	300.06
615.28	301.06
615.488	292.06
615.695	278.06
615.903	283.06
616.111	296.06
616.318	282.06
616.526	280.06
616.733	278.06
616.941	269.06
617.148	273.06
617.356	275.06
617.563	284.06
617.771	295.06
617.978	295.06
618.185	297.06
618.393	277.06
618.6	288.06
618.807	271.06
619.015	278.06
619.222	274.06
619.429	282.06
619.637	268.06
619.844	275.06
620.051	270.06
620.258	296.06
620.466	274.06
620.673	254.06
620.88	272.06
621.087	266.06
621.294	269.06
621.501	278.06
621.708	269.06
621.915	279.06
622.122	261.06
622.329	272.06
622.536	260.06
622.743	260.06
622.95	281.06
623.157	266.06
623.364	260.06
623.571	265.06
623.778	246.06
623.985	279.06
624.192	275.06
624.399	247.06
624.606	275.06
624.812	256.06
625.019	244.06
625.226	272.06
625.433	253.06
625.639	261.06
625.846	246.06
626.053	232.06
626.259	241.06
626.466	227.06
626.673	254.06
626.879	245.06
627.086	237.06
627.293	242.06
627.499	246.06
627.706	239.06
627.912	238.06
628.119	251.06
628.325	258.06
628.532	262.06
628.738	231.06
628.945	226.06
629.151	251.06
629.357	238.06
629.564	223.06
629.77	239.06
629.976	230.06
630.183	235.06
630.389	227.06
630.595	237.06
630.802	228.06
631.008	230.06
631.214	231.06
631.42	224.06
631.627	244.06
631.833	210.06
632.039	231.06
632.245	205.06
632.451	230.06
632.657	226.06
632.863	232.06
633.069	229.06
633.275	230.06
633.481	209.06
633.688	227.06
633.893	238.06
634.099	206.06
634.305	227.06
634.511	221.06
634.717	217.06
634.923	218.06
635.129	206.06
635.335	219.06
635.541	219.06
635.747	216.06
635.952	222.06
636.158	213.06
636.364	196.06
636.57	214.06
636.775	209.06
636.981	216.06
637.187	208.06
637.392	198.06
637.598	209.06
637.804	214.06
638.009	205.06
638.215	205.06
638.421	213.06
638.626	210.06
638.832	199.06
639.037	194.06
639.243	200.06
639.448	204.06
639.654	201.06
639.859	204.06
640.065	216.06
640.27	211.06
640.475	197.06
640.681	215.06
640.886	193.06
641.091	201.06
641.297	200.06
641.502	208.06
641.707	192.06
641.913	205.06
642.118	208.06
642.323	216.06
642.528	210.06
642.733	207.06
642.939	205.06
643.144	209.06
643.349	191.06
643.554	211.06
643.759	212.06
643.964	201.06
644.169	209.06
644.374	207.06
644.579	201.06
644.784	187.06
644.989	183.06
645.194	210.06
645.399	203.06
645.604	188.06
645.809	203.06
646.014	204.06
646.219	199.06
646.423	187.06
646.628	219.06
646.833	192.06
647.038	199.06
647.243	198.06
647.447	188.06
647.652	200.06
647.857	201.06
648.062	209.06
648.266	189.06
648.471	182.06
648.676	191.06
648.88	195.06
649.085	196.06
649.289	190.06
649.494	196.06
649.698	204.06
649.903	181.06
650.107	192.06
650.312	192.06
650.516	196.06
650.721	188.06
650.925	185.06
651.13	176.06
651.334	177.06
651.539	157.06
651.743	165.06
651.947	181.06
652.152	177.06
652.356	174.06
652.56	169.06
652.764	175.06
652.969	164.06
653.173	154.06
653.377	166.06
653.581	162.06
653.785	157.06
653.99	158.06
654.194	160.06
654.398	156.06
654.602	156.06
654.806	156.06
655.01	149.06
655.214	150.06
655.418	141.06
655.622	140.06
655.826	153.06
656.03	130.06
656.234	138.06
656.438	143.06
656.642	132.06
656.846	141.06
657.049	136.06
657.253	130.06
657.457	141.06
657.661	141.06
657.865	135.06
658.068	136.06
658.272	128.06
658.476	127.06
658.68	117.06
658.883	116.06
659.087	108.06
659.291	111.06
659.494	127.06
659.698	126.06
659.901	106.06
660.105	117.06
660.309	110.06
660.512	100.06
660.716	106.06
660.919	99.06
661.123	109.06
661.326	106.06
661.53	104.06
661.733	103.06
661.936	113.06
662.14	97.06
662.343	87.06
662.546	79.06
662.75	82.06
662.953	89.06
663.156	95.06
663.36	92.06
663.563	86.06
663.766	100.06
663.969	92.06
664.173	101.06
664.376	85.06
664.579	85.06
664.782	94.06
664.985	91.06
665.188	72.06
665.391	75.06
665.594	87.06
665.797	92.06
666	88.06
666.203	79.06
666.406	77.06
666.609	88.06
666.812	83.06
667.015	83.06
667.218	94.06
667.421	81.06
667.624	79.06
667.827	79.06
668.03	88.06
668.232	87.06
668.435	93.06
668.638	88.06
668.841	75.06
669.043	78.06
669.246	80.06
669.449	91.06
669.651	90.06
669.854	70.06
670.057	94.06
670.259	81.06
670.462	93.06
670.665	68.06
670.867	74.06
671.07	82.06
671.272	76.06
671.475	97.06
671.677	100.06
671.88	75.06
672.082	83.06
672.284	92.06
672.487	81.06
672.689	84.06
672.892	102.06
