Data from Ni(NO3)2@0.0625M.TitratingCurve.Agarose3%dH2O.NegLispCup.LampEnergy10.LIBS07252019_HRD10591_18-13-03-568.txt Node
Date: Thu Jul 25 18:13:03 EDT 2019
User: cochatt
Spectrometer: HR+D1059
Trigger mode: 1
Integration Time (sec): 1.000000E-1
Scans to average: 1
Electric dark correction enabled: true
Nonlinearity correction enabled: false
Boxcar width: 0
XAxis mode: Wavelengths
Number of Pixels in Spectrum: 2048
>>>>>Begin Spectral Data<<<<<
223.165	-19.44
223.4	-19.44
223.635	-19.44
223.869	-25.44
224.104	-27.44
224.338	-11.44
224.573	-4.44
224.808	-14.44
225.042	2.56
225.277	-1.44
225.511	-13.44
225.746	10.56
225.98	4.56
226.215	19.56
226.449	11.56
226.683	12.56
226.918	34.56
227.152	21.56
227.387	39.56
227.621	28.56
227.856	31.56
228.09	46.56
228.324	30.56
228.559	58.56
228.793	65.56
229.027	76.56
229.262	86.56
229.496	108.56
229.73	101.56
229.964	108.56
230.199	108.56
230.433	103.56
230.667	110.56
230.901	119.56
231.136	131.56
231.37	122.56
231.604	116.56
231.838	118.56
232.072	124.56
232.306	119.56
232.541	120.56
232.775	121.56
233.009	128.56
233.243	129.56
233.477	123.56
233.711	130.56
233.945	120.56
234.179	133.56
234.413	128.56
234.647	119.56
234.881	134.56
235.115	126.56
235.349	115.56
235.583	127.56
235.817	141.56
236.051	114.56
236.285	126.56
236.519	131.56
236.753	134.56
236.987	131.56
237.221	135.56
237.455	133.56
237.689	139.56
237.922	129.56
238.156	148.56
238.39	121.56
238.624	131.56
238.858	132.56
239.091	143.56
239.325	144.56
239.559	143.56
239.793	132.56
240.027	144.56
240.26	146.56
240.494	144.56
240.728	134.56
240.961	159.56
241.195	148.56
241.429	146.56
241.662	151.56
241.896	150.56
242.13	149.56
242.363	166.56
242.597	158.56
242.83	166.56
243.064	159.56
243.298	160.56
243.531	160.56
243.765	163.56
243.998	174.56
244.232	167.56
244.465	159.56
244.699	166.56
244.932	182.56
245.166	163.56
245.399	175.56
245.633	169.56
245.866	168.56
246.099	180.56
246.333	176.56
246.566	175.56
246.8	174.56
247.033	186.56
247.266	176.56
247.5	174.56
247.733	172.56
247.966	180.56
248.2	175.56
248.433	170.56
248.666	178.56
248.899	172.56
249.133	179.56
249.366	186.56
249.599	190.56
249.832	193.56
250.066	189.56
250.299	181.56
250.532	188.56
250.765	195.56
250.998	196.56
251.231	194.56
251.465	207.56
251.698	193.56
251.931	187.56
252.164	197.56
252.397	214.56
252.63	199.56
252.863	190.56
253.096	211.56
253.329	209.56
253.562	207.56
253.795	213.56
254.028	208.56
254.261	198.56
254.494	203.56
254.727	221.56
254.96	221.56
255.193	212.56
255.426	214.56
255.659	208.56
255.892	227.56
256.124	245.56
256.357	224.56
256.59	213.56
256.823	202.56
257.056	212.56
257.289	215.56
257.521	215.56
257.754	214.56
257.987	214.56
258.22	229.56
258.452	238.56
258.685	234.56
258.918	243.56
259.151	228.56
259.383	230.56
259.616	238.56
259.849	230.56
260.081	236.56
260.314	233.56
260.547	222.56
260.779	231.56
261.012	231.56
261.244	256.56
261.477	231.56
261.71	234.56
261.942	234.56
262.175	251.56
262.407	257.56
262.64	243.56
262.872	255.56
263.105	230.56
263.337	235.56
263.57	238.56
263.802	231.56
264.035	256.56
264.267	238.56
264.499	246.56
264.732	235.56
264.964	260.56
265.197	262.56
265.429	270.56
265.661	283.56
265.894	264.56
266.126	262.56
266.358	276.56
266.591	247.56
266.823	257.56
267.055	261.56
267.287	245.56
267.52	260.56
267.752	284.56
267.984	275.56
268.216	272.56
268.448	277.56
268.681	281.56
268.913	268.56
269.145	268.56
269.377	275.56
269.609	282.56
269.841	271.56
270.073	261.56
270.306	284.56
270.538	275.56
270.77	280.56
271.002	265.56
271.234	272.56
271.466	282.56
271.698	280.56
271.93	274.56
272.162	286.56
272.394	280.56
272.626	283.56
272.858	284.56
273.09	288.56
273.322	307.56
273.553	294.56
273.785	284.56
274.017	288.56
274.249	304.56
274.481	286.56
274.713	291.56
274.945	297.56
275.176	299.56
275.408	291.56
275.64	291.56
275.872	328.56
276.104	310.56
276.335	291.56
276.567	304.56
276.799	297.56
277.031	318.56
277.262	310.56
277.494	317.56
277.726	326.56
277.957	303.56
278.189	314.56
278.421	320.56
278.652	300.56
278.884	317.56
279.115	315.56
279.347	314.56
279.579	309.56
279.81	324.56
280.042	312.56
280.273	326.56
280.505	331.56
280.736	326.56
280.968	330.56
281.199	319.56
281.431	323.56
281.662	315.56
281.894	319.56
282.125	343.56
282.356	353.56
282.588	349.56
282.819	321.56
283.051	335.56
283.282	340.56
283.513	342.56
283.745	338.56
283.976	342.56
284.207	370.56
284.439	336.56
284.67	354.56
284.901	351.56
285.132	362.56
285.364	338.56
285.595	362.56
285.826	364.56
286.057	353.56
286.288	355.56
286.52	358.56
286.751	373.56
286.982	362.56
287.213	359.56
287.444	374.56
287.675	366.56
287.906	358.56
288.138	386.56
288.369	374.56
288.6	368.56
288.831	376.56
289.062	367.56
289.293	375.56
289.524	383.56
289.755	378.56
289.986	362.56
290.217	377.56
290.448	364.56
290.679	376.56
290.91	375.56
291.141	392.56
291.371	380.56
291.602	361.56
291.833	384.56
292.064	385.56
292.295	404.56
292.526	370.56
292.757	360.56
292.987	390.56
293.218	361.56
293.449	380.56
293.68	388.56
293.91	380.56
294.141	383.56
294.372	379.56
294.603	404.56
294.833	379.56
295.064	388.56
295.295	391.56
295.525	390.56
295.756	395.56
295.987	389.56
296.217	401.56
296.448	398.56
296.679	401.56
296.909	387.56
297.14	395.56
297.37	396.56
297.601	392.56
297.831	416.56
298.062	406.56
298.292	425.56
298.523	426.56
298.753	410.56
298.984	406.56
299.214	397.56
299.445	400.56
299.675	431.56
299.905	403.56
300.136	409.56
300.366	410.56
300.597	420.56
300.827	427.56
301.057	418.56
301.288	434.56
301.518	440.56
301.748	474.56
301.979	443.56
302.209	451.56
302.439	432.56
302.669	422.56
302.9	425.56
303.13	414.56
303.36	424.56
303.59	424.56
303.82	421.56
304.051	416.56
304.281	425.56
304.511	420.56
304.741	417.56
304.971	458.56
305.201	447.56
305.431	434.56
305.661	423.56
305.891	435.56
306.121	415.56
306.352	425.56
306.582	421.56
306.812	419.56
307.042	412.56
307.272	432.56
307.502	425.56
307.731	421.56
307.961	407.56
308.191	408.56
308.421	422.56
308.651	406.56
308.881	409.56
309.111	432.56
309.341	416.56
309.571	442.56
309.8	434.56
310.03	427.56
310.26	434.56
310.49	405.56
310.72	434.56
310.949	404.56
311.179	436.56
311.409	415.56
311.639	430.56
311.868	435.56
312.098	433.56
312.328	427.56
312.557	434.56
312.787	454.56
313.017	451.56
313.246	469.56
313.476	450.56
313.706	455.56
313.935	437.56
314.165	480.56
314.394	462.56
314.624	449.56
314.853	449.56
315.083	445.56
315.312	446.56
315.542	448.56
315.771	455.56
316.001	433.56
316.23	427.56
316.46	446.56
316.689	430.56
316.919	439.56
317.148	450.56
317.377	444.56
317.607	444.56
317.836	448.56
318.065	442.56
318.295	444.56
318.524	440.56
318.753	435.56
318.983	460.56
319.212	432.56
319.441	454.56
319.67	457.56
319.9	451.56
320.129	457.56
320.358	447.56
320.587	437.56
320.816	426.56
321.046	450.56
321.275	452.56
321.504	420.56
321.733	439.56
321.962	456.56
322.191	463.56
322.42	435.56
322.649	475.56
322.878	463.56
323.108	461.56
323.337	448.56
323.566	465.56
323.795	451.56
324.024	450.56
324.253	453.56
324.482	464.56
324.71	453.56
324.939	476.56
325.168	459.56
325.397	441.56
325.626	460.56
325.855	495.56
326.084	472.56
326.313	477.56
326.542	470.56
326.77	470.56
326.999	492.56
327.228	482.56
327.457	489.56
327.686	492.56
327.914	506.56
328.143	508.56
328.372	523.56
328.6	500.56
328.829	474.56
329.058	505.56
329.287	475.56
329.515	509.56
329.744	503.56
329.972	491.56
330.201	515.56
330.43	504.56
330.658	512.56
330.887	523.56
331.115	527.56
331.344	521.56
331.572	529.56
331.801	559.56
332.03	546.56
332.258	536.56
332.486	591.56
332.715	582.56
332.943	615.56
333.172	638.56
333.4	680.56
333.629	687.56
333.857	683.56
334.085	671.56
334.314	646.56
334.542	655.56
334.771	622.56
334.999	618.56
335.227	616.56
335.455	604.56
335.684	609.56
335.912	615.56
336.14	571.56
336.369	603.56
336.597	615.56
336.825	591.56
337.053	625.56
337.281	583.56
337.51	574.56
337.738	569.56
337.966	543.56
338.194	566.56
338.422	556.56
338.65	537.56
338.878	510.56
339.106	523.56
339.334	544.56
339.562	551.56
339.79	533.56
340.018	506.56
340.246	533.56
340.474	508.56
340.702	531.56
340.93	514.56
341.158	520.56
341.386	513.56
341.614	564.56
341.842	511.56
342.07	539.56
342.298	502.56
342.526	516.56
342.754	516.56
342.981	523.56
343.209	538.56
343.437	550.56
343.665	603.56
343.893	647.56
344.12	627.56
344.348	609.56
344.576	566.56
344.804	553.56
345.031	576.56
345.259	530.56
345.487	548.56
345.714	525.56
345.942	545.56
346.17	518.56
346.397	526.56
346.625	512.56
346.853	528.56
347.08	534.56
347.308	506.56
347.535	514.56
347.763	500.56
347.99	537.56
348.218	534.56
348.445	515.56
348.673	501.56
348.9	492.56
349.128	496.56
349.355	491.56
349.583	506.56
349.81	477.56
350.037	506.56
350.265	501.56
350.492	506.56
350.72	498.56
350.947	489.56
351.174	492.56
351.402	510.56
351.629	498.56
351.856	467.56
352.083	496.56
352.311	499.56
352.538	490.56
352.765	496.56
352.992	506.56
353.22	487.56
353.447	487.56
353.674	499.56
353.901	488.56
354.128	490.56
354.355	484.56
354.583	480.56
354.81	495.56
355.037	515.56
355.264	507.56
355.491	511.56
355.718	507.56
355.945	512.56
356.172	495.56
356.399	499.56
356.626	516.56
356.853	494.56
357.08	474.56
357.307	490.56
357.534	507.56
357.761	512.56
357.988	528.56
358.215	477.56
358.441	497.56
358.668	496.56
358.895	486.56
359.122	492.56
359.349	500.56
359.576	483.56
359.802	501.56
360.029	487.56
360.256	507.56
360.483	486.56
360.709	472.56
360.936	475.56
361.163	494.56
361.39	476.56
361.616	491.56
361.843	489.56
362.07	507.56
362.296	487.56
362.523	484.56
362.749	495.56
362.976	484.56
363.203	499.56
363.429	484.56
363.656	482.56
363.882	477.56
364.109	486.56
364.335	492.56
364.562	479.56
364.788	486.56
365.015	503.56
365.241	484.56
365.468	508.56
365.694	500.56
365.92	495.56
366.147	472.56
366.373	511.56
366.599	482.56
366.826	486.56
367.052	484.56
367.278	508.56
367.505	496.56
367.731	499.56
367.957	458.56
368.184	487.56
368.41	496.56
368.636	513.56
368.862	499.56
369.089	523.56
369.315	512.56
369.541	532.56
369.767	531.56
369.993	529.56
370.219	502.56
370.445	519.56
370.672	532.56
370.898	531.56
371.124	534.56
371.35	540.56
371.576	554.56
371.802	528.56
372.028	519.56
372.254	536.56
372.48	541.56
372.706	570.56
372.932	539.56
373.158	537.56
373.384	537.56
373.61	542.56
373.835	539.56
374.061	540.56
374.287	540.56
374.513	564.56
374.739	586.56
374.965	588.56
375.191	613.56
375.416	610.56
375.642	580.56
375.868	572.56
376.094	551.56
376.319	553.56
376.545	542.56
376.771	524.56
376.997	548.56
377.222	539.56
377.448	535.56
377.674	543.56
377.899	524.56
378.125	542.56
378.35	542.56
378.576	529.56
378.802	524.56
379.027	539.56
379.253	549.56
379.478	534.56
379.704	528.56
379.929	534.56
380.155	523.56
380.38	535.56
380.606	536.56
380.831	504.56
381.057	566.56
381.282	525.56
381.507	516.56
381.733	577.56
381.958	542.56
382.184	556.56
382.409	538.56
382.634	571.56
382.86	583.56
383.085	590.56
383.31	598.56
383.535	586.56
383.761	593.56
383.986	603.56
384.211	609.56
384.436	642.56
384.662	644.56
384.887	652.56
385.112	649.56
385.337	639.56
385.562	625.56
385.787	639.56
386.013	645.56
386.238	669.56
386.463	672.56
386.688	641.56
386.913	626.56
387.138	642.56
387.363	649.56
387.588	630.56
387.813	646.56
388.038	653.56
388.263	616.56
388.488	644.56
388.713	640.56
388.938	614.56
389.163	639.56
389.387	632.56
389.612	622.56
389.837	624.56
390.062	617.56
390.287	638.56
390.512	618.56
390.736	626.56
390.961	640.56
391.186	654.56
391.411	651.56
391.636	690.56
391.86	702.56
392.085	734.56
392.31	703.56
392.534	695.56
392.759	668.56
392.984	652.56
393.208	661.56
393.433	690.56
393.658	679.56
393.882	670.56
394.107	692.56
394.331	677.56
394.556	658.56
394.78	689.56
395.005	683.56
395.229	688.56
395.454	710.56
395.678	760.56
395.903	704.56
396.127	704.56
396.352	695.56
396.576	638.56
396.801	673.56
397.025	696.56
397.249	706.56
397.474	708.56
397.698	712.56
397.922	700.56
398.147	704.56
398.371	712.56
398.595	752.56
398.82	790.56
399.044	838.56
399.268	930.56
399.492	1107.56
399.717	1244.56
399.941	1222.56
400.165	1048.56
400.389	930.56
400.613	878.56
400.837	831.56
401.062	816.56
401.286	809.56
401.51	800.56
401.734	799.56
401.958	819.56
402.182	834.56
402.406	825.56
402.63	824.56
402.854	828.56
403.078	880.56
403.302	902.56
403.526	924.56
403.75	898.56
403.974	972.56
404.198	958.56
404.422	961.56
404.645	952.56
404.869	912.56
405.093	919.56
405.317	926.56
405.541	893.56
405.765	888.56
405.988	875.56
406.212	867.56
406.436	885.56
406.66	896.56
406.883	920.56
407.107	982.56
407.331	1035.56
407.555	1036.56
407.778	1054.56
408.002	998.56
408.226	949.56
408.449	963.56
408.673	914.56
408.896	916.56
409.12	895.56
409.344	904.56
409.567	923.56
409.791	936.56
410.014	916.56
410.238	918.56
410.461	898.56
410.685	857.56
410.908	890.56
411.132	880.56
411.355	835.56
411.578	816.56
411.802	839.56
412.025	852.56
412.249	856.56
412.472	838.56
412.695	766.56
412.919	837.56
413.142	809.56
413.365	799.56
413.589	792.56
413.812	802.56
414.035	773.56
414.258	790.56
414.482	814.56
414.705	796.56
414.928	818.56
415.151	828.56
415.374	828.56
415.597	792.56
415.821	830.56
416.044	794.56
416.267	804.56
416.49	769.56
416.713	778.56
416.936	798.56
417.159	782.56
417.382	799.56
417.605	775.56
417.828	806.56
418.051	811.56
418.274	819.56
418.497	790.56
418.72	812.56
418.943	850.56
419.166	874.56
419.389	914.56
419.611	902.56
419.834	864.56
420.057	855.56
420.28	794.56
420.503	780.56
420.726	778.56
420.948	785.56
421.171	790.56
421.394	776.56
421.617	792.56
421.839	821.56
422.062	815.56
422.285	800.56
422.507	810.56
422.73	820.56
422.953	826.56
423.175	848.56
423.398	873.56
423.621	872.56
423.843	884.56
424.066	854.56
424.288	849.56
424.511	865.56
424.733	838.56
424.956	799.56
425.178	787.56
425.401	819.56
425.623	840.56
425.846	759.56
426.068	755.56
426.291	759.56
426.513	753.56
426.735	742.56
426.958	770.56
427.18	723.56
427.402	756.56
427.625	740.56
427.847	716.56
428.069	722.56
428.292	731.56
428.514	705.56
428.736	676.56
428.958	709.56
429.181	698.56
429.403	692.56
429.625	722.56
429.847	694.56
430.069	702.56
430.292	701.56
430.514	692.56
430.736	704.56
430.958	678.56
431.18	690.56
431.402	698.56
431.624	705.56
431.846	718.56
432.068	716.56
432.29	727.56
432.512	698.56
432.734	694.56
432.956	678.56
433.178	706.56
433.4	696.56
433.622	726.56
433.844	735.56
434.066	708.56
434.287	733.56
434.509	750.56
434.731	762.56
434.953	811.56
435.175	786.56
435.397	794.56
435.618	745.56
435.84	743.56
436.062	717.56
436.284	720.56
436.505	725.56
436.727	722.56
436.949	719.56
437.17	712.56
437.392	718.56
437.614	703.56
437.835	676.56
438.057	692.56
438.278	684.56
438.5	674.56
438.721	681.56
438.943	696.56
439.165	676.56
439.386	695.56
439.608	721.56
439.829	745.56
440.05	715.56
440.272	743.56
440.493	739.56
440.715	756.56
440.936	730.56
441.158	750.56
441.379	768.56
441.6	802.56
441.822	809.56
442.043	805.56
442.264	795.56
442.486	752.56
442.707	810.56
442.928	802.56
443.149	818.56
443.371	792.56
443.592	803.56
443.813	815.56
444.034	806.56
444.255	868.56
444.476	883.56
444.698	948.56
444.919	976.56
445.14	1046.56
445.361	916.56
445.582	816.56
445.803	789.56
446.024	766.56
446.245	776.56
446.466	738.56
446.687	732.56
446.908	745.56
447.129	720.56
447.35	690.56
447.571	682.56
447.792	664.56
448.013	695.56
448.234	688.56
448.455	675.56
448.675	657.56
448.896	665.56
449.117	656.56
449.338	636.56
449.559	655.56
449.779	647.56
450	651.56
450.221	649.56
450.442	652.56
450.662	686.56
450.883	681.56
451.104	677.56
451.324	703.56
451.545	654.56
451.766	680.56
451.986	679.56
452.207	657.56
452.428	652.56
452.648	670.56
452.869	644.56
453.089	649.56
453.31	642.56
453.53	644.56
453.751	642.56
453.971	656.56
454.192	662.56
454.412	627.56
454.633	625.56
454.853	610.56
455.073	621.56
455.294	633.56
455.514	624.56
455.734	631.56
455.955	617.56
456.175	606.56
456.395	612.56
456.616	619.56
456.836	619.56
457.056	635.56
457.276	622.56
457.497	640.56
457.717	622.56
457.937	628.56
458.157	631.56
458.377	649.56
458.598	642.56
458.818	661.56
459.038	682.56
459.258	714.56
459.478	755.56
459.698	736.56
459.918	793.56
460.138	808.56
460.358	839.56
460.578	838.56
460.798	862.56
461.018	856.56
461.238	840.56
461.458	851.56
461.678	851.56
461.898	849.56
462.118	857.56
462.338	904.56
462.558	920.56
462.777	962.56
462.997	1042.56
463.217	1143.56
463.437	1181.56
463.657	1065.56
463.876	1009.56
464.096	999.56
464.316	1031.56
464.536	1011.56
464.755	934.56
464.975	912.56
465.195	900.56
465.414	823.56
465.634	766.56
465.854	766.56
466.073	722.56
466.293	697.56
466.512	707.56
466.732	702.56
466.951	709.56
467.171	693.56
467.391	704.56
467.61	711.56
467.829	667.56
468.049	699.56
468.268	662.56
468.488	663.56
468.707	642.56
468.927	666.56
469.146	658.56
469.365	660.56
469.585	667.56
469.804	692.56
470.023	708.56
470.243	712.56
470.462	692.56
470.681	696.56
470.901	712.56
471.12	714.56
471.339	689.56
471.558	673.56
471.777	686.56
471.997	690.56
472.216	633.56
472.435	664.56
472.654	652.56
472.873	640.56
473.092	635.56
473.311	655.56
473.53	647.56
473.749	632.56
473.968	639.56
474.187	648.56
474.406	630.56
474.625	635.56
474.844	635.56
475.063	656.56
475.282	648.56
475.501	655.56
475.72	660.56
475.939	650.56
476.158	646.56
476.377	670.56
476.596	672.56
476.814	678.56
477.033	675.56
477.252	729.56
477.471	724.56
477.69	742.56
477.908	752.56
478.127	773.56
478.346	792.56
478.564	773.56
478.783	788.56
479.002	825.56
479.22	807.56
479.439	790.56
479.658	799.56
479.876	768.56
480.095	818.56
480.313	865.56
480.532	879.56
480.751	854.56
480.969	830.56
481.188	806.56
481.406	783.56
481.624	758.56
481.843	739.56
482.061	753.56
482.28	747.56
482.498	740.56
482.717	710.56
482.935	727.56
483.153	720.56
483.372	727.56
483.59	736.56
483.808	742.56
484.027	730.56
484.245	754.56
484.463	754.56
484.681	758.56
484.9	752.56
485.118	781.56
485.336	759.56
485.554	771.56
485.772	801.56
485.99	769.56
486.209	775.56
486.427	778.56
486.645	781.56
486.863	770.56
487.081	785.56
487.299	778.56
487.517	767.56
487.735	766.56
487.953	802.56
488.171	779.56
488.389	763.56
488.607	763.56
488.825	768.56
489.043	764.56
489.261	772.56
489.479	746.56
489.696	771.56
489.914	765.56
490.132	768.56
490.35	755.56
490.568	779.56
490.786	771.56
491.003	783.56
491.221	788.56
491.439	790.56
491.657	784.56
491.874	772.56
492.092	771.56
492.31	775.56
492.527	779.56
492.745	793.56
492.963	802.56
493.18	808.56
493.398	793.56
493.615	806.56
493.833	811.56
494.05	818.56
494.268	843.56
494.485	797.56
494.703	816.56
494.92	811.56
495.138	800.56
495.355	816.56
495.573	837.56
495.79	828.56
496.008	842.56
496.225	831.56
496.442	842.56
496.66	873.56
496.877	847.56
497.094	865.56
497.312	862.56
497.529	914.56
497.746	937.56
497.963	932.56
498.181	983.56
498.398	1002.56
498.615	1113.56
498.832	1164.56
499.049	1256.56
499.267	1348.56
499.484	1505.56
499.701	1662.56
499.918	1868.56
500.135	2149.56
500.352	2480.56
500.569	2587.56
500.786	2546.56
501.003	2335.56
501.22	2054.56
501.437	1801.56
501.654	1566.56
501.871	1402.56
502.088	1320.56
502.305	1248.56
502.522	1151.56
502.739	1122.56
502.956	1058.56
503.172	998.56
503.389	939.56
503.606	927.56
503.823	945.56
504.04	967.56
504.256	929.56
504.473	946.56
504.69	1030.56
504.907	950.56
505.123	895.56
505.34	833.56
505.557	812.56
505.773	802.56
505.99	787.56
506.207	770.56
506.423	768.56
506.64	747.56
506.856	754.56
507.073	758.56
507.289	732.56
507.506	729.56
507.722	736.56
507.939	706.56
508.155	699.56
508.372	720.56
508.588	718.56
508.805	696.56
509.021	680.56
509.238	684.56
509.454	698.56
509.67	691.56
509.887	695.56
510.103	664.56
510.319	681.56
510.536	682.56
510.752	667.56
510.968	676.56
511.184	642.56
511.401	691.56
511.617	676.56
511.833	648.56
512.049	646.56
512.265	640.56
512.481	666.56
512.698	658.56
512.914	673.56
513.13	649.56
513.346	657.56
513.562	678.56
513.778	637.56
513.994	670.56
514.21	660.56
514.426	670.56
514.642	689.56
514.858	696.56
515.074	675.56
515.29	692.56
515.506	698.56
515.721	722.56
515.937	740.56
516.153	735.56
516.369	733.56
516.585	739.56
516.801	773.56
517.016	818.56
517.232	867.56
517.448	892.56
517.664	940.56
517.879	972.56
518.095	934.56
518.311	939.56
518.527	885.56
518.742	825.56
518.958	808.56
519.173	805.56
519.389	771.56
519.605	736.56
519.82	704.56
520.036	714.56
520.251	684.56
520.467	692.56
520.682	646.56
520.898	681.56
521.113	653.56
521.329	658.56
521.544	637.56
521.76	654.56
521.975	643.56
522.19	659.56
522.406	640.56
522.621	617.56
522.836	640.56
523.052	638.56
523.267	637.56
523.482	611.56
523.698	617.56
523.913	588.56
524.128	642.56
524.343	618.56
524.559	623.56
524.774	632.56
524.989	614.56
525.204	634.56
525.419	625.56
525.634	634.56
525.849	604.56
526.064	611.56
526.28	619.56
526.495	627.56
526.71	600.56
526.925	626.56
527.14	630.56
527.355	606.56
527.57	608.56
527.785	604.56
527.999	609.56
528.214	607.56
528.429	593.56
528.644	624.56
528.859	609.56
529.074	595.56
529.289	605.56
529.503	616.56
529.718	629.56
529.933	605.56
530.148	622.56
530.363	618.56
530.577	611.56
530.792	607.56
531.007	601.56
531.221	619.56
531.436	622.56
531.651	627.56
531.865	626.56
532.08	602.56
532.295	629.56
532.509	598.56
532.724	619.56
532.938	616.56
533.153	579.56
533.367	592.56
533.582	614.56
533.796	611.56
534.011	616.56
534.225	599.56
534.44	581.56
534.654	585.56
534.868	579.56
535.083	596.56
535.297	589.56
535.511	587.56
535.726	599.56
535.94	595.56
536.154	571.56
536.369	574.56
536.583	569.56
536.797	573.56
537.011	568.56
537.225	570.56
537.44	543.56
537.654	567.56
537.868	565.56
538.082	566.56
538.296	543.56
538.51	554.56
538.724	566.56
538.938	550.56
539.153	567.56
539.367	555.56
539.581	545.56
539.795	557.56
540.009	529.56
540.222	552.56
540.436	553.56
540.65	555.56
540.864	530.56
541.078	553.56
541.292	559.56
541.506	547.56
541.72	545.56
541.934	544.56
542.147	575.56
542.361	558.56
542.575	544.56
542.789	540.56
543.002	538.56
543.216	526.56
543.43	566.56
543.644	547.56
543.857	551.56
544.071	540.56
544.285	569.56
544.498	532.56
544.712	542.56
544.925	594.56
545.139	542.56
545.352	568.56
545.566	574.56
545.779	563.56
545.993	543.56
546.206	562.56
546.42	542.56
546.633	569.56
546.847	570.56
547.06	549.56
547.274	551.56
547.487	560.56
547.7	566.56
547.914	552.56
548.127	546.56
548.34	575.56
548.554	535.56
548.767	567.56
548.98	565.56
549.193	566.56
549.407	554.56
549.62	562.56
549.833	584.56
550.046	588.56
550.259	573.56
550.473	549.56
550.686	551.56
550.899	550.56
551.112	556.56
551.325	531.56
551.538	562.56
551.751	559.56
551.964	554.56
552.177	551.56
552.39	529.56
552.603	581.56
552.816	572.56
553.029	607.56
553.242	616.56
553.455	609.56
553.667	627.56
553.88	620.56
554.093	597.56
554.306	584.56
554.519	586.56
554.732	546.56
554.944	553.56
555.157	534.56
555.37	547.56
555.583	530.56
555.795	510.56
556.008	516.56
556.221	521.56
556.433	518.56
556.646	485.56
556.859	509.56
557.071	504.56
557.284	467.56
557.496	486.56
557.709	478.56
557.921	474.56
558.134	494.56
558.346	468.56
558.559	489.56
558.771	478.56
558.984	471.56
559.196	458.56
559.409	453.56
559.621	480.56
559.833	463.56
560.046	475.56
560.258	444.56
560.47	458.56
560.683	475.56
560.895	468.56
561.107	459.56
561.32	458.56
561.532	452.56
561.744	460.56
561.956	452.56
562.168	453.56
562.381	458.56
562.593	440.56
562.805	487.56
563.017	466.56
563.229	468.56
563.441	455.56
563.653	488.56
563.865	452.56
564.077	488.56
564.289	475.56
564.501	510.56
564.713	490.56
564.925	507.56
565.137	510.56
565.349	510.56
565.561	531.56
565.773	541.56
565.985	563.56
566.197	582.56
566.408	611.56
566.62	706.56
566.832	747.56
567.044	767.56
567.255	746.56
567.467	761.56
567.679	830.56
567.891	896.56
568.102	968.56
568.314	899.56
568.526	800.56
568.737	704.56
568.949	642.56
569.161	580.56
569.372	562.56
569.584	517.56
569.795	480.56
570.007	484.56
570.218	483.56
570.43	471.56
570.641	454.56
570.853	452.56
571.064	465.56
571.276	516.56
571.487	456.56
571.698	467.56
571.91	436.56
572.121	439.56
572.333	426.56
572.544	407.56
572.755	407.56
572.966	405.56
573.178	405.56
573.389	401.56
573.6	400.56
573.811	373.56
574.023	393.56
574.234	396.56
574.445	391.56
574.656	399.56
574.867	385.56
575.078	405.56
575.289	379.56
575.501	355.56
575.712	382.56
575.923	385.56
576.134	353.56
576.345	357.56
576.556	359.56
576.767	375.56
576.978	363.56
577.188	374.56
577.399	356.56
577.61	342.56
577.821	363.56
578.032	363.56
578.243	351.56
578.454	368.56
578.665	352.56
578.875	354.56
579.086	344.56
579.297	339.56
579.508	344.56
579.718	334.56
579.929	342.56
580.14	357.56
580.35	352.56
580.561	324.56
580.772	316.56
580.982	337.56
581.193	341.56
581.403	333.56
581.614	356.56
581.825	338.56
582.035	351.56
582.246	318.56
582.456	342.56
582.667	327.56
582.877	335.56
583.087	337.56
583.298	347.56
583.508	323.56
583.719	327.56
583.929	315.56
584.139	333.56
584.35	335.56
584.56	325.56
584.77	338.56
584.981	336.56
585.191	337.56
585.401	326.56
585.611	318.56
585.821	314.56
586.032	322.56
586.242	299.56
586.452	304.56
586.662	326.56
586.872	324.56
587.082	322.56
587.292	327.56
587.502	327.56
587.713	320.56
587.923	338.56
588.133	306.56
588.343	328.56
588.553	315.56
588.762	300.56
588.972	336.56
589.182	328.56
589.392	315.56
589.602	331.56
589.812	311.56
590.022	310.56
590.232	309.56
590.441	320.56
590.651	312.56
590.861	304.56
591.071	309.56
591.281	337.56
591.49	326.56
591.7	332.56
591.91	340.56
592.119	336.56
592.329	345.56
592.539	366.56
592.748	377.56
592.958	374.56
593.167	390.56
593.377	408.56
593.587	392.56
593.796	393.56
594.006	396.56
594.215	417.56
594.424	394.56
594.634	405.56
594.843	385.56
595.053	374.56
595.262	357.56
595.472	343.56
595.681	347.56
595.89	322.56
596.1	321.56
596.309	316.56
596.518	311.56
596.727	302.56
596.937	304.56
597.146	295.56
597.355	290.56
597.564	283.56
597.774	286.56
597.983	272.56
598.192	280.56
598.401	284.56
598.61	283.56
598.819	294.56
599.028	280.56
599.237	284.56
599.446	275.56
599.655	298.56
599.864	261.56
600.073	286.56
600.282	270.56
600.491	279.56
600.7	249.56
600.909	286.56
601.118	269.56
601.327	272.56
601.536	279.56
601.745	267.56
601.953	276.56
602.162	271.56
602.371	266.56
602.58	246.56
602.789	268.56
602.997	274.56
603.206	258.56
603.415	272.56
603.623	275.56
603.832	262.56
604.041	261.56
604.249	263.56
604.458	247.56
604.666	264.56
604.875	259.56
605.084	251.56
605.292	251.56
605.501	241.56
605.709	245.56
605.918	259.56
606.126	239.56
606.334	247.56
606.543	248.56
606.751	250.56
606.96	242.56
607.168	256.56
607.376	243.56
607.585	251.56
607.793	258.56
608.001	248.56
608.21	239.56
608.418	244.56
608.626	251.56
608.834	244.56
609.043	251.56
609.251	236.56
609.459	243.56
609.667	258.56
609.875	247.56
610.083	248.56
610.291	247.56
610.499	259.56
610.707	271.56
610.916	242.56
611.124	242.56
611.332	235.56
611.54	245.56
611.748	247.56
611.955	241.56
612.163	227.56
612.371	235.56
612.579	232.56
612.787	219.56
612.995	238.56
613.203	252.56
613.411	218.56
613.618	234.56
613.826	253.56
614.034	244.56
614.242	231.56
614.449	230.56
614.657	230.56
614.865	235.56
615.072	246.56
615.28	233.56
615.488	260.56
615.695	223.56
615.903	224.56
616.111	218.56
616.318	247.56
616.526	243.56
616.733	222.56
616.941	246.56
617.148	234.56
617.356	240.56
617.563	234.56
617.771	242.56
617.978	252.56
618.185	234.56
618.393	223.56
618.6	240.56
618.807	230.56
619.015	238.56
619.222	225.56
619.429	230.56
619.637	235.56
619.844	235.56
620.051	217.56
620.258	234.56
620.466	212.56
620.673	224.56
620.88	214.56
621.087	202.56
621.294	208.56
621.501	226.56
621.708	214.56
621.915	216.56
622.122	238.56
622.329	223.56
622.536	206.56
622.743	218.56
622.95	218.56
623.157	194.56
623.364	211.56
623.571	212.56
623.778	227.56
623.985	218.56
624.192	208.56
624.399	210.56
624.606	220.56
624.812	202.56
625.019	210.56
625.226	200.56
625.433	217.56
625.639	209.56
625.846	191.56
626.053	187.56
626.259	205.56
626.466	190.56
626.673	202.56
626.879	214.56
627.086	210.56
627.293	194.56
627.499	207.56
627.706	215.56
627.912	194.56
628.119	212.56
628.325	199.56
628.532	208.56
628.738	208.56
628.945	206.56
629.151	189.56
629.357	209.56
629.564	194.56
629.77	197.56
629.976	193.56
630.183	182.56
630.389	192.56
630.595	204.56
630.802	183.56
631.008	186.56
631.214	191.56
631.42	185.56
631.627	193.56
631.833	208.56
632.039	190.56
632.245	181.56
632.451	201.56
632.657	198.56
632.863	182.56
633.069	194.56
633.275	187.56
633.481	193.56
633.688	185.56
633.893	188.56
634.099	193.56
634.305	185.56
634.511	175.56
634.717	178.56
634.923	178.56
635.129	187.56
635.335	172.56
635.541	184.56
635.747	187.56
635.952	163.56
636.158	189.56
636.364	182.56
636.57	186.56
636.775	170.56
636.981	175.56
637.187	176.56
637.392	191.56
637.598	184.56
637.804	187.56
638.009	193.56
638.215	177.56
638.421	179.56
638.626	170.56
638.832	171.56
639.037	178.56
639.243	164.56
639.448	169.56
639.654	166.56
639.859	183.56
640.065	174.56
640.27	168.56
640.475	162.56
640.681	157.56
640.886	152.56
641.091	167.56
641.297	168.56
641.502	156.56
641.707	178.56
641.913	163.56
642.118	165.56
642.323	153.56
642.528	173.56
642.733	167.56
642.939	164.56
643.144	174.56
643.349	166.56
643.554	153.56
643.759	175.56
643.964	168.56
644.169	170.56
644.374	152.56
644.579	170.56
644.784	156.56
644.989	153.56
645.194	161.56
645.399	148.56
645.604	165.56
645.809	159.56
646.014	170.56
646.219	162.56
646.423	161.56
646.628	159.56
646.833	154.56
647.038	161.56
647.243	168.56
647.447	153.56
647.652	173.56
647.857	160.56
648.062	158.56
648.266	158.56
648.471	170.56
648.676	175.56
648.88	170.56
649.085	155.56
649.289	158.56
649.494	175.56
649.698	161.56
649.903	164.56
650.107	159.56
650.312	162.56
650.516	156.56
650.721	156.56
650.925	134.56
651.13	150.56
651.334	140.56
651.539	148.56
651.743	150.56
651.947	147.56
652.152	147.56
652.356	146.56
652.56	124.56
652.764	141.56
652.969	136.56
653.173	132.56
653.377	136.56
653.581	140.56
653.785	138.56
653.99	120.56
654.194	134.56
654.398	125.56
654.602	132.56
654.806	125.56
655.01	128.56
655.214	143.56
655.418	126.56
655.622	118.56
655.826	124.56
656.03	130.56
656.234	132.56
656.438	134.56
656.642	134.56
656.846	131.56
657.049	116.56
657.253	117.56
657.457	108.56
657.661	118.56
657.865	119.56
658.068	102.56
658.272	98.56
658.476	91.56
658.68	111.56
658.883	93.56
659.087	92.56
659.291	100.56
659.494	110.56
659.698	96.56
659.901	87.56
660.105	96.56
660.309	91.56
660.512	95.56
660.716	78.56
660.919	91.56
661.123	80.56
661.326	101.56
661.53	101.56
661.733	87.56
661.936	83.56
662.14	97.56
662.343	84.56
662.546	86.56
662.75	79.56
662.953	92.56
663.156	88.56
663.36	76.56
663.563	92.56
663.766	72.56
663.969	80.56
664.173	81.56
664.376	75.56
664.579	77.56
664.782	78.56
664.985	81.56
665.188	95.56
665.391	67.56
665.594	77.56
665.797	88.56
666	74.56
666.203	91.56
666.406	83.56
666.609	82.56
666.812	72.56
667.015	69.56
667.218	84.56
667.421	78.56
667.624	79.56
667.827	81.56
668.03	87.56
668.232	75.56
668.435	95.56
668.638	77.56
668.841	92.56
669.043	95.56
669.246	72.56
669.449	75.56
669.651	70.56
669.854	95.56
670.057	70.56
670.259	72.56
670.462	73.56
670.665	81.56
670.867	76.56
671.07	88.56
671.272	75.56
671.475	85.56
671.677	69.56
671.88	76.56
672.082	88.56
672.284	81.56
672.487	79.56
672.689	65.56
672.892	69.56
