Data from Ni(NO3)2Standard.Agarose3%.GreenCap.LampEnergy5.5.E.O_HRD10591_14-42-43-188.txt Node
Date: Mon Jul 22 14:42:43 EDT 2019
User: cochatt
Spectrometer: HR+D1059
Trigger mode: 1
Integration Time (sec): 1.000000E-1
Scans to average: 1
Electric dark correction enabled: true
Nonlinearity correction enabled: false
Boxcar width: 0
XAxis mode: Wavelengths
Number of Pixels in Spectrum: 2048
>>>>>Begin Spectral Data<<<<<
223.165	-11.06
223.4	-11.06
223.635	-11.06
223.869	-13.06
224.104	-15.06
224.338	-13.06
224.573	-19.06
224.808	-8.06
225.042	-19.06
225.277	-4.06
225.511	7.94
225.746	9.94
225.98	11.94
226.215	-6.06
226.449	23.94
226.683	14.94
226.918	8.94
227.152	30.94
227.387	37.94
227.621	28.94
227.856	57.94
228.09	44.94
228.324	34.94
228.559	49.94
228.793	54.94
229.027	55.94
229.262	54.94
229.496	67.94
229.73	70.94
229.964	76.94
230.199	65.94
230.433	70.94
230.667	76.94
230.901	67.94
231.136	82.94
231.37	79.94
231.604	79.94
231.838	69.94
232.072	86.94
232.306	69.94
232.541	81.94
232.775	86.94
233.009	76.94
233.243	86.94
233.477	96.94
233.711	73.94
233.945	76.94
234.179	90.94
234.413	96.94
234.647	89.94
234.881	76.94
235.115	75.94
235.349	73.94
235.583	89.94
235.817	84.94
236.051	81.94
236.285	87.94
236.519	70.94
236.753	63.94
236.987	74.94
237.221	72.94
237.455	67.94
237.689	75.94
237.922	76.94
238.156	69.94
238.39	83.94
238.624	76.94
238.858	76.94
239.091	75.94
239.325	64.94
239.559	75.94
239.793	67.94
240.027	69.94
240.26	75.94
240.494	88.94
240.728	77.94
240.961	86.94
241.195	90.94
241.429	88.94
241.662	65.94
241.896	80.94
242.13	76.94
242.363	77.94
242.597	80.94
242.83	75.94
243.064	75.94
243.298	74.94
243.531	74.94
243.765	85.94
243.998	79.94
244.232	76.94
244.465	78.94
244.699	77.94
244.932	75.94
245.166	68.94
245.399	82.94
245.633	82.94
245.866	80.94
246.099	93.94
246.333	82.94
246.566	84.94
246.8	71.94
247.033	97.94
247.266	91.94
247.5	97.94
247.733	75.94
247.966	73.94
248.2	78.94
248.433	78.94
248.666	77.94
248.899	68.94
249.133	85.94
249.366	77.94
249.599	76.94
249.832	64.94
250.066	80.94
250.299	85.94
250.532	75.94
250.765	68.94
250.998	67.94
251.231	72.94
251.465	73.94
251.698	85.94
251.931	70.94
252.164	73.94
252.397	83.94
252.63	95.94
252.863	82.94
253.096	85.94
253.329	72.94
253.562	73.94
253.795	75.94
254.028	74.94
254.261	76.94
254.494	60.94
254.727	87.94
254.96	76.94
255.193	84.94
255.426	74.94
255.659	64.94
255.892	76.94
256.124	67.94
256.357	70.94
256.59	77.94
256.823	81.94
257.056	83.94
257.289	85.94
257.521	81.94
257.754	85.94
257.987	75.94
258.22	74.94
258.452	79.94
258.685	80.94
258.918	78.94
259.151	73.94
259.383	86.94
259.616	88.94
259.849	81.94
260.081	82.94
260.314	77.94
260.547	68.94
260.779	79.94
261.012	69.94
261.244	81.94
261.477	105.94
261.71	96.94
261.942	87.94
262.175	94.94
262.407	89.94
262.64	58.94
262.872	69.94
263.105	101.94
263.337	72.94
263.57	82.94
263.802	82.94
264.035	75.94
264.267	75.94
264.499	73.94
264.732	103.94
264.964	77.94
265.197	88.94
265.429	93.94
265.661	70.94
265.894	71.94
266.126	75.94
266.358	76.94
266.591	76.94
266.823	77.94
267.055	78.94
267.287	94.94
267.52	83.94
267.752	83.94
267.984	92.94
268.216	69.94
268.448	105.94
268.681	85.94
268.913	84.94
269.145	85.94
269.377	77.94
269.609	87.94
269.841	88.94
270.073	75.94
270.306	63.94
270.538	80.94
270.77	77.94
271.002	87.94
271.234	93.94
271.466	91.94
271.698	91.94
271.93	85.94
272.162	76.94
272.394	72.94
272.626	75.94
272.858	67.94
273.09	84.94
273.322	87.94
273.553	77.94
273.785	90.94
274.017	74.94
274.249	87.94
274.481	84.94
274.713	78.94
274.945	90.94
275.176	83.94
275.408	82.94
275.64	82.94
275.872	92.94
276.104	90.94
276.335	91.94
276.567	80.94
276.799	77.94
277.031	70.94
277.262	80.94
277.494	83.94
277.726	81.94
277.957	63.94
278.189	70.94
278.421	93.94
278.652	75.94
278.884	81.94
279.115	83.94
279.347	87.94
279.579	75.94
279.81	84.94
280.042	88.94
280.273	80.94
280.505	73.94
280.736	74.94
280.968	86.94
281.199	88.94
281.431	81.94
281.662	80.94
281.894	81.94
282.125	77.94
282.356	93.94
282.588	77.94
282.819	84.94
283.051	90.94
283.282	87.94
283.513	86.94
283.745	92.94
283.976	88.94
284.207	84.94
284.439	91.94
284.67	94.94
284.901	71.94
285.132	82.94
285.364	86.94
285.595	84.94
285.826	89.94
286.057	97.94
286.288	95.94
286.52	84.94
286.751	68.94
286.982	74.94
287.213	84.94
287.444	85.94
287.675	75.94
287.906	88.94
288.138	81.94
288.369	83.94
288.6	68.94
288.831	81.94
289.062	93.94
289.293	87.94
289.524	88.94
289.755	80.94
289.986	85.94
290.217	81.94
290.448	90.94
290.679	77.94
290.91	97.94
291.141	88.94
291.371	96.94
291.602	81.94
291.833	82.94
292.064	86.94
292.295	84.94
292.526	74.94
292.757	84.94
292.987	81.94
293.218	82.94
293.449	91.94
293.68	81.94
293.91	87.94
294.141	79.94
294.372	90.94
294.603	99.94
294.833	80.94
295.064	97.94
295.295	85.94
295.525	87.94
295.756	81.94
295.987	84.94
296.217	76.94
296.448	80.94
296.679	86.94
296.909	91.94
297.14	85.94
297.37	83.94
297.601	81.94
297.831	85.94
298.062	74.94
298.292	83.94
298.523	89.94
298.753	97.94
298.984	80.94
299.214	76.94
299.445	91.94
299.675	81.94
299.905	91.94
300.136	88.94
300.366	77.94
300.597	79.94
300.827	77.94
301.057	75.94
301.288	72.94
301.518	86.94
301.748	82.94
301.979	90.94
302.209	81.94
302.439	71.94
302.669	74.94
302.9	84.94
303.13	103.94
303.36	100.94
303.59	91.94
303.82	85.94
304.051	91.94
304.281	88.94
304.511	95.94
304.741	78.94
304.971	87.94
305.201	94.94
305.431	78.94
305.661	75.94
305.891	80.94
306.121	81.94
306.352	86.94
306.582	86.94
306.812	84.94
307.042	76.94
307.272	92.94
307.502	82.94
307.731	77.94
307.961	91.94
308.191	83.94
308.421	79.94
308.651	76.94
308.881	91.94
309.111	82.94
309.341	69.94
309.571	83.94
309.8	80.94
310.03	85.94
310.26	88.94
310.49	77.94
310.72	87.94
310.949	86.94
311.179	58.94
311.409	80.94
311.639	74.94
311.868	84.94
312.098	75.94
312.328	86.94
312.557	78.94
312.787	77.94
313.017	105.94
313.246	84.94
313.476	91.94
313.706	76.94
313.935	87.94
314.165	75.94
314.394	88.94
314.624	75.94
314.853	92.94
315.083	77.94
315.312	94.94
315.542	85.94
315.771	77.94
316.001	84.94
316.23	88.94
316.46	86.94
316.689	76.94
316.919	83.94
317.148	77.94
317.377	96.94
317.607	93.94
317.836	89.94
318.065	99.94
318.295	88.94
318.524	90.94
318.753	89.94
318.983	80.94
319.212	88.94
319.441	92.94
319.67	89.94
319.9	80.94
320.129	100.94
320.358	92.94
320.587	83.94
320.816	67.94
321.046	83.94
321.275	96.94
321.504	87.94
321.733	83.94
321.962	77.94
322.191	99.94
322.42	88.94
322.649	87.94
322.878	89.94
323.108	83.94
323.337	81.94
323.566	99.94
323.795	81.94
324.024	95.94
324.253	89.94
324.482	88.94
324.71	85.94
324.939	88.94
325.168	91.94
325.397	81.94
325.626	77.94
325.855	75.94
326.084	82.94
326.313	91.94
326.542	85.94
326.77	88.94
326.999	91.94
327.228	86.94
327.457	87.94
327.686	79.94
327.914	83.94
328.143	81.94
328.372	85.94
328.6	94.94
328.829	108.94
329.058	86.94
329.287	84.94
329.515	89.94
329.744	93.94
329.972	76.94
330.201	85.94
330.43	79.94
330.658	91.94
330.887	85.94
331.115	92.94
331.344	75.94
331.572	71.94
331.801	82.94
332.03	82.94
332.258	79.94
332.486	88.94
332.715	75.94
332.943	85.94
333.172	88.94
333.4	83.94
333.629	85.94
333.857	96.94
334.085	86.94
334.314	75.94
334.542	84.94
334.771	89.94
334.999	99.94
335.227	84.94
335.455	105.94
335.684	71.94
335.912	94.94
336.14	91.94
336.369	74.94
336.597	87.94
336.825	98.94
337.053	77.94
337.281	81.94
337.51	80.94
337.738	96.94
337.966	90.94
338.194	80.94
338.422	97.94
338.65	94.94
338.878	85.94
339.106	85.94
339.334	106.94
339.562	89.94
339.79	86.94
340.018	92.94
340.246	89.94
340.474	91.94
340.702	85.94
340.93	82.94
341.158	77.94
341.386	81.94
341.614	81.94
341.842	89.94
342.07	93.94
342.298	84.94
342.526	81.94
342.754	96.94
342.981	89.94
343.209	90.94
343.437	106.94
343.665	81.94
343.893	76.94
344.12	99.94
344.348	85.94
344.576	80.94
344.804	80.94
345.031	78.94
345.259	70.94
345.487	83.94
345.714	85.94
345.942	75.94
346.17	80.94
346.397	76.94
346.625	84.94
346.853	81.94
347.08	93.94
347.308	76.94
347.535	85.94
347.763	96.94
347.99	72.94
348.218	74.94
348.445	89.94
348.673	73.94
348.9	104.94
349.128	83.94
349.355	85.94
349.583	98.94
349.81	85.94
350.037	96.94
350.265	81.94
350.492	85.94
350.72	78.94
350.947	81.94
351.174	88.94
351.402	84.94
351.629	71.94
351.856	81.94
352.083	93.94
352.311	96.94
352.538	84.94
352.765	85.94
352.992	82.94
353.22	78.94
353.447	73.94
353.674	78.94
353.901	102.94
354.128	93.94
354.355	85.94
354.583	70.94
354.81	87.94
355.037	80.94
355.264	85.94
355.491	96.94
355.718	84.94
355.945	75.94
356.172	89.94
356.399	91.94
356.626	83.94
356.853	93.94
357.08	93.94
357.307	92.94
357.534	90.94
357.761	97.94
357.988	91.94
358.215	109.94
358.441	89.94
358.668	82.94
358.895	98.94
359.122	72.94
359.349	76.94
359.576	89.94
359.802	91.94
360.029	92.94
360.256	89.94
360.483	87.94
360.709	95.94
360.936	101.94
361.163	69.94
361.39	87.94
361.616	90.94
361.843	72.94
362.07	79.94
362.296	75.94
362.523	96.94
362.749	90.94
362.976	78.94
363.203	82.94
363.429	88.94
363.656	83.94
363.882	73.94
364.109	82.94
364.335	92.94
364.562	96.94
364.788	86.94
365.015	82.94
365.241	85.94
365.468	94.94
365.694	87.94
365.92	75.94
366.147	90.94
366.373	86.94
366.599	83.94
366.826	82.94
367.052	89.94
367.278	82.94
367.505	89.94
367.731	89.94
367.957	95.94
368.184	81.94
368.41	90.94
368.636	93.94
368.862	83.94
369.089	72.94
369.315	100.94
369.541	89.94
369.767	81.94
369.993	67.94
370.219	76.94
370.445	78.94
370.672	81.94
370.898	83.94
371.124	86.94
371.35	80.94
371.576	85.94
371.802	86.94
372.028	82.94
372.254	97.94
372.48	100.94
372.706	79.94
372.932	86.94
373.158	84.94
373.384	93.94
373.61	82.94
373.835	88.94
374.061	83.94
374.287	70.94
374.513	81.94
374.739	89.94
374.965	87.94
375.191	85.94
375.416	88.94
375.642	88.94
375.868	94.94
376.094	67.94
376.319	84.94
376.545	89.94
376.771	88.94
376.997	80.94
377.222	80.94
377.448	77.94
377.674	95.94
377.899	86.94
378.125	84.94
378.35	80.94
378.576	87.94
378.802	90.94
379.027	93.94
379.253	105.94
379.478	93.94
379.704	73.94
379.929	90.94
380.155	79.94
380.38	86.94
380.606	80.94
380.831	84.94
381.057	71.94
381.282	95.94
381.507	95.94
381.733	90.94
381.958	89.94
382.184	85.94
382.409	73.94
382.634	83.94
382.86	93.94
383.085	82.94
383.31	80.94
383.535	76.94
383.761	78.94
383.986	86.94
384.211	75.94
384.436	92.94
384.662	85.94
384.887	87.94
385.112	87.94
385.337	84.94
385.562	82.94
385.787	78.94
386.013	90.94
386.238	78.94
386.463	85.94
386.688	79.94
386.913	99.94
387.138	77.94
387.363	92.94
387.588	91.94
387.813	78.94
388.038	91.94
388.263	95.94
388.488	76.94
388.713	85.94
388.938	85.94
389.163	75.94
389.387	83.94
389.612	79.94
389.837	75.94
390.062	94.94
390.287	88.94
390.512	83.94
390.736	86.94
390.961	92.94
391.186	85.94
391.411	86.94
391.636	93.94
391.86	77.94
392.085	79.94
392.31	80.94
392.534	72.94
392.759	91.94
392.984	80.94
393.208	84.94
393.433	92.94
393.658	81.94
393.882	79.94
394.107	73.94
394.331	80.94
394.556	84.94
394.78	83.94
395.005	85.94
395.229	73.94
395.454	86.94
395.678	89.94
395.903	83.94
396.127	76.94
396.352	91.94
396.576	87.94
396.801	73.94
397.025	84.94
397.249	90.94
397.474	81.94
397.698	73.94
397.922	99.94
398.147	73.94
398.371	75.94
398.595	91.94
398.82	83.94
399.044	84.94
399.268	80.94
399.492	93.94
399.717	80.94
399.941	75.94
400.165	87.94
400.389	87.94
400.613	92.94
400.837	93.94
401.062	84.94
401.286	82.94
401.51	83.94
401.734	78.94
401.958	91.94
402.182	85.94
402.406	91.94
402.63	96.94
402.854	80.94
403.078	76.94
403.302	83.94
403.526	87.94
403.75	92.94
403.974	82.94
404.198	117.94
404.422	90.94
404.645	76.94
404.869	86.94
405.093	86.94
405.317	85.94
405.541	85.94
405.765	86.94
405.988	83.94
406.212	91.94
406.436	76.94
406.66	81.94
406.883	83.94
407.107	86.94
407.331	87.94
407.555	87.94
407.778	91.94
408.002	75.94
408.226	88.94
408.449	67.94
408.673	86.94
408.896	90.94
409.12	83.94
409.344	80.94
409.567	84.94
409.791	80.94
410.014	90.94
410.238	99.94
410.461	81.94
410.685	76.94
410.908	85.94
411.132	101.94
411.355	74.94
411.578	87.94
411.802	85.94
412.025	71.94
412.249	86.94
412.472	85.94
412.695	76.94
412.919	84.94
413.142	94.94
413.365	85.94
413.589	82.94
413.812	101.94
414.035	100.94
414.258	88.94
414.482	92.94
414.705	82.94
414.928	82.94
415.151	104.94
415.374	88.94
415.597	73.94
415.821	87.94
416.044	86.94
416.267	74.94
416.49	82.94
416.713	87.94
416.936	88.94
417.159	80.94
417.382	87.94
417.605	71.94
417.828	86.94
418.051	84.94
418.274	83.94
418.497	89.94
418.72	91.94
418.943	85.94
419.166	67.94
419.389	84.94
419.611	82.94
419.834	86.94
420.057	84.94
420.28	81.94
420.503	84.94
420.726	84.94
420.948	86.94
421.171	82.94
421.394	99.94
421.617	84.94
421.839	78.94
422.062	86.94
422.285	81.94
422.507	77.94
422.73	83.94
422.953	86.94
423.175	84.94
423.398	79.94
423.621	86.94
423.843	78.94
424.066	76.94
424.288	78.94
424.511	82.94
424.733	82.94
424.956	83.94
425.178	84.94
425.401	101.94
425.623	95.94
425.846	83.94
426.068	88.94
426.291	84.94
426.513	82.94
426.735	80.94
426.958	86.94
427.18	83.94
427.402	94.94
427.625	81.94
427.847	79.94
428.069	80.94
428.292	88.94
428.514	95.94
428.736	99.94
428.958	84.94
429.181	90.94
429.403	78.94
429.625	75.94
429.847	81.94
430.069	90.94
430.292	92.94
430.514	75.94
430.736	71.94
430.958	81.94
431.18	91.94
431.402	79.94
431.624	86.94
431.846	75.94
432.068	74.94
432.29	72.94
432.512	81.94
432.734	81.94
432.956	89.94
433.178	87.94
433.4	78.94
433.622	74.94
433.844	88.94
434.066	80.94
434.287	86.94
434.509	85.94
434.731	76.94
434.953	80.94
435.175	74.94
435.397	87.94
435.618	75.94
435.84	90.94
436.062	87.94
436.284	90.94
436.505	73.94
436.727	95.94
436.949	88.94
437.17	87.94
437.392	87.94
437.614	88.94
437.835	70.94
438.057	82.94
438.278	81.94
438.5	77.94
438.721	83.94
438.943	81.94
439.165	93.94
439.386	93.94
439.608	88.94
439.829	76.94
440.05	75.94
440.272	73.94
440.493	79.94
440.715	101.94
440.936	82.94
441.158	77.94
441.379	81.94
441.6	78.94
441.822	82.94
442.043	86.94
442.264	87.94
442.486	74.94
442.707	83.94
442.928	80.94
443.149	89.94
443.371	81.94
443.592	76.94
443.813	77.94
444.034	88.94
444.255	95.94
444.476	88.94
444.698	97.94
444.919	72.94
445.14	195.94
445.361	141.94
445.582	89.94
445.803	85.94
446.024	75.94
446.245	92.94
446.466	85.94
446.687	78.94
446.908	86.94
447.129	76.94
447.35	87.94
447.571	81.94
447.792	95.94
448.013	86.94
448.234	93.94
448.455	81.94
448.675	88.94
448.896	90.94
449.117	81.94
449.338	73.94
449.559	77.94
449.779	90.94
450	60.94
450.221	74.94
450.442	89.94
450.662	83.94
450.883	65.94
451.104	93.94
451.324	86.94
451.545	83.94
451.766	85.94
451.986	75.94
452.207	78.94
452.428	88.94
452.648	87.94
452.869	89.94
453.089	95.94
453.31	93.94
453.53	81.94
453.751	93.94
453.971	82.94
454.192	83.94
454.412	85.94
454.633	85.94
454.853	99.94
455.073	80.94
455.294	97.94
455.514	86.94
455.734	71.94
455.955	74.94
456.175	91.94
456.395	91.94
456.616	73.94
456.836	71.94
457.056	71.94
457.276	87.94
457.497	92.94
457.717	93.94
457.937	93.94
458.157	83.94
458.377	85.94
458.598	93.94
458.818	90.94
459.038	98.94
459.258	87.94
459.478	83.94
459.698	83.94
459.918	89.94
460.138	85.94
460.358	87.94
460.578	103.94
460.798	77.94
461.018	107.94
461.238	77.94
461.458	80.94
461.678	89.94
461.898	76.94
462.118	86.94
462.338	86.94
462.558	89.94
462.777	88.94
462.997	93.94
463.217	105.94
463.437	102.94
463.657	92.94
463.876	104.94
464.096	87.94
464.316	86.94
464.536	89.94
464.755	95.94
464.975	92.94
465.195	98.94
465.414	94.94
465.634	91.94
465.854	84.94
466.073	95.94
466.293	85.94
466.512	85.94
466.732	87.94
466.951	76.94
467.171	86.94
467.391	84.94
467.61	92.94
467.829	92.94
468.049	91.94
468.268	69.94
468.488	81.94
468.707	84.94
468.927	82.94
469.146	90.94
469.365	84.94
469.585	85.94
469.804	85.94
470.023	95.94
470.243	88.94
470.462	96.94
470.681	101.94
470.901	109.94
471.12	92.94
471.339	82.94
471.558	83.94
471.777	82.94
471.997	74.94
472.216	74.94
472.435	98.94
472.654	77.94
472.873	83.94
473.092	82.94
473.311	76.94
473.53	87.94
473.749	83.94
473.968	90.94
474.187	83.94
474.406	96.94
474.625	84.94
474.844	85.94
475.063	93.94
475.282	76.94
475.501	80.94
475.72	83.94
475.939	91.94
476.158	81.94
476.377	92.94
476.596	89.94
476.814	79.94
477.033	97.94
477.252	95.94
477.471	82.94
477.69	85.94
477.908	98.94
478.127	82.94
478.346	80.94
478.564	101.94
478.783	80.94
479.002	82.94
479.22	76.94
479.439	102.94
479.658	96.94
479.876	90.94
480.095	83.94
480.313	90.94
480.532	80.94
480.751	89.94
480.969	82.94
481.188	86.94
481.406	94.94
481.624	91.94
481.843	101.94
482.061	87.94
482.28	111.94
482.498	79.94
482.717	76.94
482.935	89.94
483.153	82.94
483.372	119.94
483.59	96.94
483.808	87.94
484.027	94.94
484.245	83.94
484.463	97.94
484.681	101.94
484.9	88.94
485.118	91.94
485.336	84.94
485.554	91.94
485.772	86.94
485.99	95.94
486.209	88.94
486.427	75.94
486.645	95.94
486.863	95.94
487.081	90.94
487.299	90.94
487.517	100.94
487.735	89.94
487.953	82.94
488.171	98.94
488.389	87.94
488.607	87.94
488.825	98.94
489.043	87.94
489.261	71.94
489.479	89.94
489.696	91.94
489.914	96.94
490.132	92.94
490.35	85.94
490.568	104.94
490.786	89.94
491.003	92.94
491.221	89.94
491.439	92.94
491.657	91.94
491.874	92.94
492.092	89.94
492.31	104.94
492.527	89.94
492.745	98.94
492.963	89.94
493.18	98.94
493.398	86.94
493.615	87.94
493.833	77.94
494.05	71.94
494.268	91.94
494.485	90.94
494.703	100.94
494.92	84.94
495.138	89.94
495.355	84.94
495.573	84.94
495.79	95.94
496.008	75.94
496.225	99.94
496.442	86.94
496.66	101.94
496.877	100.94
497.094	94.94
497.312	98.94
497.529	103.94
497.746	95.94
497.963	76.94
498.181	88.94
498.398	104.94
498.615	96.94
498.832	90.94
499.049	101.94
499.267	96.94
499.484	101.94
499.701	102.94
499.918	103.94
500.135	105.94
500.352	96.94
500.569	106.94
500.786	106.94
501.003	111.94
501.22	115.94
501.437	103.94
501.654	103.94
501.871	103.94
502.088	88.94
502.305	85.94
502.522	99.94
502.739	98.94
502.956	95.94
503.172	91.94
503.389	104.94
503.606	96.94
503.823	90.94
504.04	95.94
504.256	101.94
504.473	89.94
504.69	83.94
504.907	101.94
505.123	90.94
505.34	93.94
505.557	94.94
505.773	77.94
505.99	94.94
506.207	89.94
506.423	86.94
506.64	84.94
506.856	90.94
507.073	81.94
507.289	88.94
507.506	91.94
507.722	73.94
507.939	74.94
508.155	93.94
508.372	103.94
508.588	76.94
508.805	82.94
509.021	109.94
509.238	91.94
509.454	101.94
509.67	92.94
509.887	83.94
510.103	98.94
510.319	104.94
510.536	77.94
510.752	85.94
510.968	82.94
511.184	101.94
511.401	88.94
511.617	88.94
511.833	80.94
512.049	99.94
512.265	89.94
512.481	91.94
512.698	96.94
512.914	83.94
513.13	87.94
513.346	82.94
513.562	86.94
513.778	102.94
513.994	85.94
514.21	93.94
514.426	91.94
514.642	76.94
514.858	99.94
515.074	87.94
515.29	97.94
515.506	74.94
515.721	84.94
515.937	100.94
516.153	92.94
516.369	88.94
516.585	102.94
516.801	77.94
517.016	91.94
517.232	99.94
517.448	90.94
517.664	92.94
517.879	88.94
518.095	93.94
518.311	96.94
518.527	100.94
518.742	78.94
518.958	83.94
519.173	82.94
519.389	88.94
519.605	102.94
519.82	96.94
520.036	96.94
520.251	95.94
520.467	77.94
520.682	94.94
520.898	93.94
521.113	85.94
521.329	83.94
521.544	94.94
521.76	82.94
521.975	85.94
522.19	88.94
522.406	89.94
522.621	83.94
522.836	77.94
523.052	91.94
523.267	93.94
523.482	87.94
523.698	87.94
523.913	95.94
524.128	85.94
524.343	89.94
524.559	87.94
524.774	83.94
524.989	93.94
525.204	75.94
525.419	77.94
525.634	98.94
525.849	93.94
526.064	96.94
526.28	96.94
526.495	87.94
526.71	74.94
526.925	81.94
527.14	79.94
527.355	88.94
527.57	88.94
527.785	77.94
527.999	83.94
528.214	86.94
528.429	87.94
528.644	77.94
528.859	100.94
529.074	87.94
529.289	95.94
529.503	92.94
529.718	93.94
529.933	86.94
530.148	94.94
530.363	84.94
530.577	87.94
530.792	85.94
531.007	99.94
531.221	87.94
531.436	85.94
531.651	100.94
531.865	92.94
532.08	100.94
532.295	81.94
532.509	92.94
532.724	91.94
532.938	77.94
533.153	81.94
533.367	90.94
533.582	98.94
533.796	93.94
534.011	94.94
534.225	92.94
534.44	82.94
534.654	84.94
534.868	96.94
535.083	83.94
535.297	89.94
535.511	90.94
535.726	95.94
535.94	87.94
536.154	82.94
536.369	74.94
536.583	74.94
536.797	79.94
537.011	82.94
537.225	84.94
537.44	85.94
537.654	83.94
537.868	90.94
538.082	87.94
538.296	89.94
538.51	90.94
538.724	100.94
538.938	91.94
539.153	93.94
539.367	107.94
539.581	88.94
539.795	86.94
540.009	72.94
540.222	87.94
540.436	94.94
540.65	60.94
540.864	82.94
541.078	81.94
541.292	83.94
541.506	76.94
541.72	93.94
541.934	87.94
542.147	94.94
542.361	91.94
542.575	80.94
542.789	87.94
543.002	92.94
543.216	83.94
543.43	91.94
543.644	80.94
543.857	93.94
544.071	104.94
544.285	98.94
544.498	87.94
544.712	84.94
544.925	90.94
545.139	94.94
545.352	90.94
545.566	84.94
545.779	78.94
545.993	95.94
546.206	100.94
546.42	93.94
546.633	82.94
546.847	104.94
547.06	96.94
547.274	85.94
547.487	87.94
547.7	77.94
547.914	81.94
548.127	87.94
548.34	100.94
548.554	82.94
548.767	84.94
548.98	85.94
549.193	90.94
549.407	106.94
549.62	95.94
549.833	87.94
550.046	88.94
550.259	87.94
550.473	83.94
550.686	86.94
550.899	80.94
551.112	103.94
551.325	91.94
551.538	84.94
551.751	72.94
551.964	79.94
552.177	84.94
552.39	89.94
552.603	96.94
552.816	89.94
553.029	92.94
553.242	93.94
553.455	92.94
553.667	77.94
553.88	77.94
554.093	81.94
554.306	88.94
554.519	87.94
554.732	90.94
554.944	80.94
555.157	88.94
555.37	86.94
555.583	84.94
555.795	85.94
556.008	82.94
556.221	87.94
556.433	90.94
556.646	92.94
556.859	83.94
557.071	79.94
557.284	92.94
557.496	101.94
557.709	83.94
557.921	89.94
558.134	94.94
558.346	86.94
558.559	82.94
558.771	88.94
558.984	83.94
559.196	82.94
559.409	77.94
559.621	73.94
559.833	90.94
560.046	100.94
560.258	77.94
560.47	91.94
560.683	78.94
560.895	83.94
561.107	99.94
561.32	75.94
561.532	80.94
561.744	86.94
561.956	84.94
562.168	85.94
562.381	70.94
562.593	86.94
562.805	89.94
563.017	98.94
563.229	91.94
563.441	76.94
563.653	93.94
563.865	95.94
564.077	91.94
564.289	90.94
564.501	75.94
564.713	88.94
564.925	80.94
565.137	84.94
565.349	82.94
565.561	85.94
565.773	81.94
565.985	76.94
566.197	77.94
566.408	99.94
566.62	84.94
566.832	76.94
567.044	86.94
567.255	94.94
567.467	92.94
567.679	106.94
567.891	103.94
568.102	100.94
568.314	95.94
568.526	81.94
568.737	81.94
568.949	71.94
569.161	95.94
569.372	87.94
569.584	88.94
569.795	87.94
570.007	85.94
570.218	85.94
570.43	75.94
570.641	82.94
570.853	91.94
571.064	77.94
571.276	93.94
571.487	98.94
571.698	87.94
571.91	90.94
572.121	88.94
572.333	94.94
572.544	80.94
572.755	88.94
572.966	81.94
573.178	87.94
573.389	92.94
573.6	93.94
573.811	88.94
574.023	76.94
574.234	81.94
574.445	85.94
574.656	84.94
574.867	72.94
575.078	91.94
575.289	78.94
575.501	83.94
575.712	95.94
575.923	79.94
576.134	81.94
576.345	89.94
576.556	78.94
576.767	95.94
576.978	79.94
577.188	75.94
577.399	75.94
577.61	83.94
577.821	85.94
578.032	87.94
578.243	90.94
578.454	90.94
578.665	84.94
578.875	95.94
579.086	105.94
579.297	71.94
579.508	89.94
579.718	83.94
579.929	86.94
580.14	93.94
580.35	79.94
580.561	77.94
580.772	92.94
580.982	90.94
581.193	64.94
581.403	91.94
581.614	90.94
581.825	80.94
582.035	72.94
582.246	77.94
582.456	95.94
582.667	90.94
582.877	76.94
583.087	96.94
583.298	88.94
583.508	89.94
583.719	84.94
583.929	81.94
584.139	90.94
584.35	80.94
584.56	83.94
584.77	91.94
584.981	84.94
585.191	88.94
585.401	85.94
585.611	78.94
585.821	93.94
586.032	83.94
586.242	72.94
586.452	79.94
586.662	81.94
586.872	96.94
587.082	94.94
587.292	83.94
587.502	81.94
587.713	77.94
587.923	82.94
588.133	75.94
588.343	86.94
588.553	91.94
588.762	85.94
588.972	76.94
589.182	87.94
589.392	74.94
589.602	104.94
589.812	87.94
590.022	84.94
590.232	92.94
590.441	83.94
590.651	76.94
590.861	83.94
591.071	94.94
591.281	88.94
591.49	81.94
591.7	93.94
591.91	87.94
592.119	97.94
592.329	91.94
592.539	77.94
592.748	90.94
592.958	91.94
593.167	77.94
593.377	95.94
593.587	90.94
593.796	77.94
594.006	80.94
594.215	89.94
594.424	81.94
594.634	74.94
594.843	93.94
595.053	82.94
595.262	84.94
595.472	77.94
595.681	79.94
595.89	85.94
596.1	86.94
596.309	74.94
596.518	79.94
596.727	78.94
596.937	86.94
597.146	78.94
597.355	81.94
597.564	88.94
597.774	91.94
597.983	76.94
598.192	89.94
598.401	62.94
598.61	83.94
598.819	91.94
599.028	69.94
599.237	78.94
599.446	82.94
599.655	90.94
599.864	87.94
600.073	95.94
600.282	91.94
600.491	85.94
600.7	84.94
600.909	80.94
601.118	86.94
601.327	87.94
601.536	76.94
601.745	81.94
601.953	88.94
602.162	80.94
602.371	89.94
602.58	96.94
602.789	86.94
602.997	77.94
603.206	66.94
603.415	89.94
603.623	101.94
603.832	92.94
604.041	87.94
604.249	86.94
604.458	74.94
604.666	86.94
604.875	89.94
605.084	93.94
605.292	85.94
605.501	82.94
605.709	81.94
605.918	86.94
606.126	89.94
606.334	63.94
606.543	88.94
606.751	90.94
606.96	77.94
607.168	88.94
607.376	72.94
607.585	67.94
607.793	91.94
608.001	81.94
608.21	74.94
608.418	81.94
608.626	83.94
608.834	76.94
609.043	81.94
609.251	83.94
609.459	82.94
609.667	106.94
609.875	92.94
610.083	100.94
610.291	74.94
610.499	90.94
610.707	83.94
610.916	82.94
611.124	82.94
611.332	76.94
611.54	70.94
611.748	72.94
611.955	85.94
612.163	77.94
612.371	91.94
612.579	92.94
612.787	77.94
612.995	95.94
613.203	85.94
613.411	69.94
613.618	95.94
613.826	82.94
614.034	88.94
614.242	83.94
614.449	80.94
614.657	85.94
614.865	88.94
615.072	75.94
615.28	95.94
615.488	84.94
615.695	90.94
615.903	75.94
616.111	78.94
616.318	86.94
616.526	81.94
616.733	93.94
616.941	81.94
617.148	95.94
617.356	80.94
617.563	82.94
617.771	82.94
617.978	70.94
618.185	86.94
618.393	88.94
618.6	82.94
618.807	71.94
619.015	75.94
619.222	89.94
619.429	89.94
619.637	86.94
619.844	81.94
620.051	82.94
620.258	91.94
620.466	76.94
620.673	81.94
620.88	90.94
621.087	81.94
621.294	101.94
621.501	72.94
621.708	70.94
621.915	82.94
622.122	80.94
622.329	81.94
622.536	79.94
622.743	85.94
622.95	83.94
623.157	76.94
623.364	79.94
623.571	85.94
623.778	83.94
623.985	67.94
624.192	69.94
624.399	80.94
624.606	69.94
624.812	93.94
625.019	89.94
625.226	85.94
625.433	79.94
625.639	94.94
625.846	80.94
626.053	70.94
626.259	86.94
626.466	83.94
626.673	82.94
626.879	86.94
627.086	76.94
627.293	85.94
627.499	86.94
627.706	83.94
627.912	92.94
628.119	85.94
628.325	85.94
628.532	81.94
628.738	96.94
628.945	87.94
629.151	77.94
629.357	79.94
629.564	97.94
629.77	84.94
629.976	85.94
630.183	88.94
630.389	89.94
630.595	81.94
630.802	88.94
631.008	80.94
631.214	77.94
631.42	74.94
631.627	91.94
631.833	84.94
632.039	91.94
632.245	91.94
632.451	71.94
632.657	81.94
632.863	75.94
633.069	87.94
633.275	81.94
633.481	97.94
633.688	88.94
633.893	76.94
634.099	77.94
634.305	84.94
634.511	79.94
634.717	80.94
634.923	85.94
635.129	75.94
635.335	89.94
635.541	81.94
635.747	88.94
635.952	86.94
636.158	82.94
636.364	91.94
636.57	82.94
636.775	80.94
636.981	71.94
637.187	79.94
637.392	104.94
637.598	84.94
637.804	76.94
638.009	92.94
638.215	82.94
638.421	89.94
638.626	75.94
638.832	81.94
639.037	75.94
639.243	88.94
639.448	67.94
639.654	84.94
639.859	73.94
640.065	68.94
640.27	87.94
640.475	79.94
640.681	87.94
640.886	69.94
641.091	81.94
641.297	89.94
641.502	81.94
641.707	90.94
641.913	90.94
642.118	78.94
642.323	93.94
642.528	82.94
642.733	71.94
642.939	87.94
643.144	76.94
643.349	69.94
643.554	86.94
643.759	83.94
643.964	73.94
644.169	74.94
644.374	76.94
644.579	94.94
644.784	97.94
644.989	91.94
645.194	74.94
645.399	86.94
645.604	81.94
645.809	93.94
646.014	80.94
646.219	90.94
646.423	77.94
646.628	68.94
646.833	81.94
647.038	104.94
647.243	86.94
647.447	82.94
647.652	74.94
647.857	90.94
648.062	91.94
648.266	64.94
648.471	80.94
648.676	77.94
648.88	78.94
649.085	77.94
649.289	68.94
649.494	90.94
649.698	86.94
649.903	82.94
650.107	76.94
650.312	91.94
650.516	86.94
650.721	85.94
650.925	81.94
651.13	95.94
651.334	70.94
651.539	101.94
651.743	89.94
651.947	86.94
652.152	79.94
652.356	85.94
652.56	72.94
652.764	86.94
652.969	79.94
653.173	86.94
653.377	86.94
653.581	68.94
653.785	80.94
653.99	102.94
654.194	82.94
654.398	81.94
654.602	88.94
654.806	91.94
655.01	87.94
655.214	85.94
655.418	95.94
655.622	76.94
655.826	74.94
656.03	86.94
656.234	89.94
656.438	79.94
656.642	87.94
656.846	82.94
657.049	83.94
657.253	68.94
657.457	83.94
657.661	69.94
657.865	83.94
658.068	83.94
658.272	77.94
658.476	84.94
658.68	92.94
658.883	70.94
659.087	81.94
659.291	84.94
659.494	81.94
659.698	71.94
659.901	72.94
660.105	92.94
660.309	84.94
660.512	73.94
660.716	92.94
660.919	82.94
661.123	74.94
661.326	72.94
661.53	79.94
661.733	77.94
661.936	95.94
662.14	97.94
662.343	70.94
662.546	72.94
662.75	85.94
662.953	88.94
663.156	92.94
663.36	88.94
663.563	83.94
663.766	89.94
663.969	76.94
664.173	79.94
664.376	83.94
664.579	86.94
664.782	91.94
664.985	87.94
665.188	90.94
665.391	88.94
665.594	81.94
665.797	85.94
666	88.94
666.203	76.94
666.406	90.94
666.609	84.94
666.812	82.94
667.015	78.94
667.218	76.94
667.421	74.94
667.624	81.94
667.827	87.94
668.03	59.94
668.232	81.94
668.435	90.94
668.638	81.94
668.841	83.94
669.043	83.94
669.246	88.94
669.449	76.94
669.651	89.94
669.854	93.94
670.057	74.94
670.259	80.94
670.462	91.94
670.665	83.94
670.867	75.94
671.07	73.94
671.272	86.94
671.475	99.94
671.677	90.94
671.88	72.94
672.082	74.94
672.284	82.94
672.487	86.94
672.689	88.94
672.892	93.94
