Data from Ni(NO3)2@0.125M.TitratingCurve.Agarose3%dH2O.NegLispCup.LampEnergy10.LIBS07252019_HRD10591_18-11-12-568.txt Node
Date: Thu Jul 25 18:11:12 EDT 2019
User: cochatt
Spectrometer: HR+D1059
Trigger mode: 1
Integration Time (sec): 1.000000E-1
Scans to average: 1
Electric dark correction enabled: true
Nonlinearity correction enabled: false
Boxcar width: 0
XAxis mode: Wavelengths
Number of Pixels in Spectrum: 2048
>>>>>Begin Spectral Data<<<<<
223.165	-11.62
223.4	-11.62
223.635	-11.62
223.869	-12.62
224.104	-24.62
224.338	-23.62
224.573	-21.62
224.808	-14.62
225.042	-4.62
225.277	-1.62
225.511	2.38
225.746	3.38
225.98	-0.62
226.215	0.38
226.449	29.38
226.683	12.38
226.918	23.38
227.152	44.38
227.387	20.38
227.621	29.38
227.856	49.38
228.09	42.38
228.324	44.38
228.559	57.38
228.793	59.38
229.027	105.38
229.262	125.38
229.496	119.38
229.73	119.38
229.964	131.38
230.199	149.38
230.433	137.38
230.667	150.38
230.901	131.38
231.136	138.38
231.37	134.38
231.604	151.38
231.838	144.38
232.072	153.38
232.306	159.38
232.541	149.38
232.775	146.38
233.009	163.38
233.243	155.38
233.477	164.38
233.711	139.38
233.945	148.38
234.179	151.38
234.413	166.38
234.647	155.38
234.881	159.38
235.115	169.38
235.349	167.38
235.583	172.38
235.817	145.38
236.051	169.38
236.285	162.38
236.519	151.38
236.753	157.38
236.987	168.38
237.221	169.38
237.455	167.38
237.689	164.38
237.922	184.38
238.156	163.38
238.39	177.38
238.624	180.38
238.858	175.38
239.091	182.38
239.325	175.38
239.559	185.38
239.793	175.38
240.027	179.38
240.26	198.38
240.494	188.38
240.728	197.38
240.961	188.38
241.195	202.38
241.429	201.38
241.662	198.38
241.896	199.38
242.13	210.38
242.363	227.38
242.597	217.38
242.83	201.38
243.064	196.38
243.298	215.38
243.531	221.38
243.765	215.38
243.998	205.38
244.232	231.38
244.465	226.38
244.699	223.38
244.932	243.38
245.166	236.38
245.399	225.38
245.633	233.38
245.866	200.38
246.099	231.38
246.333	229.38
246.566	220.38
246.8	221.38
247.033	229.38
247.266	233.38
247.5	249.38
247.733	264.38
247.966	238.38
248.2	252.38
248.433	255.38
248.666	239.38
248.899	255.38
249.133	261.38
249.366	272.38
249.599	265.38
249.832	259.38
250.066	255.38
250.299	251.38
250.532	269.38
250.765	258.38
250.998	263.38
251.231	263.38
251.465	269.38
251.698	294.38
251.931	288.38
252.164	296.38
252.397	280.38
252.63	287.38
252.863	283.38
253.096	305.38
253.329	295.38
253.562	286.38
253.795	278.38
254.028	291.38
254.261	301.38
254.494	288.38
254.727	302.38
254.96	295.38
255.193	299.38
255.426	303.38
255.659	283.38
255.892	312.38
256.124	283.38
256.357	308.38
256.59	317.38
256.823	314.38
257.056	316.38
257.289	338.38
257.521	315.38
257.754	322.38
257.987	322.38
258.22	312.38
258.452	311.38
258.685	329.38
258.918	349.38
259.151	337.38
259.383	328.38
259.616	329.38
259.849	328.38
260.081	318.38
260.314	336.38
260.547	354.38
260.779	325.38
261.012	333.38
261.244	347.38
261.477	336.38
261.71	364.38
261.942	343.38
262.175	334.38
262.407	349.38
262.64	343.38
262.872	339.38
263.105	345.38
263.337	370.38
263.57	373.38
263.802	368.38
264.035	375.38
264.267	349.38
264.499	354.38
264.732	374.38
264.964	359.38
265.197	371.38
265.429	363.38
265.661	395.38
265.894	367.38
266.126	369.38
266.358	388.38
266.591	375.38
266.823	387.38
267.055	386.38
267.287	380.38
267.52	399.38
267.752	389.38
267.984	372.38
268.216	385.38
268.448	389.38
268.681	388.38
268.913	394.38
269.145	406.38
269.377	399.38
269.609	397.38
269.841	397.38
270.073	394.38
270.306	403.38
270.538	420.38
270.77	414.38
271.002	404.38
271.234	405.38
271.466	434.38
271.698	435.38
271.93	403.38
272.162	413.38
272.394	428.38
272.626	425.38
272.858	412.38
273.09	420.38
273.322	425.38
273.553	423.38
273.785	426.38
274.017	408.38
274.249	422.38
274.481	440.38
274.713	421.38
274.945	419.38
275.176	424.38
275.408	454.38
275.64	448.38
275.872	453.38
276.104	462.38
276.335	467.38
276.567	449.38
276.799	435.38
277.031	441.38
277.262	456.38
277.494	464.38
277.726	464.38
277.957	480.38
278.189	469.38
278.421	469.38
278.652	443.38
278.884	464.38
279.115	450.38
279.347	483.38
279.579	476.38
279.81	477.38
280.042	485.38
280.273	489.38
280.505	496.38
280.736	499.38
280.968	473.38
281.199	499.38
281.431	491.38
281.662	492.38
281.894	490.38
282.125	517.38
282.356	519.38
282.588	513.38
282.819	501.38
283.051	484.38
283.282	488.38
283.513	500.38
283.745	511.38
283.976	497.38
284.207	512.38
284.439	520.38
284.67	518.38
284.901	500.38
285.132	536.38
285.364	531.38
285.595	535.38
285.826	524.38
286.057	531.38
286.288	552.38
286.52	539.38
286.751	537.38
286.982	543.38
287.213	523.38
287.444	555.38
287.675	541.38
287.906	545.38
288.138	549.38
288.369	580.38
288.6	559.38
288.831	555.38
289.062	564.38
289.293	541.38
289.524	549.38
289.755	563.38
289.986	566.38
290.217	577.38
290.448	567.38
290.679	542.38
290.91	589.38
291.141	563.38
291.371	554.38
291.602	577.38
291.833	574.38
292.064	580.38
292.295	571.38
292.526	563.38
292.757	583.38
292.987	592.38
293.218	541.38
293.449	587.38
293.68	568.38
293.91	563.38
294.141	581.38
294.372	561.38
294.603	593.38
294.833	577.38
295.064	589.38
295.295	579.38
295.525	573.38
295.756	579.38
295.987	586.38
296.217	592.38
296.448	580.38
296.679	615.38
296.909	604.38
297.14	603.38
297.37	583.38
297.601	602.38
297.831	619.38
298.062	597.38
298.292	619.38
298.523	643.38
298.753	658.38
298.984	610.38
299.214	587.38
299.445	610.38
299.675	614.38
299.905	604.38
300.136	614.38
300.366	629.38
300.597	632.38
300.827	628.38
301.057	640.38
301.288	654.38
301.518	616.38
301.748	663.38
301.979	654.38
302.209	648.38
302.439	636.38
302.669	649.38
302.9	652.38
303.13	637.38
303.36	639.38
303.59	638.38
303.82	616.38
304.051	636.38
304.281	641.38
304.511	641.38
304.741	649.38
304.971	657.38
305.201	625.38
305.431	618.38
305.661	621.38
305.891	630.38
306.121	633.38
306.352	641.38
306.582	641.38
306.812	616.38
307.042	635.38
307.272	641.38
307.502	628.38
307.731	643.38
307.961	610.38
308.191	634.38
308.421	649.38
308.651	620.38
308.881	625.38
309.111	628.38
309.341	610.38
309.571	630.38
309.8	620.38
310.03	626.38
310.26	619.38
310.49	632.38
310.72	641.38
310.949	643.38
311.179	636.38
311.409	652.38
311.639	635.38
311.868	647.38
312.098	654.38
312.328	661.38
312.557	647.38
312.787	639.38
313.017	667.38
313.246	682.38
313.476	684.38
313.706	690.38
313.935	681.38
314.165	699.38
314.394	679.38
314.624	691.38
314.853	674.38
315.083	676.38
315.312	705.38
315.542	667.38
315.771	655.38
316.001	672.38
316.23	669.38
316.46	671.38
316.689	663.38
316.919	684.38
317.148	657.38
317.377	668.38
317.607	666.38
317.836	659.38
318.065	651.38
318.295	681.38
318.524	658.38
318.753	667.38
318.983	684.38
319.212	675.38
319.441	651.38
319.67	677.38
319.9	660.38
320.129	657.38
320.358	671.38
320.587	668.38
320.816	683.38
321.046	683.38
321.275	669.38
321.504	661.38
321.733	667.38
321.962	658.38
322.191	687.38
322.42	655.38
322.649	678.38
322.878	691.38
323.108	693.38
323.337	696.38
323.566	700.38
323.795	712.38
324.024	698.38
324.253	683.38
324.482	688.38
324.71	695.38
324.939	691.38
325.168	700.38
325.397	690.38
325.626	709.38
325.855	705.38
326.084	730.38
326.313	748.38
326.542	744.38
326.77	752.38
326.999	742.38
327.228	711.38
327.457	709.38
327.686	712.38
327.914	725.38
328.143	727.38
328.372	738.38
328.6	744.38
328.829	744.38
329.058	744.38
329.287	740.38
329.515	760.38
329.744	757.38
329.972	767.38
330.201	767.38
330.43	786.38
330.658	745.38
330.887	777.38
331.115	775.38
331.344	773.38
331.572	809.38
331.801	810.38
332.03	837.38
332.258	845.38
332.486	880.38
332.715	914.38
332.943	924.38
333.172	965.38
333.4	1032.38
333.629	1022.38
333.857	1021.38
334.085	998.38
334.314	1001.38
334.542	977.38
334.771	961.38
334.999	930.38
335.227	939.38
335.455	925.38
335.684	921.38
335.912	939.38
336.14	897.38
336.369	892.38
336.597	908.38
336.825	914.38
337.053	911.38
337.281	897.38
337.51	876.38
337.738	873.38
337.966	841.38
338.194	843.38
338.422	819.38
338.65	801.38
338.878	772.38
339.106	810.38
339.334	834.38
339.562	787.38
339.79	783.38
340.018	807.38
340.246	781.38
340.474	780.38
340.702	772.38
340.93	798.38
341.158	787.38
341.386	786.38
341.614	783.38
341.842	790.38
342.07	742.38
342.298	770.38
342.526	795.38
342.754	759.38
342.981	796.38
343.209	807.38
343.437	827.38
343.665	872.38
343.893	972.38
344.12	983.38
344.348	962.38
344.576	874.38
344.804	852.38
345.031	800.38
345.259	791.38
345.487	781.38
345.714	785.38
345.942	793.38
346.17	769.38
346.397	773.38
346.625	760.38
346.853	751.38
347.08	773.38
347.308	778.38
347.535	749.38
347.763	782.38
347.99	782.38
348.218	770.38
348.445	742.38
348.673	755.38
348.9	755.38
349.128	761.38
349.355	729.38
349.583	755.38
349.81	713.38
350.037	739.38
350.265	721.38
350.492	715.38
350.72	728.38
350.947	727.38
351.174	733.38
351.402	771.38
351.629	746.38
351.856	721.38
352.083	707.38
352.311	721.38
352.538	735.38
352.765	706.38
352.992	721.38
353.22	703.38
353.447	731.38
353.674	702.38
353.901	739.38
354.128	749.38
354.355	730.38
354.583	731.38
354.81	730.38
355.037	727.38
355.264	723.38
355.491	732.38
355.718	747.38
355.945	746.38
356.172	739.38
356.399	738.38
356.626	740.38
356.853	709.38
357.08	716.38
357.307	735.38
357.534	737.38
357.761	731.38
357.988	733.38
358.215	765.38
358.441	735.38
358.668	716.38
358.895	717.38
359.122	742.38
359.349	719.38
359.576	713.38
359.802	713.38
360.029	708.38
360.256	754.38
360.483	706.38
360.709	709.38
360.936	718.38
361.163	722.38
361.39	722.38
361.616	712.38
361.843	742.38
362.07	747.38
362.296	727.38
362.523	728.38
362.749	744.38
362.976	702.38
363.203	752.38
363.429	714.38
363.656	725.38
363.882	690.38
364.109	728.38
364.335	709.38
364.562	715.38
364.788	715.38
365.015	740.38
365.241	728.38
365.468	729.38
365.694	715.38
365.92	719.38
366.147	697.38
366.373	729.38
366.599	720.38
366.826	704.38
367.052	707.38
367.278	752.38
367.505	729.38
367.731	735.38
367.957	729.38
368.184	725.38
368.41	744.38
368.636	732.38
368.862	722.38
369.089	737.38
369.315	745.38
369.541	726.38
369.767	739.38
369.993	760.38
370.219	765.38
370.445	771.38
370.672	797.38
370.898	765.38
371.124	778.38
371.35	779.38
371.576	791.38
371.802	810.38
372.028	804.38
372.254	764.38
372.48	794.38
372.706	811.38
372.932	816.38
373.158	817.38
373.384	785.38
373.61	767.38
373.835	815.38
374.061	789.38
374.287	795.38
374.513	833.38
374.739	829.38
374.965	889.38
375.191	897.38
375.416	856.38
375.642	860.38
375.868	849.38
376.094	820.38
376.319	792.38
376.545	801.38
376.771	788.38
376.997	810.38
377.222	800.38
377.448	788.38
377.674	797.38
377.899	785.38
378.125	789.38
378.35	821.38
378.576	813.38
378.802	748.38
379.027	775.38
379.253	791.38
379.478	773.38
379.704	805.38
379.929	786.38
380.155	743.38
380.38	743.38
380.606	761.38
380.831	784.38
381.057	789.38
381.282	770.38
381.507	809.38
381.733	792.38
381.958	780.38
382.184	832.38
382.409	832.38
382.634	818.38
382.86	839.38
383.085	860.38
383.31	907.38
383.535	883.38
383.761	888.38
383.986	899.38
384.211	928.38
384.436	911.38
384.662	950.38
384.887	954.38
385.112	949.38
385.337	963.38
385.562	962.38
385.787	950.38
386.013	961.38
386.238	951.38
386.463	973.38
386.688	969.38
386.913	950.38
387.138	957.38
387.363	949.38
387.588	967.38
387.813	950.38
388.038	909.38
388.263	931.38
388.488	957.38
388.713	936.38
388.938	929.38
389.163	937.38
389.387	940.38
389.612	917.38
389.837	931.38
390.062	910.38
390.287	936.38
390.512	944.38
390.736	964.38
390.961	971.38
391.186	966.38
391.411	994.38
391.636	1029.38
391.86	1047.38
392.085	1107.38
392.31	1053.38
392.534	1070.38
392.759	1040.38
392.984	1004.38
393.208	1015.38
393.433	1009.38
393.658	1018.38
393.882	1014.38
394.107	1001.38
394.331	1027.38
394.556	1031.38
394.78	1027.38
395.005	1043.38
395.229	1030.38
395.454	1073.38
395.678	1083.38
395.903	1075.38
396.127	1047.38
396.352	1030.38
396.576	993.38
396.801	986.38
397.025	969.38
397.249	1057.38
397.474	1057.38
397.698	1090.38
397.922	1081.38
398.147	1076.38
398.371	1103.38
398.595	1115.38
398.82	1194.38
399.044	1255.38
399.268	1409.38
399.492	1656.38
399.717	1928.38
399.941	1895.38
400.165	1643.38
400.389	1478.38
400.613	1330.38
400.837	1253.38
401.062	1229.38
401.286	1205.38
401.51	1222.38
401.734	1223.38
401.958	1215.38
402.182	1250.38
402.406	1265.38
402.63	1266.38
402.854	1299.38
403.078	1278.38
403.302	1358.38
403.526	1361.38
403.75	1393.38
403.974	1445.38
404.198	1429.38
404.422	1442.38
404.645	1402.38
404.869	1393.38
405.093	1380.38
405.317	1339.38
405.541	1370.38
405.765	1324.38
405.988	1346.38
406.212	1307.38
406.436	1291.38
406.66	1343.38
406.883	1362.38
407.107	1473.38
407.331	1541.38
407.555	1608.38
407.778	1580.38
408.002	1510.38
408.226	1511.38
408.449	1456.38
408.673	1376.38
408.896	1400.38
409.12	1338.38
409.344	1359.38
409.567	1353.38
409.791	1409.38
410.014	1369.38
410.238	1360.38
410.461	1371.38
410.685	1312.38
410.908	1304.38
411.132	1308.38
411.355	1261.38
411.578	1280.38
411.802	1287.38
412.025	1257.38
412.249	1279.38
412.472	1257.38
412.695	1240.38
412.919	1222.38
413.142	1207.38
413.365	1216.38
413.589	1232.38
413.812	1213.38
414.035	1173.38
414.258	1166.38
414.482	1213.38
414.705	1256.38
414.928	1218.38
415.151	1187.38
415.374	1225.38
415.597	1209.38
415.821	1176.38
416.044	1187.38
416.267	1179.38
416.49	1174.38
416.713	1162.38
416.936	1203.38
417.159	1169.38
417.382	1183.38
417.605	1177.38
417.828	1156.38
418.051	1169.38
418.274	1201.38
418.497	1190.38
418.72	1209.38
418.943	1217.38
419.166	1315.38
419.389	1368.38
419.611	1376.38
419.834	1293.38
420.057	1248.38
420.28	1229.38
420.503	1196.38
420.726	1167.38
420.948	1173.38
421.171	1173.38
421.394	1234.38
421.617	1172.38
421.839	1221.38
422.062	1184.38
422.285	1199.38
422.507	1204.38
422.73	1218.38
422.953	1226.38
423.175	1270.38
423.398	1252.38
423.621	1260.38
423.843	1253.38
424.066	1288.38
424.288	1267.38
424.511	1309.38
424.733	1267.38
424.956	1244.38
425.178	1204.38
425.401	1210.38
425.623	1185.38
425.846	1191.38
426.068	1160.38
426.291	1126.38
426.513	1133.38
426.735	1123.38
426.958	1093.38
427.18	1089.38
427.402	1076.38
427.625	1105.38
427.847	1057.38
428.069	1042.38
428.292	1047.38
428.514	1094.38
428.736	1074.38
428.958	1077.38
429.181	1028.38
429.403	1024.38
429.625	998.38
429.847	1033.38
430.069	1043.38
430.292	1037.38
430.514	1035.38
430.736	1032.38
430.958	1056.38
431.18	1042.38
431.402	1033.38
431.624	1038.38
431.846	1045.38
432.068	1046.38
432.29	1084.38
432.512	1047.38
432.734	1047.38
432.956	1093.38
433.178	1096.38
433.4	1064.38
433.622	1063.38
433.844	1092.38
434.066	1047.38
434.287	1075.38
434.509	1135.38
434.731	1162.38
434.953	1220.38
435.175	1239.38
435.397	1185.38
435.618	1140.38
435.84	1094.38
436.062	1090.38
436.284	1057.38
436.505	1048.38
436.727	1068.38
436.949	1067.38
437.17	1065.38
437.392	1024.38
437.614	1039.38
437.835	1015.38
438.057	1044.38
438.278	1005.38
438.5	1008.38
438.721	1025.38
438.943	1037.38
439.165	1001.38
439.386	1041.38
439.608	1057.38
439.829	1037.38
440.05	1060.38
440.272	1080.38
440.493	1073.38
440.715	1091.38
440.936	1097.38
441.158	1100.38
441.379	1164.38
441.6	1205.38
441.822	1242.38
442.043	1217.38
442.264	1171.38
442.486	1185.38
442.707	1172.38
442.928	1183.38
443.149	1171.38
443.371	1188.38
443.592	1209.38
443.813	1193.38
444.034	1241.38
444.255	1242.38
444.476	1323.38
444.698	1415.38
444.919	1471.38
445.14	1506.38
445.361	1351.38
445.582	1257.38
445.803	1186.38
446.024	1087.38
446.245	1106.38
446.466	1093.38
446.687	1050.38
446.908	1057.38
447.129	1072.38
447.35	1038.38
447.571	1015.38
447.792	1023.38
448.013	1034.38
448.234	954.38
448.455	976.38
448.675	955.38
448.896	999.38
449.117	972.38
449.338	971.38
449.559	969.38
449.779	950.38
450	959.38
450.221	969.38
450.442	978.38
450.662	977.38
450.883	990.38
451.104	996.38
451.324	980.38
451.545	976.38
451.766	969.38
451.986	990.38
452.207	983.38
452.428	974.38
452.648	980.38
452.869	959.38
453.089	956.38
453.31	955.38
453.53	938.38
453.751	914.38
453.971	931.38
454.192	922.38
454.412	921.38
454.633	931.38
454.853	918.38
455.073	919.38
455.294	912.38
455.514	915.38
455.734	895.38
455.955	883.38
456.175	917.38
456.395	923.38
456.616	920.38
456.836	889.38
457.056	899.38
457.276	866.38
457.497	915.38
457.717	923.38
457.937	902.38
458.157	929.38
458.377	914.38
458.598	960.38
458.818	980.38
459.038	1021.38
459.258	1048.38
459.478	1060.38
459.698	1102.38
459.918	1135.38
460.138	1172.38
460.358	1235.38
460.578	1243.38
460.798	1269.38
461.018	1270.38
461.238	1265.38
461.458	1233.38
461.678	1251.38
461.898	1241.38
462.118	1288.38
462.338	1344.38
462.558	1370.38
462.777	1457.38
462.997	1561.38
463.217	1722.38
463.437	1736.38
463.657	1612.38
463.876	1488.38
464.096	1479.38
464.316	1448.38
464.536	1504.38
464.755	1434.38
464.975	1385.38
465.195	1300.38
465.414	1227.38
465.634	1153.38
465.854	1135.38
466.073	1109.38
466.293	1080.38
466.512	1040.38
466.732	1043.38
466.951	1030.38
467.171	1007.38
467.391	1035.38
467.61	1052.38
467.829	1029.38
468.049	1007.38
468.268	986.38
468.488	976.38
468.707	975.38
468.927	935.38
469.146	963.38
469.365	967.38
469.585	986.38
469.804	1024.38
470.023	1038.38
470.243	1057.38
470.462	1056.38
470.681	1039.38
470.901	1056.38
471.12	1031.38
471.339	1002.38
471.558	989.38
471.777	973.38
471.997	980.38
472.216	965.38
472.435	928.38
472.654	973.38
472.873	956.38
473.092	915.38
473.311	945.38
473.53	928.38
473.749	918.38
473.968	939.38
474.187	944.38
474.406	945.38
474.625	950.38
474.844	940.38
475.063	941.38
475.282	965.38
475.501	953.38
475.72	952.38
475.939	988.38
476.158	961.38
476.377	968.38
476.596	978.38
476.814	978.38
477.033	1003.38
477.252	1023.38
477.471	1033.38
477.69	1033.38
477.908	1099.38
478.127	1119.38
478.346	1148.38
478.564	1155.38
478.783	1159.38
479.002	1183.38
479.22	1200.38
479.439	1177.38
479.658	1190.38
479.876	1176.38
480.095	1195.38
480.313	1285.38
480.532	1290.38
480.751	1297.38
480.969	1188.38
481.188	1153.38
481.406	1114.38
481.624	1102.38
481.843	1104.38
482.061	1098.38
482.28	1089.38
482.498	1094.38
482.717	1051.38
482.935	1051.38
483.153	1062.38
483.372	1079.38
483.59	1088.38
483.808	1075.38
484.027	1071.38
484.245	1123.38
484.463	1089.38
484.681	1098.38
484.9	1093.38
485.118	1092.38
485.336	1091.38
485.554	1127.38
485.772	1146.38
485.99	1137.38
486.209	1174.38
486.427	1176.38
486.645	1149.38
486.863	1176.38
487.081	1183.38
487.299	1169.38
487.517	1146.38
487.735	1153.38
487.953	1177.38
488.171	1180.38
488.389	1130.38
488.607	1091.38
488.825	1138.38
489.043	1140.38
489.261	1108.38
489.479	1126.38
489.696	1113.38
489.914	1121.38
490.132	1158.38
490.35	1141.38
490.568	1137.38
490.786	1132.38
491.003	1125.38
491.221	1136.38
491.439	1152.38
491.657	1158.38
491.874	1163.38
492.092	1161.38
492.31	1167.38
492.527	1159.38
492.745	1161.38
492.963	1180.38
493.18	1163.38
493.398	1188.38
493.615	1207.38
493.833	1180.38
494.05	1220.38
494.268	1210.38
494.485	1215.38
494.703	1201.38
494.92	1194.38
495.138	1198.38
495.355	1171.38
495.573	1169.38
495.79	1180.38
496.008	1191.38
496.225	1197.38
496.442	1245.38
496.66	1256.38
496.877	1275.38
497.094	1276.38
497.312	1315.38
497.529	1340.38
497.746	1364.38
497.963	1366.38
498.181	1446.38
498.398	1532.38
498.615	1659.38
498.832	1724.38
499.049	1869.38
499.267	2032.38
499.484	2266.38
499.701	2453.38
499.918	2701.38
500.135	3167.38
500.352	3650.38
500.569	3867.38
500.786	3846.38
501.003	3553.38
501.22	3128.38
501.437	2786.38
501.654	2375.38
501.871	2169.38
502.088	1949.38
502.305	1845.38
502.522	1764.38
502.739	1689.38
502.956	1570.38
503.172	1508.38
503.389	1451.38
503.606	1416.38
503.823	1391.38
504.04	1404.38
504.256	1361.38
504.473	1446.38
504.69	1463.38
504.907	1410.38
505.123	1346.38
505.34	1248.38
505.557	1231.38
505.773	1169.38
505.99	1122.38
506.207	1130.38
506.423	1122.38
506.64	1101.38
506.856	1074.38
507.073	1086.38
507.289	1091.38
507.506	1066.38
507.722	1071.38
507.939	1052.38
508.155	1037.38
508.372	1031.38
508.588	1011.38
508.805	1008.38
509.021	997.38
509.238	980.38
509.454	969.38
509.67	1004.38
509.887	973.38
510.103	979.38
510.319	1004.38
510.536	961.38
510.752	961.38
510.968	973.38
511.184	981.38
511.401	964.38
511.617	977.38
511.833	945.38
512.049	950.38
512.265	949.38
512.481	937.38
512.698	977.38
512.914	939.38
513.13	960.38
513.346	951.38
513.562	965.38
513.778	978.38
513.994	951.38
514.21	980.38
514.426	1002.38
514.642	970.38
514.858	979.38
515.074	1000.38
515.29	1026.38
515.506	1011.38
515.721	1015.38
515.937	1050.38
516.153	1063.38
516.369	1084.38
516.585	1113.38
516.801	1143.38
517.016	1185.38
517.232	1264.38
517.448	1323.38
517.664	1363.38
517.879	1399.38
518.095	1402.38
518.311	1371.38
518.527	1289.38
518.742	1225.38
518.958	1187.38
519.173	1151.38
519.389	1100.38
519.605	1067.38
519.82	1058.38
520.036	1031.38
520.251	972.38
520.467	1015.38
520.682	966.38
520.898	971.38
521.113	955.38
521.329	959.38
521.544	947.38
521.76	943.38
521.975	909.38
522.19	947.38
522.406	945.38
522.621	920.38
522.836	947.38
523.052	877.38
523.267	915.38
523.482	874.38
523.698	905.38
523.913	883.38
524.128	889.38
524.343	897.38
524.559	920.38
524.774	899.38
524.989	860.38
525.204	873.38
525.419	851.38
525.634	870.38
525.849	868.38
526.064	888.38
526.28	872.38
526.495	895.38
526.71	873.38
526.925	876.38
527.14	842.38
527.355	863.38
527.57	848.38
527.785	845.38
527.999	859.38
528.214	872.38
528.429	883.38
528.644	873.38
528.859	853.38
529.074	885.38
529.289	883.38
529.503	860.38
529.718	890.38
529.933	858.38
530.148	842.38
530.363	871.38
530.577	865.38
530.792	881.38
531.007	866.38
531.221	884.38
531.436	873.38
531.651	883.38
531.865	881.38
532.08	891.38
532.295	892.38
532.509	863.38
532.724	857.38
532.938	885.38
533.153	886.38
533.367	866.38
533.582	871.38
533.796	845.38
534.011	876.38
534.225	865.38
534.44	833.38
534.654	855.38
534.868	822.38
535.083	841.38
535.297	851.38
535.511	834.38
535.726	849.38
535.94	852.38
536.154	826.38
536.369	845.38
536.583	818.38
536.797	823.38
537.011	828.38
537.225	826.38
537.44	817.38
537.654	801.38
537.868	770.38
538.082	805.38
538.296	830.38
538.51	775.38
538.724	819.38
538.938	799.38
539.153	781.38
539.367	796.38
539.581	802.38
539.795	770.38
540.009	764.38
540.222	775.38
540.436	790.38
540.65	761.38
540.864	767.38
541.078	768.38
541.292	791.38
541.506	785.38
541.72	785.38
541.934	803.38
542.147	787.38
542.361	799.38
542.575	772.38
542.789	752.38
543.002	764.38
543.216	756.38
543.43	770.38
543.644	747.38
543.857	747.38
544.071	764.38
544.285	777.38
544.498	771.38
544.712	778.38
544.925	806.38
545.139	786.38
545.352	804.38
545.566	809.38
545.779	776.38
545.993	815.38
546.206	795.38
546.42	791.38
546.633	776.38
546.847	808.38
547.06	808.38
547.274	792.38
547.487	785.38
547.7	795.38
547.914	779.38
548.127	792.38
548.34	809.38
548.554	815.38
548.767	803.38
548.98	804.38
549.193	777.38
549.407	785.38
549.62	792.38
549.833	836.38
550.046	810.38
550.259	810.38
550.473	765.38
550.686	789.38
550.899	778.38
551.112	739.38
551.325	761.38
551.538	787.38
551.751	802.38
551.964	800.38
552.177	796.38
552.39	795.38
552.603	838.38
552.816	817.38
553.029	881.38
553.242	867.38
553.455	869.38
553.667	916.38
553.88	887.38
554.093	839.38
554.306	837.38
554.519	828.38
554.732	793.38
554.944	770.38
555.157	749.38
555.37	779.38
555.583	756.38
555.795	740.38
556.008	724.38
556.221	729.38
556.433	705.38
556.646	704.38
556.859	706.38
557.071	701.38
557.284	685.38
557.496	669.38
557.709	697.38
557.921	658.38
558.134	679.38
558.346	667.38
558.559	647.38
558.771	677.38
558.984	675.38
559.196	653.38
559.409	666.38
559.621	670.38
559.833	661.38
560.046	647.38
560.258	639.38
560.47	640.38
560.683	655.38
560.895	648.38
561.107	662.38
561.32	651.38
561.532	651.38
561.744	678.38
561.956	652.38
562.168	647.38
562.381	647.38
562.593	662.38
562.805	653.38
563.017	655.38
563.229	652.38
563.441	659.38
563.653	677.38
563.865	687.38
564.077	687.38
564.289	684.38
564.501	706.38
564.713	707.38
564.925	714.38
565.137	735.38
565.349	735.38
565.561	756.38
565.773	787.38
565.985	803.38
566.197	846.38
566.408	909.38
566.62	988.38
566.832	1118.38
567.044	1100.38
567.255	1109.38
567.467	1119.38
567.679	1213.38
567.891	1273.38
568.102	1355.38
568.314	1275.38
568.526	1145.38
568.737	1047.38
568.949	935.38
569.161	875.38
569.372	797.38
569.584	745.38
569.795	717.38
570.007	685.38
570.218	685.38
570.43	674.38
570.641	684.38
570.853	681.38
571.064	706.38
571.276	662.38
571.487	676.38
571.698	641.38
571.91	626.38
572.121	596.38
572.333	600.38
572.544	593.38
572.755	567.38
572.966	555.38
573.178	543.38
573.389	571.38
573.6	533.38
573.811	546.38
574.023	542.38
574.234	555.38
574.445	532.38
574.656	539.38
574.867	530.38
575.078	560.38
575.289	525.38
575.501	529.38
575.712	532.38
575.923	517.38
576.134	521.38
576.345	519.38
576.556	528.38
576.767	498.38
576.978	512.38
577.188	514.38
577.399	506.38
577.61	501.38
577.821	499.38
578.032	502.38
578.243	484.38
578.454	486.38
578.665	482.38
578.875	464.38
579.086	469.38
579.297	481.38
579.508	466.38
579.718	479.38
579.929	478.38
580.14	486.38
580.35	473.38
580.561	434.38
580.772	453.38
580.982	468.38
581.193	449.38
581.403	456.38
581.614	459.38
581.825	452.38
582.035	463.38
582.246	481.38
582.456	451.38
582.667	446.38
582.877	442.38
583.087	450.38
583.298	475.38
583.508	449.38
583.719	440.38
583.929	455.38
584.139	448.38
584.35	450.38
584.56	440.38
584.77	427.38
584.981	420.38
585.191	442.38
585.401	432.38
585.611	426.38
585.821	444.38
586.032	423.38
586.242	431.38
586.452	459.38
586.662	448.38
586.872	426.38
587.082	428.38
587.292	445.38
587.502	439.38
587.713	420.38
587.923	436.38
588.133	435.38
588.343	427.38
588.553	439.38
588.762	426.38
588.972	421.38
589.182	424.38
589.392	427.38
589.602	433.38
589.812	408.38
590.022	416.38
590.232	429.38
590.441	461.38
590.651	428.38
590.861	437.38
591.071	441.38
591.281	457.38
591.49	449.38
591.7	459.38
591.91	476.38
592.119	482.38
592.329	463.38
592.539	481.38
592.748	511.38
592.958	553.38
593.167	534.38
593.377	560.38
593.587	576.38
593.796	562.38
594.006	571.38
594.215	583.38
594.424	572.38
594.634	567.38
594.843	527.38
595.053	523.38
595.262	495.38
595.472	471.38
595.681	458.38
595.89	441.38
596.1	439.38
596.309	437.38
596.518	432.38
596.727	417.38
596.937	403.38
597.146	407.38
597.355	403.38
597.564	392.38
597.774	372.38
597.983	383.38
598.192	396.38
598.401	390.38
598.61	374.38
598.819	378.38
599.028	380.38
599.237	373.38
599.446	386.38
599.655	375.38
599.864	373.38
600.073	371.38
600.282	364.38
600.491	358.38
600.7	383.38
600.909	351.38
601.118	365.38
601.327	344.38
601.536	371.38
601.745	348.38
601.953	358.38
602.162	363.38
602.371	364.38
602.58	362.38
602.789	361.38
602.997	352.38
603.206	355.38
603.415	355.38
603.623	358.38
603.832	325.38
604.041	377.38
604.249	341.38
604.458	338.38
604.666	349.38
604.875	342.38
605.084	340.38
605.292	318.38
605.501	339.38
605.709	358.38
605.918	323.38
606.126	329.38
606.334	317.38
606.543	337.38
606.751	345.38
606.96	359.38
607.168	330.38
607.376	340.38
607.585	317.38
607.793	329.38
608.001	326.38
608.21	330.38
608.418	328.38
608.626	330.38
608.834	331.38
609.043	322.38
609.251	322.38
609.459	330.38
609.667	338.38
609.875	328.38
610.083	325.38
610.291	320.38
610.499	333.38
610.707	322.38
610.916	325.38
611.124	321.38
611.332	324.38
611.54	343.38
611.748	331.38
611.955	326.38
612.163	313.38
612.371	318.38
612.579	319.38
612.787	329.38
612.995	289.38
613.203	312.38
613.411	321.38
613.618	314.38
613.826	307.38
614.034	321.38
614.242	311.38
614.449	315.38
614.657	319.38
614.865	313.38
615.072	306.38
615.28	303.38
615.488	299.38
615.695	308.38
615.903	305.38
616.111	312.38
616.318	333.38
616.526	333.38
616.733	336.38
616.941	332.38
617.148	328.38
617.356	318.38
617.563	330.38
617.771	325.38
617.978	321.38
618.185	326.38
618.393	321.38
618.6	308.38
618.807	307.38
619.015	320.38
619.222	315.38
619.429	296.38
619.637	313.38
619.844	310.38
620.051	307.38
620.258	287.38
620.466	282.38
620.673	279.38
620.88	270.38
621.087	291.38
621.294	286.38
621.501	306.38
621.708	308.38
621.915	279.38
622.122	276.38
622.329	281.38
622.536	284.38
622.743	290.38
622.95	274.38
623.157	273.38
623.364	305.38
623.571	291.38
623.778	291.38
623.985	288.38
624.192	291.38
624.399	275.38
624.606	286.38
624.812	271.38
625.019	284.38
625.226	273.38
625.433	273.38
625.639	265.38
625.846	261.38
626.053	261.38
626.259	277.38
626.466	262.38
626.673	270.38
626.879	271.38
627.086	259.38
627.293	267.38
627.499	260.38
627.706	264.38
627.912	272.38
628.119	267.38
628.325	250.38
628.532	264.38
628.738	254.38
628.945	245.38
629.151	251.38
629.357	255.38
629.564	256.38
629.77	248.38
629.976	251.38
630.183	250.38
630.389	241.38
630.595	257.38
630.802	243.38
631.008	245.38
631.214	232.38
631.42	232.38
631.627	252.38
631.833	250.38
632.039	247.38
632.245	238.38
632.451	241.38
632.657	226.38
632.863	248.38
633.069	228.38
633.275	245.38
633.481	233.38
633.688	227.38
633.893	223.38
634.099	230.38
634.305	241.38
634.511	235.38
634.717	231.38
634.923	222.38
635.129	212.38
635.335	225.38
635.541	220.38
635.747	236.38
635.952	220.38
636.158	215.38
636.364	219.38
636.57	220.38
636.775	249.38
636.981	229.38
637.187	223.38
637.392	220.38
637.598	226.38
637.804	209.38
638.009	218.38
638.215	231.38
638.421	224.38
638.626	217.38
638.832	208.38
639.037	214.38
639.243	226.38
639.448	214.38
639.654	208.38
639.859	214.38
640.065	219.38
640.27	216.38
640.475	199.38
640.681	220.38
640.886	211.38
641.091	189.38
641.297	220.38
641.502	196.38
641.707	204.38
641.913	211.38
642.118	215.38
642.323	211.38
642.528	197.38
642.733	209.38
642.939	211.38
643.144	212.38
643.349	205.38
643.554	203.38
643.759	199.38
643.964	197.38
644.169	207.38
644.374	194.38
644.579	191.38
644.784	182.38
644.989	203.38
645.194	203.38
645.399	207.38
645.604	212.38
645.809	203.38
646.014	202.38
646.219	216.38
646.423	209.38
646.628	202.38
646.833	202.38
647.038	201.38
647.243	209.38
647.447	211.38
647.652	216.38
647.857	210.38
648.062	219.38
648.266	211.38
648.471	210.38
648.676	222.38
648.88	222.38
649.085	226.38
649.289	217.38
649.494	212.38
649.698	215.38
649.903	202.38
650.107	194.38
650.312	196.38
650.516	207.38
650.721	171.38
650.925	179.38
651.13	183.38
651.334	181.38
651.539	183.38
651.743	186.38
651.947	185.38
652.152	184.38
652.356	179.38
652.56	175.38
652.764	161.38
652.969	171.38
653.173	180.38
653.377	163.38
653.581	151.38
653.785	167.38
653.99	146.38
654.194	154.38
654.398	175.38
654.602	152.38
654.806	166.38
655.01	165.38
655.214	150.38
655.418	165.38
655.622	156.38
655.826	147.38
656.03	160.38
656.234	164.38
656.438	163.38
656.642	175.38
656.846	156.38
657.049	153.38
657.253	139.38
657.457	139.38
657.661	128.38
657.865	131.38
658.068	134.38
658.272	113.38
658.476	119.38
658.68	125.38
658.883	109.38
659.087	105.38
659.291	109.38
659.494	104.38
659.698	111.38
659.901	93.38
660.105	104.38
660.309	96.38
660.512	95.38
660.716	99.38
660.919	117.38
661.123	102.38
661.326	83.38
661.53	89.38
661.733	92.38
661.936	73.38
662.14	84.38
662.343	103.38
662.546	92.38
662.75	79.38
662.953	89.38
663.156	88.38
663.36	80.38
663.563	95.38
663.766	76.38
663.969	100.38
664.173	75.38
664.376	88.38
664.579	105.38
664.782	94.38
664.985	90.38
665.188	82.38
665.391	80.38
665.594	86.38
665.797	76.38
666	95.38
666.203	90.38
666.406	89.38
666.609	77.38
666.812	77.38
667.015	80.38
667.218	83.38
667.421	75.38
667.624	93.38
667.827	98.38
668.03	75.38
668.232	76.38
668.435	71.38
668.638	98.38
668.841	79.38
669.043	81.38
669.246	89.38
669.449	85.38
669.651	88.38
669.854	94.38
670.057	76.38
670.259	81.38
670.462	82.38
670.665	77.38
670.867	95.38
671.07	88.38
671.272	77.38
671.475	82.38
671.677	75.38
671.88	77.38
672.082	85.38
672.284	71.38
672.487	82.38
672.689	89.38
672.892	81.38
