Data from Ni(NO3)2@0.5M.TitratingCurve.Agarose3%dH2O.NegLispCup.LampEnergy10.LIBS07252019_HRD10591_17-59-09-564.txt Node
Date: Thu Jul 25 17:59:09 EDT 2019
User: cochatt
Spectrometer: HR+D1059
Trigger mode: 1
Integration Time (sec): 1.000000E-1
Scans to average: 1
Electric dark correction enabled: true
Nonlinearity correction enabled: false
Boxcar width: 0
XAxis mode: Wavelengths
Number of Pixels in Spectrum: 2048
>>>>>Begin Spectral Data<<<<<
223.165	-6.06
223.4	-6.06
223.635	-6.06
223.869	-13.06
224.104	-19.06
224.338	-13.06
224.573	-18.06
224.808	-18.06
225.042	-21.06
225.277	-6.06
225.511	-11.06
225.746	4.94
225.98	14.94
226.215	8.94
226.449	15.94
226.683	24.94
226.918	37.94
227.152	17.94
227.387	31.94
227.621	50.94
227.856	34.94
228.09	48.94
228.324	38.94
228.559	60.94
228.793	102.94
229.027	125.94
229.262	130.94
229.496	144.94
229.73	149.94
229.964	164.94
230.199	220.94
230.433	202.94
230.667	214.94
230.901	182.94
231.136	171.94
231.37	182.94
231.604	201.94
231.838	193.94
232.072	221.94
232.306	203.94
232.541	185.94
232.775	179.94
233.009	182.94
233.243	155.94
233.477	162.94
233.711	181.94
233.945	186.94
234.179	170.94
234.413	181.94
234.647	173.94
234.881	176.94
235.115	188.94
235.349	167.94
235.583	156.94
235.817	146.94
236.051	179.94
236.285	166.94
236.519	167.94
236.753	171.94
236.987	164.94
237.221	182.94
237.455	176.94
237.689	166.94
237.922	190.94
238.156	180.94
238.39	178.94
238.624	177.94
238.858	206.94
239.091	188.94
239.325	198.94
239.559	209.94
239.793	224.94
240.027	243.94
240.26	227.94
240.494	196.94
240.728	189.94
240.961	182.94
241.195	200.94
241.429	204.94
241.662	225.94
241.896	238.94
242.13	257.94
242.363	235.94
242.597	209.94
242.83	208.94
243.064	214.94
243.298	223.94
243.531	222.94
243.765	228.94
243.998	230.94
244.232	246.94
244.465	220.94
244.699	210.94
244.932	209.94
245.166	227.94
245.399	226.94
245.633	236.94
245.866	233.94
246.099	218.94
246.333	236.94
246.566	253.94
246.8	224.94
247.033	246.94
247.266	241.94
247.5	256.94
247.733	228.94
247.966	249.94
248.2	241.94
248.433	279.94
248.666	265.94
248.899	239.94
249.133	256.94
249.366	286.94
249.599	269.94
249.832	254.94
250.066	267.94
250.299	257.94
250.532	274.94
250.765	283.94
250.998	307.94
251.231	299.94
251.465	337.94
251.698	303.94
251.931	287.94
252.164	301.94
252.397	297.94
252.63	305.94
252.863	296.94
253.096	316.94
253.329	291.94
253.562	266.94
253.795	292.94
254.028	313.94
254.261	309.94
254.494	320.94
254.727	308.94
254.96	324.94
255.193	324.94
255.426	318.94
255.659	311.94
255.892	327.94
256.124	310.94
256.357	328.94
256.59	318.94
256.823	328.94
257.056	338.94
257.289	318.94
257.521	335.94
257.754	330.94
257.987	349.94
258.22	324.94
258.452	324.94
258.685	348.94
258.918	330.94
259.151	338.94
259.383	351.94
259.616	345.94
259.849	356.94
260.081	355.94
260.314	346.94
260.547	360.94
260.779	366.94
261.012	354.94
261.244	378.94
261.477	389.94
261.71	380.94
261.942	369.94
262.175	355.94
262.407	372.94
262.64	370.94
262.872	358.94
263.105	384.94
263.337	400.94
263.57	390.94
263.802	380.94
264.035	383.94
264.267	373.94
264.499	380.94
264.732	403.94
264.964	390.94
265.197	411.94
265.429	396.94
265.661	386.94
265.894	397.94
266.126	393.94
266.358	387.94
266.591	393.94
266.823	392.94
267.055	412.94
267.287	393.94
267.52	386.94
267.752	399.94
267.984	418.94
268.216	408.94
268.448	418.94
268.681	425.94
268.913	428.94
269.145	425.94
269.377	431.94
269.609	417.94
269.841	440.94
270.073	437.94
270.306	421.94
270.538	412.94
270.77	436.94
271.002	423.94
271.234	429.94
271.466	432.94
271.698	433.94
271.93	442.94
272.162	428.94
272.394	436.94
272.626	435.94
272.858	457.94
273.09	452.94
273.322	440.94
273.553	463.94
273.785	466.94
274.017	450.94
274.249	453.94
274.481	420.94
274.713	450.94
274.945	475.94
275.176	469.94
275.408	466.94
275.64	497.94
275.872	453.94
276.104	508.94
276.335	488.94
276.567	472.94
276.799	489.94
277.031	486.94
277.262	463.94
277.494	461.94
277.726	478.94
277.957	481.94
278.189	483.94
278.421	501.94
278.652	498.94
278.884	514.94
279.115	490.94
279.347	484.94
279.579	504.94
279.81	506.94
280.042	517.94
280.273	508.94
280.505	512.94
280.736	512.94
280.968	508.94
281.199	527.94
281.431	505.94
281.662	499.94
281.894	509.94
282.125	517.94
282.356	523.94
282.588	534.94
282.819	490.94
283.051	524.94
283.282	523.94
283.513	531.94
283.745	534.94
283.976	532.94
284.207	537.94
284.439	525.94
284.67	538.94
284.901	557.94
285.132	549.94
285.364	546.94
285.595	554.94
285.826	542.94
286.057	523.94
286.288	544.94
286.52	558.94
286.751	537.94
286.982	561.94
287.213	552.94
287.444	548.94
287.675	548.94
287.906	566.94
288.138	570.94
288.369	569.94
288.6	572.94
288.831	556.94
289.062	573.94
289.293	571.94
289.524	565.94
289.755	553.94
289.986	570.94
290.217	549.94
290.448	584.94
290.679	574.94
290.91	576.94
291.141	589.94
291.371	589.94
291.602	591.94
291.833	576.94
292.064	569.94
292.295	594.94
292.526	577.94
292.757	558.94
292.987	575.94
293.218	570.94
293.449	580.94
293.68	590.94
293.91	576.94
294.141	582.94
294.372	569.94
294.603	578.94
294.833	596.94
295.064	598.94
295.295	601.94
295.525	596.94
295.756	598.94
295.987	595.94
296.217	590.94
296.448	596.94
296.679	587.94
296.909	579.94
297.14	581.94
297.37	615.94
297.601	614.94
297.831	597.94
298.062	598.94
298.292	605.94
298.523	629.94
298.753	627.94
298.984	624.94
299.214	632.94
299.445	624.94
299.675	628.94
299.905	640.94
300.136	639.94
300.366	670.94
300.597	655.94
300.827	661.94
301.057	660.94
301.288	644.94
301.518	639.94
301.748	641.94
301.979	662.94
302.209	657.94
302.439	647.94
302.669	654.94
302.9	640.94
303.13	644.94
303.36	666.94
303.59	680.94
303.82	660.94
304.051	690.94
304.281	653.94
304.511	665.94
304.741	683.94
304.971	691.94
305.201	716.94
305.431	725.94
305.661	699.94
305.891	675.94
306.121	666.94
306.352	690.94
306.582	650.94
306.812	651.94
307.042	653.94
307.272	675.94
307.502	650.94
307.731	678.94
307.961	678.94
308.191	638.94
308.421	678.94
308.651	681.94
308.881	657.94
309.111	676.94
309.341	702.94
309.571	705.94
309.8	682.94
310.03	704.94
310.26	722.94
310.49	745.94
310.72	699.94
310.949	694.94
311.179	688.94
311.409	687.94
311.639	686.94
311.868	702.94
312.098	681.94
312.328	692.94
312.557	710.94
312.787	709.94
313.017	726.94
313.246	759.94
313.476	722.94
313.706	768.94
313.935	757.94
314.165	742.94
314.394	742.94
314.624	737.94
314.853	747.94
315.083	725.94
315.312	763.94
315.542	723.94
315.771	738.94
316.001	737.94
316.23	726.94
316.46	725.94
316.689	763.94
316.919	743.94
317.148	745.94
317.377	733.94
317.607	746.94
317.836	750.94
318.065	728.94
318.295	723.94
318.524	758.94
318.753	743.94
318.983	737.94
319.212	763.94
319.441	765.94
319.67	749.94
319.9	747.94
320.129	743.94
320.358	755.94
320.587	770.94
320.816	744.94
321.046	786.94
321.275	779.94
321.504	774.94
321.733	758.94
321.962	785.94
322.191	754.94
322.42	765.94
322.649	778.94
322.878	773.94
323.108	776.94
323.337	800.94
323.566	782.94
323.795	818.94
324.024	810.94
324.253	783.94
324.482	797.94
324.71	788.94
324.939	795.94
325.168	798.94
325.397	799.94
325.626	810.94
325.855	787.94
326.084	818.94
326.313	813.94
326.542	790.94
326.77	818.94
326.999	814.94
327.228	826.94
327.457	837.94
327.686	817.94
327.914	839.94
328.143	844.94
328.372	831.94
328.6	825.94
328.829	840.94
329.058	817.94
329.287	833.94
329.515	839.94
329.744	835.94
329.972	832.94
330.201	857.94
330.43	836.94
330.658	845.94
330.887	868.94
331.115	843.94
331.344	873.94
331.572	897.94
331.801	894.94
332.03	858.94
332.258	902.94
332.486	898.94
332.715	920.94
332.943	916.94
333.172	908.94
333.4	916.94
333.629	923.94
333.857	975.94
334.085	942.94
334.314	967.94
334.542	972.94
334.771	1002.94
334.999	962.94
335.227	944.94
335.455	975.94
335.684	956.94
335.912	980.94
336.14	980.94
336.369	973.94
336.597	987.94
336.825	973.94
337.053	1006.94
337.281	974.94
337.51	977.94
337.738	963.94
337.966	977.94
338.194	971.94
338.422	974.94
338.65	937.94
338.878	927.94
339.106	939.94
339.334	958.94
339.562	948.94
339.79	921.94
340.018	904.94
340.246	888.94
340.474	905.94
340.702	892.94
340.93	921.94
341.158	900.94
341.386	960.94
341.614	980.94
341.842	968.94
342.07	918.94
342.298	908.94
342.526	939.94
342.754	910.94
342.981	910.94
343.209	935.94
343.437	951.94
343.665	956.94
343.893	939.94
344.12	982.94
344.348	1002.94
344.576	974.94
344.804	978.94
345.031	964.94
345.259	905.94
345.487	928.94
345.714	939.94
345.942	940.94
346.17	970.94
346.397	954.94
346.625	901.94
346.853	898.94
347.08	897.94
347.308	907.94
347.535	904.94
347.763	881.94
347.99	901.94
348.218	909.94
348.445	876.94
348.673	874.94
348.9	864.94
349.128	896.94
349.355	912.94
349.583	895.94
349.81	872.94
350.037	848.94
350.265	861.94
350.492	857.94
350.72	875.94
350.947	870.94
351.174	903.94
351.402	906.94
351.629	922.94
351.856	904.94
352.083	891.94
352.311	917.94
352.538	945.94
352.765	938.94
352.992	860.94
353.22	857.94
353.447	817.94
353.674	840.94
353.901	858.94
354.128	847.94
354.355	829.94
354.583	838.94
354.81	874.94
355.037	860.94
355.264	872.94
355.491	862.94
355.718	840.94
355.945	867.94
356.172	843.94
356.399	855.94
356.626	885.94
356.853	896.94
357.08	875.94
357.307	892.94
357.534	855.94
357.761	867.94
357.988	877.94
358.215	817.94
358.441	845.94
358.668	853.94
358.895	862.94
359.122	823.94
359.349	858.94
359.576	834.94
359.802	867.94
360.029	861.94
360.256	864.94
360.483	840.94
360.709	844.94
360.936	884.94
361.163	877.94
361.39	868.94
361.616	887.94
361.843	908.94
362.07	940.94
362.296	931.94
362.523	852.94
362.749	850.94
362.976	859.94
363.203	865.94
363.429	844.94
363.656	835.94
363.882	863.94
364.109	870.94
364.335	844.94
364.562	857.94
364.788	852.94
365.015	874.94
365.241	858.94
365.468	874.94
365.694	871.94
365.92	862.94
366.147	862.94
366.373	854.94
366.599	877.94
366.826	860.94
367.052	864.94
367.278	864.94
367.505	893.94
367.731	872.94
367.957	884.94
368.184	878.94
368.41	882.94
368.636	872.94
368.862	884.94
369.089	893.94
369.315	890.94
369.541	886.94
369.767	886.94
369.993	887.94
370.219	895.94
370.445	900.94
370.672	892.94
370.898	899.94
371.124	900.94
371.35	936.94
371.576	941.94
371.802	928.94
372.028	940.94
372.254	915.94
372.48	895.94
372.706	920.94
372.932	938.94
373.158	914.94
373.384	927.94
373.61	903.94
373.835	932.94
374.061	925.94
374.287	904.94
374.513	931.94
374.739	955.94
374.965	971.94
375.191	955.94
375.416	965.94
375.642	917.94
375.868	956.94
376.094	939.94
376.319	933.94
376.545	922.94
376.771	914.94
376.997	931.94
377.222	896.94
377.448	900.94
377.674	925.94
377.899	933.94
378.125	899.94
378.35	934.94
378.576	900.94
378.802	887.94
379.027	930.94
379.253	927.94
379.478	912.94
379.704	896.94
379.929	915.94
380.155	900.94
380.38	911.94
380.606	926.94
380.831	893.94
381.057	936.94
381.282	904.94
381.507	923.94
381.733	916.94
381.958	926.94
382.184	945.94
382.409	937.94
382.634	940.94
382.86	925.94
383.085	932.94
383.31	944.94
383.535	944.94
383.761	941.94
383.986	953.94
384.211	962.94
384.436	950.94
384.662	974.94
384.887	965.94
385.112	998.94
385.337	997.94
385.562	1008.94
385.787	1028.94
386.013	1049.94
386.238	1048.94
386.463	1014.94
386.688	1048.94
386.913	1015.94
387.138	1009.94
387.363	1023.94
387.588	1012.94
387.813	1050.94
388.038	1012.94
388.263	1025.94
388.488	1037.94
388.713	1046.94
388.938	1048.94
389.163	1028.94
389.387	1044.94
389.612	1030.94
389.837	1050.94
390.062	1055.94
390.287	1011.94
390.512	1036.94
390.736	1022.94
390.961	1046.94
391.186	1025.94
391.411	1080.94
391.636	1067.94
391.86	1082.94
392.085	1060.94
392.31	1095.94
392.534	1064.94
392.759	1073.94
392.984	1066.94
393.208	1097.94
393.433	1090.94
393.658	1042.94
393.882	1031.94
394.107	1072.94
394.331	1070.94
394.556	1086.94
394.78	1074.94
395.005	1086.94
395.229	1051.94
395.454	1089.94
395.678	1104.94
395.903	1114.94
396.127	1110.94
396.352	1080.94
396.576	1097.94
396.801	1101.94
397.025	1108.94
397.249	1125.94
397.474	1116.94
397.698	1116.94
397.922	1174.94
398.147	1154.94
398.371	1152.94
398.595	1155.94
398.82	1205.94
399.044	1240.94
399.268	1281.94
399.492	1325.94
399.717	1366.94
399.941	1377.94
400.165	1360.94
400.389	1299.94
400.613	1292.94
400.837	1267.94
401.062	1254.94
401.286	1246.94
401.51	1217.94
401.734	1213.94
401.958	1237.94
402.182	1225.94
402.406	1200.94
402.63	1224.94
402.854	1222.94
403.078	1224.94
403.302	1235.94
403.526	1222.94
403.75	1195.94
403.974	1250.94
404.198	1231.94
404.422	1216.94
404.645	1253.94
404.869	1247.94
405.093	1228.94
405.317	1261.94
405.541	1267.94
405.765	1288.94
405.988	1256.94
406.212	1301.94
406.436	1299.94
406.66	1285.94
406.883	1305.94
407.107	1353.94
407.331	1363.94
407.555	1396.94
407.778	1402.94
408.002	1392.94
408.226	1400.94
408.449	1418.94
408.673	1356.94
408.896	1337.94
409.12	1324.94
409.344	1343.94
409.567	1312.94
409.791	1292.94
410.014	1265.94
410.238	1285.94
410.461	1303.94
410.685	1315.94
410.908	1310.94
411.132	1271.94
411.355	1236.94
411.578	1271.94
411.802	1276.94
412.025	1256.94
412.249	1229.94
412.472	1244.94
412.695	1244.94
412.919	1248.94
413.142	1248.94
413.365	1211.94
413.589	1237.94
413.812	1228.94
414.035	1249.94
414.258	1185.94
414.482	1202.94
414.705	1188.94
414.928	1203.94
415.151	1242.94
415.374	1211.94
415.597	1200.94
415.821	1202.94
416.044	1190.94
416.267	1205.94
416.49	1178.94
416.713	1169.94
416.936	1172.94
417.159	1177.94
417.382	1141.94
417.605	1154.94
417.828	1154.94
418.051	1184.94
418.274	1174.94
418.497	1176.94
418.72	1173.94
418.943	1180.94
419.166	1244.94
419.389	1301.94
419.611	1290.94
419.834	1273.94
420.057	1218.94
420.28	1212.94
420.503	1181.94
420.726	1152.94
420.948	1184.94
421.171	1141.94
421.394	1152.94
421.617	1147.94
421.839	1159.94
422.062	1149.94
422.285	1115.94
422.507	1190.94
422.73	1173.94
422.953	1162.94
423.175	1160.94
423.398	1170.94
423.621	1156.94
423.843	1156.94
424.066	1156.94
424.288	1145.94
424.511	1176.94
424.733	1128.94
424.956	1138.94
425.178	1170.94
425.401	1168.94
425.623	1161.94
425.846	1161.94
426.068	1160.94
426.291	1173.94
426.513	1149.94
426.735	1149.94
426.958	1169.94
427.18	1142.94
427.402	1164.94
427.625	1141.94
427.847	1124.94
428.069	1116.94
428.292	1137.94
428.514	1113.94
428.736	1143.94
428.958	1121.94
429.181	1114.94
429.403	1127.94
429.625	1108.94
429.847	1131.94
430.069	1090.94
430.292	1096.94
430.514	1105.94
430.736	1105.94
430.958	1113.94
431.18	1110.94
431.402	1129.94
431.624	1109.94
431.846	1109.94
432.068	1157.94
432.29	1142.94
432.512	1123.94
432.734	1100.94
432.956	1122.94
433.178	1162.94
433.4	1179.94
433.622	1144.94
433.844	1178.94
434.066	1166.94
434.287	1153.94
434.509	1156.94
434.731	1186.94
434.953	1183.94
435.175	1247.94
435.397	1217.94
435.618	1143.94
435.84	1156.94
436.062	1150.94
436.284	1172.94
436.505	1150.94
436.727	1142.94
436.949	1096.94
437.17	1117.94
437.392	1138.94
437.614	1091.94
437.835	1084.94
438.057	1113.94
438.278	1048.94
438.5	1076.94
438.721	1095.94
438.943	1124.94
439.165	1108.94
439.386	1109.94
439.608	1143.94
439.829	1117.94
440.05	1099.94
440.272	1113.94
440.493	1152.94
440.715	1128.94
440.936	1123.94
441.158	1155.94
441.379	1137.94
441.6	1165.94
441.822	1192.94
442.043	1179.94
442.264	1161.94
442.486	1167.94
442.707	1204.94
442.928	1164.94
443.149	1197.94
443.371	1221.94
443.592	1267.94
443.813	1251.94
444.034	1222.94
444.255	1202.94
444.476	1241.94
444.698	1231.94
444.919	1301.94
445.14	1388.94
445.361	1313.94
445.582	1241.94
445.803	1200.94
446.024	1147.94
446.245	1170.94
446.466	1123.94
446.687	1109.94
446.908	1106.94
447.129	1097.94
447.35	1115.94
447.571	1044.94
447.792	1067.94
448.013	1059.94
448.234	1057.94
448.455	1043.94
448.675	1059.94
448.896	1016.94
449.117	1021.94
449.338	1058.94
449.559	1028.94
449.779	1018.94
450	1025.94
450.221	1016.94
450.442	1010.94
450.662	1051.94
450.883	1042.94
451.104	1084.94
451.324	1025.94
451.545	1038.94
451.766	1036.94
451.986	1017.94
452.207	1016.94
452.428	1020.94
452.648	1008.94
452.869	997.94
453.089	1028.94
453.31	1043.94
453.53	1001.94
453.751	980.94
453.971	991.94
454.192	1028.94
454.412	1042.94
454.633	1011.94
454.853	1000.94
455.073	992.94
455.294	990.94
455.514	1020.94
455.734	1039.94
455.955	1046.94
456.175	1035.94
456.395	990.94
456.616	985.94
456.836	985.94
457.056	1015.94
457.276	995.94
457.497	1029.94
457.717	1026.94
457.937	1011.94
458.157	1003.94
458.377	1038.94
458.598	1042.94
458.818	1040.94
459.038	1060.94
459.258	1099.94
459.478	1205.94
459.698	1261.94
459.918	1258.94
460.138	1244.94
460.358	1251.94
460.578	1205.94
460.798	1293.94
461.018	1293.94
461.238	1215.94
461.458	1194.94
461.678	1188.94
461.898	1185.94
462.118	1243.94
462.338	1267.94
462.558	1290.94
462.777	1342.94
462.997	1352.94
463.217	1393.94
463.437	1453.94
463.657	1395.94
463.876	1385.94
464.096	1328.94
464.316	1320.94
464.536	1295.94
464.755	1284.94
464.975	1251.94
465.195	1239.94
465.414	1204.94
465.634	1160.94
465.854	1156.94
466.073	1148.94
466.293	1125.94
466.512	1116.94
466.732	1089.94
466.951	1114.94
467.171	1093.94
467.391	1116.94
467.61	1099.94
467.829	1080.94
468.049	1081.94
468.268	1053.94
468.488	1041.94
468.707	1053.94
468.927	1054.94
469.146	1100.94
469.365	1125.94
469.585	1095.94
469.804	1064.94
470.023	1091.94
470.243	1120.94
470.462	1111.94
470.681	1094.94
470.901	1092.94
471.12	1099.94
471.339	1107.94
471.558	1100.94
471.777	1114.94
471.997	1088.94
472.216	1077.94
472.435	1059.94
472.654	1074.94
472.873	1045.94
473.092	1073.94
473.311	1068.94
473.53	1070.94
473.749	1077.94
473.968	1080.94
474.187	1060.94
474.406	1068.94
474.625	1100.94
474.844	1099.94
475.063	1085.94
475.282	1081.94
475.501	1101.94
475.72	1114.94
475.939	1106.94
476.158	1090.94
476.377	1123.94
476.596	1112.94
476.814	1156.94
477.033	1138.94
477.252	1173.94
477.471	1159.94
477.69	1168.94
477.908	1202.94
478.127	1229.94
478.346	1208.94
478.564	1229.94
478.783	1240.94
479.002	1287.94
479.22	1361.94
479.439	1315.94
479.658	1307.94
479.876	1281.94
480.095	1266.94
480.313	1300.94
480.532	1309.94
480.751	1302.94
480.969	1293.94
481.188	1264.94
481.406	1264.94
481.624	1261.94
481.843	1252.94
482.061	1246.94
482.28	1252.94
482.498	1241.94
482.717	1249.94
482.935	1286.94
483.153	1278.94
483.372	1339.94
483.59	1341.94
483.808	1314.94
484.027	1270.94
484.245	1297.94
484.463	1306.94
484.681	1321.94
484.9	1295.94
485.118	1318.94
485.336	1257.94
485.554	1307.94
485.772	1291.94
485.99	1298.94
486.209	1304.94
486.427	1334.94
486.645	1322.94
486.863	1308.94
487.081	1285.94
487.299	1319.94
487.517	1285.94
487.735	1346.94
487.953	1353.94
488.171	1333.94
488.389	1338.94
488.607	1308.94
488.825	1289.94
489.043	1320.94
489.261	1307.94
489.479	1284.94
489.696	1301.94
489.914	1286.94
490.132	1301.94
490.35	1331.94
490.568	1316.94
490.786	1300.94
491.003	1310.94
491.221	1332.94
491.439	1336.94
491.657	1314.94
491.874	1354.94
492.092	1353.94
492.31	1356.94
492.527	1341.94
492.745	1337.94
492.963	1322.94
493.18	1336.94
493.398	1352.94
493.615	1352.94
493.833	1347.94
494.05	1377.94
494.268	1366.94
494.485	1367.94
494.703	1364.94
494.92	1401.94
495.138	1355.94
495.355	1370.94
495.573	1370.94
495.79	1419.94
496.008	1442.94
496.225	1444.94
496.442	1439.94
496.66	1420.94
496.877	1403.94
497.094	1459.94
497.312	1496.94
497.529	1477.94
497.746	1522.94
497.963	1549.94
498.181	1594.94
498.398	1640.94
498.615	1685.94
498.832	1738.94
499.049	1775.94
499.267	1798.94
499.484	1920.94
499.701	2007.94
499.918	2085.94
500.135	2187.94
500.352	2235.94
500.569	2281.94
500.786	2274.94
501.003	2163.94
501.22	2170.94
501.437	2084.94
501.654	1974.94
501.871	1868.94
502.088	1834.94
502.305	1798.94
502.522	1747.94
502.739	1656.94
502.956	1588.94
503.172	1554.94
503.389	1538.94
503.606	1516.94
503.823	1518.94
504.04	1447.94
504.256	1441.94
504.473	1429.94
504.69	1408.94
504.907	1387.94
505.123	1390.94
505.34	1328.94
505.557	1353.94
505.773	1299.94
505.99	1302.94
506.207	1276.94
506.423	1241.94
506.64	1242.94
506.856	1232.94
507.073	1212.94
507.289	1222.94
507.506	1188.94
507.722	1214.94
507.939	1191.94
508.155	1213.94
508.372	1209.94
508.588	1186.94
508.805	1156.94
509.021	1148.94
509.238	1144.94
509.454	1128.94
509.67	1112.94
509.887	1155.94
510.103	1116.94
510.319	1084.94
510.536	1104.94
510.752	1113.94
510.968	1082.94
511.184	1090.94
511.401	1107.94
511.617	1095.94
511.833	1116.94
512.049	1088.94
512.265	1106.94
512.481	1082.94
512.698	1101.94
512.914	1098.94
513.13	1099.94
513.346	1094.94
513.562	1073.94
513.778	1093.94
513.994	1113.94
514.21	1079.94
514.426	1076.94
514.642	1095.94
514.858	1086.94
515.074	1093.94
515.29	1132.94
515.506	1091.94
515.721	1087.94
515.937	1127.94
516.153	1133.94
516.369	1124.94
516.585	1108.94
516.801	1147.94
517.016	1172.94
517.232	1162.94
517.448	1220.94
517.664	1178.94
517.879	1202.94
518.095	1227.94
518.311	1196.94
518.527	1190.94
518.742	1141.94
518.958	1139.94
519.173	1118.94
519.389	1144.94
519.605	1106.94
519.82	1061.94
520.036	1097.94
520.251	1064.94
520.467	1048.94
520.682	1037.94
520.898	1061.94
521.113	1046.94
521.329	1049.94
521.544	1022.94
521.76	1047.94
521.975	1014.94
522.19	1025.94
522.406	1023.94
522.621	986.94
522.836	1011.94
523.052	988.94
523.267	1003.94
523.482	975.94
523.698	991.94
523.913	995.94
524.128	977.94
524.343	975.94
524.559	971.94
524.774	992.94
524.989	994.94
525.204	975.94
525.419	974.94
525.634	996.94
525.849	951.94
526.064	968.94
526.28	952.94
526.495	969.94
526.71	961.94
526.925	956.94
527.14	946.94
527.355	938.94
527.57	959.94
527.785	967.94
527.999	945.94
528.214	963.94
528.429	946.94
528.644	956.94
528.859	948.94
529.074	937.94
529.289	948.94
529.503	960.94
529.718	925.94
529.933	961.94
530.148	895.94
530.363	944.94
530.577	942.94
530.792	916.94
531.007	925.94
531.221	917.94
531.436	907.94
531.651	930.94
531.865	923.94
532.08	917.94
532.295	942.94
532.509	946.94
532.724	900.94
532.938	943.94
533.153	908.94
533.367	926.94
533.582	930.94
533.796	921.94
534.011	921.94
534.225	917.94
534.44	885.94
534.654	892.94
534.868	890.94
535.083	889.94
535.297	922.94
535.511	882.94
535.726	860.94
535.94	889.94
536.154	898.94
536.369	885.94
536.583	877.94
536.797	866.94
537.011	900.94
537.225	868.94
537.44	892.94
537.654	873.94
537.868	865.94
538.082	864.94
538.296	868.94
538.51	826.94
538.724	852.94
538.938	866.94
539.153	864.94
539.367	860.94
539.581	861.94
539.795	827.94
540.009	864.94
540.222	855.94
540.436	832.94
540.65	836.94
540.864	852.94
541.078	828.94
541.292	845.94
541.506	830.94
541.72	857.94
541.934	856.94
542.147	866.94
542.361	837.94
542.575	822.94
542.789	818.94
543.002	806.94
543.216	850.94
543.43	832.94
543.644	810.94
543.857	840.94
544.071	822.94
544.285	835.94
544.498	856.94
544.712	846.94
544.925	813.94
545.139	849.94
545.352	845.94
545.566	801.94
545.779	840.94
545.993	839.94
546.206	828.94
546.42	840.94
546.633	827.94
546.847	848.94
547.06	861.94
547.274	859.94
547.487	840.94
547.7	862.94
547.914	833.94
548.127	845.94
548.34	830.94
548.554	830.94
548.767	845.94
548.98	826.94
549.193	846.94
549.407	852.94
549.62	852.94
549.833	835.94
550.046	841.94
550.259	846.94
550.473	821.94
550.686	808.94
550.899	822.94
551.112	811.94
551.325	835.94
551.538	827.94
551.751	791.94
551.964	814.94
552.177	800.94
552.39	806.94
552.603	827.94
552.816	808.94
553.029	804.94
553.242	841.94
553.455	838.94
553.667	824.94
553.88	844.94
554.093	818.94
554.306	797.94
554.519	807.94
554.732	778.94
554.944	778.94
555.157	766.94
555.37	746.94
555.583	754.94
555.795	770.94
556.008	769.94
556.221	738.94
556.433	720.94
556.646	731.94
556.859	753.94
557.071	732.94
557.284	746.94
557.496	726.94
557.709	734.94
557.921	698.94
558.134	709.94
558.346	707.94
558.559	724.94
558.771	709.94
558.984	695.94
559.196	689.94
559.409	716.94
559.621	712.94
559.833	718.94
560.046	696.94
560.258	689.94
560.47	673.94
560.683	704.94
560.895	701.94
561.107	692.94
561.32	678.94
561.532	685.94
561.744	692.94
561.956	684.94
562.168	713.94
562.381	706.94
562.593	697.94
562.805	700.94
563.017	683.94
563.229	689.94
563.441	705.94
563.653	708.94
563.865	714.94
564.077	710.94
564.289	714.94
564.501	697.94
564.713	725.94
564.925	708.94
565.137	734.94
565.349	738.94
565.561	771.94
565.773	757.94
565.985	823.94
566.197	794.94
566.408	834.94
566.62	850.94
566.832	841.94
567.044	856.94
567.255	863.94
567.467	896.94
567.679	899.94
567.891	864.94
568.102	869.94
568.314	855.94
568.526	849.94
568.737	799.94
568.949	786.94
569.161	758.94
569.372	754.94
569.584	708.94
569.795	700.94
570.007	727.94
570.218	704.94
570.43	664.94
570.641	690.94
570.853	648.94
571.064	660.94
571.276	637.94
571.487	688.94
571.698	647.94
571.91	644.94
572.121	652.94
572.333	639.94
572.544	618.94
572.755	613.94
572.966	605.94
573.178	585.94
573.389	591.94
573.6	573.94
573.811	566.94
574.023	537.94
574.234	561.94
574.445	557.94
574.656	569.94
574.867	549.94
575.078	580.94
575.289	533.94
575.501	532.94
575.712	529.94
575.923	543.94
576.134	525.94
576.345	554.94
576.556	564.94
576.767	558.94
576.978	540.94
577.188	534.94
577.399	522.94
577.61	519.94
577.821	542.94
578.032	502.94
578.243	531.94
578.454	520.94
578.665	504.94
578.875	505.94
579.086	509.94
579.297	523.94
579.508	509.94
579.718	500.94
579.929	493.94
580.14	505.94
580.35	488.94
580.561	497.94
580.772	502.94
580.982	505.94
581.193	494.94
581.403	496.94
581.614	472.94
581.825	473.94
582.035	461.94
582.246	496.94
582.456	469.94
582.667	480.94
582.877	483.94
583.087	480.94
583.298	462.94
583.508	478.94
583.719	458.94
583.929	481.94
584.139	476.94
584.35	453.94
584.56	470.94
584.77	459.94
584.981	456.94
585.191	460.94
585.401	465.94
585.611	487.94
585.821	468.94
586.032	461.94
586.242	468.94
586.452	443.94
586.662	451.94
586.872	459.94
587.082	447.94
587.292	440.94
587.502	461.94
587.713	444.94
587.923	462.94
588.133	459.94
588.343	456.94
588.553	447.94
588.762	458.94
588.972	469.94
589.182	509.94
589.392	462.94
589.602	451.94
589.812	476.94
590.022	457.94
590.232	458.94
590.441	439.94
590.651	458.94
590.861	464.94
591.071	452.94
591.281	456.94
591.49	458.94
591.7	458.94
591.91	458.94
592.119	460.94
592.329	447.94
592.539	478.94
592.748	473.94
592.958	467.94
593.167	452.94
593.377	467.94
593.587	480.94
593.796	480.94
594.006	471.94
594.215	479.94
594.424	472.94
594.634	463.94
594.843	457.94
595.053	458.94
595.262	462.94
595.472	454.94
595.681	438.94
595.89	445.94
596.1	420.94
596.309	428.94
596.518	426.94
596.727	418.94
596.937	407.94
597.146	418.94
597.355	416.94
597.564	406.94
597.774	409.94
597.983	388.94
598.192	409.94
598.401	405.94
598.61	390.94
598.819	399.94
599.028	388.94
599.237	400.94
599.446	398.94
599.655	391.94
599.864	396.94
600.073	349.94
600.282	376.94
600.491	374.94
600.7	376.94
600.909	384.94
601.118	398.94
601.327	375.94
601.536	379.94
601.745	378.94
601.953	371.94
602.162	372.94
602.371	364.94
602.58	360.94
602.789	371.94
602.997	368.94
603.206	373.94
603.415	360.94
603.623	356.94
603.832	368.94
604.041	364.94
604.249	361.94
604.458	348.94
604.666	350.94
604.875	353.94
605.084	378.94
605.292	336.94
605.501	352.94
605.709	341.94
605.918	348.94
606.126	359.94
606.334	343.94
606.543	349.94
606.751	377.94
606.96	365.94
607.168	360.94
607.376	368.94
607.585	359.94
607.793	357.94
608.001	356.94
608.21	337.94
608.418	348.94
608.626	356.94
608.834	368.94
609.043	349.94
609.251	333.94
609.459	321.94
609.667	336.94
609.875	341.94
610.083	343.94
610.291	345.94
610.499	340.94
610.707	352.94
610.916	333.94
611.124	336.94
611.332	337.94
611.54	325.94
611.748	339.94
611.955	335.94
612.163	326.94
612.371	338.94
612.579	345.94
612.787	308.94
612.995	341.94
613.203	317.94
613.411	324.94
613.618	341.94
613.826	331.94
614.034	326.94
614.242	330.94
614.449	332.94
614.657	322.94
614.865	325.94
615.072	329.94
615.28	309.94
615.488	331.94
615.695	313.94
615.903	336.94
616.111	335.94
616.318	336.94
616.526	322.94
616.733	335.94
616.941	315.94
617.148	319.94
617.356	326.94
617.563	320.94
617.771	309.94
617.978	322.94
618.185	307.94
618.393	309.94
618.6	317.94
618.807	320.94
619.015	313.94
619.222	320.94
619.429	329.94
619.637	308.94
619.844	330.94
620.051	313.94
620.258	298.94
620.466	284.94
620.673	307.94
620.88	300.94
621.087	315.94
621.294	315.94
621.501	310.94
621.708	316.94
621.915	301.94
622.122	299.94
622.329	306.94
622.536	303.94
622.743	286.94
622.95	294.94
623.157	315.94
623.364	298.94
623.571	295.94
623.778	290.94
623.985	300.94
624.192	289.94
624.399	278.94
624.606	294.94
624.812	295.94
625.019	275.94
625.226	287.94
625.433	305.94
625.639	286.94
625.846	293.94
626.053	288.94
626.259	280.94
626.466	287.94
626.673	276.94
626.879	275.94
627.086	271.94
627.293	278.94
627.499	284.94
627.706	283.94
627.912	275.94
628.119	287.94
628.325	274.94
628.532	289.94
628.738	277.94
628.945	282.94
629.151	282.94
629.357	264.94
629.564	267.94
629.77	273.94
629.976	273.94
630.183	272.94
630.389	276.94
630.595	277.94
630.802	276.94
631.008	260.94
631.214	280.94
631.42	275.94
631.627	253.94
631.833	258.94
632.039	269.94
632.245	270.94
632.451	262.94
632.657	268.94
632.863	261.94
633.069	264.94
633.275	260.94
633.481	249.94
633.688	261.94
633.893	254.94
634.099	281.94
634.305	275.94
634.511	246.94
634.717	268.94
634.923	255.94
635.129	237.94
635.335	257.94
635.541	263.94
635.747	264.94
635.952	257.94
636.158	264.94
636.364	259.94
636.57	256.94
636.775	251.94
636.981	234.94
637.187	246.94
637.392	247.94
637.598	264.94
637.804	233.94
638.009	258.94
638.215	248.94
638.421	270.94
638.626	245.94
638.832	235.94
639.037	229.94
639.243	249.94
639.448	240.94
639.654	255.94
639.859	246.94
640.065	256.94
640.27	259.94
640.475	245.94
640.681	236.94
640.886	242.94
641.091	237.94
641.297	262.94
641.502	248.94
641.707	236.94
641.913	251.94
642.118	244.94
642.323	237.94
642.528	244.94
642.733	232.94
642.939	219.94
643.144	229.94
643.349	242.94
643.554	256.94
643.759	243.94
643.964	240.94
644.169	241.94
644.374	249.94
644.579	263.94
644.784	243.94
644.989	256.94
645.194	271.94
645.399	229.94
645.604	254.94
645.809	254.94
646.014	253.94
646.219	235.94
646.423	241.94
646.628	246.94
646.833	264.94
647.038	226.94
647.243	260.94
647.447	235.94
647.652	253.94
647.857	256.94
648.062	256.94
648.266	246.94
648.471	246.94
648.676	238.94
648.88	242.94
649.085	260.94
649.289	258.94
649.494	254.94
649.698	248.94
649.903	254.94
650.107	256.94
650.312	231.94
650.516	256.94
650.721	250.94
650.925	245.94
651.13	241.94
651.334	248.94
651.539	250.94
651.743	244.94
651.947	247.94
652.152	240.94
652.356	240.94
652.56	240.94
652.764	238.94
652.969	243.94
653.173	232.94
653.377	238.94
653.581	241.94
653.785	225.94
653.99	235.94
654.194	248.94
654.398	234.94
654.602	229.94
654.806	230.94
655.01	237.94
655.214	231.94
655.418	222.94
655.622	229.94
655.826	221.94
656.03	235.94
656.234	234.94
656.438	226.94
656.642	240.94
656.846	229.94
657.049	220.94
657.253	208.94
657.457	195.94
657.661	196.94
657.865	189.94
658.068	192.94
658.272	182.94
658.476	185.94
658.68	160.94
658.883	142.94
659.087	149.94
659.291	152.94
659.494	133.94
659.698	115.94
659.901	137.94
660.105	126.94
660.309	116.94
660.512	116.94
660.716	117.94
660.919	109.94
661.123	115.94
661.326	101.94
661.53	95.94
661.733	100.94
661.936	107.94
662.14	91.94
662.343	84.94
662.546	86.94
662.75	94.94
662.953	89.94
663.156	89.94
663.36	104.94
663.563	77.94
663.766	99.94
663.969	79.94
664.173	78.94
664.376	65.94
664.579	69.94
664.782	89.94
664.985	83.94
665.188	91.94
665.391	77.94
665.594	76.94
665.797	78.94
666	86.94
666.203	83.94
666.406	74.94
666.609	92.94
666.812	77.94
667.015	65.94
667.218	86.94
667.421	84.94
667.624	81.94
667.827	92.94
668.03	80.94
668.232	93.94
668.435	96.94
668.638	89.94
668.841	92.94
669.043	96.94
669.246	90.94
669.449	86.94
669.651	73.94
669.854	74.94
670.057	73.94
670.259	91.94
670.462	82.94
670.665	88.94
670.867	77.94
671.07	86.94
671.272	72.94
671.475	88.94
671.677	82.94
671.88	85.94
672.082	93.94
672.284	85.94
672.487	69.94
672.689	75.94
672.892	73.94
