Data from Ni(NO3)2@0.25M.TitratingCurve.Agarose3%dH2O.NegLispCup.LampEnergy10.LIBS07252019_HRD10591_18-04-14-566.txt Node
Date: Thu Jul 25 18:04:14 EDT 2019
User: cochatt
Spectrometer: HR+D1059
Trigger mode: 1
Integration Time (sec): 1.000000E-1
Scans to average: 1
Electric dark correction enabled: true
Nonlinearity correction enabled: false
Boxcar width: 0
XAxis mode: Wavelengths
Number of Pixels in Spectrum: 2048
>>>>>Begin Spectral Data<<<<<
223.165	-19.62
223.4	-19.62
223.635	-19.62
223.869	-10.62
224.104	-10.62
224.338	-7.62
224.573	-5.62
224.808	-17.62
225.042	-18.62
225.277	-15.62
225.511	-2.62
225.746	-6.62
225.98	2.38
226.215	15.38
226.449	21.38
226.683	19.38
226.918	27.38
227.152	29.38
227.387	29.38
227.621	22.38
227.856	37.38
228.09	41.38
228.324	50.38
228.559	61.38
228.793	62.38
229.027	101.38
229.262	79.38
229.496	105.38
229.73	111.38
229.964	117.38
230.199	113.38
230.433	121.38
230.667	115.38
230.901	125.38
231.136	124.38
231.37	129.38
231.604	123.38
231.838	128.38
232.072	134.38
232.306	144.38
232.541	133.38
232.775	123.38
233.009	126.38
233.243	141.38
233.477	127.38
233.711	122.38
233.945	119.38
234.179	121.38
234.413	118.38
234.647	114.38
234.881	123.38
235.115	116.38
235.349	121.38
235.583	121.38
235.817	136.38
236.051	138.38
236.285	125.38
236.519	137.38
236.753	117.38
236.987	134.38
237.221	133.38
237.455	130.38
237.689	152.38
237.922	128.38
238.156	126.38
238.39	146.38
238.624	151.38
238.858	135.38
239.091	137.38
239.325	142.38
239.559	141.38
239.793	150.38
240.027	163.38
240.26	154.38
240.494	137.38
240.728	166.38
240.961	155.38
241.195	149.38
241.429	138.38
241.662	150.38
241.896	152.38
242.13	178.38
242.363	163.38
242.597	153.38
242.83	164.38
243.064	170.38
243.298	163.38
243.531	170.38
243.765	171.38
243.998	161.38
244.232	172.38
244.465	147.38
244.699	171.38
244.932	178.38
245.166	172.38
245.399	157.38
245.633	175.38
245.866	164.38
246.099	162.38
246.333	174.38
246.566	155.38
246.8	165.38
247.033	155.38
247.266	179.38
247.5	191.38
247.733	182.38
247.966	188.38
248.2	190.38
248.433	201.38
248.666	186.38
248.899	179.38
249.133	191.38
249.366	205.38
249.599	194.38
249.832	193.38
250.066	209.38
250.299	199.38
250.532	203.38
250.765	182.38
250.998	210.38
251.231	220.38
251.465	219.38
251.698	222.38
251.931	214.38
252.164	230.38
252.397	213.38
252.63	213.38
252.863	219.38
253.096	232.38
253.329	223.38
253.562	231.38
253.795	218.38
254.028	238.38
254.261	242.38
254.494	238.38
254.727	241.38
254.96	243.38
255.193	231.38
255.426	223.38
255.659	250.38
255.892	254.38
256.124	242.38
256.357	245.38
256.59	262.38
256.823	264.38
257.056	237.38
257.289	270.38
257.521	266.38
257.754	266.38
257.987	260.38
258.22	248.38
258.452	263.38
258.685	257.38
258.918	269.38
259.151	275.38
259.383	248.38
259.616	265.38
259.849	275.38
260.081	277.38
260.314	282.38
260.547	275.38
260.779	264.38
261.012	274.38
261.244	284.38
261.477	284.38
261.71	277.38
261.942	302.38
262.175	304.38
262.407	281.38
262.64	278.38
262.872	298.38
263.105	287.38
263.337	302.38
263.57	289.38
263.802	310.38
264.035	291.38
264.267	290.38
264.499	323.38
264.732	293.38
264.964	307.38
265.197	313.38
265.429	303.38
265.661	324.38
265.894	301.38
266.126	303.38
266.358	320.38
266.591	327.38
266.823	306.38
267.055	321.38
267.287	318.38
267.52	318.38
267.752	321.38
267.984	323.38
268.216	325.38
268.448	329.38
268.681	323.38
268.913	324.38
269.145	330.38
269.377	315.38
269.609	327.38
269.841	323.38
270.073	317.38
270.306	337.38
270.538	322.38
270.77	331.38
271.002	318.38
271.234	330.38
271.466	339.38
271.698	344.38
271.93	335.38
272.162	350.38
272.394	330.38
272.626	345.38
272.858	346.38
273.09	358.38
273.322	346.38
273.553	351.38
273.785	340.38
274.017	363.38
274.249	364.38
274.481	341.38
274.713	358.38
274.945	340.38
275.176	363.38
275.408	347.38
275.64	354.38
275.872	358.38
276.104	349.38
276.335	359.38
276.567	366.38
276.799	356.38
277.031	371.38
277.262	362.38
277.494	349.38
277.726	370.38
277.957	351.38
278.189	369.38
278.421	369.38
278.652	381.38
278.884	373.38
279.115	369.38
279.347	369.38
279.579	369.38
279.81	366.38
280.042	381.38
280.273	373.38
280.505	381.38
280.736	378.38
280.968	379.38
281.199	380.38
281.431	377.38
281.662	381.38
281.894	387.38
282.125	383.38
282.356	381.38
282.588	376.38
282.819	391.38
283.051	377.38
283.282	384.38
283.513	399.38
283.745	405.38
283.976	385.38
284.207	409.38
284.439	388.38
284.67	394.38
284.901	398.38
285.132	390.38
285.364	403.38
285.595	421.38
285.826	389.38
286.057	396.38
286.288	414.38
286.52	419.38
286.751	436.38
286.982	419.38
287.213	414.38
287.444	425.38
287.675	408.38
287.906	421.38
288.138	418.38
288.369	406.38
288.6	417.38
288.831	391.38
289.062	413.38
289.293	413.38
289.524	391.38
289.755	422.38
289.986	419.38
290.217	412.38
290.448	435.38
290.679	415.38
290.91	407.38
291.141	433.38
291.371	438.38
291.602	411.38
291.833	428.38
292.064	411.38
292.295	405.38
292.526	409.38
292.757	404.38
292.987	433.38
293.218	428.38
293.449	419.38
293.68	424.38
293.91	428.38
294.141	434.38
294.372	415.38
294.603	413.38
294.833	418.38
295.064	426.38
295.295	417.38
295.525	406.38
295.756	421.38
295.987	428.38
296.217	421.38
296.448	433.38
296.679	423.38
296.909	433.38
297.14	417.38
297.37	433.38
297.601	430.38
297.831	423.38
298.062	429.38
298.292	458.38
298.523	461.38
298.753	460.38
298.984	435.38
299.214	460.38
299.445	464.38
299.675	464.38
299.905	470.38
300.136	449.38
300.366	478.38
300.597	484.38
300.827	469.38
301.057	454.38
301.288	468.38
301.518	490.38
301.748	472.38
301.979	462.38
302.209	474.38
302.439	487.38
302.669	470.38
302.9	483.38
303.13	478.38
303.36	488.38
303.59	489.38
303.82	497.38
304.051	483.38
304.281	471.38
304.511	481.38
304.741	490.38
304.971	485.38
305.201	491.38
305.431	490.38
305.661	512.38
305.891	497.38
306.121	488.38
306.352	478.38
306.582	462.38
306.812	472.38
307.042	485.38
307.272	482.38
307.502	464.38
307.731	483.38
307.961	489.38
308.191	469.38
308.421	477.38
308.651	483.38
308.881	459.38
309.111	476.38
309.341	481.38
309.571	488.38
309.8	487.38
310.03	489.38
310.26	510.38
310.49	523.38
310.72	499.38
310.949	481.38
311.179	499.38
311.409	481.38
311.639	532.38
311.868	482.38
312.098	512.38
312.328	491.38
312.557	501.38
312.787	545.38
313.017	542.38
313.246	517.38
313.476	543.38
313.706	517.38
313.935	512.38
314.165	518.38
314.394	533.38
314.624	537.38
314.853	540.38
315.083	532.38
315.312	558.38
315.542	555.38
315.771	555.38
316.001	549.38
316.23	517.38
316.46	521.38
316.689	534.38
316.919	541.38
317.148	554.38
317.377	544.38
317.607	541.38
317.836	538.38
318.065	521.38
318.295	533.38
318.524	549.38
318.753	528.38
318.983	553.38
319.212	529.38
319.441	535.38
319.67	562.38
319.9	567.38
320.129	580.38
320.358	550.38
320.587	557.38
320.816	530.38
321.046	544.38
321.275	556.38
321.504	581.38
321.733	561.38
321.962	564.38
322.191	571.38
322.42	591.38
322.649	601.38
322.878	578.38
323.108	578.38
323.337	591.38
323.566	574.38
323.795	603.38
324.024	620.38
324.253	589.38
324.482	603.38
324.71	603.38
324.939	608.38
325.168	599.38
325.397	608.38
325.626	635.38
325.855	633.38
326.084	647.38
326.313	641.38
326.542	640.38
326.77	632.38
326.999	650.38
327.228	628.38
327.457	625.38
327.686	643.38
327.914	647.38
328.143	655.38
328.372	641.38
328.6	652.38
328.829	633.38
329.058	673.38
329.287	674.38
329.515	658.38
329.744	669.38
329.972	659.38
330.201	678.38
330.43	700.38
330.658	678.38
330.887	706.38
331.115	692.38
331.344	701.38
331.572	714.38
331.801	699.38
332.03	713.38
332.258	715.38
332.486	725.38
332.715	739.38
332.943	764.38
333.172	801.38
333.4	777.38
333.629	809.38
333.857	819.38
334.085	835.38
334.314	809.38
334.542	818.38
334.771	835.38
334.999	822.38
335.227	838.38
335.455	834.38
335.684	815.38
335.912	827.38
336.14	823.38
336.369	801.38
336.597	828.38
336.825	823.38
337.053	821.38
337.281	806.38
337.51	793.38
337.738	795.38
337.966	787.38
338.194	799.38
338.422	752.38
338.65	738.38
338.878	739.38
339.106	743.38
339.334	774.38
339.562	727.38
339.79	725.38
340.018	719.38
340.246	732.38
340.474	727.38
340.702	709.38
340.93	750.38
341.158	742.38
341.386	753.38
341.614	769.38
341.842	750.38
342.07	747.38
342.298	727.38
342.526	738.38
342.754	725.38
342.981	709.38
343.209	733.38
343.437	769.38
343.665	796.38
343.893	806.38
344.12	829.38
344.348	810.38
344.576	829.38
344.804	810.38
345.031	777.38
345.259	773.38
345.487	759.38
345.714	743.38
345.942	750.38
346.17	757.38
346.397	734.38
346.625	750.38
346.853	706.38
347.08	695.38
347.308	697.38
347.535	697.38
347.763	712.38
347.99	686.38
348.218	686.38
348.445	695.38
348.673	683.38
348.9	691.38
349.128	705.38
349.355	721.38
349.583	722.38
349.81	712.38
350.037	677.38
350.265	691.38
350.492	686.38
350.72	691.38
350.947	674.38
351.174	689.38
351.402	701.38
351.629	716.38
351.856	703.38
352.083	688.38
352.311	699.38
352.538	718.38
352.765	725.38
352.992	675.38
353.22	662.38
353.447	662.38
353.674	671.38
353.901	682.38
354.128	667.38
354.355	662.38
354.583	661.38
354.81	672.38
355.037	686.38
355.264	680.38
355.491	662.38
355.718	671.38
355.945	666.38
356.172	690.38
356.399	689.38
356.626	704.38
356.853	700.38
357.08	708.38
357.307	674.38
357.534	693.38
357.761	697.38
357.988	670.38
358.215	663.38
358.441	683.38
358.668	673.38
358.895	684.38
359.122	695.38
359.349	659.38
359.576	671.38
359.802	685.38
360.029	678.38
360.256	681.38
360.483	672.38
360.709	670.38
360.936	704.38
361.163	685.38
361.39	689.38
361.616	659.38
361.843	684.38
362.07	741.38
362.296	712.38
362.523	691.38
362.749	683.38
362.976	676.38
363.203	676.38
363.429	661.38
363.656	658.38
363.882	676.38
364.109	689.38
364.335	658.38
364.562	660.38
364.788	669.38
365.015	673.38
365.241	671.38
365.468	684.38
365.694	645.38
365.92	661.38
366.147	677.38
366.373	665.38
366.599	675.38
366.826	684.38
367.052	667.38
367.278	689.38
367.505	667.38
367.731	681.38
367.957	662.38
368.184	673.38
368.41	687.38
368.636	686.38
368.862	692.38
369.089	678.38
369.315	678.38
369.541	685.38
369.767	698.38
369.993	710.38
370.219	693.38
370.445	695.38
370.672	693.38
370.898	683.38
371.124	722.38
371.35	696.38
371.576	688.38
371.802	730.38
372.028	721.38
372.254	710.38
372.48	714.38
372.706	711.38
372.932	718.38
373.158	724.38
373.384	712.38
373.61	685.38
373.835	719.38
374.061	713.38
374.287	701.38
374.513	738.38
374.739	749.38
374.965	756.38
375.191	760.38
375.416	750.38
375.642	759.38
375.868	735.38
376.094	742.38
376.319	725.38
376.545	740.38
376.771	714.38
376.997	691.38
377.222	703.38
377.448	717.38
377.674	710.38
377.899	713.38
378.125	700.38
378.35	698.38
378.576	690.38
378.802	692.38
379.027	719.38
379.253	722.38
379.478	686.38
379.704	722.38
379.929	701.38
380.155	694.38
380.38	709.38
380.606	695.38
380.831	692.38
381.057	701.38
381.282	700.38
381.507	700.38
381.733	695.38
381.958	710.38
382.184	716.38
382.409	733.38
382.634	721.38
382.86	715.38
383.085	714.38
383.31	738.38
383.535	727.38
383.761	739.38
383.986	727.38
384.211	733.38
384.436	743.38
384.662	796.38
384.887	783.38
385.112	763.38
385.337	773.38
385.562	796.38
385.787	801.38
386.013	824.38
386.238	796.38
386.463	798.38
386.688	802.38
386.913	823.38
387.138	803.38
387.363	818.38
387.588	801.38
387.813	805.38
388.038	844.38
388.263	843.38
388.488	845.38
388.713	827.38
388.938	795.38
389.163	795.38
389.387	803.38
389.612	786.38
389.837	825.38
390.062	791.38
390.287	813.38
390.512	813.38
390.736	831.38
390.961	841.38
391.186	841.38
391.411	870.38
391.636	851.38
391.86	869.38
392.085	884.38
392.31	887.38
392.534	867.38
392.759	864.38
392.984	877.38
393.208	871.38
393.433	877.38
393.658	847.38
393.882	871.38
394.107	881.38
394.331	889.38
394.556	851.38
394.78	877.38
395.005	862.38
395.229	854.38
395.454	900.38
395.678	889.38
395.903	874.38
396.127	915.38
396.352	899.38
396.576	891.38
396.801	879.38
397.025	917.38
397.249	900.38
397.474	929.38
397.698	917.38
397.922	935.38
398.147	941.38
398.371	964.38
398.595	1001.38
398.82	1013.38
399.044	1053.38
399.268	1132.38
399.492	1217.38
399.717	1299.38
399.941	1284.38
400.165	1259.38
400.389	1191.38
400.613	1130.38
400.837	1103.38
401.062	1054.38
401.286	1061.38
401.51	1044.38
401.734	1026.38
401.958	1041.38
402.182	1029.38
402.406	1046.38
402.63	1032.38
402.854	1054.38
403.078	1021.38
403.302	1029.38
403.526	1060.38
403.75	1051.38
403.974	1071.38
404.198	1074.38
404.422	1112.38
404.645	1044.38
404.869	1075.38
405.093	1097.38
405.317	1108.38
405.541	1093.38
405.765	1121.38
405.988	1074.38
406.212	1090.38
406.436	1122.38
406.66	1132.38
406.883	1148.38
407.107	1159.38
407.331	1196.38
407.555	1232.38
407.778	1235.38
408.002	1205.38
408.226	1212.38
408.449	1233.38
408.673	1181.38
408.896	1155.38
409.12	1165.38
409.344	1159.38
409.567	1133.38
409.791	1135.38
410.014	1109.38
410.238	1102.38
410.461	1123.38
410.685	1112.38
410.908	1098.38
411.132	1107.38
411.355	1068.38
411.578	1087.38
411.802	1067.38
412.025	1081.38
412.249	1098.38
412.472	1091.38
412.695	1065.38
412.919	1037.38
413.142	1069.38
413.365	1052.38
413.589	1060.38
413.812	1065.38
414.035	1041.38
414.258	1027.38
414.482	1060.38
414.705	1051.38
414.928	1057.38
415.151	1034.38
415.374	1049.38
415.597	1036.38
415.821	1029.38
416.044	984.38
416.267	1012.38
416.49	1011.38
416.713	1025.38
416.936	1029.38
417.159	1007.38
417.382	1021.38
417.605	969.38
417.828	1016.38
418.051	1023.38
418.274	1047.38
418.497	1011.38
418.72	1033.38
418.943	1034.38
419.166	1084.38
419.389	1147.38
419.611	1139.38
419.834	1088.38
420.057	1051.38
420.28	1013.38
420.503	1012.38
420.726	1005.38
420.948	1007.38
421.171	994.38
421.394	994.38
421.617	991.38
421.839	1024.38
422.062	1010.38
422.285	1015.38
422.507	1029.38
422.73	992.38
422.953	1009.38
423.175	1029.38
423.398	1034.38
423.621	1017.38
423.843	1063.38
424.066	1062.38
424.288	1056.38
424.511	1043.38
424.733	1000.38
424.956	1023.38
425.178	1000.38
425.401	1000.38
425.623	1028.38
425.846	1013.38
426.068	1023.38
426.291	1005.38
426.513	999.38
426.735	1013.38
426.958	1006.38
427.18	993.38
427.402	986.38
427.625	981.38
427.847	971.38
428.069	983.38
428.292	982.38
428.514	971.38
428.736	950.38
428.958	980.38
429.181	926.38
429.403	965.38
429.625	947.38
429.847	954.38
430.069	973.38
430.292	976.38
430.514	970.38
430.736	982.38
430.958	946.38
431.18	947.38
431.402	984.38
431.624	963.38
431.846	947.38
432.068	990.38
432.29	972.38
432.512	965.38
432.734	986.38
432.956	989.38
433.178	1023.38
433.4	981.38
433.622	1003.38
433.844	1030.38
434.066	1017.38
434.287	1011.38
434.509	1005.38
434.731	1061.38
434.953	1054.38
435.175	1057.38
435.397	1069.38
435.618	1027.38
435.84	993.38
436.062	977.38
436.284	1000.38
436.505	996.38
436.727	987.38
436.949	987.38
437.17	970.38
437.392	937.38
437.614	959.38
437.835	949.38
438.057	948.38
438.278	950.38
438.5	958.38
438.721	970.38
438.943	969.38
439.165	982.38
439.386	949.38
439.608	987.38
439.829	993.38
440.05	989.38
440.272	1004.38
440.493	978.38
440.715	1010.38
440.936	1006.38
441.158	1021.38
441.379	1007.38
441.6	1084.38
441.822	1078.38
442.043	1066.38
442.264	1062.38
442.486	1039.38
442.707	1056.38
442.928	1038.38
443.149	1039.38
443.371	1075.38
443.592	1100.38
443.813	1092.38
444.034	1069.38
444.255	1067.38
444.476	1110.38
444.698	1155.38
444.919	1171.38
445.14	1236.38
445.361	1153.38
445.582	1110.38
445.803	1068.38
446.024	1035.38
446.245	1039.38
446.466	1051.38
446.687	1026.38
446.908	1009.38
447.129	986.38
447.35	998.38
447.571	988.38
447.792	942.38
448.013	941.38
448.234	930.38
448.455	949.38
448.675	919.38
448.896	945.38
449.117	909.38
449.338	944.38
449.559	925.38
449.779	881.38
450	908.38
450.221	922.38
450.442	923.38
450.662	887.38
450.883	935.38
451.104	924.38
451.324	912.38
451.545	916.38
451.766	922.38
451.986	897.38
452.207	882.38
452.428	895.38
452.648	905.38
452.869	903.38
453.089	849.38
453.31	876.38
453.53	859.38
453.751	846.38
453.971	869.38
454.192	860.38
454.412	851.38
454.633	858.38
454.853	865.38
455.073	853.38
455.294	885.38
455.514	826.38
455.734	853.38
455.955	853.38
456.175	850.38
456.395	817.38
456.616	850.38
456.836	870.38
457.056	875.38
457.276	875.38
457.497	895.38
457.717	865.38
457.937	863.38
458.157	876.38
458.377	894.38
458.598	886.38
458.818	914.38
459.038	917.38
459.258	924.38
459.478	998.38
459.698	1033.38
459.918	1023.38
460.138	1061.38
460.358	1087.38
460.578	1086.38
460.798	1107.38
461.018	1120.38
461.238	1117.38
461.458	1121.38
461.678	1126.38
461.898	1116.38
462.118	1142.38
462.338	1181.38
462.558	1183.38
462.777	1256.38
462.997	1268.38
463.217	1317.38
463.437	1366.38
463.657	1306.38
463.876	1258.38
464.096	1281.38
464.316	1238.38
464.536	1211.38
464.755	1205.38
464.975	1192.38
465.195	1139.38
465.414	1102.38
465.634	1055.38
465.854	1030.38
466.073	998.38
466.293	989.38
466.512	951.38
466.732	967.38
466.951	989.38
467.171	975.38
467.391	958.38
467.61	967.38
467.829	969.38
468.049	951.38
468.268	926.38
468.488	919.38
468.707	916.38
468.927	917.38
469.146	934.38
469.365	935.38
469.585	934.38
469.804	950.38
470.023	959.38
470.243	952.38
470.462	958.38
470.681	980.38
470.901	950.38
471.12	921.38
471.339	974.38
471.558	910.38
471.777	967.38
471.997	927.38
472.216	940.38
472.435	894.38
472.654	921.38
472.873	901.38
473.092	931.38
473.311	911.38
473.53	911.38
473.749	913.38
473.968	911.38
474.187	885.38
474.406	905.38
474.625	917.38
474.844	913.38
475.063	920.38
475.282	943.38
475.501	929.38
475.72	933.38
475.939	930.38
476.158	964.38
476.377	985.38
476.596	961.38
476.814	959.38
477.033	943.38
477.252	969.38
477.471	1025.38
477.69	996.38
477.908	1027.38
478.127	1065.38
478.346	1080.38
478.564	1054.38
478.783	1091.38
479.002	1107.38
479.22	1109.38
479.439	1102.38
479.658	1079.38
479.876	1077.38
480.095	1114.38
480.313	1113.38
480.532	1123.38
480.751	1132.38
480.969	1151.38
481.188	1086.38
481.406	1065.38
481.624	1068.38
481.843	1049.38
482.061	1039.38
482.28	1039.38
482.498	1043.38
482.717	1028.38
482.935	1028.38
483.153	1051.38
483.372	1060.38
483.59	1093.38
483.808	1076.38
484.027	1040.38
484.245	1059.38
484.463	1070.38
484.681	1069.38
484.9	1068.38
485.118	1077.38
485.336	1065.38
485.554	1046.38
485.772	1078.38
485.99	1062.38
486.209	1081.38
486.427	1083.38
486.645	1097.38
486.863	1091.38
487.081	1086.38
487.299	1091.38
487.517	1077.38
487.735	1073.38
487.953	1111.38
488.171	1119.38
488.389	1103.38
488.607	1063.38
488.825	1066.38
489.043	1083.38
489.261	1065.38
489.479	1093.38
489.696	1108.38
489.914	1080.38
490.132	1114.38
490.35	1120.38
490.568	1088.38
490.786	1119.38
491.003	1120.38
491.221	1138.38
491.439	1135.38
491.657	1111.38
491.874	1139.38
492.092	1185.38
492.31	1178.38
492.527	1127.38
492.745	1147.38
492.963	1163.38
493.18	1147.38
493.398	1158.38
493.615	1203.38
493.833	1175.38
494.05	1206.38
494.268	1166.38
494.485	1183.38
494.703	1182.38
494.92	1212.38
495.138	1201.38
495.355	1218.38
495.573	1195.38
495.79	1215.38
496.008	1234.38
496.225	1235.38
496.442	1265.38
496.66	1259.38
496.877	1271.38
497.094	1308.38
497.312	1302.38
497.529	1319.38
497.746	1359.38
497.963	1406.38
498.181	1447.38
498.398	1476.38
498.615	1548.38
498.832	1638.38
499.049	1707.38
499.267	1798.38
499.484	1923.38
499.701	2021.38
499.918	2147.38
500.135	2311.38
500.352	2490.38
500.569	2561.38
500.786	2478.38
501.003	2421.38
501.22	2286.38
501.437	2173.38
501.654	2029.38
501.871	1930.38
502.088	1830.38
502.305	1703.38
502.522	1634.38
502.739	1577.38
502.956	1521.38
503.172	1465.38
503.389	1419.38
503.606	1398.38
503.823	1389.38
504.04	1383.38
504.256	1364.38
504.473	1365.38
504.69	1317.38
504.907	1284.38
505.123	1261.38
505.34	1198.38
505.557	1201.38
505.773	1179.38
505.99	1140.38
506.207	1117.38
506.423	1087.38
506.64	1067.38
506.856	1055.38
507.073	1068.38
507.289	1053.38
507.506	1079.38
507.722	1077.38
507.939	1027.38
508.155	1048.38
508.372	1070.38
508.588	1005.38
508.805	1002.38
509.021	1006.38
509.238	989.38
509.454	983.38
509.67	983.38
509.887	961.38
510.103	966.38
510.319	956.38
510.536	961.38
510.752	966.38
510.968	974.38
511.184	948.38
511.401	966.38
511.617	940.38
511.833	932.38
512.049	926.38
512.265	972.38
512.481	959.38
512.698	950.38
512.914	967.38
513.13	951.38
513.346	954.38
513.562	922.38
513.778	938.38
513.994	950.38
514.21	970.38
514.426	926.38
514.642	970.38
514.858	974.38
515.074	955.38
515.29	998.38
515.506	1011.38
515.721	1002.38
515.937	1006.38
516.153	1045.38
516.369	1025.38
516.585	1076.38
516.801	1092.38
517.016	1112.38
517.232	1145.38
517.448	1145.38
517.664	1170.38
517.879	1153.38
518.095	1171.38
518.311	1145.38
518.527	1122.38
518.742	1105.38
518.958	1062.38
519.173	1042.38
519.389	1036.38
519.605	1010.38
519.82	984.38
520.036	1029.38
520.251	963.38
520.467	968.38
520.682	934.38
520.898	947.38
521.113	917.38
521.329	922.38
521.544	922.38
521.76	950.38
521.975	905.38
522.19	903.38
522.406	929.38
522.621	906.38
522.836	885.38
523.052	889.38
523.267	886.38
523.482	866.38
523.698	888.38
523.913	876.38
524.128	891.38
524.343	875.38
524.559	871.38
524.774	898.38
524.989	904.38
525.204	875.38
525.419	839.38
525.634	837.38
525.849	862.38
526.064	871.38
526.28	844.38
526.495	836.38
526.71	839.38
526.925	833.38
527.14	842.38
527.355	854.38
527.57	831.38
527.785	839.38
527.999	879.38
528.214	870.38
528.429	846.38
528.644	861.38
528.859	869.38
529.074	845.38
529.289	862.38
529.503	833.38
529.718	833.38
529.933	821.38
530.148	831.38
530.363	825.38
530.577	859.38
530.792	795.38
531.007	844.38
531.221	832.38
531.436	831.38
531.651	839.38
531.865	807.38
532.08	841.38
532.295	840.38
532.509	842.38
532.724	837.38
532.938	808.38
533.153	805.38
533.367	809.38
533.582	848.38
533.796	836.38
534.011	833.38
534.225	811.38
534.44	811.38
534.654	795.38
534.868	815.38
535.083	811.38
535.297	808.38
535.511	797.38
535.726	801.38
535.94	789.38
536.154	783.38
536.369	779.38
536.583	770.38
536.797	797.38
537.011	782.38
537.225	799.38
537.44	792.38
537.654	778.38
537.868	782.38
538.082	759.38
538.296	781.38
538.51	763.38
538.724	779.38
538.938	786.38
539.153	776.38
539.367	754.38
539.581	769.38
539.795	759.38
540.009	759.38
540.222	758.38
540.436	743.38
540.65	762.38
540.864	775.38
541.078	782.38
541.292	773.38
541.506	794.38
541.72	773.38
541.934	785.38
542.147	787.38
542.361	774.38
542.575	742.38
542.789	750.38
543.002	736.38
543.216	759.38
543.43	758.38
543.644	737.38
543.857	735.38
544.071	777.38
544.285	783.38
544.498	773.38
544.712	757.38
544.925	786.38
545.139	781.38
545.352	781.38
545.566	780.38
545.779	775.38
545.993	777.38
546.206	790.38
546.42	782.38
546.633	771.38
546.847	739.38
547.06	771.38
547.274	777.38
547.487	786.38
547.7	805.38
547.914	784.38
548.127	805.38
548.34	784.38
548.554	773.38
548.767	782.38
548.98	754.38
549.193	753.38
549.407	771.38
549.62	786.38
549.833	788.38
550.046	782.38
550.259	771.38
550.473	762.38
550.686	794.38
550.899	773.38
551.112	779.38
551.325	782.38
551.538	780.38
551.751	758.38
551.964	732.38
552.177	759.38
552.39	763.38
552.603	791.38
552.816	806.38
553.029	813.38
553.242	809.38
553.455	811.38
553.667	806.38
553.88	842.38
554.093	795.38
554.306	777.38
554.519	761.38
554.732	778.38
554.944	773.38
555.157	746.38
555.37	740.38
555.583	730.38
555.795	718.38
556.008	679.38
556.221	695.38
556.433	707.38
556.646	705.38
556.859	698.38
557.071	693.38
557.284	679.38
557.496	665.38
557.709	679.38
557.921	671.38
558.134	652.38
558.346	667.38
558.559	669.38
558.771	649.38
558.984	667.38
559.196	672.38
559.409	674.38
559.621	661.38
559.833	639.38
560.046	641.38
560.258	633.38
560.47	674.38
560.683	658.38
560.895	641.38
561.107	663.38
561.32	649.38
561.532	650.38
561.744	646.38
561.956	639.38
562.168	659.38
562.381	657.38
562.593	637.38
562.805	677.38
563.017	661.38
563.229	664.38
563.441	641.38
563.653	659.38
563.865	673.38
564.077	654.38
564.289	656.38
564.501	669.38
564.713	678.38
564.925	687.38
565.137	716.38
565.349	714.38
565.561	733.38
565.773	753.38
565.985	776.38
566.197	815.38
566.408	829.38
566.62	861.38
566.832	875.38
567.044	902.38
567.255	895.38
567.467	886.38
567.679	907.38
567.891	927.38
568.102	947.38
568.314	932.38
568.526	865.38
568.737	831.38
568.949	800.38
569.161	757.38
569.372	730.38
569.584	721.38
569.795	704.38
570.007	669.38
570.218	653.38
570.43	650.38
570.641	646.38
570.853	635.38
571.064	624.38
571.276	617.38
571.487	636.38
571.698	618.38
571.91	593.38
572.121	585.38
572.333	578.38
572.544	567.38
572.755	535.38
572.966	558.38
573.178	542.38
573.389	546.38
573.6	533.38
573.811	522.38
574.023	532.38
574.234	531.38
574.445	529.38
574.656	522.38
574.867	526.38
575.078	505.38
575.289	516.38
575.501	497.38
575.712	514.38
575.923	504.38
576.134	503.38
576.345	492.38
576.556	515.38
576.767	488.38
576.978	509.38
577.188	470.38
577.399	482.38
577.61	482.38
577.821	471.38
578.032	472.38
578.243	464.38
578.454	455.38
578.665	466.38
578.875	442.38
579.086	458.38
579.297	456.38
579.508	463.38
579.718	483.38
579.929	474.38
580.14	459.38
580.35	476.38
580.561	474.38
580.772	467.38
580.982	467.38
581.193	439.38
581.403	464.38
581.614	467.38
581.825	458.38
582.035	439.38
582.246	459.38
582.456	437.38
582.667	421.38
582.877	450.38
583.087	458.38
583.298	450.38
583.508	443.38
583.719	457.38
583.929	437.38
584.139	440.38
584.35	415.38
584.56	412.38
584.77	426.38
584.981	425.38
585.191	433.38
585.401	414.38
585.611	412.38
585.821	433.38
586.032	423.38
586.242	421.38
586.452	412.38
586.662	414.38
586.872	398.38
587.082	408.38
587.292	413.38
587.502	422.38
587.713	414.38
587.923	411.38
588.133	421.38
588.343	438.38
588.553	409.38
588.762	444.38
588.972	411.38
589.182	432.38
589.392	425.38
589.602	427.38
589.812	424.38
590.022	430.38
590.232	417.38
590.441	416.38
590.651	428.38
590.861	410.38
591.071	424.38
591.281	443.38
591.49	457.38
591.7	444.38
591.91	426.38
592.119	419.38
592.329	440.38
592.539	438.38
592.748	450.38
592.958	458.38
593.167	469.38
593.377	459.38
593.587	485.38
593.796	461.38
594.006	478.38
594.215	479.38
594.424	459.38
594.634	475.38
594.843	454.38
595.053	437.38
595.262	441.38
595.472	437.38
595.681	411.38
595.89	418.38
596.1	420.38
596.309	422.38
596.518	401.38
596.727	401.38
596.937	403.38
597.146	378.38
597.355	377.38
597.564	381.38
597.774	374.38
597.983	368.38
598.192	384.38
598.401	376.38
598.61	390.38
598.819	369.38
599.028	372.38
599.237	349.38
599.446	351.38
599.655	356.38
599.864	363.38
600.073	357.38
600.282	334.38
600.491	326.38
600.7	348.38
600.909	351.38
601.118	341.38
601.327	362.38
601.536	339.38
601.745	330.38
601.953	380.38
602.162	360.38
602.371	353.38
602.58	364.38
602.789	340.38
602.997	344.38
603.206	343.38
603.415	342.38
603.623	317.38
603.832	330.38
604.041	321.38
604.249	330.38
604.458	326.38
604.666	331.38
604.875	319.38
605.084	335.38
605.292	332.38
605.501	337.38
605.709	343.38
605.918	332.38
606.126	321.38
606.334	334.38
606.543	314.38
606.751	326.38
606.96	312.38
607.168	348.38
607.376	333.38
607.585	318.38
607.793	321.38
608.001	313.38
608.21	338.38
608.418	345.38
608.626	316.38
608.834	338.38
609.043	319.38
609.251	326.38
609.459	317.38
609.667	318.38
609.875	318.38
610.083	316.38
610.291	322.38
610.499	299.38
610.707	323.38
610.916	303.38
611.124	315.38
611.332	327.38
611.54	305.38
611.748	316.38
611.955	308.38
612.163	321.38
612.371	317.38
612.579	306.38
612.787	317.38
612.995	312.38
613.203	307.38
613.411	313.38
613.618	294.38
613.826	278.38
614.034	287.38
614.242	296.38
614.449	310.38
614.657	304.38
614.865	301.38
615.072	315.38
615.28	297.38
615.488	318.38
615.695	281.38
615.903	305.38
616.111	286.38
616.318	294.38
616.526	297.38
616.733	303.38
616.941	315.38
617.148	302.38
617.356	310.38
617.563	291.38
617.771	285.38
617.978	298.38
618.185	302.38
618.393	282.38
618.6	297.38
618.807	285.38
619.015	296.38
619.222	294.38
619.429	297.38
619.637	266.38
619.844	283.38
620.051	302.38
620.258	280.38
620.466	292.38
620.673	276.38
620.88	291.38
621.087	278.38
621.294	283.38
621.501	252.38
621.708	270.38
621.915	275.38
622.122	280.38
622.329	283.38
622.536	279.38
622.743	279.38
622.95	266.38
623.157	266.38
623.364	268.38
623.571	269.38
623.778	282.38
623.985	261.38
624.192	260.38
624.399	265.38
624.606	257.38
624.812	248.38
625.019	285.38
625.226	261.38
625.433	284.38
625.639	272.38
625.846	266.38
626.053	246.38
626.259	268.38
626.466	280.38
626.673	269.38
626.879	245.38
627.086	268.38
627.293	238.38
627.499	257.38
627.706	255.38
627.912	249.38
628.119	238.38
628.325	249.38
628.532	238.38
628.738	259.38
628.945	262.38
629.151	262.38
629.357	245.38
629.564	241.38
629.77	255.38
629.976	253.38
630.183	255.38
630.389	233.38
630.595	250.38
630.802	257.38
631.008	224.38
631.214	235.38
631.42	232.38
631.627	238.38
631.833	234.38
632.039	225.38
632.245	238.38
632.451	238.38
632.657	241.38
632.863	223.38
633.069	249.38
633.275	235.38
633.481	245.38
633.688	229.38
633.893	238.38
634.099	223.38
634.305	219.38
634.511	216.38
634.717	229.38
634.923	214.38
635.129	215.38
635.335	232.38
635.541	217.38
635.747	228.38
635.952	223.38
636.158	222.38
636.364	232.38
636.57	219.38
636.775	218.38
636.981	223.38
637.187	222.38
637.392	219.38
637.598	217.38
637.804	228.38
638.009	214.38
638.215	212.38
638.421	218.38
638.626	199.38
638.832	216.38
639.037	218.38
639.243	203.38
639.448	221.38
639.654	223.38
639.859	222.38
640.065	211.38
640.27	214.38
640.475	224.38
640.681	210.38
640.886	216.38
641.091	218.38
641.297	214.38
641.502	198.38
641.707	202.38
641.913	220.38
642.118	211.38
642.323	204.38
642.528	218.38
642.733	208.38
642.939	199.38
643.144	208.38
643.349	204.38
643.554	198.38
643.759	203.38
643.964	213.38
644.169	196.38
644.374	222.38
644.579	196.38
644.784	197.38
644.989	203.38
645.194	209.38
645.399	186.38
645.604	194.38
645.809	207.38
646.014	214.38
646.219	214.38
646.423	200.38
646.628	221.38
646.833	207.38
647.038	184.38
647.243	203.38
647.447	214.38
647.652	185.38
647.857	185.38
648.062	202.38
648.266	199.38
648.471	211.38
648.676	196.38
648.88	209.38
649.085	193.38
649.289	178.38
649.494	189.38
649.698	207.38
649.903	209.38
650.107	188.38
650.312	189.38
650.516	187.38
650.721	175.38
650.925	195.38
651.13	186.38
651.334	199.38
651.539	185.38
651.743	177.38
651.947	194.38
652.152	188.38
652.356	174.38
652.56	167.38
652.764	161.38
652.969	178.38
653.173	179.38
653.377	173.38
653.581	157.38
653.785	161.38
653.99	154.38
654.194	169.38
654.398	149.38
654.602	158.38
654.806	175.38
655.01	173.38
655.214	146.38
655.418	159.38
655.622	153.38
655.826	147.38
656.03	155.38
656.234	159.38
656.438	161.38
656.642	150.38
656.846	149.38
657.049	153.38
657.253	150.38
657.457	147.38
657.661	141.38
657.865	126.38
658.068	110.38
658.272	123.38
658.476	120.38
658.68	127.38
658.883	108.38
659.087	121.38
659.291	115.38
659.494	111.38
659.698	115.38
659.901	110.38
660.105	117.38
660.309	107.38
660.512	115.38
660.716	110.38
660.919	113.38
661.123	113.38
661.326	102.38
661.53	100.38
661.733	102.38
661.936	93.38
662.14	105.38
662.343	92.38
662.546	110.38
662.75	83.38
662.953	93.38
663.156	84.38
663.36	85.38
663.563	90.38
663.766	85.38
663.969	86.38
664.173	89.38
664.376	90.38
664.579	79.38
664.782	89.38
664.985	90.38
665.188	72.38
665.391	79.38
665.594	91.38
665.797	81.38
666	85.38
666.203	91.38
666.406	90.38
666.609	73.38
666.812	82.38
667.015	77.38
667.218	86.38
667.421	82.38
667.624	79.38
667.827	80.38
668.03	71.38
668.232	84.38
668.435	69.38
668.638	83.38
668.841	80.38
669.043	69.38
669.246	86.38
669.449	79.38
669.651	84.38
669.854	81.38
670.057	84.38
670.259	87.38
670.462	76.38
670.665	84.38
670.867	77.38
671.07	86.38
671.272	96.38
671.475	92.38
671.677	82.38
671.88	80.38
672.082	75.38
672.284	90.38
672.487	83.38
672.689	71.38
672.892	87.38
