Data from Ni(NO3)2@0.125M.TitratingCurve.Agarose3%dH2O.NegLispCup.LampEnergy10.LIBS07252019_HRD10591_18-10-02-567.txt Node
Date: Thu Jul 25 18:10:02 EDT 2019
User: cochatt
Spectrometer: HR+D1059
Trigger mode: 1
Integration Time (sec): 1.000000E-1
Scans to average: 1
Electric dark correction enabled: true
Nonlinearity correction enabled: false
Boxcar width: 0
XAxis mode: Wavelengths
Number of Pixels in Spectrum: 2048
>>>>>Begin Spectral Data<<<<<
223.165	-4.94
223.4	-4.94
223.635	-4.94
223.869	-14.94
224.104	-19.94
224.338	-7.94
224.573	-17.94
224.808	-19.94
225.042	-3.94
225.277	-6.94
225.511	-13.94
225.746	-10.94
225.98	4.06
226.215	21.06
226.449	12.06
226.683	19.06
226.918	27.06
227.152	38.06
227.387	23.06
227.621	15.06
227.856	46.06
228.09	50.06
228.324	51.06
228.559	77.06
228.793	78.06
229.027	118.06
229.262	107.06
229.496	126.06
229.73	129.06
229.964	128.06
230.199	143.06
230.433	142.06
230.667	140.06
230.901	136.06
231.136	148.06
231.37	156.06
231.604	143.06
231.838	163.06
232.072	168.06
232.306	163.06
232.541	154.06
232.775	160.06
233.009	168.06
233.243	148.06
233.477	170.06
233.711	158.06
233.945	148.06
234.179	154.06
234.413	161.06
234.647	161.06
234.881	176.06
235.115	158.06
235.349	169.06
235.583	186.06
235.817	149.06
236.051	179.06
236.285	162.06
236.519	168.06
236.753	182.06
236.987	172.06
237.221	163.06
237.455	169.06
237.689	168.06
237.922	176.06
238.156	208.06
238.39	164.06
238.624	178.06
238.858	201.06
239.091	190.06
239.325	200.06
239.559	198.06
239.793	184.06
240.027	187.06
240.26	194.06
240.494	196.06
240.728	200.06
240.961	225.06
241.195	216.06
241.429	208.06
241.662	209.06
241.896	205.06
242.13	253.06
242.363	217.06
242.597	223.06
242.83	232.06
243.064	215.06
243.298	237.06
243.531	212.06
243.765	227.06
243.998	219.06
244.232	226.06
244.465	229.06
244.699	243.06
244.932	244.06
245.166	242.06
245.399	238.06
245.633	229.06
245.866	270.06
246.099	258.06
246.333	254.06
246.566	251.06
246.8	254.06
247.033	250.06
247.266	264.06
247.5	256.06
247.733	257.06
247.966	248.06
248.2	266.06
248.433	252.06
248.666	283.06
248.899	272.06
249.133	288.06
249.366	283.06
249.599	295.06
249.832	282.06
250.066	290.06
250.299	286.06
250.532	289.06
250.765	296.06
250.998	316.06
251.231	317.06
251.465	296.06
251.698	300.06
251.931	307.06
252.164	314.06
252.397	323.06
252.63	315.06
252.863	321.06
253.096	326.06
253.329	317.06
253.562	308.06
253.795	322.06
254.028	320.06
254.261	319.06
254.494	314.06
254.727	324.06
254.96	314.06
255.193	344.06
255.426	334.06
255.659	360.06
255.892	354.06
256.124	328.06
256.357	336.06
256.59	338.06
256.823	339.06
257.056	338.06
257.289	312.06
257.521	360.06
257.754	353.06
257.987	334.06
258.22	355.06
258.452	342.06
258.685	356.06
258.918	353.06
259.151	356.06
259.383	368.06
259.616	365.06
259.849	357.06
260.081	362.06
260.314	374.06
260.547	388.06
260.779	365.06
261.012	380.06
261.244	382.06
261.477	388.06
261.71	393.06
261.942	378.06
262.175	364.06
262.407	385.06
262.64	377.06
262.872	392.06
263.105	392.06
263.337	404.06
263.57	396.06
263.802	397.06
264.035	385.06
264.267	395.06
264.499	396.06
264.732	396.06
264.964	403.06
265.197	408.06
265.429	417.06
265.661	424.06
265.894	433.06
266.126	404.06
266.358	416.06
266.591	415.06
266.823	417.06
267.055	440.06
267.287	432.06
267.52	420.06
267.752	425.06
267.984	433.06
268.216	418.06
268.448	428.06
268.681	438.06
268.913	436.06
269.145	428.06
269.377	448.06
269.609	456.06
269.841	428.06
270.073	420.06
270.306	450.06
270.538	469.06
270.77	442.06
271.002	460.06
271.234	457.06
271.466	454.06
271.698	455.06
271.93	449.06
272.162	452.06
272.394	445.06
272.626	476.06
272.858	481.06
273.09	455.06
273.322	473.06
273.553	472.06
273.785	493.06
274.017	473.06
274.249	480.06
274.481	485.06
274.713	464.06
274.945	496.06
275.176	491.06
275.408	488.06
275.64	480.06
275.872	499.06
276.104	493.06
276.335	477.06
276.567	488.06
276.799	484.06
277.031	517.06
277.262	514.06
277.494	518.06
277.726	502.06
277.957	507.06
278.189	520.06
278.421	498.06
278.652	518.06
278.884	498.06
279.115	527.06
279.347	540.06
279.579	536.06
279.81	530.06
280.042	523.06
280.273	520.06
280.505	535.06
280.736	522.06
280.968	515.06
281.199	531.06
281.431	553.06
281.662	549.06
281.894	552.06
282.125	554.06
282.356	549.06
282.588	557.06
282.819	549.06
283.051	527.06
283.282	559.06
283.513	561.06
283.745	564.06
283.976	580.06
284.207	579.06
284.439	581.06
284.67	571.06
284.901	587.06
285.132	588.06
285.364	579.06
285.595	613.06
285.826	580.06
286.057	602.06
286.288	582.06
286.52	586.06
286.751	588.06
286.982	584.06
287.213	593.06
287.444	609.06
287.675	606.06
287.906	594.06
288.138	617.06
288.369	624.06
288.6	604.06
288.831	626.06
289.062	608.06
289.293	601.06
289.524	616.06
289.755	585.06
289.986	614.06
290.217	608.06
290.448	609.06
290.679	624.06
290.91	628.06
291.141	630.06
291.371	621.06
291.602	605.06
291.833	613.06
292.064	620.06
292.295	615.06
292.526	638.06
292.757	604.06
292.987	622.06
293.218	635.06
293.449	638.06
293.68	613.06
293.91	609.06
294.141	613.06
294.372	629.06
294.603	628.06
294.833	633.06
295.064	625.06
295.295	667.06
295.525	644.06
295.756	652.06
295.987	635.06
296.217	633.06
296.448	644.06
296.679	657.06
296.909	651.06
297.14	678.06
297.37	663.06
297.601	670.06
297.831	656.06
298.062	689.06
298.292	680.06
298.523	688.06
298.753	690.06
298.984	666.06
299.214	665.06
299.445	684.06
299.675	679.06
299.905	680.06
300.136	670.06
300.366	669.06
300.597	695.06
300.827	704.06
301.057	716.06
301.288	736.06
301.518	711.06
301.748	706.06
301.979	714.06
302.209	717.06
302.439	716.06
302.669	724.06
302.9	718.06
303.13	693.06
303.36	742.06
303.59	693.06
303.82	696.06
304.051	700.06
304.281	707.06
304.511	713.06
304.741	700.06
304.971	707.06
305.201	707.06
305.431	698.06
305.661	696.06
305.891	688.06
306.121	703.06
306.352	692.06
306.582	694.06
306.812	688.06
307.042	701.06
307.272	700.06
307.502	692.06
307.731	694.06
307.961	701.06
308.191	721.06
308.421	719.06
308.651	696.06
308.881	718.06
309.111	689.06
309.341	704.06
309.571	712.06
309.8	695.06
310.03	718.06
310.26	691.06
310.49	717.06
310.72	710.06
310.949	701.06
311.179	704.06
311.409	709.06
311.639	718.06
311.868	739.06
312.098	725.06
312.328	710.06
312.557	742.06
312.787	736.06
313.017	742.06
313.246	749.06
313.476	753.06
313.706	764.06
313.935	775.06
314.165	758.06
314.394	754.06
314.624	762.06
314.853	760.06
315.083	772.06
315.312	730.06
315.542	741.06
315.771	739.06
316.001	725.06
316.23	742.06
316.46	715.06
316.689	753.06
316.919	732.06
317.148	742.06
317.377	737.06
317.607	727.06
317.836	724.06
318.065	730.06
318.295	749.06
318.524	725.06
318.753	751.06
318.983	755.06
319.212	739.06
319.441	740.06
319.67	740.06
319.9	775.06
320.129	751.06
320.358	734.06
320.587	754.06
320.816	752.06
321.046	744.06
321.275	729.06
321.504	747.06
321.733	757.06
321.962	794.06
322.191	768.06
322.42	763.06
322.649	754.06
322.878	750.06
323.108	754.06
323.337	754.06
323.566	761.06
323.795	797.06
324.024	788.06
324.253	756.06
324.482	754.06
324.71	771.06
324.939	800.06
325.168	764.06
325.397	792.06
325.626	798.06
325.855	792.06
326.084	822.06
326.313	810.06
326.542	832.06
326.77	853.06
326.999	830.06
327.228	789.06
327.457	820.06
327.686	804.06
327.914	828.06
328.143	835.06
328.372	833.06
328.6	843.06
328.829	843.06
329.058	818.06
329.287	824.06
329.515	847.06
329.744	842.06
329.972	838.06
330.201	853.06
330.43	841.06
330.658	850.06
330.887	844.06
331.115	870.06
331.344	889.06
331.572	869.06
331.801	919.06
332.03	926.06
332.258	939.06
332.486	967.06
332.715	1021.06
332.943	1026.06
333.172	1088.06
333.4	1101.06
333.629	1150.06
333.857	1121.06
334.085	1129.06
334.314	1095.06
334.542	1078.06
334.771	1051.06
334.999	1062.06
335.227	1060.06
335.455	1067.06
335.684	1021.06
335.912	1054.06
336.14	1016.06
336.369	987.06
336.597	997.06
336.825	1020.06
337.053	999.06
337.281	997.06
337.51	960.06
337.738	946.06
337.966	929.06
338.194	936.06
338.422	918.06
338.65	924.06
338.878	913.06
339.106	903.06
339.334	923.06
339.562	898.06
339.79	904.06
340.018	869.06
340.246	862.06
340.474	884.06
340.702	869.06
340.93	870.06
341.158	875.06
341.386	885.06
341.614	892.06
341.842	875.06
342.07	837.06
342.298	858.06
342.526	851.06
342.754	874.06
342.981	890.06
343.209	885.06
343.437	928.06
343.665	978.06
343.893	1110.06
344.12	1104.06
344.348	1033.06
344.576	1012.06
344.804	954.06
345.031	886.06
345.259	900.06
345.487	895.06
345.714	885.06
345.942	846.06
346.17	859.06
346.397	880.06
346.625	868.06
346.853	852.06
347.08	856.06
347.308	824.06
347.535	847.06
347.763	836.06
347.99	837.06
348.218	841.06
348.445	862.06
348.673	841.06
348.9	820.06
349.128	839.06
349.355	845.06
349.583	837.06
349.81	839.06
350.037	827.06
350.265	804.06
350.492	813.06
350.72	816.06
350.947	826.06
351.174	817.06
351.402	820.06
351.629	795.06
351.856	821.06
352.083	822.06
352.311	804.06
352.538	784.06
352.765	837.06
352.992	789.06
353.22	820.06
353.447	792.06
353.674	789.06
353.901	794.06
354.128	821.06
354.355	820.06
354.583	837.06
354.81	783.06
355.037	807.06
355.264	807.06
355.491	809.06
355.718	809.06
355.945	807.06
356.172	832.06
356.399	824.06
356.626	829.06
356.853	805.06
357.08	822.06
357.307	816.06
357.534	818.06
357.761	821.06
357.988	828.06
358.215	781.06
358.441	800.06
358.668	819.06
358.895	832.06
359.122	826.06
359.349	817.06
359.576	824.06
359.802	826.06
360.029	801.06
360.256	836.06
360.483	813.06
360.709	813.06
360.936	807.06
361.163	793.06
361.39	832.06
361.616	786.06
361.843	806.06
362.07	803.06
362.296	809.06
362.523	812.06
362.749	801.06
362.976	781.06
363.203	792.06
363.429	797.06
363.656	823.06
363.882	812.06
364.109	810.06
364.335	808.06
364.562	786.06
364.788	823.06
365.015	794.06
365.241	808.06
365.468	816.06
365.694	793.06
365.92	807.06
366.147	810.06
366.373	824.06
366.599	788.06
366.826	814.06
367.052	806.06
367.278	821.06
367.505	820.06
367.731	833.06
367.957	818.06
368.184	817.06
368.41	829.06
368.636	807.06
368.862	798.06
369.089	776.06
369.315	834.06
369.541	836.06
369.767	842.06
369.993	860.06
370.219	834.06
370.445	826.06
370.672	872.06
370.898	883.06
371.124	892.06
371.35	903.06
371.576	886.06
371.802	882.06
372.028	873.06
372.254	891.06
372.48	895.06
372.706	902.06
372.932	944.06
373.158	920.06
373.384	909.06
373.61	879.06
373.835	895.06
374.061	892.06
374.287	902.06
374.513	886.06
374.739	946.06
374.965	965.06
375.191	1001.06
375.416	958.06
375.642	952.06
375.868	928.06
376.094	952.06
376.319	920.06
376.545	897.06
376.771	889.06
376.997	910.06
377.222	877.06
377.448	898.06
377.674	912.06
377.899	883.06
378.125	865.06
378.35	839.06
378.576	863.06
378.802	852.06
379.027	892.06
379.253	879.06
379.478	871.06
379.704	904.06
379.929	886.06
380.155	885.06
380.38	856.06
380.606	880.06
380.831	864.06
381.057	896.06
381.282	876.06
381.507	858.06
381.733	898.06
381.958	892.06
382.184	898.06
382.409	931.06
382.634	946.06
382.86	909.06
383.085	944.06
383.31	959.06
383.535	974.06
383.761	981.06
383.986	1020.06
384.211	1034.06
384.436	1006.06
384.662	1046.06
384.887	1065.06
385.112	1048.06
385.337	1054.06
385.562	1049.06
385.787	1096.06
386.013	1086.06
386.238	1074.06
386.463	1061.06
386.688	1076.06
386.913	1061.06
387.138	1060.06
387.363	1043.06
387.588	1033.06
387.813	1051.06
388.038	1090.06
388.263	1056.06
388.488	1052.06
388.713	1044.06
388.938	1027.06
389.163	1017.06
389.387	1033.06
389.612	1036.06
389.837	1029.06
390.062	1050.06
390.287	1038.06
390.512	1064.06
390.736	1086.06
390.961	1056.06
391.186	1067.06
391.411	1121.06
391.636	1157.06
391.86	1172.06
392.085	1211.06
392.31	1186.06
392.534	1154.06
392.759	1145.06
392.984	1137.06
393.208	1115.06
393.433	1132.06
393.658	1129.06
393.882	1132.06
394.107	1116.06
394.331	1149.06
394.556	1118.06
394.78	1176.06
395.005	1170.06
395.229	1154.06
395.454	1171.06
395.678	1194.06
395.903	1206.06
396.127	1194.06
396.352	1116.06
396.576	1117.06
396.801	1116.06
397.025	1136.06
397.249	1164.06
397.474	1190.06
397.698	1168.06
397.922	1195.06
398.147	1159.06
398.371	1185.06
398.595	1232.06
398.82	1328.06
399.044	1408.06
399.268	1579.06
399.492	1831.06
399.717	2086.06
399.941	2046.06
400.165	1710.06
400.389	1584.06
400.613	1502.06
400.837	1408.06
401.062	1356.06
401.286	1366.06
401.51	1366.06
401.734	1329.06
401.958	1386.06
402.182	1352.06
402.406	1410.06
402.63	1426.06
402.854	1461.06
403.078	1464.06
403.302	1490.06
403.526	1520.06
403.75	1512.06
403.974	1560.06
404.198	1581.06
404.422	1587.06
404.645	1581.06
404.869	1554.06
405.093	1523.06
405.317	1458.06
405.541	1476.06
405.765	1490.06
405.988	1448.06
406.212	1442.06
406.436	1485.06
406.66	1427.06
406.883	1541.06
407.107	1644.06
407.331	1676.06
407.555	1782.06
407.778	1728.06
408.002	1673.06
408.226	1611.06
408.449	1590.06
408.673	1546.06
408.896	1527.06
409.12	1496.06
409.344	1522.06
409.567	1510.06
409.791	1549.06
410.014	1525.06
410.238	1481.06
410.461	1465.06
410.685	1472.06
410.908	1458.06
411.132	1443.06
411.355	1404.06
411.578	1409.06
411.802	1422.06
412.025	1375.06
412.249	1410.06
412.472	1406.06
412.695	1339.06
412.919	1316.06
413.142	1324.06
413.365	1321.06
413.589	1348.06
413.812	1339.06
414.035	1268.06
414.258	1298.06
414.482	1315.06
414.705	1337.06
414.928	1382.06
415.151	1385.06
415.374	1360.06
415.597	1356.06
415.821	1328.06
416.044	1270.06
416.267	1280.06
416.49	1300.06
416.713	1292.06
416.936	1314.06
417.159	1298.06
417.382	1306.06
417.605	1278.06
417.828	1312.06
418.051	1309.06
418.274	1314.06
418.497	1280.06
418.72	1339.06
418.943	1360.06
419.166	1435.06
419.389	1534.06
419.611	1512.06
419.834	1429.06
420.057	1395.06
420.28	1347.06
420.503	1313.06
420.726	1280.06
420.948	1306.06
421.171	1318.06
421.394	1292.06
421.617	1296.06
421.839	1307.06
422.062	1345.06
422.285	1327.06
422.507	1370.06
422.73	1352.06
422.953	1364.06
423.175	1401.06
423.398	1389.06
423.621	1390.06
423.843	1420.06
424.066	1422.06
424.288	1427.06
424.511	1400.06
424.733	1401.06
424.956	1349.06
425.178	1343.06
425.401	1310.06
425.623	1321.06
425.846	1249.06
426.068	1290.06
426.291	1216.06
426.513	1242.06
426.735	1228.06
426.958	1229.06
427.18	1224.06
427.402	1214.06
427.625	1218.06
427.847	1167.06
428.069	1165.06
428.292	1183.06
428.514	1134.06
428.736	1150.06
428.958	1155.06
429.181	1156.06
429.403	1139.06
429.625	1148.06
429.847	1144.06
430.069	1125.06
430.292	1164.06
430.514	1120.06
430.736	1126.06
430.958	1156.06
431.18	1120.06
431.402	1152.06
431.624	1152.06
431.846	1149.06
432.068	1202.06
432.29	1172.06
432.512	1133.06
432.734	1186.06
432.956	1134.06
433.178	1154.06
433.4	1169.06
433.622	1187.06
433.844	1194.06
434.066	1203.06
434.287	1180.06
434.509	1237.06
434.731	1257.06
434.953	1341.06
435.175	1328.06
435.397	1312.06
435.618	1278.06
435.84	1184.06
436.062	1180.06
436.284	1193.06
436.505	1146.06
436.727	1157.06
436.949	1180.06
437.17	1181.06
437.392	1153.06
437.614	1164.06
437.835	1123.06
438.057	1115.06
438.278	1093.06
438.5	1115.06
438.721	1116.06
438.943	1148.06
439.165	1112.06
439.386	1150.06
439.608	1166.06
439.829	1114.06
440.05	1157.06
440.272	1184.06
440.493	1150.06
440.715	1187.06
440.936	1216.06
441.158	1234.06
441.379	1264.06
441.6	1323.06
441.822	1352.06
442.043	1307.06
442.264	1304.06
442.486	1262.06
442.707	1301.06
442.928	1286.06
443.149	1275.06
443.371	1285.06
443.592	1288.06
443.813	1319.06
444.034	1320.06
444.255	1385.06
444.476	1482.06
444.698	1535.06
444.919	1612.06
445.14	1614.06
445.361	1444.06
445.582	1341.06
445.803	1267.06
446.024	1244.06
446.245	1227.06
446.466	1189.06
446.687	1165.06
446.908	1178.06
447.129	1154.06
447.35	1133.06
447.571	1088.06
447.792	1100.06
448.013	1115.06
448.234	1107.06
448.455	1093.06
448.675	1085.06
448.896	1076.06
449.117	1073.06
449.338	1056.06
449.559	1021.06
449.779	1066.06
450	1024.06
450.221	1067.06
450.442	1078.06
450.662	1088.06
450.883	1078.06
451.104	1092.06
451.324	1115.06
451.545	1083.06
451.766	1111.06
451.986	1096.06
452.207	1042.06
452.428	1065.06
452.648	1074.06
452.869	1037.06
453.089	1036.06
453.31	1059.06
453.53	1049.06
453.751	1030.06
453.971	1029.06
454.192	1043.06
454.412	1017.06
454.633	1022.06
454.853	986.06
455.073	988.06
455.294	1023.06
455.514	1001.06
455.734	985.06
455.955	990.06
456.175	988.06
456.395	998.06
456.616	988.06
456.836	988.06
457.056	992.06
457.276	993.06
457.497	997.06
457.717	980.06
457.937	1005.06
458.157	1012.06
458.377	1039.06
458.598	1049.06
458.818	1061.06
459.038	1090.06
459.258	1140.06
459.478	1183.06
459.698	1188.06
459.918	1219.06
460.138	1286.06
460.358	1345.06
460.578	1372.06
460.798	1370.06
461.018	1381.06
461.238	1353.06
461.458	1356.06
461.678	1380.06
461.898	1414.06
462.118	1380.06
462.338	1484.06
462.558	1517.06
462.777	1577.06
462.997	1729.06
463.217	1877.06
463.437	1888.06
463.657	1697.06
463.876	1593.06
464.096	1615.06
464.316	1638.06
464.536	1618.06
464.755	1540.06
464.975	1485.06
465.195	1446.06
465.414	1354.06
465.634	1245.06
465.854	1209.06
466.073	1180.06
466.293	1172.06
466.512	1154.06
466.732	1121.06
466.951	1108.06
467.171	1113.06
467.391	1128.06
467.61	1130.06
467.829	1110.06
468.049	1082.06
468.268	1054.06
468.488	1080.06
468.707	1087.06
468.927	1069.06
469.146	1051.06
469.365	1072.06
469.585	1082.06
469.804	1112.06
470.023	1124.06
470.243	1140.06
470.462	1159.06
470.681	1156.06
470.901	1146.06
471.12	1136.06
471.339	1129.06
471.558	1106.06
471.777	1087.06
471.997	1105.06
472.216	1053.06
472.435	1052.06
472.654	1047.06
472.873	1021.06
473.092	1070.06
473.311	1037.06
473.53	1054.06
473.749	1056.06
473.968	1036.06
474.187	1053.06
474.406	1035.06
474.625	1061.06
474.844	1027.06
475.063	1053.06
475.282	1039.06
475.501	1024.06
475.72	1032.06
475.939	1052.06
476.158	1079.06
476.377	1066.06
476.596	1074.06
476.814	1067.06
477.033	1078.06
477.252	1099.06
477.471	1149.06
477.69	1156.06
477.908	1192.06
478.127	1217.06
478.346	1220.06
478.564	1292.06
478.783	1243.06
479.002	1333.06
479.22	1328.06
479.439	1312.06
479.658	1292.06
479.876	1312.06
480.095	1293.06
480.313	1364.06
480.532	1412.06
480.751	1387.06
480.969	1307.06
481.188	1266.06
481.406	1270.06
481.624	1224.06
481.843	1198.06
482.061	1177.06
482.28	1190.06
482.498	1170.06
482.717	1149.06
482.935	1166.06
483.153	1153.06
483.372	1187.06
483.59	1167.06
483.808	1144.06
484.027	1163.06
484.245	1174.06
484.463	1179.06
484.681	1228.06
484.9	1213.06
485.118	1238.06
485.336	1232.06
485.554	1227.06
485.772	1253.06
485.99	1242.06
486.209	1249.06
486.427	1222.06
486.645	1269.06
486.863	1238.06
487.081	1229.06
487.299	1246.06
487.517	1214.06
487.735	1245.06
487.953	1236.06
488.171	1254.06
488.389	1205.06
488.607	1216.06
488.825	1215.06
489.043	1177.06
489.261	1197.06
489.479	1203.06
489.696	1264.06
489.914	1216.06
490.132	1206.06
490.35	1239.06
490.568	1243.06
490.786	1228.06
491.003	1238.06
491.221	1256.06
491.439	1253.06
491.657	1276.06
491.874	1236.06
492.092	1248.06
492.31	1251.06
492.527	1265.06
492.745	1303.06
492.963	1269.06
493.18	1253.06
493.398	1292.06
493.615	1324.06
493.833	1316.06
494.05	1325.06
494.268	1276.06
494.485	1309.06
494.703	1325.06
494.92	1305.06
495.138	1273.06
495.355	1302.06
495.573	1313.06
495.79	1304.06
496.008	1301.06
496.225	1335.06
496.442	1339.06
496.66	1355.06
496.877	1376.06
497.094	1418.06
497.312	1450.06
497.529	1445.06
497.746	1511.06
497.963	1558.06
498.181	1618.06
498.398	1676.06
498.615	1778.06
498.832	1936.06
499.049	2058.06
499.267	2256.06
499.484	2438.06
499.701	2740.06
499.918	3023.06
500.135	3464.06
500.352	3950.06
500.569	4174.06
500.786	4101.06
501.003	3760.06
501.22	3366.06
501.437	2992.06
501.654	2567.06
501.871	2314.06
502.088	2186.06
502.305	2000.06
502.522	1927.06
502.739	1840.06
502.956	1715.06
503.172	1642.06
503.389	1532.06
503.606	1526.06
503.823	1525.06
504.04	1529.06
504.256	1536.06
504.473	1548.06
504.69	1636.06
504.907	1629.06
505.123	1482.06
505.34	1392.06
505.557	1325.06
505.773	1258.06
505.99	1237.06
506.207	1232.06
506.423	1191.06
506.64	1237.06
506.856	1180.06
507.073	1186.06
507.289	1194.06
507.506	1188.06
507.722	1172.06
507.939	1143.06
508.155	1108.06
508.372	1107.06
508.588	1114.06
508.805	1111.06
509.021	1110.06
509.238	1087.06
509.454	1067.06
509.67	1086.06
509.887	1094.06
510.103	1068.06
510.319	1042.06
510.536	1049.06
510.752	1051.06
510.968	1065.06
511.184	1058.06
511.401	1056.06
511.617	1062.06
511.833	1036.06
512.049	1046.06
512.265	1054.06
512.481	1053.06
512.698	1038.06
512.914	1061.06
513.13	1038.06
513.346	1076.06
513.562	1048.06
513.778	1061.06
513.994	1046.06
514.21	1044.06
514.426	1071.06
514.642	1068.06
514.858	1071.06
515.074	1094.06
515.29	1127.06
515.506	1126.06
515.721	1128.06
515.937	1134.06
516.153	1116.06
516.369	1174.06
516.585	1181.06
516.801	1274.06
517.016	1333.06
517.232	1368.06
517.448	1417.06
517.664	1542.06
517.879	1540.06
518.095	1502.06
518.311	1482.06
518.527	1400.06
518.742	1364.06
518.958	1275.06
519.173	1224.06
519.389	1178.06
519.605	1163.06
519.82	1133.06
520.036	1132.06
520.251	1088.06
520.467	1088.06
520.682	1050.06
520.898	1038.06
521.113	1068.06
521.329	1054.06
521.544	1016.06
521.76	1039.06
521.975	1024.06
522.19	1012.06
522.406	1021.06
522.621	995.06
522.836	997.06
523.052	981.06
523.267	970.06
523.482	974.06
523.698	972.06
523.913	950.06
524.128	970.06
524.343	970.06
524.559	957.06
524.774	970.06
524.989	965.06
525.204	977.06
525.419	953.06
525.634	932.06
525.849	963.06
526.064	949.06
526.28	969.06
526.495	935.06
526.71	956.06
526.925	946.06
527.14	954.06
527.355	946.06
527.57	948.06
527.785	941.06
527.999	928.06
528.214	950.06
528.429	962.06
528.644	967.06
528.859	946.06
529.074	944.06
529.289	958.06
529.503	951.06
529.718	972.06
529.933	928.06
530.148	961.06
530.363	950.06
530.577	948.06
530.792	936.06
531.007	914.06
531.221	952.06
531.436	918.06
531.651	974.06
531.865	970.06
532.08	951.06
532.295	1000.06
532.509	942.06
532.724	954.06
532.938	950.06
533.153	972.06
533.367	936.06
533.582	947.06
533.796	940.06
534.011	937.06
534.225	935.06
534.44	957.06
534.654	940.06
534.868	890.06
535.083	907.06
535.297	934.06
535.511	907.06
535.726	904.06
535.94	922.06
536.154	914.06
536.369	894.06
536.583	871.06
536.797	916.06
537.011	892.06
537.225	869.06
537.44	892.06
537.654	892.06
537.868	870.06
538.082	874.06
538.296	871.06
538.51	844.06
538.724	858.06
538.938	880.06
539.153	896.06
539.367	862.06
539.581	858.06
539.795	818.06
540.009	856.06
540.222	830.06
540.436	849.06
540.65	815.06
540.864	849.06
541.078	853.06
541.292	854.06
541.506	851.06
541.72	820.06
541.934	843.06
542.147	861.06
542.361	825.06
542.575	835.06
542.789	851.06
543.002	845.06
543.216	853.06
543.43	845.06
543.644	826.06
543.857	828.06
544.071	827.06
544.285	832.06
544.498	844.06
544.712	849.06
544.925	829.06
545.139	864.06
545.352	857.06
545.566	882.06
545.779	898.06
545.993	889.06
546.206	872.06
546.42	856.06
546.633	854.06
546.847	870.06
547.06	854.06
547.274	866.06
547.487	867.06
547.7	877.06
547.914	857.06
548.127	871.06
548.34	874.06
548.554	868.06
548.767	847.06
548.98	878.06
549.193	875.06
549.407	891.06
549.62	877.06
549.833	916.06
550.046	907.06
550.259	870.06
550.473	869.06
550.686	853.06
550.899	858.06
551.112	878.06
551.325	852.06
551.538	845.06
551.751	830.06
551.964	844.06
552.177	873.06
552.39	880.06
552.603	904.06
552.816	923.06
553.029	939.06
553.242	964.06
553.455	957.06
553.667	960.06
553.88	923.06
554.093	928.06
554.306	885.06
554.519	872.06
554.732	876.06
554.944	831.06
555.157	817.06
555.37	833.06
555.583	828.06
555.795	804.06
556.008	819.06
556.221	755.06
556.433	786.06
556.646	774.06
556.859	742.06
557.071	732.06
557.284	761.06
557.496	748.06
557.709	712.06
557.921	722.06
558.134	722.06
558.346	716.06
558.559	716.06
558.771	713.06
558.984	715.06
559.196	698.06
559.409	713.06
559.621	729.06
559.833	709.06
560.046	711.06
560.258	698.06
560.47	696.06
560.683	694.06
560.895	701.06
561.107	710.06
561.32	690.06
561.532	700.06
561.744	704.06
561.956	707.06
562.168	705.06
562.381	680.06
562.593	712.06
562.805	700.06
563.017	694.06
563.229	703.06
563.441	717.06
563.653	697.06
563.865	731.06
564.077	749.06
564.289	740.06
564.501	748.06
564.713	770.06
564.925	748.06
565.137	783.06
565.349	790.06
565.561	825.06
565.773	854.06
565.985	890.06
566.197	948.06
566.408	994.06
566.62	1068.06
566.832	1184.06
567.044	1193.06
567.255	1150.06
567.467	1252.06
567.679	1280.06
567.891	1374.06
568.102	1445.06
568.314	1397.06
568.526	1222.06
568.737	1088.06
568.949	1015.06
569.161	930.06
569.372	853.06
569.584	797.06
569.795	810.06
570.007	764.06
570.218	763.06
570.43	737.06
570.641	712.06
570.853	722.06
571.064	740.06
571.276	755.06
571.487	712.06
571.698	694.06
571.91	672.06
572.121	670.06
572.333	630.06
572.544	638.06
572.755	586.06
572.966	607.06
573.178	611.06
573.389	595.06
573.6	587.06
573.811	555.06
574.023	571.06
574.234	580.06
574.445	594.06
574.656	586.06
574.867	596.06
575.078	590.06
575.289	580.06
575.501	583.06
575.712	556.06
575.923	556.06
576.134	563.06
576.345	545.06
576.556	578.06
576.767	550.06
576.978	558.06
577.188	536.06
577.399	560.06
577.61	514.06
577.821	519.06
578.032	508.06
578.243	498.06
578.454	502.06
578.665	509.06
578.875	525.06
579.086	505.06
579.297	512.06
579.508	522.06
579.718	504.06
579.929	514.06
580.14	517.06
580.35	497.06
580.561	509.06
580.772	495.06
580.982	518.06
581.193	494.06
581.403	486.06
581.614	488.06
581.825	467.06
582.035	493.06
582.246	491.06
582.456	485.06
582.667	502.06
582.877	496.06
583.087	480.06
583.298	500.06
583.508	478.06
583.719	476.06
583.929	489.06
584.139	486.06
584.35	466.06
584.56	466.06
584.77	453.06
584.981	453.06
585.191	480.06
585.401	467.06
585.611	476.06
585.821	469.06
586.032	451.06
586.242	490.06
586.452	478.06
586.662	449.06
586.872	481.06
587.082	456.06
587.292	442.06
587.502	441.06
587.713	450.06
587.923	434.06
588.133	468.06
588.343	452.06
588.553	461.06
588.762	454.06
588.972	472.06
589.182	483.06
589.392	451.06
589.602	453.06
589.812	459.06
590.022	480.06
590.232	470.06
590.441	477.06
590.651	465.06
590.861	462.06
591.071	470.06
591.281	490.06
591.49	475.06
591.7	516.06
591.91	486.06
592.119	504.06
592.329	510.06
592.539	516.06
592.748	561.06
592.958	578.06
593.167	580.06
593.377	592.06
593.587	605.06
593.796	565.06
594.006	603.06
594.215	613.06
594.424	597.06
594.634	594.06
594.843	564.06
595.053	541.06
595.262	544.06
595.472	520.06
595.681	511.06
595.89	475.06
596.1	464.06
596.309	457.06
596.518	450.06
596.727	448.06
596.937	404.06
597.146	429.06
597.355	444.06
597.564	437.06
597.774	426.06
597.983	401.06
598.192	380.06
598.401	406.06
598.61	389.06
598.819	386.06
599.028	399.06
599.237	401.06
599.446	388.06
599.655	384.06
599.864	390.06
600.073	404.06
600.282	391.06
600.491	386.06
600.7	393.06
600.909	380.06
601.118	403.06
601.327	401.06
601.536	382.06
601.745	392.06
601.953	375.06
602.162	379.06
602.371	381.06
602.58	363.06
602.789	376.06
602.997	394.06
603.206	367.06
603.415	376.06
603.623	365.06
603.832	358.06
604.041	366.06
604.249	352.06
604.458	357.06
604.666	356.06
604.875	350.06
605.084	348.06
605.292	350.06
605.501	362.06
605.709	339.06
605.918	348.06
606.126	370.06
606.334	348.06
606.543	360.06
606.751	354.06
606.96	359.06
607.168	345.06
607.376	363.06
607.585	358.06
607.793	344.06
608.001	349.06
608.21	350.06
608.418	349.06
608.626	371.06
608.834	358.06
609.043	352.06
609.251	343.06
609.459	337.06
609.667	349.06
609.875	356.06
610.083	358.06
610.291	354.06
610.499	352.06
610.707	322.06
610.916	331.06
611.124	342.06
611.332	349.06
611.54	308.06
611.748	343.06
611.955	340.06
612.163	330.06
612.371	332.06
612.579	329.06
612.787	326.06
612.995	307.06
613.203	354.06
613.411	332.06
613.618	317.06
613.826	313.06
614.034	324.06
614.242	333.06
614.449	328.06
614.657	342.06
614.865	336.06
615.072	342.06
615.28	326.06
615.488	291.06
615.695	327.06
615.903	322.06
616.111	323.06
616.318	353.06
616.526	336.06
616.733	346.06
616.941	330.06
617.148	347.06
617.356	330.06
617.563	345.06
617.771	350.06
617.978	348.06
618.185	325.06
618.393	321.06
618.6	346.06
618.807	320.06
619.015	333.06
619.222	335.06
619.429	300.06
619.637	319.06
619.844	316.06
620.051	324.06
620.258	333.06
620.466	295.06
620.673	315.06
620.88	293.06
621.087	300.06
621.294	308.06
621.501	298.06
621.708	310.06
621.915	305.06
622.122	284.06
622.329	301.06
622.536	314.06
622.743	292.06
622.95	304.06
623.157	316.06
623.364	293.06
623.571	301.06
623.778	292.06
623.985	312.06
624.192	305.06
624.399	289.06
624.606	300.06
624.812	290.06
625.019	288.06
625.226	292.06
625.433	277.06
625.639	280.06
625.846	301.06
626.053	257.06
626.259	272.06
626.466	268.06
626.673	306.06
626.879	270.06
627.086	286.06
627.293	269.06
627.499	280.06
627.706	281.06
627.912	270.06
628.119	246.06
628.325	245.06
628.532	266.06
628.738	277.06
628.945	280.06
629.151	276.06
629.357	276.06
629.564	258.06
629.77	249.06
629.976	253.06
630.183	256.06
630.389	258.06
630.595	249.06
630.802	274.06
631.008	254.06
631.214	237.06
631.42	266.06
631.627	259.06
631.833	246.06
632.039	253.06
632.245	227.06
632.451	245.06
632.657	254.06
632.863	233.06
633.069	250.06
633.275	256.06
633.481	226.06
633.688	256.06
633.893	225.06
634.099	248.06
634.305	241.06
634.511	242.06
634.717	239.06
634.923	246.06
635.129	224.06
635.335	221.06
635.541	233.06
635.747	242.06
635.952	231.06
636.158	233.06
636.364	237.06
636.57	237.06
636.775	240.06
636.981	232.06
637.187	218.06
637.392	235.06
637.598	234.06
637.804	229.06
638.009	240.06
638.215	224.06
638.421	216.06
638.626	224.06
638.832	224.06
639.037	213.06
639.243	222.06
639.448	226.06
639.654	232.06
639.859	221.06
640.065	223.06
640.27	241.06
640.475	226.06
640.681	216.06
640.886	203.06
641.091	217.06
641.297	230.06
641.502	200.06
641.707	226.06
641.913	214.06
642.118	214.06
642.323	231.06
642.528	218.06
642.733	213.06
642.939	196.06
643.144	221.06
643.349	220.06
643.554	212.06
643.759	223.06
643.964	211.06
644.169	204.06
644.374	205.06
644.579	217.06
644.784	203.06
644.989	205.06
645.194	221.06
645.399	195.06
645.604	203.06
645.809	226.06
646.014	212.06
646.219	208.06
646.423	219.06
646.628	196.06
646.833	216.06
647.038	209.06
647.243	225.06
647.447	218.06
647.652	213.06
647.857	220.06
648.062	219.06
648.266	231.06
648.471	224.06
648.676	223.06
648.88	221.06
649.085	224.06
649.289	219.06
649.494	210.06
649.698	198.06
649.903	195.06
650.107	203.06
650.312	196.06
650.516	176.06
650.721	199.06
650.925	198.06
651.13	204.06
651.334	195.06
651.539	193.06
651.743	186.06
651.947	181.06
652.152	183.06
652.356	178.06
652.56	164.06
652.764	181.06
652.969	184.06
653.173	146.06
653.377	148.06
653.581	158.06
653.785	168.06
653.99	157.06
654.194	156.06
654.398	154.06
654.602	150.06
654.806	154.06
655.01	145.06
655.214	146.06
655.418	149.06
655.622	153.06
655.826	170.06
656.03	142.06
656.234	157.06
656.438	152.06
656.642	149.06
656.846	148.06
657.049	122.06
657.253	124.06
657.457	122.06
657.661	130.06
657.865	136.06
658.068	129.06
658.272	109.06
658.476	123.06
658.68	108.06
658.883	103.06
659.087	119.06
659.291	132.06
659.494	111.06
659.698	105.06
659.901	103.06
660.105	106.06
660.309	101.06
660.512	89.06
660.716	85.06
660.919	101.06
661.123	104.06
661.326	98.06
661.53	101.06
661.733	99.06
661.936	104.06
662.14	83.06
662.343	89.06
662.546	91.06
662.75	82.06
662.953	102.06
663.156	77.06
663.36	83.06
663.563	85.06
663.766	74.06
663.969	91.06
664.173	99.06
664.376	79.06
664.579	84.06
664.782	91.06
664.985	80.06
665.188	85.06
665.391	82.06
665.594	72.06
665.797	86.06
666	76.06
666.203	84.06
666.406	85.06
666.609	85.06
666.812	94.06
667.015	83.06
667.218	89.06
667.421	78.06
667.624	84.06
667.827	83.06
668.03	64.06
668.232	77.06
668.435	86.06
668.638	96.06
668.841	75.06
669.043	76.06
669.246	78.06
669.449	77.06
669.651	74.06
669.854	78.06
670.057	82.06
670.259	85.06
670.462	102.06
670.665	88.06
670.867	81.06
671.07	72.06
671.272	81.06
671.475	76.06
671.677	73.06
671.88	77.06
672.082	77.06
672.284	73.06
672.487	80.06
672.689	82.06
672.892	90.06
