Data from Ni(NO3)2@0.5M.TitratingCurve.Agarose3%dH2O.NegLispCup.LampEnergy10.LIBS07252019_HRD10591_17-57-31-564.txt Node
Date: Thu Jul 25 17:57:31 EDT 2019
User: cochatt
Spectrometer: HR+D1059
Trigger mode: 1
Integration Time (sec): 1.000000E-1
Scans to average: 1
Electric dark correction enabled: true
Nonlinearity correction enabled: false
Boxcar width: 0
XAxis mode: Wavelengths
Number of Pixels in Spectrum: 2048
>>>>>Begin Spectral Data<<<<<
223.165	-27.25
223.4	-27.25
223.635	-27.25
223.869	-11.25
224.104	-21.25
224.338	-8.25
224.573	-10.25
224.808	-8.25
225.042	-6.25
225.277	-3.25
225.511	-14.25
225.746	4.75
225.98	8.75
226.215	16.75
226.449	8.75
226.683	7.75
226.918	23.75
227.152	39.75
227.387	38.75
227.621	53.75
227.856	53.75
228.09	45.75
228.324	67.75
228.559	58.75
228.793	77.75
229.027	121.75
229.262	142.75
229.496	145.75
229.73	135.75
229.964	163.75
230.199	163.75
230.433	170.75
230.667	188.75
230.901	179.75
231.136	169.75
231.37	189.75
231.604	183.75
231.838	191.75
232.072	193.75
232.306	188.75
232.541	189.75
232.775	163.75
233.009	163.75
233.243	174.75
233.477	167.75
233.711	183.75
233.945	180.75
234.179	191.75
234.413	179.75
234.647	192.75
234.881	204.75
235.115	200.75
235.349	189.75
235.583	206.75
235.817	198.75
236.051	184.75
236.285	183.75
236.519	176.75
236.753	188.75
236.987	200.75
237.221	190.75
237.455	177.75
237.689	209.75
237.922	194.75
238.156	218.75
238.39	180.75
238.624	176.75
238.858	201.75
239.091	211.75
239.325	199.75
239.559	213.75
239.793	230.75
240.027	231.75
240.26	219.75
240.494	223.75
240.728	214.75
240.961	214.75
241.195	236.75
241.429	213.75
241.662	231.75
241.896	234.75
242.13	261.75
242.363	246.75
242.597	239.75
242.83	247.75
243.064	254.75
243.298	257.75
243.531	248.75
243.765	252.75
243.998	252.75
244.232	264.75
244.465	264.75
244.699	272.75
244.932	257.75
245.166	268.75
245.399	276.75
245.633	280.75
245.866	272.75
246.099	263.75
246.333	280.75
246.566	291.75
246.8	300.75
247.033	302.75
247.266	291.75
247.5	283.75
247.733	293.75
247.966	301.75
248.2	290.75
248.433	304.75
248.666	303.75
248.899	316.75
249.133	309.75
249.366	323.75
249.599	316.75
249.832	337.75
250.066	316.75
250.299	318.75
250.532	321.75
250.765	333.75
250.998	356.75
251.231	358.75
251.465	351.75
251.698	371.75
251.931	365.75
252.164	364.75
252.397	388.75
252.63	355.75
252.863	374.75
253.096	385.75
253.329	361.75
253.562	381.75
253.795	379.75
254.028	382.75
254.261	388.75
254.494	376.75
254.727	396.75
254.96	393.75
255.193	392.75
255.426	407.75
255.659	392.75
255.892	387.75
256.124	431.75
256.357	423.75
256.59	420.75
256.823	424.75
257.056	421.75
257.289	425.75
257.521	436.75
257.754	413.75
257.987	411.75
258.22	427.75
258.452	447.75
258.685	447.75
258.918	443.75
259.151	450.75
259.383	456.75
259.616	475.75
259.849	445.75
260.081	478.75
260.314	461.75
260.547	455.75
260.779	464.75
261.012	478.75
261.244	477.75
261.477	487.75
261.71	479.75
261.942	464.75
262.175	458.75
262.407	469.75
262.64	479.75
262.872	492.75
263.105	491.75
263.337	499.75
263.57	508.75
263.802	491.75
264.035	501.75
264.267	503.75
264.499	501.75
264.732	508.75
264.964	519.75
265.197	522.75
265.429	516.75
265.661	508.75
265.894	547.75
266.126	519.75
266.358	525.75
266.591	524.75
266.823	516.75
267.055	527.75
267.287	536.75
267.52	512.75
267.752	537.75
267.984	540.75
268.216	541.75
268.448	516.75
268.681	555.75
268.913	567.75
269.145	548.75
269.377	527.75
269.609	553.75
269.841	557.75
270.073	570.75
270.306	555.75
270.538	556.75
270.77	539.75
271.002	570.75
271.234	560.75
271.466	568.75
271.698	575.75
271.93	558.75
272.162	585.75
272.394	581.75
272.626	564.75
272.858	583.75
273.09	608.75
273.322	572.75
273.553	580.75
273.785	575.75
274.017	590.75
274.249	597.75
274.481	588.75
274.713	586.75
274.945	605.75
275.176	616.75
275.408	593.75
275.64	610.75
275.872	589.75
276.104	611.75
276.335	600.75
276.567	627.75
276.799	606.75
277.031	622.75
277.262	625.75
277.494	612.75
277.726	649.75
277.957	631.75
278.189	617.75
278.421	639.75
278.652	645.75
278.884	635.75
279.115	638.75
279.347	630.75
279.579	664.75
279.81	619.75
280.042	637.75
280.273	666.75
280.505	673.75
280.736	668.75
280.968	656.75
281.199	656.75
281.431	668.75
281.662	633.75
281.894	649.75
282.125	657.75
282.356	667.75
282.588	657.75
282.819	661.75
283.051	661.75
283.282	641.75
283.513	685.75
283.745	679.75
283.976	665.75
284.207	657.75
284.439	678.75
284.67	679.75
284.901	674.75
285.132	678.75
285.364	689.75
285.595	688.75
285.826	682.75
286.057	705.75
286.288	695.75
286.52	719.75
286.751	707.75
286.982	711.75
287.213	693.75
287.444	700.75
287.675	705.75
287.906	704.75
288.138	718.75
288.369	710.75
288.6	730.75
288.831	702.75
289.062	726.75
289.293	719.75
289.524	705.75
289.755	713.75
289.986	694.75
290.217	729.75
290.448	732.75
290.679	711.75
290.91	745.75
291.141	710.75
291.371	741.75
291.602	757.75
291.833	724.75
292.064	730.75
292.295	744.75
292.526	735.75
292.757	735.75
292.987	712.75
293.218	719.75
293.449	727.75
293.68	717.75
293.91	704.75
294.141	739.75
294.372	736.75
294.603	735.75
294.833	750.75
295.064	740.75
295.295	758.75
295.525	728.75
295.756	734.75
295.987	724.75
296.217	736.75
296.448	728.75
296.679	757.75
296.909	736.75
297.14	753.75
297.37	768.75
297.601	774.75
297.831	745.75
298.062	757.75
298.292	773.75
298.523	781.75
298.753	764.75
298.984	776.75
299.214	796.75
299.445	775.75
299.675	782.75
299.905	799.75
300.136	780.75
300.366	819.75
300.597	805.75
300.827	813.75
301.057	809.75
301.288	778.75
301.518	804.75
301.748	781.75
301.979	808.75
302.209	783.75
302.439	809.75
302.669	791.75
302.9	804.75
303.13	811.75
303.36	829.75
303.59	804.75
303.82	825.75
304.051	848.75
304.281	850.75
304.511	828.75
304.741	834.75
304.971	820.75
305.201	843.75
305.431	825.75
305.661	860.75
305.891	857.75
306.121	853.75
306.352	852.75
306.582	831.75
306.812	843.75
307.042	833.75
307.272	832.75
307.502	843.75
307.731	847.75
307.961	833.75
308.191	875.75
308.421	855.75
308.651	827.75
308.881	834.75
309.111	842.75
309.341	826.75
309.571	848.75
309.8	852.75
310.03	891.75
310.26	895.75
310.49	878.75
310.72	905.75
310.949	872.75
311.179	896.75
311.409	885.75
311.639	880.75
311.868	899.75
312.098	923.75
312.328	919.75
312.557	922.75
312.787	907.75
313.017	905.75
313.246	940.75
313.476	929.75
313.706	925.75
313.935	922.75
314.165	931.75
314.394	924.75
314.624	941.75
314.853	915.75
315.083	943.75
315.312	920.75
315.542	910.75
315.771	940.75
316.001	934.75
316.23	928.75
316.46	951.75
316.689	951.75
316.919	980.75
317.148	977.75
317.377	979.75
317.607	967.75
317.836	975.75
318.065	977.75
318.295	979.75
318.524	992.75
318.753	966.75
318.983	973.75
319.212	945.75
319.441	982.75
319.67	995.75
319.9	966.75
320.129	1007.75
320.358	1019.75
320.587	1003.75
320.816	1035.75
321.046	1033.75
321.275	1009.75
321.504	1008.75
321.733	1016.75
321.962	1017.75
322.191	1037.75
322.42	1043.75
322.649	1029.75
322.878	1076.75
323.108	1040.75
323.337	1043.75
323.566	1081.75
323.795	1050.75
324.024	1064.75
324.253	1047.75
324.482	1072.75
324.71	1059.75
324.939	1057.75
325.168	1081.75
325.397	1076.75
325.626	1083.75
325.855	1094.75
326.084	1083.75
326.313	1089.75
326.542	1079.75
326.77	1102.75
326.999	1078.75
327.228	1144.75
327.457	1084.75
327.686	1117.75
327.914	1125.75
328.143	1140.75
328.372	1100.75
328.6	1111.75
328.829	1125.75
329.058	1114.75
329.287	1114.75
329.515	1115.75
329.744	1133.75
329.972	1148.75
330.201	1116.75
330.43	1159.75
330.658	1149.75
330.887	1155.75
331.115	1161.75
331.344	1149.75
331.572	1123.75
331.801	1152.75
332.03	1161.75
332.258	1184.75
332.486	1153.75
332.715	1179.75
332.943	1183.75
333.172	1167.75
333.4	1176.75
333.629	1157.75
333.857	1180.75
334.085	1192.75
334.314	1216.75
334.542	1171.75
334.771	1214.75
334.999	1196.75
335.227	1232.75
335.455	1207.75
335.684	1191.75
335.912	1221.75
336.14	1237.75
336.369	1231.75
336.597	1187.75
336.825	1244.75
337.053	1271.75
337.281	1265.75
337.51	1235.75
337.738	1232.75
337.966	1229.75
338.194	1230.75
338.422	1228.75
338.65	1211.75
338.878	1220.75
339.106	1240.75
339.334	1252.75
339.562	1248.75
339.79	1179.75
340.018	1235.75
340.246	1190.75
340.474	1211.75
340.702	1224.75
340.93	1229.75
341.158	1207.75
341.386	1254.75
341.614	1254.75
341.842	1241.75
342.07	1220.75
342.298	1218.75
342.526	1229.75
342.754	1199.75
342.981	1222.75
343.209	1190.75
343.437	1217.75
343.665	1233.75
343.893	1231.75
344.12	1222.75
344.348	1215.75
344.576	1210.75
344.804	1262.75
345.031	1215.75
345.259	1232.75
345.487	1221.75
345.714	1252.75
345.942	1245.75
346.17	1209.75
346.397	1231.75
346.625	1176.75
346.853	1212.75
347.08	1217.75
347.308	1165.75
347.535	1185.75
347.763	1199.75
347.99	1182.75
348.218	1166.75
348.445	1178.75
348.673	1195.75
348.9	1194.75
349.128	1179.75
349.355	1223.75
349.583	1176.75
349.81	1182.75
350.037	1173.75
350.265	1191.75
350.492	1169.75
350.72	1161.75
350.947	1166.75
351.174	1187.75
351.402	1226.75
351.629	1232.75
351.856	1191.75
352.083	1155.75
352.311	1195.75
352.538	1234.75
352.765	1225.75
352.992	1201.75
353.22	1149.75
353.447	1128.75
353.674	1191.75
353.901	1159.75
354.128	1155.75
354.355	1153.75
354.583	1154.75
354.81	1169.75
355.037	1158.75
355.264	1159.75
355.491	1126.75
355.718	1134.75
355.945	1140.75
356.172	1131.75
356.399	1179.75
356.626	1163.75
356.853	1196.75
357.08	1175.75
357.307	1132.75
357.534	1176.75
357.761	1117.75
357.988	1147.75
358.215	1167.75
358.441	1155.75
358.668	1161.75
358.895	1130.75
359.122	1157.75
359.349	1163.75
359.576	1167.75
359.802	1173.75
360.029	1143.75
360.256	1165.75
360.483	1163.75
360.709	1121.75
360.936	1147.75
361.163	1184.75
361.39	1164.75
361.616	1171.75
361.843	1200.75
362.07	1194.75
362.296	1180.75
362.523	1169.75
362.749	1160.75
362.976	1128.75
363.203	1169.75
363.429	1151.75
363.656	1161.75
363.882	1112.75
364.109	1139.75
364.335	1152.75
364.562	1161.75
364.788	1169.75
365.015	1181.75
365.241	1154.75
365.468	1175.75
365.694	1168.75
365.92	1162.75
366.147	1146.75
366.373	1180.75
366.599	1145.75
366.826	1153.75
367.052	1179.75
367.278	1177.75
367.505	1164.75
367.731	1171.75
367.957	1145.75
368.184	1165.75
368.41	1155.75
368.636	1166.75
368.862	1200.75
369.089	1160.75
369.315	1163.75
369.541	1185.75
369.767	1159.75
369.993	1165.75
370.219	1192.75
370.445	1183.75
370.672	1183.75
370.898	1204.75
371.124	1182.75
371.35	1172.75
371.576	1185.75
371.802	1173.75
372.028	1197.75
372.254	1185.75
372.48	1189.75
372.706	1157.75
372.932	1174.75
373.158	1175.75
373.384	1154.75
373.61	1161.75
373.835	1194.75
374.061	1199.75
374.287	1187.75
374.513	1194.75
374.739	1182.75
374.965	1208.75
375.191	1184.75
375.416	1199.75
375.642	1203.75
375.868	1183.75
376.094	1163.75
376.319	1132.75
376.545	1156.75
376.771	1158.75
376.997	1172.75
377.222	1131.75
377.448	1166.75
377.674	1181.75
377.899	1150.75
378.125	1195.75
378.35	1169.75
378.576	1140.75
378.802	1163.75
379.027	1161.75
379.253	1173.75
379.478	1147.75
379.704	1181.75
379.929	1164.75
380.155	1175.75
380.38	1148.75
380.606	1159.75
380.831	1150.75
381.057	1176.75
381.282	1121.75
381.507	1148.75
381.733	1166.75
381.958	1154.75
382.184	1171.75
382.409	1173.75
382.634	1147.75
382.86	1161.75
383.085	1153.75
383.31	1152.75
383.535	1196.75
383.761	1159.75
383.986	1189.75
384.211	1200.75
384.436	1201.75
384.662	1179.75
384.887	1129.75
385.112	1175.75
385.337	1205.75
385.562	1221.75
385.787	1195.75
386.013	1221.75
386.238	1208.75
386.463	1175.75
386.688	1200.75
386.913	1183.75
387.138	1203.75
387.363	1244.75
387.588	1207.75
387.813	1205.75
388.038	1192.75
388.263	1206.75
388.488	1209.75
388.713	1216.75
388.938	1225.75
389.163	1181.75
389.387	1237.75
389.612	1260.75
389.837	1233.75
390.062	1211.75
390.287	1234.75
390.512	1199.75
390.736	1219.75
390.961	1237.75
391.186	1219.75
391.411	1196.75
391.636	1222.75
391.86	1193.75
392.085	1214.75
392.31	1189.75
392.534	1227.75
392.759	1235.75
392.984	1222.75
393.208	1255.75
393.433	1254.75
393.658	1235.75
393.882	1225.75
394.107	1208.75
394.331	1205.75
394.556	1211.75
394.78	1218.75
395.005	1208.75
395.229	1216.75
395.454	1199.75
395.678	1217.75
395.903	1244.75
396.127	1253.75
396.352	1224.75
396.576	1245.75
396.801	1234.75
397.025	1275.75
397.249	1248.75
397.474	1247.75
397.698	1257.75
397.922	1264.75
398.147	1226.75
398.371	1274.75
398.595	1291.75
398.82	1284.75
399.044	1299.75
399.268	1293.75
399.492	1308.75
399.717	1317.75
399.941	1337.75
400.165	1321.75
400.389	1342.75
400.613	1301.75
400.837	1323.75
401.062	1267.75
401.286	1284.75
401.51	1297.75
401.734	1307.75
401.958	1312.75
402.182	1335.75
402.406	1318.75
402.63	1306.75
402.854	1303.75
403.078	1308.75
403.302	1275.75
403.526	1316.75
403.75	1315.75
403.974	1333.75
404.198	1294.75
404.422	1305.75
404.645	1325.75
404.869	1284.75
405.093	1301.75
405.317	1274.75
405.541	1318.75
405.765	1337.75
405.988	1313.75
406.212	1342.75
406.436	1349.75
406.66	1364.75
406.883	1334.75
407.107	1376.75
407.331	1361.75
407.555	1373.75
407.778	1383.75
408.002	1365.75
408.226	1354.75
408.449	1404.75
408.673	1361.75
408.896	1369.75
409.12	1340.75
409.344	1383.75
409.567	1347.75
409.791	1345.75
410.014	1383.75
410.238	1374.75
410.461	1326.75
410.685	1352.75
410.908	1335.75
411.132	1339.75
411.355	1311.75
411.578	1348.75
411.802	1342.75
412.025	1315.75
412.249	1299.75
412.472	1343.75
412.695	1353.75
412.919	1317.75
413.142	1315.75
413.365	1303.75
413.589	1354.75
413.812	1357.75
414.035	1301.75
414.258	1285.75
414.482	1268.75
414.705	1303.75
414.928	1263.75
415.151	1298.75
415.374	1302.75
415.597	1263.75
415.821	1271.75
416.044	1270.75
416.267	1285.75
416.49	1286.75
416.713	1277.75
416.936	1253.75
417.159	1277.75
417.382	1269.75
417.605	1257.75
417.828	1284.75
418.051	1259.75
418.274	1270.75
418.497	1245.75
418.72	1244.75
418.943	1232.75
419.166	1261.75
419.389	1382.75
419.611	1347.75
419.834	1316.75
420.057	1303.75
420.28	1289.75
420.503	1234.75
420.726	1251.75
420.948	1244.75
421.171	1224.75
421.394	1270.75
421.617	1261.75
421.839	1278.75
422.062	1248.75
422.285	1237.75
422.507	1285.75
422.73	1256.75
422.953	1277.75
423.175	1247.75
423.398	1275.75
423.621	1271.75
423.843	1246.75
424.066	1256.75
424.288	1273.75
424.511	1233.75
424.733	1233.75
424.956	1255.75
425.178	1278.75
425.401	1260.75
425.623	1278.75
425.846	1230.75
426.068	1271.75
426.291	1246.75
426.513	1271.75
426.735	1273.75
426.958	1288.75
427.18	1211.75
427.402	1273.75
427.625	1255.75
427.847	1230.75
428.069	1237.75
428.292	1256.75
428.514	1245.75
428.736	1247.75
428.958	1251.75
429.181	1241.75
429.403	1264.75
429.625	1246.75
429.847	1289.75
430.069	1241.75
430.292	1232.75
430.514	1272.75
430.736	1241.75
430.958	1287.75
431.18	1258.75
431.402	1281.75
431.624	1264.75
431.846	1255.75
432.068	1230.75
432.29	1263.75
432.512	1250.75
432.734	1247.75
432.956	1264.75
433.178	1298.75
433.4	1269.75
433.622	1307.75
433.844	1289.75
434.066	1309.75
434.287	1257.75
434.509	1261.75
434.731	1229.75
434.953	1267.75
435.175	1276.75
435.397	1284.75
435.618	1270.75
435.84	1275.75
436.062	1260.75
436.284	1249.75
436.505	1245.75
436.727	1235.75
436.949	1262.75
437.17	1257.75
437.392	1221.75
437.614	1216.75
437.835	1207.75
438.057	1208.75
438.278	1220.75
438.5	1206.75
438.721	1229.75
438.943	1231.75
439.165	1204.75
439.386	1244.75
439.608	1263.75
439.829	1244.75
440.05	1232.75
440.272	1234.75
440.493	1283.75
440.715	1258.75
440.936	1232.75
441.158	1271.75
441.379	1264.75
441.6	1265.75
441.822	1272.75
442.043	1273.75
442.264	1235.75
442.486	1247.75
442.707	1267.75
442.928	1253.75
443.149	1268.75
443.371	1256.75
443.592	1305.75
443.813	1310.75
444.034	1251.75
444.255	1213.75
444.476	1247.75
444.698	1286.75
444.919	1306.75
445.14	1425.75
445.361	1360.75
445.582	1270.75
445.803	1260.75
446.024	1239.75
446.245	1264.75
446.466	1268.75
446.687	1198.75
446.908	1259.75
447.129	1194.75
447.35	1215.75
447.571	1229.75
447.792	1211.75
448.013	1220.75
448.234	1181.75
448.455	1155.75
448.675	1191.75
448.896	1181.75
449.117	1166.75
449.338	1180.75
449.559	1175.75
449.779	1134.75
450	1149.75
450.221	1152.75
450.442	1161.75
450.662	1168.75
450.883	1167.75
451.104	1173.75
451.324	1143.75
451.545	1157.75
451.766	1116.75
451.986	1143.75
452.207	1155.75
452.428	1136.75
452.648	1143.75
452.869	1131.75
453.089	1101.75
453.31	1137.75
453.53	1106.75
453.751	1121.75
453.971	1131.75
454.192	1153.75
454.412	1133.75
454.633	1121.75
454.853	1114.75
455.073	1123.75
455.294	1129.75
455.514	1151.75
455.734	1140.75
455.955	1107.75
456.175	1129.75
456.395	1148.75
456.616	1128.75
456.836	1118.75
457.056	1146.75
457.276	1119.75
457.497	1173.75
457.717	1159.75
457.937	1145.75
458.157	1148.75
458.377	1132.75
458.598	1137.75
458.818	1153.75
459.038	1134.75
459.258	1136.75
459.478	1190.75
459.698	1240.75
459.918	1230.75
460.138	1189.75
460.358	1188.75
460.578	1191.75
460.798	1241.75
461.018	1254.75
461.238	1237.75
461.458	1223.75
461.678	1206.75
461.898	1218.75
462.118	1235.75
462.338	1220.75
462.558	1265.75
462.777	1318.75
462.997	1277.75
463.217	1298.75
463.437	1333.75
463.657	1309.75
463.876	1241.75
464.096	1240.75
464.316	1260.75
464.536	1286.75
464.755	1240.75
464.975	1240.75
465.195	1230.75
465.414	1218.75
465.634	1214.75
465.854	1218.75
466.073	1217.75
466.293	1205.75
466.512	1180.75
466.732	1175.75
466.951	1199.75
467.171	1212.75
467.391	1193.75
467.61	1205.75
467.829	1167.75
468.049	1163.75
468.268	1190.75
468.488	1179.75
468.707	1161.75
468.927	1192.75
469.146	1185.75
469.365	1207.75
469.585	1208.75
469.804	1195.75
470.023	1207.75
470.243	1207.75
470.462	1208.75
470.681	1262.75
470.901	1211.75
471.12	1223.75
471.339	1208.75
471.558	1238.75
471.777	1181.75
471.997	1210.75
472.216	1197.75
472.435	1195.75
472.654	1207.75
472.873	1199.75
473.092	1217.75
473.311	1214.75
473.53	1205.75
473.749	1196.75
473.968	1195.75
474.187	1251.75
474.406	1199.75
474.625	1214.75
474.844	1272.75
475.063	1245.75
475.282	1249.75
475.501	1287.75
475.72	1283.75
475.939	1245.75
476.158	1299.75
476.377	1284.75
476.596	1285.75
476.814	1294.75
477.033	1282.75
477.252	1313.75
477.471	1349.75
477.69	1367.75
477.908	1347.75
478.127	1359.75
478.346	1348.75
478.564	1405.75
478.783	1379.75
479.002	1376.75
479.22	1437.75
479.439	1427.75
479.658	1408.75
479.876	1388.75
480.095	1407.75
480.313	1445.75
480.532	1452.75
480.751	1418.75
480.969	1401.75
481.188	1425.75
481.406	1398.75
481.624	1401.75
481.843	1435.75
482.061	1402.75
482.28	1457.75
482.498	1454.75
482.717	1463.75
482.935	1467.75
483.153	1486.75
483.372	1495.75
483.59	1549.75
483.808	1499.75
484.027	1443.75
484.245	1456.75
484.463	1469.75
484.681	1532.75
484.9	1481.75
485.118	1505.75
485.336	1464.75
485.554	1472.75
485.772	1513.75
485.99	1484.75
486.209	1500.75
486.427	1488.75
486.645	1487.75
486.863	1493.75
487.081	1505.75
487.299	1481.75
487.517	1523.75
487.735	1548.75
487.953	1569.75
488.171	1576.75
488.389	1573.75
488.607	1501.75
488.825	1518.75
489.043	1509.75
489.261	1467.75
489.479	1523.75
489.696	1557.75
489.914	1528.75
490.132	1509.75
490.35	1563.75
490.568	1590.75
490.786	1551.75
491.003	1580.75
491.221	1546.75
491.439	1557.75
491.657	1565.75
491.874	1546.75
492.092	1576.75
492.31	1598.75
492.527	1573.75
492.745	1586.75
492.963	1580.75
493.18	1584.75
493.398	1588.75
493.615	1572.75
493.833	1587.75
494.05	1599.75
494.268	1557.75
494.485	1542.75
494.703	1564.75
494.92	1587.75
495.138	1563.75
495.355	1587.75
495.573	1568.75
495.79	1573.75
496.008	1582.75
496.225	1571.75
496.442	1595.75
496.66	1613.75
496.877	1599.75
497.094	1596.75
497.312	1640.75
497.529	1624.75
497.746	1615.75
497.963	1628.75
498.181	1659.75
498.398	1633.75
498.615	1659.75
498.832	1673.75
499.049	1682.75
499.267	1715.75
499.484	1728.75
499.701	1744.75
499.918	1745.75
500.135	1816.75
500.352	1797.75
500.569	1857.75
500.786	1772.75
501.003	1818.75
501.22	1764.75
501.437	1809.75
501.654	1737.75
501.871	1738.75
502.088	1744.75
502.305	1701.75
502.522	1651.75
502.739	1671.75
502.956	1641.75
503.172	1613.75
503.389	1601.75
503.606	1594.75
503.823	1591.75
504.04	1515.75
504.256	1531.75
504.473	1537.75
504.69	1492.75
504.907	1520.75
505.123	1484.75
505.34	1485.75
505.557	1471.75
505.773	1486.75
505.99	1468.75
506.207	1482.75
506.423	1409.75
506.64	1431.75
506.856	1416.75
507.073	1398.75
507.289	1382.75
507.506	1419.75
507.722	1383.75
507.939	1376.75
508.155	1391.75
508.372	1374.75
508.588	1349.75
508.805	1369.75
509.021	1328.75
509.238	1364.75
509.454	1311.75
509.67	1335.75
509.887	1325.75
510.103	1334.75
510.319	1286.75
510.536	1324.75
510.752	1275.75
510.968	1310.75
511.184	1299.75
511.401	1262.75
511.617	1274.75
511.833	1293.75
512.049	1304.75
512.265	1297.75
512.481	1273.75
512.698	1290.75
512.914	1327.75
513.13	1283.75
513.346	1272.75
513.562	1249.75
513.778	1281.75
513.994	1256.75
514.21	1288.75
514.426	1256.75
514.642	1231.75
514.858	1281.75
515.074	1278.75
515.29	1279.75
515.506	1303.75
515.721	1272.75
515.937	1260.75
516.153	1291.75
516.369	1300.75
516.585	1285.75
516.801	1299.75
517.016	1288.75
517.232	1297.75
517.448	1271.75
517.664	1284.75
517.879	1260.75
518.095	1311.75
518.311	1299.75
518.527	1280.75
518.742	1285.75
518.958	1257.75
519.173	1297.75
519.389	1267.75
519.605	1260.75
519.82	1231.75
520.036	1261.75
520.251	1219.75
520.467	1242.75
520.682	1230.75
520.898	1243.75
521.113	1209.75
521.329	1228.75
521.544	1198.75
521.76	1204.75
521.975	1209.75
522.19	1208.75
522.406	1223.75
522.621	1204.75
522.836	1205.75
523.052	1169.75
523.267	1198.75
523.482	1152.75
523.698	1151.75
523.913	1160.75
524.128	1189.75
524.343	1201.75
524.559	1188.75
524.774	1163.75
524.989	1195.75
525.204	1152.75
525.419	1147.75
525.634	1161.75
525.849	1183.75
526.064	1181.75
526.28	1157.75
526.495	1161.75
526.71	1152.75
526.925	1141.75
527.14	1151.75
527.355	1122.75
527.57	1149.75
527.785	1181.75
527.999	1154.75
528.214	1150.75
528.429	1127.75
528.644	1125.75
528.859	1133.75
529.074	1167.75
529.289	1120.75
529.503	1144.75
529.718	1141.75
529.933	1113.75
530.148	1147.75
530.363	1131.75
530.577	1151.75
530.792	1097.75
531.007	1097.75
531.221	1123.75
531.436	1097.75
531.651	1100.75
531.865	1101.75
532.08	1119.75
532.295	1075.75
532.509	1092.75
532.724	1085.75
532.938	1091.75
533.153	1079.75
533.367	1077.75
533.582	1093.75
533.796	1080.75
534.011	1075.75
534.225	1077.75
534.44	1056.75
534.654	1096.75
534.868	1047.75
535.083	1077.75
535.297	1043.75
535.511	1077.75
535.726	1076.75
535.94	1077.75
536.154	1057.75
536.369	1030.75
536.583	1025.75
536.797	1059.75
537.011	1059.75
537.225	1046.75
537.44	1028.75
537.654	1043.75
537.868	1054.75
538.082	1062.75
538.296	1031.75
538.51	1011.75
538.724	1045.75
538.938	1018.75
539.153	1037.75
539.367	1027.75
539.581	1007.75
539.795	1019.75
540.009	1014.75
540.222	992.75
540.436	1001.75
540.65	1001.75
540.864	1005.75
541.078	1022.75
541.292	1015.75
541.506	1054.75
541.72	1002.75
541.934	999.75
542.147	1012.75
542.361	1033.75
542.575	1006.75
542.789	1008.75
543.002	1005.75
543.216	972.75
543.43	969.75
543.644	950.75
543.857	984.75
544.071	981.75
544.285	987.75
544.498	979.75
544.712	971.75
544.925	995.75
545.139	973.75
545.352	996.75
545.566	981.75
545.779	968.75
545.993	988.75
546.206	1004.75
546.42	971.75
546.633	992.75
546.847	994.75
547.06	1001.75
547.274	999.75
547.487	990.75
547.7	951.75
547.914	965.75
548.127	971.75
548.34	964.75
548.554	981.75
548.767	965.75
548.98	983.75
549.193	970.75
549.407	933.75
549.62	926.75
549.833	947.75
550.046	941.75
550.259	931.75
550.473	937.75
550.686	949.75
550.899	932.75
551.112	928.75
551.325	904.75
551.538	938.75
551.751	915.75
551.964	907.75
552.177	921.75
552.39	916.75
552.603	931.75
552.816	924.75
553.029	935.75
553.242	939.75
553.455	927.75
553.667	925.75
553.88	922.75
554.093	911.75
554.306	899.75
554.519	914.75
554.732	902.75
554.944	900.75
555.157	899.75
555.37	871.75
555.583	874.75
555.795	869.75
556.008	870.75
556.221	849.75
556.433	860.75
556.646	849.75
556.859	862.75
557.071	837.75
557.284	852.75
557.496	855.75
557.709	822.75
557.921	848.75
558.134	828.75
558.346	823.75
558.559	867.75
558.771	835.75
558.984	821.75
559.196	814.75
559.409	821.75
559.621	789.75
559.833	812.75
560.046	814.75
560.258	801.75
560.47	805.75
560.683	808.75
560.895	807.75
561.107	783.75
561.32	804.75
561.532	791.75
561.744	805.75
561.956	811.75
562.168	793.75
562.381	793.75
562.593	797.75
562.805	810.75
563.017	811.75
563.229	820.75
563.441	802.75
563.653	807.75
563.865	780.75
564.077	807.75
564.289	816.75
564.501	798.75
564.713	799.75
564.925	796.75
565.137	791.75
565.349	791.75
565.561	805.75
565.773	793.75
565.985	831.75
566.197	801.75
566.408	814.75
566.62	831.75
566.832	814.75
567.044	800.75
567.255	837.75
567.467	830.75
567.679	785.75
567.891	814.75
568.102	801.75
568.314	771.75
568.526	756.75
568.737	775.75
568.949	748.75
569.161	719.75
569.372	726.75
569.584	721.75
569.795	733.75
570.007	727.75
570.218	717.75
570.43	720.75
570.641	716.75
570.853	697.75
571.064	714.75
571.276	695.75
571.487	695.75
571.698	679.75
571.91	674.75
572.121	695.75
572.333	673.75
572.544	682.75
572.755	681.75
572.966	662.75
573.178	674.75
573.389	658.75
573.6	663.75
573.811	645.75
574.023	651.75
574.234	631.75
574.445	616.75
574.656	635.75
574.867	642.75
575.078	647.75
575.289	627.75
575.501	632.75
575.712	617.75
575.923	607.75
576.134	592.75
576.345	601.75
576.556	602.75
576.767	607.75
576.978	614.75
577.188	601.75
577.399	581.75
577.61	583.75
577.821	577.75
578.032	603.75
578.243	591.75
578.454	593.75
578.665	596.75
578.875	574.75
579.086	586.75
579.297	590.75
579.508	572.75
579.718	559.75
579.929	581.75
580.14	570.75
580.35	559.75
580.561	580.75
580.772	565.75
580.982	565.75
581.193	529.75
581.403	573.75
581.614	563.75
581.825	569.75
582.035	554.75
582.246	527.75
582.456	538.75
582.667	539.75
582.877	555.75
583.087	549.75
583.298	530.75
583.508	528.75
583.719	523.75
583.929	535.75
584.139	535.75
584.35	536.75
584.56	539.75
584.77	535.75
584.981	517.75
585.191	511.75
585.401	508.75
585.611	527.75
585.821	545.75
586.032	521.75
586.242	515.75
586.452	503.75
586.662	502.75
586.872	519.75
587.082	516.75
587.292	516.75
587.502	496.75
587.713	524.75
587.923	522.75
588.133	496.75
588.343	524.75
588.553	496.75
588.762	493.75
588.972	499.75
589.182	565.75
589.392	544.75
589.602	517.75
589.812	533.75
590.022	514.75
590.232	501.75
590.441	509.75
590.651	501.75
590.861	503.75
591.071	491.75
591.281	511.75
591.49	483.75
591.7	481.75
591.91	483.75
592.119	480.75
592.329	481.75
592.539	487.75
592.748	497.75
592.958	479.75
593.167	480.75
593.377	484.75
593.587	491.75
593.796	479.75
594.006	463.75
594.215	489.75
594.424	465.75
594.634	485.75
594.843	473.75
595.053	455.75
595.262	459.75
595.472	458.75
595.681	466.75
595.89	452.75
596.1	459.75
596.309	459.75
596.518	452.75
596.727	446.75
596.937	464.75
597.146	452.75
597.355	459.75
597.564	452.75
597.774	444.75
597.983	425.75
598.192	453.75
598.401	423.75
598.61	448.75
598.819	447.75
599.028	428.75
599.237	427.75
599.446	427.75
599.655	441.75
599.864	419.75
600.073	436.75
600.282	407.75
600.491	401.75
600.7	403.75
600.909	443.75
601.118	421.75
601.327	407.75
601.536	432.75
601.745	423.75
601.953	417.75
602.162	415.75
602.371	415.75
602.58	428.75
602.789	413.75
602.997	399.75
603.206	398.75
603.415	401.75
603.623	413.75
603.832	403.75
604.041	356.75
604.249	385.75
604.458	385.75
604.666	392.75
604.875	373.75
605.084	411.75
605.292	391.75
605.501	408.75
605.709	391.75
605.918	393.75
606.126	397.75
606.334	391.75
606.543	393.75
606.751	391.75
606.96	394.75
607.168	404.75
607.376	388.75
607.585	390.75
607.793	388.75
608.001	371.75
608.21	373.75
608.418	394.75
608.626	368.75
608.834	401.75
609.043	389.75
609.251	382.75
609.459	389.75
609.667	371.75
609.875	389.75
610.083	405.75
610.291	384.75
610.499	362.75
610.707	377.75
610.916	345.75
611.124	381.75
611.332	391.75
611.54	375.75
611.748	378.75
611.955	366.75
612.163	361.75
612.371	379.75
612.579	371.75
612.787	388.75
612.995	364.75
613.203	357.75
613.411	363.75
613.618	347.75
613.826	367.75
614.034	366.75
614.242	357.75
614.449	356.75
614.657	361.75
614.865	336.75
615.072	370.75
615.28	355.75
615.488	349.75
615.695	373.75
615.903	355.75
616.111	375.75
616.318	353.75
616.526	361.75
616.733	367.75
616.941	348.75
617.148	348.75
617.356	324.75
617.563	340.75
617.771	358.75
617.978	347.75
618.185	354.75
618.393	331.75
618.6	339.75
618.807	361.75
619.015	339.75
619.222	333.75
619.429	347.75
619.637	333.75
619.844	330.75
620.051	348.75
620.258	329.75
620.466	315.75
620.673	333.75
620.88	319.75
621.087	336.75
621.294	336.75
621.501	334.75
621.708	328.75
621.915	321.75
622.122	315.75
622.329	310.75
622.536	343.75
622.743	327.75
622.95	327.75
623.157	351.75
623.364	315.75
623.571	315.75
623.778	325.75
623.985	327.75
624.192	331.75
624.399	319.75
624.606	316.75
624.812	303.75
625.019	307.75
625.226	285.75
625.433	305.75
625.639	315.75
625.846	330.75
626.053	294.75
626.259	296.75
626.466	311.75
626.673	285.75
626.879	300.75
627.086	293.75
627.293	327.75
627.499	326.75
627.706	306.75
627.912	290.75
628.119	312.75
628.325	325.75
628.532	317.75
628.738	320.75
628.945	293.75
629.151	295.75
629.357	288.75
629.564	300.75
629.77	280.75
629.976	307.75
630.183	292.75
630.389	293.75
630.595	305.75
630.802	285.75
631.008	283.75
631.214	271.75
631.42	275.75
631.627	284.75
631.833	283.75
632.039	273.75
632.245	267.75
632.451	270.75
632.657	291.75
632.863	273.75
633.069	299.75
633.275	280.75
633.481	265.75
633.688	286.75
633.893	279.75
634.099	276.75
634.305	283.75
634.511	274.75
634.717	297.75
634.923	281.75
635.129	270.75
635.335	281.75
635.541	277.75
635.747	276.75
635.952	256.75
636.158	260.75
636.364	270.75
636.57	251.75
636.775	272.75
636.981	264.75
637.187	266.75
637.392	265.75
637.598	275.75
637.804	263.75
638.009	258.75
638.215	273.75
638.421	262.75
638.626	253.75
638.832	257.75
639.037	254.75
639.243	248.75
639.448	272.75
639.654	261.75
639.859	260.75
640.065	247.75
640.27	268.75
640.475	249.75
640.681	246.75
640.886	246.75
641.091	260.75
641.297	265.75
641.502	241.75
641.707	247.75
641.913	257.75
642.118	247.75
642.323	258.75
642.528	255.75
642.733	249.75
642.939	246.75
643.144	249.75
643.349	240.75
643.554	261.75
643.759	246.75
643.964	241.75
644.169	234.75
644.374	238.75
644.579	248.75
644.784	244.75
644.989	239.75
645.194	241.75
645.399	243.75
645.604	264.75
645.809	252.75
646.014	248.75
646.219	239.75
646.423	233.75
646.628	236.75
646.833	258.75
647.038	258.75
647.243	245.75
647.447	247.75
647.652	246.75
647.857	254.75
648.062	251.75
648.266	262.75
648.471	244.75
648.676	259.75
648.88	264.75
649.085	261.75
649.289	254.75
649.494	247.75
649.698	267.75
649.903	238.75
650.107	261.75
650.312	238.75
650.516	240.75
650.721	257.75
650.925	268.75
651.13	248.75
651.334	243.75
651.539	250.75
651.743	241.75
651.947	231.75
652.152	230.75
652.356	236.75
652.56	253.75
652.764	232.75
652.969	250.75
653.173	238.75
653.377	235.75
653.581	228.75
653.785	230.75
653.99	208.75
654.194	235.75
654.398	213.75
654.602	236.75
654.806	235.75
655.01	230.75
655.214	220.75
655.418	238.75
655.622	225.75
655.826	209.75
656.03	224.75
656.234	243.75
656.438	232.75
656.642	237.75
656.846	228.75
657.049	213.75
657.253	216.75
657.457	196.75
657.661	195.75
657.865	176.75
658.068	179.75
658.272	179.75
658.476	160.75
658.68	161.75
658.883	171.75
659.087	148.75
659.291	125.75
659.494	127.75
659.698	127.75
659.901	115.75
660.105	136.75
660.309	129.75
660.512	127.75
660.716	107.75
660.919	119.75
661.123	119.75
661.326	120.75
661.53	112.75
661.733	107.75
661.936	104.75
662.14	104.75
662.343	104.75
662.546	89.75
662.75	94.75
662.953	102.75
663.156	101.75
663.36	85.75
663.563	80.75
663.766	90.75
663.969	92.75
664.173	107.75
664.376	90.75
664.579	81.75
664.782	94.75
664.985	96.75
665.188	87.75
665.391	87.75
665.594	89.75
665.797	82.75
666	95.75
666.203	82.75
666.406	73.75
666.609	77.75
666.812	92.75
667.015	87.75
667.218	88.75
667.421	75.75
667.624	77.75
667.827	80.75
668.03	92.75
668.232	74.75
668.435	86.75
668.638	93.75
668.841	92.75
669.043	89.75
669.246	88.75
669.449	80.75
669.651	90.75
669.854	82.75
670.057	73.75
670.259	92.75
670.462	80.75
670.665	88.75
670.867	88.75
671.07	80.75
671.272	78.75
671.475	89.75
671.677	70.75
671.88	84.75
672.082	90.75
672.284	90.75
672.487	94.75
672.689	86.75
672.892	86.75
