Data from Ni(NO3)2@0.0625M.TitratingCurve.Agarose3%dH2O.NegLispCup.LampEnergy10.LIBS07252019_HRD10591_18-14-47-569.txt Node
Date: Thu Jul 25 18:14:47 EDT 2019
User: cochatt
Spectrometer: HR+D1059
Trigger mode: 1
Integration Time (sec): 1.000000E-1
Scans to average: 1
Electric dark correction enabled: true
Nonlinearity correction enabled: false
Boxcar width: 0
XAxis mode: Wavelengths
Number of Pixels in Spectrum: 2048
>>>>>Begin Spectral Data<<<<<
223.165	-12.12
223.4	-12.12
223.635	-12.12
223.869	-18.12
224.104	-7.12
224.338	-16.12
224.573	-30.12
224.808	-8.12
225.042	-9.12
225.277	-11.12
225.511	10.88
225.746	19.88
225.98	2.88
226.215	2.88
226.449	22.88
226.683	11.88
226.918	26.88
227.152	13.88
227.387	44.88
227.621	37.88
227.856	46.88
228.09	58.88
228.324	45.88
228.559	64.88
228.793	71.88
229.027	111.88
229.262	122.88
229.496	99.88
229.73	132.88
229.964	124.88
230.199	130.88
230.433	133.88
230.667	125.88
230.901	133.88
231.136	160.88
231.37	141.88
231.604	146.88
231.838	152.88
232.072	150.88
232.306	160.88
232.541	161.88
232.775	158.88
233.009	143.88
233.243	156.88
233.477	140.88
233.711	159.88
233.945	158.88
234.179	159.88
234.413	161.88
234.647	150.88
234.881	164.88
235.115	159.88
235.349	163.88
235.583	151.88
235.817	170.88
236.051	143.88
236.285	141.88
236.519	167.88
236.753	149.88
236.987	165.88
237.221	152.88
237.455	168.88
237.689	169.88
237.922	172.88
238.156	174.88
238.39	157.88
238.624	153.88
238.858	175.88
239.091	180.88
239.325	175.88
239.559	173.88
239.793	178.88
240.027	172.88
240.26	185.88
240.494	184.88
240.728	173.88
240.961	173.88
241.195	173.88
241.429	196.88
241.662	189.88
241.896	198.88
242.13	197.88
242.363	200.88
242.597	188.88
242.83	182.88
243.064	208.88
243.298	197.88
243.531	208.88
243.765	216.88
243.998	227.88
244.232	227.88
244.465	205.88
244.699	224.88
244.932	201.88
245.166	219.88
245.399	215.88
245.633	237.88
245.866	223.88
246.099	234.88
246.333	228.88
246.566	235.88
246.8	233.88
247.033	227.88
247.266	235.88
247.5	239.88
247.733	234.88
247.966	247.88
248.2	244.88
248.433	248.88
248.666	244.88
248.899	233.88
249.133	237.88
249.366	247.88
249.599	262.88
249.832	242.88
250.066	250.88
250.299	274.88
250.532	266.88
250.765	254.88
250.998	270.88
251.231	256.88
251.465	288.88
251.698	278.88
251.931	278.88
252.164	287.88
252.397	283.88
252.63	286.88
252.863	265.88
253.096	295.88
253.329	292.88
253.562	291.88
253.795	285.88
254.028	290.88
254.261	275.88
254.494	298.88
254.727	294.88
254.96	276.88
255.193	296.88
255.426	299.88
255.659	297.88
255.892	296.88
256.124	285.88
256.357	315.88
256.59	303.88
256.823	325.88
257.056	320.88
257.289	294.88
257.521	300.88
257.754	310.88
257.987	303.88
258.22	304.88
258.452	321.88
258.685	308.88
258.918	324.88
259.151	316.88
259.383	315.88
259.616	316.88
259.849	318.88
260.081	327.88
260.314	318.88
260.547	308.88
260.779	317.88
261.012	335.88
261.244	335.88
261.477	334.88
261.71	335.88
261.942	361.88
262.175	340.88
262.407	343.88
262.64	344.88
262.872	337.88
263.105	354.88
263.337	342.88
263.57	348.88
263.802	347.88
264.035	343.88
264.267	351.88
264.499	346.88
264.732	357.88
264.964	367.88
265.197	353.88
265.429	358.88
265.661	362.88
265.894	344.88
266.126	364.88
266.358	374.88
266.591	372.88
266.823	372.88
267.055	383.88
267.287	371.88
267.52	362.88
267.752	384.88
267.984	385.88
268.216	380.88
268.448	391.88
268.681	376.88
268.913	383.88
269.145	375.88
269.377	366.88
269.609	384.88
269.841	378.88
270.073	398.88
270.306	401.88
270.538	390.88
270.77	380.88
271.002	400.88
271.234	397.88
271.466	384.88
271.698	396.88
271.93	393.88
272.162	403.88
272.394	398.88
272.626	399.88
272.858	411.88
273.09	394.88
273.322	437.88
273.553	406.88
273.785	405.88
274.017	415.88
274.249	425.88
274.481	400.88
274.713	439.88
274.945	400.88
275.176	408.88
275.408	420.88
275.64	421.88
275.872	424.88
276.104	411.88
276.335	422.88
276.567	424.88
276.799	436.88
277.031	430.88
277.262	445.88
277.494	434.88
277.726	441.88
277.957	424.88
278.189	423.88
278.421	435.88
278.652	447.88
278.884	439.88
279.115	451.88
279.347	446.88
279.579	453.88
279.81	454.88
280.042	451.88
280.273	464.88
280.505	456.88
280.736	478.88
280.968	454.88
281.199	454.88
281.431	461.88
281.662	463.88
281.894	459.88
282.125	459.88
282.356	502.88
282.588	476.88
282.819	485.88
283.051	466.88
283.282	478.88
283.513	484.88
283.745	482.88
283.976	493.88
284.207	482.88
284.439	502.88
284.67	505.88
284.901	482.88
285.132	515.88
285.364	501.88
285.595	503.88
285.826	483.88
286.057	489.88
286.288	519.88
286.52	497.88
286.751	510.88
286.982	512.88
287.213	518.88
287.444	532.88
287.675	521.88
287.906	498.88
288.138	532.88
288.369	515.88
288.6	520.88
288.831	534.88
289.062	523.88
289.293	508.88
289.524	534.88
289.755	548.88
289.986	532.88
290.217	525.88
290.448	545.88
290.679	521.88
290.91	539.88
291.141	528.88
291.371	552.88
291.602	540.88
291.833	547.88
292.064	540.88
292.295	531.88
292.526	542.88
292.757	558.88
292.987	552.88
293.218	532.88
293.449	540.88
293.68	542.88
293.91	549.88
294.141	538.88
294.372	537.88
294.603	543.88
294.833	534.88
295.064	536.88
295.295	547.88
295.525	558.88
295.756	560.88
295.987	533.88
296.217	555.88
296.448	545.88
296.679	565.88
296.909	540.88
297.14	557.88
297.37	596.88
297.601	576.88
297.831	558.88
298.062	602.88
298.292	604.88
298.523	604.88
298.753	610.88
298.984	595.88
299.214	567.88
299.445	592.88
299.675	591.88
299.905	585.88
300.136	592.88
300.366	615.88
300.597	590.88
300.827	601.88
301.057	616.88
301.288	595.88
301.518	637.88
301.748	624.88
301.979	629.88
302.209	612.88
302.439	617.88
302.669	602.88
302.9	621.88
303.13	600.88
303.36	603.88
303.59	627.88
303.82	621.88
304.051	626.88
304.281	584.88
304.511	590.88
304.741	618.88
304.971	628.88
305.201	610.88
305.431	612.88
305.661	596.88
305.891	589.88
306.121	598.88
306.352	592.88
306.582	596.88
306.812	608.88
307.042	603.88
307.272	607.88
307.502	593.88
307.731	602.88
307.961	609.88
308.191	603.88
308.421	573.88
308.651	585.88
308.881	575.88
309.111	597.88
309.341	600.88
309.571	614.88
309.8	601.88
310.03	610.88
310.26	598.88
310.49	589.88
310.72	610.88
310.949	580.88
311.179	591.88
311.409	597.88
311.639	615.88
311.868	599.88
312.098	607.88
312.328	615.88
312.557	616.88
312.787	593.88
313.017	620.88
313.246	640.88
313.476	606.88
313.706	627.88
313.935	634.88
314.165	640.88
314.394	642.88
314.624	628.88
314.853	644.88
315.083	634.88
315.312	639.88
315.542	637.88
315.771	628.88
316.001	631.88
316.23	637.88
316.46	619.88
316.689	634.88
316.919	620.88
317.148	613.88
317.377	631.88
317.607	611.88
317.836	619.88
318.065	635.88
318.295	604.88
318.524	628.88
318.753	609.88
318.983	620.88
319.212	589.88
319.441	599.88
319.67	606.88
319.9	629.88
320.129	650.88
320.358	630.88
320.587	614.88
320.816	618.88
321.046	631.88
321.275	633.88
321.504	635.88
321.733	639.88
321.962	626.88
322.191	619.88
322.42	626.88
322.649	631.88
322.878	630.88
323.108	628.88
323.337	640.88
323.566	644.88
323.795	644.88
324.024	638.88
324.253	655.88
324.482	644.88
324.71	636.88
324.939	653.88
325.168	641.88
325.397	668.88
325.626	648.88
325.855	678.88
326.084	667.88
326.313	678.88
326.542	679.88
326.77	723.88
326.999	680.88
327.228	677.88
327.457	676.88
327.686	676.88
327.914	683.88
328.143	680.88
328.372	660.88
328.6	684.88
328.829	683.88
329.058	674.88
329.287	676.88
329.515	705.88
329.744	694.88
329.972	708.88
330.201	685.88
330.43	714.88
330.658	716.88
330.887	709.88
331.115	715.88
331.344	719.88
331.572	716.88
331.801	723.88
332.03	719.88
332.258	784.88
332.486	796.88
332.715	844.88
332.943	840.88
333.172	888.88
333.4	946.88
333.629	936.88
333.857	932.88
334.085	937.88
334.314	933.88
334.542	871.88
334.771	861.88
334.999	874.88
335.227	846.88
335.455	879.88
335.684	850.88
335.912	843.88
336.14	838.88
336.369	819.88
336.597	819.88
336.825	828.88
337.053	820.88
337.281	825.88
337.51	792.88
337.738	773.88
337.966	776.88
338.194	777.88
338.422	758.88
338.65	734.88
338.878	743.88
339.106	754.88
339.334	742.88
339.562	728.88
339.79	718.88
340.018	695.88
340.246	720.88
340.474	717.88
340.702	703.88
340.93	727.88
341.158	703.88
341.386	740.88
341.614	745.88
341.842	726.88
342.07	721.88
342.298	686.88
342.526	735.88
342.754	711.88
342.981	706.88
343.209	733.88
343.437	773.88
343.665	820.88
343.893	874.88
344.12	917.88
344.348	861.88
344.576	808.88
344.804	788.88
345.031	755.88
345.259	741.88
345.487	731.88
345.714	700.88
345.942	698.88
346.17	702.88
346.397	680.88
346.625	696.88
346.853	691.88
347.08	679.88
347.308	706.88
347.535	708.88
347.763	713.88
347.99	717.88
348.218	728.88
348.445	722.88
348.673	714.88
348.9	710.88
349.128	687.88
349.355	676.88
349.583	687.88
349.81	687.88
350.037	691.88
350.265	683.88
350.492	684.88
350.72	661.88
350.947	683.88
351.174	692.88
351.402	690.88
351.629	669.88
351.856	670.88
352.083	660.88
352.311	679.88
352.538	682.88
352.765	695.88
352.992	702.88
353.22	654.88
353.447	674.88
353.674	676.88
353.901	658.88
354.128	648.88
354.355	674.88
354.583	663.88
354.81	680.88
355.037	674.88
355.264	660.88
355.491	665.88
355.718	687.88
355.945	697.88
356.172	670.88
356.399	682.88
356.626	675.88
356.853	664.88
357.08	670.88
357.307	701.88
357.534	675.88
357.761	666.88
357.988	672.88
358.215	663.88
358.441	656.88
358.668	654.88
358.895	666.88
359.122	664.88
359.349	657.88
359.576	679.88
359.802	672.88
360.029	676.88
360.256	692.88
360.483	671.88
360.709	666.88
360.936	654.88
361.163	671.88
361.39	662.88
361.616	669.88
361.843	672.88
362.07	689.88
362.296	644.88
362.523	698.88
362.749	682.88
362.976	659.88
363.203	681.88
363.429	667.88
363.656	656.88
363.882	644.88
364.109	657.88
364.335	660.88
364.562	661.88
364.788	655.88
365.015	642.88
365.241	664.88
365.468	681.88
365.694	661.88
365.92	639.88
366.147	652.88
366.373	681.88
366.599	659.88
366.826	649.88
367.052	666.88
367.278	659.88
367.505	669.88
367.731	710.88
367.957	678.88
368.184	660.88
368.41	682.88
368.636	676.88
368.862	663.88
369.089	675.88
369.315	687.88
369.541	702.88
369.767	713.88
369.993	705.88
370.219	686.88
370.445	741.88
370.672	719.88
370.898	724.88
371.124	720.88
371.35	738.88
371.576	738.88
371.802	731.88
372.028	717.88
372.254	730.88
372.48	733.88
372.706	761.88
372.932	766.88
373.158	745.88
373.384	736.88
373.61	730.88
373.835	757.88
374.061	727.88
374.287	721.88
374.513	734.88
374.739	785.88
374.965	800.88
375.191	831.88
375.416	849.88
375.642	811.88
375.868	784.88
376.094	775.88
376.319	754.88
376.545	778.88
376.771	738.88
376.997	746.88
377.222	731.88
377.448	726.88
377.674	734.88
377.899	724.88
378.125	741.88
378.35	710.88
378.576	732.88
378.802	716.88
379.027	726.88
379.253	714.88
379.478	716.88
379.704	715.88
379.929	732.88
380.155	697.88
380.38	711.88
380.606	741.88
380.831	735.88
381.057	725.88
381.282	719.88
381.507	742.88
381.733	740.88
381.958	746.88
382.184	752.88
382.409	760.88
382.634	769.88
382.86	767.88
383.085	748.88
383.31	792.88
383.535	803.88
383.761	840.88
383.986	836.88
384.211	853.88
384.436	876.88
384.662	887.88
384.887	890.88
385.112	893.88
385.337	914.88
385.562	888.88
385.787	875.88
386.013	892.88
386.238	882.88
386.463	888.88
386.688	894.88
386.913	906.88
387.138	857.88
387.363	871.88
387.588	866.88
387.813	868.88
388.038	882.88
388.263	870.88
388.488	871.88
388.713	891.88
388.938	843.88
389.163	850.88
389.387	833.88
389.612	832.88
389.837	867.88
390.062	828.88
390.287	837.88
390.512	872.88
390.736	858.88
390.961	850.88
391.186	879.88
391.411	891.88
391.636	952.88
391.86	1000.88
392.085	988.88
392.31	986.88
392.534	972.88
392.759	937.88
392.984	934.88
393.208	946.88
393.433	936.88
393.658	915.88
393.882	941.88
394.107	956.88
394.331	943.88
394.556	933.88
394.78	944.88
395.005	962.88
395.229	970.88
395.454	978.88
395.678	982.88
395.903	1013.88
396.127	960.88
396.352	944.88
396.576	917.88
396.801	918.88
397.025	913.88
397.249	933.88
397.474	981.88
397.698	968.88
397.922	980.88
398.147	950.88
398.371	1000.88
398.595	1000.88
398.82	1045.88
399.044	1141.88
399.268	1287.88
399.492	1506.88
399.717	1706.88
399.941	1765.88
400.165	1492.88
400.389	1321.88
400.613	1196.88
400.837	1158.88
401.062	1134.88
401.286	1119.88
401.51	1097.88
401.734	1091.88
401.958	1104.88
402.182	1139.88
402.406	1159.88
402.63	1149.88
402.854	1171.88
403.078	1190.88
403.302	1240.88
403.526	1258.88
403.75	1253.88
403.974	1307.88
404.198	1338.88
404.422	1307.88
404.645	1326.88
404.869	1288.88
405.093	1262.88
405.317	1220.88
405.541	1226.88
405.765	1224.88
405.988	1208.88
406.212	1212.88
406.436	1205.88
406.66	1235.88
406.883	1270.88
407.107	1320.88
407.331	1411.88
407.555	1461.88
407.778	1450.88
408.002	1406.88
408.226	1353.88
408.449	1334.88
408.673	1276.88
408.896	1285.88
409.12	1242.88
409.344	1276.88
409.567	1284.88
409.791	1303.88
410.014	1273.88
410.238	1266.88
410.461	1257.88
410.685	1242.88
410.908	1214.88
411.132	1172.88
411.355	1172.88
411.578	1167.88
411.802	1156.88
412.025	1173.88
412.249	1184.88
412.472	1158.88
412.695	1135.88
412.919	1115.88
413.142	1066.88
413.365	1096.88
413.589	1121.88
413.812	1094.88
414.035	1085.88
414.258	1090.88
414.482	1104.88
414.705	1097.88
414.928	1102.88
415.151	1131.88
415.374	1127.88
415.597	1121.88
415.821	1071.88
416.044	1078.88
416.267	1084.88
416.49	1063.88
416.713	1066.88
416.936	1067.88
417.159	1086.88
417.382	1086.88
417.605	1078.88
417.828	1091.88
418.051	1108.88
418.274	1107.88
418.497	1101.88
418.72	1122.88
418.943	1117.88
419.166	1181.88
419.389	1295.88
419.611	1248.88
419.834	1150.88
420.057	1118.88
420.28	1121.88
420.503	1063.88
420.726	1074.88
420.948	1074.88
421.171	1053.88
421.394	1077.88
421.617	1056.88
421.839	1113.88
422.062	1101.88
422.285	1123.88
422.507	1140.88
422.73	1126.88
422.953	1144.88
423.175	1168.88
423.398	1166.88
423.621	1172.88
423.843	1190.88
424.066	1165.88
424.288	1172.88
424.511	1147.88
424.733	1151.88
424.956	1151.88
425.178	1140.88
425.401	1107.88
425.623	1065.88
425.846	1072.88
426.068	1068.88
426.291	1052.88
426.513	1002.88
426.735	1012.88
426.958	1065.88
427.18	969.88
427.402	984.88
427.625	1023.88
427.847	975.88
428.069	992.88
428.292	967.88
428.514	959.88
428.736	973.88
428.958	958.88
429.181	945.88
429.403	929.88
429.625	900.88
429.847	958.88
430.069	949.88
430.292	952.88
430.514	908.88
430.736	947.88
430.958	947.88
431.18	927.88
431.402	946.88
431.624	956.88
431.846	1007.88
432.068	1026.88
432.29	1014.88
432.512	965.88
432.734	984.88
432.956	976.88
433.178	968.88
433.4	976.88
433.622	993.88
433.844	982.88
434.066	992.88
434.287	1005.88
434.509	1079.88
434.731	1055.88
434.953	1132.88
435.175	1133.88
435.397	1092.88
435.618	1074.88
435.84	1034.88
436.062	1011.88
436.284	957.88
436.505	979.88
436.727	999.88
436.949	993.88
437.17	975.88
437.392	943.88
437.614	952.88
437.835	952.88
438.057	957.88
438.278	940.88
438.5	927.88
438.721	923.88
438.943	935.88
439.165	968.88
439.386	946.88
439.608	977.88
439.829	968.88
440.05	1000.88
440.272	973.88
440.493	991.88
440.715	984.88
440.936	1049.88
441.158	1002.88
441.379	1070.88
441.6	1117.88
441.822	1115.88
442.043	1097.88
442.264	1096.88
442.486	1055.88
442.707	1112.88
442.928	1102.88
443.149	1059.88
443.371	1092.88
443.592	1098.88
443.813	1113.88
444.034	1129.88
444.255	1164.88
444.476	1206.88
444.698	1286.88
444.919	1383.88
445.14	1424.88
445.361	1229.88
445.582	1148.88
445.803	1082.88
446.024	1049.88
446.245	1034.88
446.466	956.88
446.687	1017.88
446.908	968.88
447.129	958.88
447.35	960.88
447.571	938.88
447.792	913.88
448.013	942.88
448.234	905.88
448.455	908.88
448.675	893.88
448.896	870.88
449.117	872.88
449.338	891.88
449.559	876.88
449.779	885.88
450	884.88
450.221	896.88
450.442	883.88
450.662	901.88
450.883	941.88
451.104	938.88
451.324	927.88
451.545	925.88
451.766	931.88
451.986	918.88
452.207	905.88
452.428	916.88
452.648	889.88
452.869	894.88
453.089	878.88
453.31	896.88
453.53	914.88
453.751	906.88
453.971	877.88
454.192	866.88
454.412	852.88
454.633	843.88
454.853	860.88
455.073	859.88
455.294	855.88
455.514	855.88
455.734	855.88
455.955	829.88
456.175	846.88
456.395	853.88
456.616	822.88
456.836	831.88
457.056	825.88
457.276	828.88
457.497	848.88
457.717	829.88
457.937	848.88
458.157	887.88
458.377	848.88
458.598	886.88
458.818	918.88
459.038	900.88
459.258	937.88
459.478	1015.88
459.698	1012.88
459.918	1047.88
460.138	1078.88
460.358	1168.88
460.578	1163.88
460.798	1171.88
461.018	1179.88
461.238	1152.88
461.458	1147.88
461.678	1186.88
461.898	1162.88
462.118	1165.88
462.338	1211.88
462.558	1271.88
462.777	1317.88
462.997	1459.88
463.217	1632.88
463.437	1623.88
463.657	1461.88
463.876	1400.88
464.096	1381.88
464.316	1384.88
464.536	1394.88
464.755	1359.88
464.975	1292.88
465.195	1259.88
465.414	1190.88
465.634	1088.88
465.854	1031.88
466.073	1015.88
466.293	991.88
466.512	980.88
466.732	944.88
466.951	938.88
467.171	948.88
467.391	944.88
467.61	970.88
467.829	971.88
468.049	947.88
468.268	928.88
468.488	883.88
468.707	906.88
468.927	891.88
469.146	920.88
469.365	912.88
469.585	917.88
469.804	917.88
470.023	940.88
470.243	974.88
470.462	970.88
470.681	987.88
470.901	988.88
471.12	960.88
471.339	952.88
471.558	936.88
471.777	926.88
471.997	896.88
472.216	907.88
472.435	879.88
472.654	859.88
472.873	899.88
473.092	902.88
473.311	860.88
473.53	877.88
473.749	838.88
473.968	870.88
474.187	864.88
474.406	852.88
474.625	890.88
474.844	894.88
475.063	865.88
475.282	860.88
475.501	905.88
475.72	898.88
475.939	916.88
476.158	927.88
476.377	907.88
476.596	911.88
476.814	936.88
477.033	925.88
477.252	946.88
477.471	955.88
477.69	995.88
477.908	1003.88
478.127	1031.88
478.346	1063.88
478.564	1097.88
478.783	1088.88
479.002	1113.88
479.22	1137.88
479.439	1093.88
479.658	1092.88
479.876	1066.88
480.095	1102.88
480.313	1162.88
480.532	1218.88
480.751	1194.88
480.969	1134.88
481.188	1095.88
481.406	1084.88
481.624	1028.88
481.843	1051.88
482.061	978.88
482.28	1020.88
482.498	1016.88
482.717	996.88
482.935	999.88
483.153	997.88
483.372	1003.88
483.59	997.88
483.808	1040.88
484.027	1027.88
484.245	1044.88
484.463	1002.88
484.681	1046.88
484.9	1055.88
485.118	1066.88
485.336	1068.88
485.554	1053.88
485.772	1069.88
485.99	1048.88
486.209	1111.88
486.427	1088.88
486.645	1090.88
486.863	1107.88
487.081	1084.88
487.299	1063.88
487.517	1063.88
487.735	1050.88
487.953	1043.88
488.171	1052.88
488.389	1053.88
488.607	1062.88
488.825	1040.88
489.043	1036.88
489.261	1053.88
489.479	1032.88
489.696	1044.88
489.914	1064.88
490.132	1045.88
490.35	1045.88
490.568	1040.88
490.786	1048.88
491.003	1046.88
491.221	1061.88
491.439	1052.88
491.657	1051.88
491.874	1045.88
492.092	1020.88
492.31	1080.88
492.527	1063.88
492.745	1068.88
492.963	1069.88
493.18	1092.88
493.398	1104.88
493.615	1145.88
493.833	1121.88
494.05	1084.88
494.268	1095.88
494.485	1129.88
494.703	1095.88
494.92	1109.88
495.138	1129.88
495.355	1115.88
495.573	1120.88
495.79	1145.88
496.008	1133.88
496.225	1127.88
496.442	1118.88
496.66	1149.88
496.877	1166.88
497.094	1199.88
497.312	1223.88
497.529	1258.88
497.746	1295.88
497.963	1304.88
498.181	1335.88
498.398	1399.88
498.615	1476.88
498.832	1535.88
499.049	1700.88
499.267	1808.88
499.484	2020.88
499.701	2271.88
499.918	2456.88
500.135	2914.88
500.352	3328.88
500.569	3660.88
500.786	3564.88
501.003	3292.88
501.22	2870.88
501.437	2518.88
501.654	2192.88
501.871	2015.88
502.088	1799.88
502.305	1745.88
502.522	1604.88
502.739	1579.88
502.956	1467.88
503.172	1390.88
503.389	1336.88
503.606	1290.88
503.823	1257.88
504.04	1266.88
504.256	1271.88
504.473	1336.88
504.69	1366.88
504.907	1310.88
505.123	1249.88
505.34	1190.88
505.557	1144.88
505.773	1104.88
505.99	1085.88
506.207	1059.88
506.423	1044.88
506.64	1002.88
506.856	1007.88
507.073	1001.88
507.289	978.88
507.506	1020.88
507.722	985.88
507.939	977.88
508.155	967.88
508.372	947.88
508.588	948.88
508.805	940.88
509.021	944.88
509.238	955.88
509.454	932.88
509.67	886.88
509.887	926.88
510.103	902.88
510.319	909.88
510.536	909.88
510.752	899.88
510.968	906.88
511.184	908.88
511.401	900.88
511.617	891.88
511.833	902.88
512.049	927.88
512.265	894.88
512.481	901.88
512.698	899.88
512.914	918.88
513.13	889.88
513.346	932.88
513.562	901.88
513.778	926.88
513.994	913.88
514.21	904.88
514.426	938.88
514.642	917.88
514.858	906.88
515.074	924.88
515.29	964.88
515.506	936.88
515.721	978.88
515.937	953.88
516.153	975.88
516.369	1000.88
516.585	1045.88
516.801	1068.88
517.016	1112.88
517.232	1183.88
517.448	1237.88
517.664	1304.88
517.879	1303.88
518.095	1303.88
518.311	1272.88
518.527	1180.88
518.742	1151.88
518.958	1114.88
519.173	1046.88
519.389	1035.88
519.605	988.88
519.82	993.88
520.036	942.88
520.251	926.88
520.467	905.88
520.682	906.88
520.898	895.88
521.113	911.88
521.329	909.88
521.544	877.88
521.76	880.88
521.975	868.88
522.19	877.88
522.406	874.88
522.621	868.88
522.836	852.88
523.052	847.88
523.267	857.88
523.482	835.88
523.698	848.88
523.913	840.88
524.128	858.88
524.343	838.88
524.559	843.88
524.774	837.88
524.989	830.88
525.204	860.88
525.419	869.88
525.634	825.88
525.849	825.88
526.064	822.88
526.28	820.88
526.495	820.88
526.71	822.88
526.925	836.88
527.14	834.88
527.355	797.88
527.57	812.88
527.785	788.88
527.999	853.88
528.214	832.88
528.429	828.88
528.644	826.88
528.859	814.88
529.074	839.88
529.289	830.88
529.503	838.88
529.718	783.88
529.933	816.88
530.148	819.88
530.363	821.88
530.577	807.88
530.792	808.88
531.007	828.88
531.221	846.88
531.436	832.88
531.651	853.88
531.865	836.88
532.08	853.88
532.295	830.88
532.509	832.88
532.724	824.88
532.938	830.88
533.153	830.88
533.367	815.88
533.582	811.88
533.796	827.88
534.011	843.88
534.225	804.88
534.44	800.88
534.654	813.88
534.868	831.88
535.083	826.88
535.297	834.88
535.511	816.88
535.726	826.88
535.94	790.88
536.154	791.88
536.369	755.88
536.583	750.88
536.797	756.88
537.011	766.88
537.225	755.88
537.44	796.88
537.654	756.88
537.868	799.88
538.082	743.88
538.296	768.88
538.51	766.88
538.724	777.88
538.938	771.88
539.153	742.88
539.367	763.88
539.581	754.88
539.795	719.88
540.009	736.88
540.222	751.88
540.436	765.88
540.65	748.88
540.864	752.88
541.078	727.88
541.292	738.88
541.506	749.88
541.72	734.88
541.934	721.88
542.147	751.88
542.361	727.88
542.575	723.88
542.789	718.88
543.002	710.88
543.216	735.88
543.43	727.88
543.644	738.88
543.857	732.88
544.071	702.88
544.285	729.88
544.498	729.88
544.712	733.88
544.925	740.88
545.139	754.88
545.352	734.88
545.566	772.88
545.779	741.88
545.993	746.88
546.206	754.88
546.42	761.88
546.633	726.88
546.847	740.88
547.06	730.88
547.274	724.88
547.487	738.88
547.7	739.88
547.914	762.88
548.127	743.88
548.34	749.88
548.554	770.88
548.767	707.88
548.98	717.88
549.193	740.88
549.407	763.88
549.62	779.88
549.833	790.88
550.046	789.88
550.259	763.88
550.473	742.88
550.686	728.88
550.899	739.88
551.112	719.88
551.325	724.88
551.538	734.88
551.751	741.88
551.964	734.88
552.177	739.88
552.39	749.88
552.603	784.88
552.816	785.88
553.029	816.88
553.242	788.88
553.455	844.88
553.667	843.88
553.88	814.88
554.093	791.88
554.306	777.88
554.519	772.88
554.732	740.88
554.944	733.88
555.157	736.88
555.37	705.88
555.583	703.88
555.795	667.88
556.008	685.88
556.221	645.88
556.433	668.88
556.646	646.88
556.859	674.88
557.071	626.88
557.284	655.88
557.496	657.88
557.709	652.88
557.921	655.88
558.134	641.88
558.346	632.88
558.559	649.88
558.771	623.88
558.984	628.88
559.196	623.88
559.409	612.88
559.621	646.88
559.833	632.88
560.046	613.88
560.258	630.88
560.47	621.88
560.683	631.88
560.895	619.88
561.107	610.88
561.32	626.88
561.532	630.88
561.744	631.88
561.956	630.88
562.168	607.88
562.381	606.88
562.593	604.88
562.805	620.88
563.017	602.88
563.229	620.88
563.441	632.88
563.653	648.88
563.865	634.88
564.077	644.88
564.289	652.88
564.501	651.88
564.713	655.88
564.925	676.88
565.137	669.88
565.349	711.88
565.561	712.88
565.773	760.88
565.985	749.88
566.197	806.88
566.408	849.88
566.62	952.88
566.832	1045.88
567.044	1093.88
567.255	1040.88
567.467	1058.88
567.679	1144.88
567.891	1240.88
568.102	1319.88
568.314	1236.88
568.526	1086.88
568.737	1004.88
568.949	872.88
569.161	792.88
569.372	741.88
569.584	723.88
569.795	684.88
570.007	675.88
570.218	637.88
570.43	668.88
570.641	631.88
570.853	632.88
571.064	656.88
571.276	681.88
571.487	618.88
571.698	602.88
571.91	584.88
572.121	582.88
572.333	574.88
572.544	543.88
572.755	523.88
572.966	542.88
573.178	572.88
573.389	539.88
573.6	539.88
573.811	527.88
574.023	493.88
574.234	525.88
574.445	524.88
574.656	525.88
574.867	519.88
575.078	498.88
575.289	526.88
575.501	519.88
575.712	508.88
575.923	505.88
576.134	503.88
576.345	503.88
576.556	502.88
576.767	486.88
576.978	500.88
577.188	504.88
577.399	493.88
577.61	486.88
577.821	464.88
578.032	472.88
578.243	452.88
578.454	471.88
578.665	464.88
578.875	464.88
579.086	451.88
579.297	470.88
579.508	451.88
579.718	446.88
579.929	456.88
580.14	445.88
580.35	447.88
580.561	427.88
580.772	452.88
580.982	471.88
581.193	440.88
581.403	453.88
581.614	458.88
581.825	450.88
582.035	429.88
582.246	441.88
582.456	454.88
582.667	438.88
582.877	447.88
583.087	446.88
583.298	416.88
583.508	453.88
583.719	427.88
583.929	453.88
584.139	416.88
584.35	410.88
584.56	414.88
584.77	424.88
584.981	439.88
585.191	423.88
585.401	429.88
585.611	428.88
585.821	438.88
586.032	424.88
586.242	425.88
586.452	438.88
586.662	407.88
586.872	398.88
587.082	440.88
587.292	412.88
587.502	415.88
587.713	421.88
587.923	425.88
588.133	412.88
588.343	409.88
588.553	427.88
588.762	400.88
588.972	425.88
589.182	432.88
589.392	429.88
589.602	425.88
589.812	406.88
590.022	402.88
590.232	419.88
590.441	424.88
590.651	421.88
590.861	419.88
591.071	428.88
591.281	428.88
591.49	428.88
591.7	442.88
591.91	466.88
592.119	450.88
592.329	442.88
592.539	484.88
592.748	490.88
592.958	519.88
593.167	510.88
593.377	519.88
593.587	553.88
593.796	528.88
594.006	565.88
594.215	580.88
594.424	583.88
594.634	545.88
594.843	515.88
595.053	485.88
595.262	480.88
595.472	446.88
595.681	445.88
595.89	440.88
596.1	428.88
596.309	416.88
596.518	430.88
596.727	395.88
596.937	411.88
597.146	391.88
597.355	396.88
597.564	398.88
597.774	381.88
597.983	386.88
598.192	384.88
598.401	386.88
598.61	373.88
598.819	381.88
599.028	354.88
599.237	384.88
599.446	359.88
599.655	378.88
599.864	358.88
600.073	346.88
600.282	359.88
600.491	358.88
600.7	344.88
600.909	372.88
601.118	356.88
601.327	348.88
601.536	363.88
601.745	355.88
601.953	375.88
602.162	338.88
602.371	363.88
602.58	346.88
602.789	349.88
602.997	348.88
603.206	355.88
603.415	360.88
603.623	345.88
603.832	321.88
604.041	346.88
604.249	334.88
604.458	341.88
604.666	337.88
604.875	327.88
605.084	342.88
605.292	334.88
605.501	320.88
605.709	335.88
605.918	327.88
606.126	337.88
606.334	323.88
606.543	323.88
606.751	322.88
606.96	320.88
607.168	319.88
607.376	328.88
607.585	310.88
607.793	320.88
608.001	333.88
608.21	318.88
608.418	312.88
608.626	316.88
608.834	330.88
609.043	307.88
609.251	336.88
609.459	309.88
609.667	320.88
609.875	319.88
610.083	299.88
610.291	324.88
610.499	323.88
610.707	312.88
610.916	310.88
611.124	319.88
611.332	314.88
611.54	313.88
611.748	322.88
611.955	321.88
612.163	287.88
612.371	294.88
612.579	324.88
612.787	295.88
612.995	316.88
613.203	295.88
613.411	322.88
613.618	316.88
613.826	308.88
614.034	291.88
614.242	313.88
614.449	301.88
614.657	301.88
614.865	307.88
615.072	289.88
615.28	288.88
615.488	315.88
615.695	318.88
615.903	322.88
616.111	307.88
616.318	309.88
616.526	305.88
616.733	321.88
616.941	303.88
617.148	308.88
617.356	315.88
617.563	316.88
617.771	296.88
617.978	320.88
618.185	312.88
618.393	287.88
618.6	310.88
618.807	300.88
619.015	301.88
619.222	299.88
619.429	316.88
619.637	298.88
619.844	323.88
620.051	306.88
620.258	300.88
620.466	286.88
620.673	290.88
620.88	280.88
621.087	286.88
621.294	283.88
621.501	291.88
621.708	277.88
621.915	287.88
622.122	285.88
622.329	275.88
622.536	292.88
622.743	280.88
622.95	283.88
623.157	276.88
623.364	261.88
623.571	261.88
623.778	265.88
623.985	281.88
624.192	268.88
624.399	278.88
624.606	258.88
624.812	257.88
625.019	271.88
625.226	253.88
625.433	270.88
625.639	246.88
625.846	237.88
626.053	258.88
626.259	246.88
626.466	251.88
626.673	254.88
626.879	256.88
627.086	265.88
627.293	251.88
627.499	249.88
627.706	260.88
627.912	271.88
628.119	256.88
628.325	263.88
628.532	258.88
628.738	236.88
628.945	250.88
629.151	238.88
629.357	237.88
629.564	246.88
629.77	256.88
629.976	246.88
630.183	253.88
630.389	246.88
630.595	253.88
630.802	223.88
631.008	233.88
631.214	230.88
631.42	241.88
631.627	260.88
631.833	232.88
632.039	218.88
632.245	219.88
632.451	235.88
632.657	234.88
632.863	243.88
633.069	228.88
633.275	219.88
633.481	220.88
633.688	228.88
633.893	220.88
634.099	244.88
634.305	214.88
634.511	231.88
634.717	229.88
634.923	217.88
635.129	214.88
635.335	228.88
635.541	223.88
635.747	210.88
635.952	218.88
636.158	219.88
636.364	208.88
636.57	218.88
636.775	233.88
636.981	218.88
637.187	213.88
637.392	239.88
637.598	225.88
637.804	211.88
638.009	212.88
638.215	212.88
638.421	230.88
638.626	212.88
638.832	207.88
639.037	209.88
639.243	200.88
639.448	215.88
639.654	224.88
639.859	222.88
640.065	195.88
640.27	197.88
640.475	203.88
640.681	210.88
640.886	216.88
641.091	208.88
641.297	206.88
641.502	191.88
641.707	203.88
641.913	202.88
642.118	198.88
642.323	201.88
642.528	205.88
642.733	205.88
642.939	201.88
643.144	204.88
643.349	209.88
643.554	219.88
643.759	204.88
643.964	194.88
644.169	207.88
644.374	206.88
644.579	213.88
644.784	203.88
644.989	179.88
645.194	194.88
645.399	199.88
645.604	184.88
645.809	191.88
646.014	199.88
646.219	207.88
646.423	204.88
646.628	187.88
646.833	213.88
647.038	190.88
647.243	211.88
647.447	192.88
647.652	216.88
647.857	213.88
648.062	219.88
648.266	200.88
648.471	214.88
648.676	220.88
648.88	214.88
649.085	219.88
649.289	206.88
649.494	198.88
649.698	213.88
649.903	201.88
650.107	191.88
650.312	193.88
650.516	184.88
650.721	180.88
650.925	191.88
651.13	174.88
651.334	186.88
651.539	176.88
651.743	194.88
651.947	158.88
652.152	178.88
652.356	155.88
652.56	187.88
652.764	170.88
652.969	184.88
653.173	148.88
653.377	150.88
653.581	134.88
653.785	161.88
653.99	155.88
654.194	173.88
654.398	171.88
654.602	151.88
654.806	164.88
655.01	158.88
655.214	134.88
655.418	138.88
655.622	147.88
655.826	152.88
656.03	139.88
656.234	140.88
656.438	156.88
656.642	133.88
656.846	147.88
657.049	156.88
657.253	142.88
657.457	132.88
657.661	112.88
657.865	132.88
658.068	122.88
658.272	122.88
658.476	104.88
658.68	107.88
658.883	120.88
659.087	110.88
659.291	121.88
659.494	103.88
659.698	112.88
659.901	120.88
660.105	99.88
660.309	92.88
660.512	103.88
660.716	104.88
660.919	111.88
661.123	105.88
661.326	100.88
661.53	101.88
661.733	88.88
661.936	90.88
662.14	92.88
662.343	92.88
662.546	98.88
662.75	91.88
662.953	90.88
663.156	88.88
663.36	88.88
663.563	91.88
663.766	94.88
663.969	86.88
664.173	84.88
664.376	86.88
664.579	80.88
664.782	79.88
664.985	79.88
665.188	85.88
665.391	78.88
665.594	67.88
665.797	82.88
666	78.88
666.203	90.88
666.406	98.88
666.609	88.88
666.812	83.88
667.015	88.88
667.218	92.88
667.421	78.88
667.624	84.88
667.827	88.88
668.03	78.88
668.232	89.88
668.435	82.88
668.638	98.88
668.841	86.88
669.043	91.88
669.246	78.88
669.449	88.88
669.651	88.88
669.854	79.88
670.057	81.88
670.259	85.88
670.462	81.88
670.665	91.88
670.867	80.88
671.07	91.88
671.272	80.88
671.475	95.88
671.677	79.88
671.88	89.88
672.082	81.88
672.284	89.88
672.487	92.88
672.689	71.88
672.892	84.88
