Data from Ni(NO3)2@0.0625M.TitratingCurve.Agarose3%dH2O.NegLispCup.LampEnergy10.LIBS07252019_HRD10591_18-14-46-569.txt Node
Date: Thu Jul 25 18:14:46 EDT 2019
User: cochatt
Spectrometer: HR+D1059
Trigger mode: 1
Integration Time (sec): 1.000000E-1
Scans to average: 1
Electric dark correction enabled: true
Nonlinearity correction enabled: false
Boxcar width: 0
XAxis mode: Wavelengths
Number of Pixels in Spectrum: 2048
>>>>>Begin Spectral Data<<<<<
223.165	-20.19
223.4	-20.19
223.635	-20.19
223.869	-18.19
224.104	-8.19
224.338	-2.19
224.573	-16.19
224.808	-19.19
225.042	-12.19
225.277	-15.19
225.511	-4.19
225.746	-2.19
225.98	3.81
226.215	-0.19
226.449	24.81
226.683	21.81
226.918	29.81
227.152	37.81
227.387	35.81
227.621	34.81
227.856	52.81
228.09	36.81
228.324	41.81
228.559	53.81
228.793	75.81
229.027	85.81
229.262	108.81
229.496	121.81
229.73	113.81
229.964	129.81
230.199	115.81
230.433	134.81
230.667	123.81
230.901	119.81
231.136	123.81
231.37	124.81
231.604	131.81
231.838	125.81
232.072	139.81
232.306	145.81
232.541	135.81
232.775	128.81
233.009	129.81
233.243	136.81
233.477	136.81
233.711	126.81
233.945	144.81
234.179	132.81
234.413	129.81
234.647	131.81
234.881	152.81
235.115	155.81
235.349	141.81
235.583	139.81
235.817	142.81
236.051	138.81
236.285	138.81
236.519	146.81
236.753	156.81
236.987	146.81
237.221	147.81
237.455	159.81
237.689	144.81
237.922	152.81
238.156	146.81
238.39	172.81
238.624	148.81
238.858	170.81
239.091	168.81
239.325	170.81
239.559	177.81
239.793	161.81
240.027	159.81
240.26	171.81
240.494	171.81
240.728	187.81
240.961	179.81
241.195	195.81
241.429	171.81
241.662	152.81
241.896	195.81
242.13	180.81
242.363	181.81
242.597	198.81
242.83	197.81
243.064	175.81
243.298	207.81
243.531	204.81
243.765	193.81
243.998	212.81
244.232	187.81
244.465	184.81
244.699	196.81
244.932	194.81
245.166	199.81
245.399	209.81
245.633	207.81
245.866	211.81
246.099	203.81
246.333	212.81
246.566	209.81
246.8	206.81
247.033	215.81
247.266	201.81
247.5	217.81
247.733	212.81
247.966	203.81
248.2	220.81
248.433	224.81
248.666	228.81
248.899	234.81
249.133	212.81
249.366	228.81
249.599	228.81
249.832	233.81
250.066	229.81
250.299	232.81
250.532	230.81
250.765	235.81
250.998	244.81
251.231	235.81
251.465	251.81
251.698	251.81
251.931	249.81
252.164	262.81
252.397	269.81
252.63	269.81
252.863	253.81
253.096	244.81
253.329	247.81
253.562	241.81
253.795	261.81
254.028	248.81
254.261	241.81
254.494	265.81
254.727	251.81
254.96	249.81
255.193	264.81
255.426	268.81
255.659	261.81
255.892	274.81
256.124	268.81
256.357	251.81
256.59	278.81
256.823	266.81
257.056	275.81
257.289	285.81
257.521	259.81
257.754	285.81
257.987	299.81
258.22	297.81
258.452	288.81
258.685	305.81
258.918	277.81
259.151	283.81
259.383	296.81
259.616	279.81
259.849	296.81
260.081	281.81
260.314	300.81
260.547	280.81
260.779	291.81
261.012	285.81
261.244	300.81
261.477	294.81
261.71	292.81
261.942	323.81
262.175	284.81
262.407	283.81
262.64	275.81
262.872	299.81
263.105	296.81
263.337	289.81
263.57	278.81
263.802	309.81
264.035	295.81
264.267	319.81
264.499	309.81
264.732	308.81
264.964	323.81
265.197	331.81
265.429	322.81
265.661	328.81
265.894	328.81
266.126	324.81
266.358	322.81
266.591	318.81
266.823	329.81
267.055	344.81
267.287	340.81
267.52	324.81
267.752	331.81
267.984	336.81
268.216	329.81
268.448	352.81
268.681	336.81
268.913	346.81
269.145	333.81
269.377	342.81
269.609	342.81
269.841	342.81
270.073	349.81
270.306	346.81
270.538	332.81
270.77	344.81
271.002	348.81
271.234	331.81
271.466	345.81
271.698	357.81
271.93	341.81
272.162	341.81
272.394	365.81
272.626	363.81
272.858	365.81
273.09	353.81
273.322	375.81
273.553	383.81
273.785	356.81
274.017	369.81
274.249	383.81
274.481	355.81
274.713	369.81
274.945	383.81
275.176	379.81
275.408	377.81
275.64	388.81
275.872	373.81
276.104	397.81
276.335	378.81
276.567	381.81
276.799	373.81
277.031	401.81
277.262	383.81
277.494	383.81
277.726	368.81
277.957	382.81
278.189	402.81
278.421	377.81
278.652	391.81
278.884	391.81
279.115	405.81
279.347	405.81
279.579	402.81
279.81	420.81
280.042	405.81
280.273	403.81
280.505	429.81
280.736	409.81
280.968	421.81
281.199	411.81
281.431	423.81
281.662	419.81
281.894	417.81
282.125	423.81
282.356	415.81
282.588	438.81
282.819	443.81
283.051	427.81
283.282	438.81
283.513	445.81
283.745	419.81
283.976	425.81
284.207	438.81
284.439	433.81
284.67	424.81
284.901	426.81
285.132	432.81
285.364	457.81
285.595	452.81
285.826	425.81
286.057	463.81
286.288	458.81
286.52	441.81
286.751	452.81
286.982	444.81
287.213	441.81
287.444	464.81
287.675	456.81
287.906	474.81
288.138	467.81
288.369	454.81
288.6	469.81
288.831	457.81
289.062	455.81
289.293	465.81
289.524	471.81
289.755	460.81
289.986	484.81
290.217	455.81
290.448	461.81
290.679	484.81
290.91	452.81
291.141	477.81
291.371	496.81
291.602	475.81
291.833	470.81
292.064	473.81
292.295	476.81
292.526	452.81
292.757	453.81
292.987	480.81
293.218	473.81
293.449	489.81
293.68	459.81
293.91	497.81
294.141	473.81
294.372	473.81
294.603	480.81
294.833	471.81
295.064	488.81
295.295	514.81
295.525	487.81
295.756	486.81
295.987	484.81
296.217	527.81
296.448	489.81
296.679	493.81
296.909	485.81
297.14	502.81
297.37	511.81
297.601	533.81
297.831	509.81
298.062	539.81
298.292	528.81
298.523	550.81
298.753	507.81
298.984	524.81
299.214	517.81
299.445	519.81
299.675	511.81
299.905	518.81
300.136	523.81
300.366	541.81
300.597	540.81
300.827	542.81
301.057	560.81
301.288	546.81
301.518	551.81
301.748	549.81
301.979	530.81
302.209	547.81
302.439	545.81
302.669	552.81
302.9	532.81
303.13	535.81
303.36	513.81
303.59	533.81
303.82	514.81
304.051	533.81
304.281	554.81
304.511	536.81
304.741	514.81
304.971	548.81
305.201	541.81
305.431	549.81
305.661	530.81
305.891	537.81
306.121	548.81
306.352	536.81
306.582	524.81
306.812	530.81
307.042	546.81
307.272	526.81
307.502	519.81
307.731	527.81
307.961	526.81
308.191	522.81
308.421	543.81
308.651	544.81
308.881	497.81
309.111	521.81
309.341	515.81
309.571	504.81
309.8	502.81
310.03	519.81
310.26	532.81
310.49	499.81
310.72	515.81
310.949	511.81
311.179	528.81
311.409	521.81
311.639	511.81
311.868	512.81
312.098	549.81
312.328	549.81
312.557	549.81
312.787	544.81
313.017	566.81
313.246	569.81
313.476	557.81
313.706	561.81
313.935	551.81
314.165	567.81
314.394	570.81
314.624	571.81
314.853	537.81
315.083	548.81
315.312	574.81
315.542	582.81
315.771	551.81
316.001	556.81
316.23	537.81
316.46	541.81
316.689	569.81
316.919	529.81
317.148	551.81
317.377	562.81
317.607	540.81
317.836	527.81
318.065	532.81
318.295	544.81
318.524	561.81
318.753	529.81
318.983	556.81
319.212	551.81
319.441	541.81
319.67	559.81
319.9	523.81
320.129	545.81
320.358	535.81
320.587	570.81
320.816	556.81
321.046	565.81
321.275	547.81
321.504	565.81
321.733	552.81
321.962	547.81
322.191	536.81
322.42	544.81
322.649	548.81
322.878	548.81
323.108	563.81
323.337	532.81
323.566	554.81
323.795	570.81
324.024	569.81
324.253	571.81
324.482	566.81
324.71	552.81
324.939	568.81
325.168	570.81
325.397	553.81
325.626	602.81
325.855	593.81
326.084	598.81
326.313	605.81
326.542	618.81
326.77	615.81
326.999	618.81
327.228	609.81
327.457	582.81
327.686	586.81
327.914	589.81
328.143	570.81
328.372	600.81
328.6	609.81
328.829	579.81
329.058	610.81
329.287	613.81
329.515	585.81
329.744	589.81
329.972	615.81
330.201	596.81
330.43	613.81
330.658	583.81
330.887	626.81
331.115	629.81
331.344	648.81
331.572	649.81
331.801	644.81
332.03	667.81
332.258	663.81
332.486	704.81
332.715	720.81
332.943	737.81
333.172	810.81
333.4	811.81
333.629	847.81
333.857	814.81
334.085	823.81
334.314	798.81
334.542	778.81
334.771	743.81
334.999	762.81
335.227	765.81
335.455	768.81
335.684	747.81
335.912	731.81
336.14	731.81
336.369	721.81
336.597	749.81
336.825	738.81
337.053	742.81
337.281	704.81
337.51	700.81
337.738	672.81
337.966	691.81
338.194	662.81
338.422	675.81
338.65	659.81
338.878	644.81
339.106	652.81
339.334	641.81
339.562	639.81
339.79	637.81
340.018	597.81
340.246	621.81
340.474	618.81
340.702	621.81
340.93	619.81
341.158	642.81
341.386	645.81
341.614	649.81
341.842	636.81
342.07	608.81
342.298	616.81
342.526	643.81
342.754	617.81
342.981	633.81
343.209	667.81
343.437	668.81
343.665	701.81
343.893	746.81
344.12	822.81
344.348	742.81
344.576	717.81
344.804	679.81
345.031	667.81
345.259	639.81
345.487	637.81
345.714	641.81
345.942	616.81
346.17	612.81
346.397	596.81
346.625	628.81
346.853	623.81
347.08	612.81
347.308	623.81
347.535	625.81
347.763	636.81
347.99	637.81
348.218	661.81
348.445	635.81
348.673	608.81
348.9	611.81
349.128	606.81
349.355	587.81
349.583	584.81
349.81	602.81
350.037	599.81
350.265	584.81
350.492	569.81
350.72	601.81
350.947	567.81
351.174	580.81
351.402	581.81
351.629	599.81
351.856	573.81
352.083	583.81
352.311	573.81
352.538	570.81
352.765	576.81
352.992	600.81
353.22	563.81
353.447	582.81
353.674	581.81
353.901	587.81
354.128	574.81
354.355	567.81
354.583	581.81
354.81	573.81
355.037	593.81
355.264	588.81
355.491	580.81
355.718	586.81
355.945	575.81
356.172	606.81
356.399	582.81
356.626	592.81
356.853	610.81
357.08	595.81
357.307	589.81
357.534	582.81
357.761	586.81
357.988	603.81
358.215	608.81
358.441	613.81
358.668	568.81
358.895	580.81
359.122	591.81
359.349	601.81
359.576	584.81
359.802	576.81
360.029	587.81
360.256	573.81
360.483	560.81
360.709	599.81
360.936	588.81
361.163	599.81
361.39	563.81
361.616	585.81
361.843	569.81
362.07	579.81
362.296	568.81
362.523	591.81
362.749	595.81
362.976	601.81
363.203	591.81
363.429	576.81
363.656	598.81
363.882	573.81
364.109	583.81
364.335	607.81
364.562	599.81
364.788	591.81
365.015	572.81
365.241	602.81
365.468	589.81
365.694	580.81
365.92	581.81
366.147	578.81
366.373	605.81
366.599	593.81
366.826	575.81
367.052	581.81
367.278	578.81
367.505	588.81
367.731	607.81
367.957	609.81
368.184	601.81
368.41	592.81
368.636	604.81
368.862	608.81
369.089	613.81
369.315	581.81
369.541	617.81
369.767	624.81
369.993	592.81
370.219	602.81
370.445	623.81
370.672	637.81
370.898	613.81
371.124	618.81
371.35	628.81
371.576	659.81
371.802	649.81
372.028	625.81
372.254	638.81
372.48	647.81
372.706	661.81
372.932	645.81
373.158	670.81
373.384	641.81
373.61	647.81
373.835	644.81
374.061	626.81
374.287	652.81
374.513	660.81
374.739	701.81
374.965	688.81
375.191	727.81
375.416	724.81
375.642	712.81
375.868	667.81
376.094	691.81
376.319	652.81
376.545	661.81
376.771	651.81
376.997	629.81
377.222	662.81
377.448	635.81
377.674	644.81
377.899	666.81
378.125	638.81
378.35	627.81
378.576	628.81
378.802	645.81
379.027	658.81
379.253	640.81
379.478	639.81
379.704	637.81
379.929	658.81
380.155	625.81
380.38	626.81
380.606	635.81
380.831	629.81
381.057	631.81
381.282	634.81
381.507	625.81
381.733	660.81
381.958	639.81
382.184	681.81
382.409	667.81
382.634	666.81
382.86	663.81
383.085	672.81
383.31	672.81
383.535	711.81
383.761	697.81
383.986	740.81
384.211	727.81
384.436	731.81
384.662	760.81
384.887	784.81
385.112	745.81
385.337	789.81
385.562	775.81
385.787	784.81
386.013	777.81
386.238	770.81
386.463	776.81
386.688	771.81
386.913	735.81
387.138	783.81
387.363	758.81
387.588	728.81
387.813	771.81
388.038	756.81
388.263	764.81
388.488	744.81
388.713	748.81
388.938	739.81
389.163	735.81
389.387	772.81
389.612	742.81
389.837	744.81
390.062	716.81
390.287	763.81
390.512	727.81
390.736	765.81
390.961	755.81
391.186	775.81
391.411	783.81
391.636	817.81
391.86	849.81
392.085	881.81
392.31	881.81
392.534	850.81
392.759	812.81
392.984	812.81
393.208	817.81
393.433	813.81
393.658	822.81
393.882	801.81
394.107	825.81
394.331	817.81
394.556	824.81
394.78	849.81
395.005	832.81
395.229	815.81
395.454	853.81
395.678	889.81
395.903	876.81
396.127	850.81
396.352	833.81
396.576	808.81
396.801	806.81
397.025	792.81
397.249	844.81
397.474	849.81
397.698	857.81
397.922	854.81
398.147	841.81
398.371	863.81
398.595	898.81
398.82	937.81
399.044	992.81
399.268	1088.81
399.492	1321.81
399.717	1512.81
399.941	1510.81
400.165	1297.81
400.389	1143.81
400.613	1045.81
400.837	959.81
401.062	956.81
401.286	964.81
401.51	976.81
401.734	951.81
401.958	964.81
402.182	974.81
402.406	996.81
402.63	1010.81
402.854	1041.81
403.078	1054.81
403.302	1075.81
403.526	1092.81
403.75	1115.81
403.974	1143.81
404.198	1141.81
404.422	1142.81
404.645	1147.81
404.869	1100.81
405.093	1100.81
405.317	1077.81
405.541	1089.81
405.765	1076.81
405.988	1041.81
406.212	1083.81
406.436	1027.81
406.66	1065.81
406.883	1093.81
407.107	1188.81
407.331	1216.81
407.555	1268.81
407.778	1257.81
408.002	1235.81
408.226	1185.81
408.449	1149.81
408.673	1104.81
408.896	1075.81
409.12	1080.81
409.344	1117.81
409.567	1093.81
409.791	1131.81
410.014	1125.81
410.238	1114.81
410.461	1131.81
410.685	1055.81
410.908	1074.81
411.132	1047.81
411.355	1015.81
411.578	1025.81
411.802	974.81
412.025	1003.81
412.249	1047.81
412.472	1001.81
412.695	995.81
412.919	964.81
413.142	949.81
413.365	945.81
413.589	972.81
413.812	952.81
414.035	974.81
414.258	948.81
414.482	972.81
414.705	976.81
414.928	1003.81
415.151	970.81
415.374	979.81
415.597	927.81
415.821	935.81
416.044	947.81
416.267	927.81
416.49	915.81
416.713	923.81
416.936	986.81
417.159	922.81
417.382	914.81
417.605	906.81
417.828	938.81
418.051	972.81
418.274	963.81
418.497	956.81
418.72	992.81
418.943	1001.81
419.166	1061.81
419.389	1147.81
419.611	1093.81
419.834	1015.81
420.057	1009.81
420.28	933.81
420.503	937.81
420.726	927.81
420.948	964.81
421.171	947.81
421.394	953.81
421.617	937.81
421.839	978.81
422.062	950.81
422.285	929.81
422.507	993.81
422.73	965.81
422.953	979.81
423.175	991.81
423.398	1026.81
423.621	1033.81
423.843	1047.81
424.066	1035.81
424.288	1058.81
424.511	1019.81
424.733	994.81
424.956	987.81
425.178	964.81
425.401	927.81
425.623	935.81
425.846	914.81
426.068	929.81
426.291	904.81
426.513	915.81
426.735	849.81
426.958	895.81
427.18	879.81
427.402	894.81
427.625	895.81
427.847	881.81
428.069	858.81
428.292	857.81
428.514	832.81
428.736	849.81
428.958	855.81
429.181	838.81
429.403	819.81
429.625	822.81
429.847	835.81
430.069	833.81
430.292	824.81
430.514	819.81
430.736	820.81
430.958	812.81
431.18	788.81
431.402	838.81
431.624	817.81
431.846	834.81
432.068	856.81
432.29	883.81
432.512	855.81
432.734	858.81
432.956	840.81
433.178	868.81
433.4	835.81
433.622	841.81
433.844	839.81
434.066	857.81
434.287	875.81
434.509	892.81
434.731	936.81
434.953	995.81
435.175	998.81
435.397	963.81
435.618	933.81
435.84	893.81
436.062	844.81
436.284	841.81
436.505	860.81
436.727	845.81
436.949	880.81
437.17	867.81
437.392	856.81
437.614	837.81
437.835	774.81
438.057	820.81
438.278	813.81
438.5	826.81
438.721	851.81
438.943	843.81
439.165	800.81
439.386	825.81
439.608	863.81
439.829	861.81
440.05	871.81
440.272	837.81
440.493	845.81
440.715	856.81
440.936	883.81
441.158	884.81
441.379	936.81
441.6	961.81
441.822	980.81
442.043	978.81
442.264	958.81
442.486	966.81
442.707	950.81
442.928	939.81
443.149	970.81
443.371	955.81
443.592	937.81
443.813	947.81
444.034	959.81
444.255	997.81
444.476	1059.81
444.698	1111.81
444.919	1188.81
445.14	1251.81
445.361	1091.81
445.582	1008.81
445.803	941.81
446.024	905.81
446.245	857.81
446.466	884.81
446.687	849.81
446.908	859.81
447.129	841.81
447.35	842.81
447.571	822.81
447.792	791.81
448.013	805.81
448.234	802.81
448.455	793.81
448.675	791.81
448.896	778.81
449.117	788.81
449.338	784.81
449.559	783.81
449.779	780.81
450	795.81
450.221	771.81
450.442	816.81
450.662	819.81
450.883	845.81
451.104	826.81
451.324	850.81
451.545	835.81
451.766	802.81
451.986	847.81
452.207	827.81
452.428	808.81
452.648	776.81
452.869	803.81
453.089	775.81
453.31	799.81
453.53	752.81
453.751	792.81
453.971	799.81
454.192	748.81
454.412	738.81
454.633	749.81
454.853	761.81
455.073	747.81
455.294	779.81
455.514	739.81
455.734	746.81
455.955	751.81
456.175	751.81
456.395	719.81
456.616	740.81
456.836	753.81
457.056	731.81
457.276	725.81
457.497	729.81
457.717	722.81
457.937	751.81
458.157	762.81
458.377	770.81
458.598	790.81
458.818	791.81
459.038	794.81
459.258	835.81
459.478	893.81
459.698	883.81
459.918	896.81
460.138	984.81
460.358	1014.81
460.578	1011.81
460.798	994.81
461.018	1041.81
461.238	994.81
461.458	990.81
461.678	992.81
461.898	1025.81
462.118	1015.81
462.338	1079.81
462.558	1104.81
462.777	1133.81
462.997	1283.81
463.217	1407.81
463.437	1407.81
463.657	1297.81
463.876	1215.81
464.096	1210.81
464.316	1217.81
464.536	1243.81
464.755	1173.81
464.975	1104.81
465.195	1069.81
465.414	1002.81
465.634	904.81
465.854	916.81
466.073	882.81
466.293	873.81
466.512	868.81
466.732	821.81
466.951	813.81
467.171	834.81
467.391	833.81
467.61	836.81
467.829	809.81
468.049	828.81
468.268	794.81
468.488	795.81
468.707	793.81
468.927	781.81
469.146	773.81
469.365	795.81
469.585	810.81
469.804	803.81
470.023	853.81
470.243	859.81
470.462	857.81
470.681	846.81
470.901	848.81
471.12	835.81
471.339	827.81
471.558	806.81
471.777	807.81
471.997	808.81
472.216	794.81
472.435	805.81
472.654	783.81
472.873	765.81
473.092	789.81
473.311	769.81
473.53	753.81
473.749	771.81
473.968	761.81
474.187	760.81
474.406	772.81
474.625	777.81
474.844	769.81
475.063	764.81
475.282	775.81
475.501	784.81
475.72	785.81
475.939	774.81
476.158	787.81
476.377	808.81
476.596	803.81
476.814	805.81
477.033	791.81
477.252	839.81
477.471	830.81
477.69	877.81
477.908	886.81
478.127	915.81
478.346	915.81
478.564	938.81
478.783	931.81
479.002	958.81
479.22	987.81
479.439	958.81
479.658	939.81
479.876	923.81
480.095	938.81
480.313	1001.81
480.532	1038.81
480.751	1027.81
480.969	1005.81
481.188	953.81
481.406	938.81
481.624	882.81
481.843	893.81
482.061	864.81
482.28	874.81
482.498	883.81
482.717	879.81
482.935	895.81
483.153	885.81
483.372	886.81
483.59	903.81
483.808	894.81
484.027	902.81
484.245	888.81
484.463	892.81
484.681	894.81
484.9	909.81
485.118	920.81
485.336	908.81
485.554	954.81
485.772	907.81
485.99	951.81
486.209	967.81
486.427	964.81
486.645	940.81
486.863	935.81
487.081	909.81
487.299	939.81
487.517	927.81
487.735	909.81
487.953	951.81
488.171	924.81
488.389	915.81
488.607	941.81
488.825	932.81
489.043	892.81
489.261	928.81
489.479	920.81
489.696	929.81
489.914	924.81
490.132	912.81
490.35	926.81
490.568	920.81
490.786	907.81
491.003	940.81
491.221	941.81
491.439	917.81
491.657	921.81
491.874	937.81
492.092	902.81
492.31	930.81
492.527	937.81
492.745	921.81
492.963	949.81
493.18	981.81
493.398	971.81
493.615	981.81
493.833	964.81
494.05	964.81
494.268	994.81
494.485	960.81
494.703	973.81
494.92	979.81
495.138	973.81
495.355	973.81
495.573	975.81
495.79	953.81
496.008	997.81
496.225	959.81
496.442	972.81
496.66	1030.81
496.877	997.81
497.094	998.81
497.312	1029.81
497.529	1034.81
497.746	1074.81
497.963	1131.81
498.181	1173.81
498.398	1231.81
498.615	1260.81
498.832	1360.81
499.049	1519.81
499.267	1604.81
499.484	1750.81
499.701	1991.81
499.918	2131.81
500.135	2537.81
500.352	2941.81
500.569	3143.81
500.786	3149.81
501.003	2877.81
501.22	2497.81
501.437	2245.81
501.654	1882.81
501.871	1690.81
502.088	1552.81
502.305	1447.81
502.522	1381.81
502.739	1351.81
502.956	1259.81
503.172	1237.81
503.389	1187.81
503.606	1136.81
503.823	1099.81
504.04	1115.81
504.256	1105.81
504.473	1139.81
504.69	1219.81
504.907	1180.81
505.123	1087.81
505.34	1025.81
505.557	964.81
505.773	954.81
505.99	938.81
506.207	914.81
506.423	861.81
506.64	866.81
506.856	856.81
507.073	852.81
507.289	884.81
507.506	885.81
507.722	859.81
507.939	853.81
508.155	851.81
508.372	827.81
508.588	821.81
508.805	809.81
509.021	820.81
509.238	785.81
509.454	799.81
509.67	833.81
509.887	797.81
510.103	804.81
510.319	826.81
510.536	787.81
510.752	777.81
510.968	797.81
511.184	809.81
511.401	790.81
511.617	774.81
511.833	787.81
512.049	782.81
512.265	776.81
512.481	790.81
512.698	791.81
512.914	791.81
513.13	844.81
513.346	809.81
513.562	811.81
513.778	816.81
513.994	792.81
514.21	791.81
514.426	795.81
514.642	792.81
514.858	791.81
515.074	815.81
515.29	822.81
515.506	823.81
515.721	833.81
515.937	863.81
516.153	841.81
516.369	863.81
516.585	902.81
516.801	931.81
517.016	964.81
517.232	1036.81
517.448	1077.81
517.664	1097.81
517.879	1137.81
518.095	1141.81
518.311	1104.81
518.527	1060.81
518.742	1036.81
518.958	984.81
519.173	915.81
519.389	894.81
519.605	860.81
519.82	848.81
520.036	829.81
520.251	807.81
520.467	841.81
520.682	807.81
520.898	788.81
521.113	791.81
521.329	779.81
521.544	781.81
521.76	769.81
521.975	781.81
522.19	777.81
522.406	771.81
522.621	740.81
522.836	747.81
523.052	748.81
523.267	770.81
523.482	728.81
523.698	721.81
523.913	736.81
524.128	731.81
524.343	755.81
524.559	737.81
524.774	728.81
524.989	757.81
525.204	732.81
525.419	733.81
525.634	721.81
525.849	738.81
526.064	744.81
526.28	713.81
526.495	732.81
526.71	715.81
526.925	709.81
527.14	688.81
527.355	722.81
527.57	727.81
527.785	731.81
527.999	697.81
528.214	727.81
528.429	685.81
528.644	711.81
528.859	694.81
529.074	711.81
529.289	746.81
529.503	722.81
529.718	728.81
529.933	721.81
530.148	720.81
530.363	708.81
530.577	689.81
530.792	714.81
531.007	727.81
531.221	717.81
531.436	720.81
531.651	755.81
531.865	731.81
532.08	715.81
532.295	717.81
532.509	713.81
532.724	728.81
532.938	705.81
533.153	707.81
533.367	715.81
533.582	737.81
533.796	716.81
534.011	726.81
534.225	707.81
534.44	698.81
534.654	679.81
534.868	716.81
535.083	689.81
535.297	717.81
535.511	707.81
535.726	705.81
535.94	682.81
536.154	701.81
536.369	703.81
536.583	675.81
536.797	668.81
537.011	660.81
537.225	650.81
537.44	679.81
537.654	683.81
537.868	667.81
538.082	676.81
538.296	667.81
538.51	661.81
538.724	671.81
538.938	649.81
539.153	648.81
539.367	656.81
539.581	648.81
539.795	659.81
540.009	639.81
540.222	639.81
540.436	664.81
540.65	634.81
540.864	640.81
541.078	639.81
541.292	657.81
541.506	642.81
541.72	639.81
541.934	650.81
542.147	631.81
542.361	628.81
542.575	624.81
542.789	629.81
543.002	616.81
543.216	613.81
543.43	639.81
543.644	627.81
543.857	624.81
544.071	647.81
544.285	622.81
544.498	635.81
544.712	640.81
544.925	641.81
545.139	643.81
545.352	659.81
545.566	657.81
545.779	670.81
545.993	656.81
546.206	636.81
546.42	645.81
546.633	657.81
546.847	673.81
547.06	651.81
547.274	635.81
547.487	642.81
547.7	652.81
547.914	651.81
548.127	669.81
548.34	650.81
548.554	646.81
548.767	667.81
548.98	667.81
549.193	668.81
549.407	677.81
549.62	674.81
549.833	676.81
550.046	694.81
550.259	661.81
550.473	646.81
550.686	655.81
550.899	652.81
551.112	635.81
551.325	631.81
551.538	638.81
551.751	652.81
551.964	641.81
552.177	649.81
552.39	635.81
552.603	678.81
552.816	669.81
553.029	697.81
553.242	736.81
553.455	739.81
553.667	760.81
553.88	732.81
554.093	712.81
554.306	675.81
554.519	667.81
554.732	691.81
554.944	645.81
555.157	603.81
555.37	628.81
555.583	623.81
555.795	624.81
556.008	583.81
556.221	585.81
556.433	599.81
556.646	581.81
556.859	595.81
557.071	577.81
557.284	595.81
557.496	593.81
557.709	564.81
557.921	538.81
558.134	540.81
558.346	532.81
558.559	562.81
558.771	571.81
558.984	561.81
559.196	538.81
559.409	557.81
559.621	530.81
559.833	537.81
560.046	539.81
560.258	544.81
560.47	533.81
560.683	549.81
560.895	536.81
561.107	548.81
561.32	547.81
561.532	561.81
561.744	557.81
561.956	525.81
562.168	528.81
562.381	553.81
562.593	552.81
562.805	571.81
563.017	560.81
563.229	532.81
563.441	565.81
563.653	546.81
563.865	551.81
564.077	560.81
564.289	585.81
564.501	572.81
564.713	571.81
564.925	580.81
565.137	595.81
565.349	595.81
565.561	638.81
565.773	645.81
565.985	654.81
566.197	700.81
566.408	740.81
566.62	847.81
566.832	905.81
567.044	893.81
567.255	899.81
567.467	911.81
567.679	1010.81
567.891	1079.81
568.102	1148.81
568.314	1071.81
568.526	944.81
568.737	861.81
568.949	779.81
569.161	687.81
569.372	675.81
569.584	624.81
569.795	573.81
570.007	563.81
570.218	564.81
570.43	554.81
570.641	567.81
570.853	580.81
571.064	571.81
571.276	575.81
571.487	569.81
571.698	547.81
571.91	502.81
572.121	509.81
572.333	500.81
572.544	465.81
572.755	458.81
572.966	456.81
573.178	475.81
573.389	472.81
573.6	461.81
573.811	465.81
574.023	483.81
574.234	455.81
574.445	453.81
574.656	447.81
574.867	453.81
575.078	439.81
575.289	453.81
575.501	444.81
575.712	440.81
575.923	419.81
576.134	447.81
576.345	418.81
576.556	423.81
576.767	443.81
576.978	427.81
577.188	421.81
577.399	435.81
577.61	415.81
577.821	411.81
578.032	421.81
578.243	437.81
578.454	415.81
578.665	401.81
578.875	407.81
579.086	422.81
579.297	417.81
579.508	411.81
579.718	400.81
579.929	410.81
580.14	421.81
580.35	385.81
580.561	402.81
580.772	415.81
580.982	403.81
581.193	410.81
581.403	405.81
581.614	373.81
581.825	382.81
582.035	395.81
582.246	397.81
582.456	385.81
582.667	377.81
582.877	398.81
583.087	372.81
583.298	396.81
583.508	384.81
583.719	369.81
583.929	391.81
584.139	384.81
584.35	388.81
584.56	384.81
584.77	396.81
584.981	370.81
585.191	377.81
585.401	375.81
585.611	354.81
585.821	375.81
586.032	374.81
586.242	368.81
586.452	386.81
586.662	392.81
586.872	388.81
587.082	381.81
587.292	357.81
587.502	373.81
587.713	380.81
587.923	373.81
588.133	360.81
588.343	373.81
588.553	377.81
588.762	372.81
588.972	357.81
589.182	363.81
589.392	365.81
589.602	341.81
589.812	372.81
590.022	371.81
590.232	376.81
590.441	381.81
590.651	375.81
590.861	368.81
591.071	387.81
591.281	383.81
591.49	377.81
591.7	400.81
591.91	399.81
592.119	392.81
592.329	398.81
592.539	410.81
592.748	456.81
592.958	440.81
593.167	468.81
593.377	488.81
593.587	489.81
593.796	464.81
594.006	491.81
594.215	488.81
594.424	495.81
594.634	474.81
594.843	452.81
595.053	448.81
595.262	425.81
595.472	402.81
595.681	393.81
595.89	387.81
596.1	379.81
596.309	372.81
596.518	358.81
596.727	338.81
596.937	343.81
597.146	355.81
597.355	344.81
597.564	319.81
597.774	317.81
597.983	333.81
598.192	339.81
598.401	320.81
598.61	321.81
598.819	319.81
599.028	331.81
599.237	312.81
599.446	313.81
599.655	327.81
599.864	314.81
600.073	326.81
600.282	307.81
600.491	298.81
600.7	328.81
600.909	305.81
601.118	305.81
601.327	309.81
601.536	308.81
601.745	315.81
601.953	301.81
602.162	307.81
602.371	313.81
602.58	297.81
602.789	304.81
602.997	297.81
603.206	298.81
603.415	308.81
603.623	296.81
603.832	292.81
604.041	288.81
604.249	297.81
604.458	302.81
604.666	303.81
604.875	280.81
605.084	296.81
605.292	282.81
605.501	296.81
605.709	305.81
605.918	299.81
606.126	297.81
606.334	269.81
606.543	274.81
606.751	282.81
606.96	304.81
607.168	287.81
607.376	282.81
607.585	300.81
607.793	273.81
608.001	283.81
608.21	278.81
608.418	287.81
608.626	276.81
608.834	276.81
609.043	280.81
609.251	272.81
609.459	285.81
609.667	277.81
609.875	274.81
610.083	277.81
610.291	283.81
610.499	276.81
610.707	274.81
610.916	294.81
611.124	267.81
611.332	265.81
611.54	268.81
611.748	288.81
611.955	269.81
612.163	267.81
612.371	272.81
612.579	268.81
612.787	261.81
612.995	264.81
613.203	263.81
613.411	269.81
613.618	267.81
613.826	274.81
614.034	266.81
614.242	274.81
614.449	271.81
614.657	279.81
614.865	273.81
615.072	262.81
615.28	264.81
615.488	267.81
615.695	275.81
615.903	287.81
616.111	271.81
616.318	283.81
616.526	260.81
616.733	264.81
616.941	282.81
617.148	275.81
617.356	272.81
617.563	266.81
617.771	277.81
617.978	265.81
618.185	275.81
618.393	291.81
618.6	283.81
618.807	279.81
619.015	277.81
619.222	257.81
619.429	257.81
619.637	250.81
619.844	253.81
620.051	259.81
620.258	256.81
620.466	233.81
620.673	235.81
620.88	265.81
621.087	251.81
621.294	256.81
621.501	258.81
621.708	241.81
621.915	242.81
622.122	235.81
622.329	246.81
622.536	263.81
622.743	230.81
622.95	241.81
623.157	237.81
623.364	234.81
623.571	235.81
623.778	260.81
623.985	244.81
624.192	233.81
624.399	238.81
624.606	235.81
624.812	226.81
625.019	234.81
625.226	241.81
625.433	245.81
625.639	245.81
625.846	243.81
626.053	230.81
626.259	223.81
626.466	253.81
626.673	223.81
626.879	229.81
627.086	214.81
627.293	219.81
627.499	235.81
627.706	209.81
627.912	229.81
628.119	220.81
628.325	218.81
628.532	214.81
628.738	234.81
628.945	219.81
629.151	212.81
629.357	220.81
629.564	211.81
629.77	205.81
629.976	207.81
630.183	223.81
630.389	224.81
630.595	211.81
630.802	199.81
631.008	204.81
631.214	210.81
631.42	205.81
631.627	206.81
631.833	215.81
632.039	192.81
632.245	196.81
632.451	194.81
632.657	210.81
632.863	199.81
633.069	193.81
633.275	214.81
633.481	204.81
633.688	182.81
633.893	210.81
634.099	191.81
634.305	199.81
634.511	196.81
634.717	205.81
634.923	212.81
635.129	194.81
635.335	187.81
635.541	199.81
635.747	212.81
635.952	191.81
636.158	198.81
636.364	209.81
636.57	207.81
636.775	199.81
636.981	209.81
637.187	209.81
637.392	179.81
637.598	205.81
637.804	201.81
638.009	199.81
638.215	195.81
638.421	200.81
638.626	184.81
638.832	200.81
639.037	188.81
639.243	188.81
639.448	182.81
639.654	185.81
639.859	196.81
640.065	202.81
640.27	193.81
640.475	195.81
640.681	200.81
640.886	167.81
641.091	178.81
641.297	180.81
641.502	189.81
641.707	190.81
641.913	187.81
642.118	187.81
642.323	198.81
642.528	191.81
642.733	193.81
642.939	176.81
643.144	181.81
643.349	175.81
643.554	192.81
643.759	177.81
643.964	184.81
644.169	176.81
644.374	176.81
644.579	192.81
644.784	177.81
644.989	191.81
645.194	162.81
645.399	180.81
645.604	183.81
645.809	183.81
646.014	162.81
646.219	192.81
646.423	181.81
646.628	179.81
646.833	178.81
647.038	171.81
647.243	204.81
647.447	193.81
647.652	180.81
647.857	179.81
648.062	177.81
648.266	193.81
648.471	175.81
648.676	203.81
648.88	187.81
649.085	182.81
649.289	168.81
649.494	187.81
649.698	175.81
649.903	172.81
650.107	171.81
650.312	179.81
650.516	186.81
650.721	179.81
650.925	155.81
651.13	166.81
651.334	170.81
651.539	152.81
651.743	159.81
651.947	175.81
652.152	154.81
652.356	165.81
652.56	160.81
652.764	147.81
652.969	148.81
653.173	141.81
653.377	144.81
653.581	166.81
653.785	142.81
653.99	132.81
654.194	125.81
654.398	126.81
654.602	148.81
654.806	138.81
655.01	135.81
655.214	116.81
655.418	156.81
655.622	141.81
655.826	124.81
656.03	136.81
656.234	146.81
656.438	141.81
656.642	123.81
656.846	125.81
657.049	140.81
657.253	114.81
657.457	117.81
657.661	106.81
657.865	121.81
658.068	102.81
658.272	113.81
658.476	106.81
658.68	97.81
658.883	90.81
659.087	121.81
659.291	98.81
659.494	88.81
659.698	107.81
659.901	102.81
660.105	109.81
660.309	106.81
660.512	90.81
660.716	83.81
660.919	97.81
661.123	90.81
661.326	89.81
661.53	95.81
661.733	95.81
661.936	81.81
662.14	79.81
662.343	82.81
662.546	82.81
662.75	73.81
662.953	83.81
663.156	83.81
663.36	93.81
663.563	74.81
663.766	92.81
663.969	96.81
664.173	91.81
664.376	89.81
664.579	78.81
664.782	87.81
664.985	79.81
665.188	68.81
665.391	84.81
665.594	91.81
665.797	85.81
666	84.81
666.203	79.81
666.406	76.81
666.609	77.81
666.812	86.81
667.015	88.81
667.218	92.81
667.421	76.81
667.624	74.81
667.827	93.81
668.03	80.81
668.232	79.81
668.435	78.81
668.638	76.81
668.841	87.81
669.043	69.81
669.246	72.81
669.449	74.81
669.651	76.81
669.854	71.81
670.057	89.81
670.259	70.81
670.462	88.81
670.665	67.81
670.867	75.81
671.07	76.81
671.272	89.81
671.475	88.81
671.677	83.81
671.88	70.81
672.082	82.81
672.284	73.81
672.487	86.81
672.689	75.81
672.892	81.81
