Data from Ni(NO3)2@0.0625M.TitratingCurve.Agarose3%dH2O.NegLispCup.LampEnergy10.LIBS07252019_HRD10591_18-15-32-569.txt Node
Date: Thu Jul 25 18:15:32 EDT 2019
User: cochatt
Spectrometer: HR+D1059
Trigger mode: 1
Integration Time (sec): 1.000000E-1
Scans to average: 1
Electric dark correction enabled: true
Nonlinearity correction enabled: false
Boxcar width: 0
XAxis mode: Wavelengths
Number of Pixels in Spectrum: 2048
>>>>>Begin Spectral Data<<<<<
223.165	-12.38
223.4	-12.38
223.635	-12.38
223.869	-11.38
224.104	-25.38
224.338	-21.38
224.573	-21.38
224.808	-12.38
225.042	-13.38
225.277	-2.38
225.511	11.62
225.746	5.62
225.98	3.62
226.215	9.62
226.449	20.62
226.683	23.62
226.918	14.62
227.152	30.62
227.387	35.62
227.621	40.62
227.856	40.62
228.09	34.62
228.324	50.62
228.559	46.62
228.793	82.62
229.027	113.62
229.262	114.62
229.496	140.62
229.73	150.62
229.964	142.62
230.199	148.62
230.433	136.62
230.667	156.62
230.901	146.62
231.136	155.62
231.37	148.62
231.604	150.62
231.838	153.62
232.072	152.62
232.306	166.62
232.541	176.62
232.775	152.62
233.009	169.62
233.243	160.62
233.477	161.62
233.711	163.62
233.945	165.62
234.179	173.62
234.413	176.62
234.647	168.62
234.881	160.62
235.115	179.62
235.349	170.62
235.583	170.62
235.817	173.62
236.051	182.62
236.285	171.62
236.519	186.62
236.753	180.62
236.987	184.62
237.221	187.62
237.455	188.62
237.689	202.62
237.922	191.62
238.156	180.62
238.39	186.62
238.624	199.62
238.858	204.62
239.091	201.62
239.325	186.62
239.559	192.62
239.793	193.62
240.027	203.62
240.26	206.62
240.494	202.62
240.728	201.62
240.961	216.62
241.195	217.62
241.429	230.62
241.662	228.62
241.896	216.62
242.13	222.62
242.363	207.62
242.597	223.62
242.83	242.62
243.064	224.62
243.298	233.62
243.531	246.62
243.765	229.62
243.998	237.62
244.232	241.62
244.465	240.62
244.699	241.62
244.932	254.62
245.166	245.62
245.399	270.62
245.633	263.62
245.866	255.62
246.099	257.62
246.333	260.62
246.566	271.62
246.8	256.62
247.033	243.62
247.266	274.62
247.5	284.62
247.733	274.62
247.966	261.62
248.2	266.62
248.433	287.62
248.666	284.62
248.899	265.62
249.133	302.62
249.366	282.62
249.599	282.62
249.832	281.62
250.066	313.62
250.299	281.62
250.532	294.62
250.765	325.62
250.998	303.62
251.231	294.62
251.465	300.62
251.698	327.62
251.931	313.62
252.164	315.62
252.397	325.62
252.63	314.62
252.863	314.62
253.096	315.62
253.329	313.62
253.562	329.62
253.795	327.62
254.028	336.62
254.261	323.62
254.494	328.62
254.727	323.62
254.96	339.62
255.193	337.62
255.426	344.62
255.659	332.62
255.892	341.62
256.124	354.62
256.357	348.62
256.59	332.62
256.823	348.62
257.056	350.62
257.289	353.62
257.521	375.62
257.754	364.62
257.987	357.62
258.22	370.62
258.452	354.62
258.685	344.62
258.918	349.62
259.151	363.62
259.383	372.62
259.616	359.62
259.849	371.62
260.081	384.62
260.314	390.62
260.547	369.62
260.779	375.62
261.012	375.62
261.244	382.62
261.477	386.62
261.71	398.62
261.942	385.62
262.175	386.62
262.407	391.62
262.64	383.62
262.872	395.62
263.105	403.62
263.337	402.62
263.57	414.62
263.802	385.62
264.035	401.62
264.267	428.62
264.499	389.62
264.732	397.62
264.964	412.62
265.197	427.62
265.429	425.62
265.661	408.62
265.894	416.62
266.126	421.62
266.358	422.62
266.591	420.62
266.823	423.62
267.055	417.62
267.287	423.62
267.52	442.62
267.752	408.62
267.984	418.62
268.216	444.62
268.448	431.62
268.681	445.62
268.913	453.62
269.145	453.62
269.377	457.62
269.609	451.62
269.841	466.62
270.073	451.62
270.306	447.62
270.538	450.62
270.77	454.62
271.002	450.62
271.234	448.62
271.466	467.62
271.698	460.62
271.93	486.62
272.162	454.62
272.394	454.62
272.626	486.62
272.858	467.62
273.09	471.62
273.322	486.62
273.553	472.62
273.785	474.62
274.017	506.62
274.249	481.62
274.481	480.62
274.713	507.62
274.945	503.62
275.176	503.62
275.408	499.62
275.64	490.62
275.872	509.62
276.104	530.62
276.335	522.62
276.567	491.62
276.799	501.62
277.031	525.62
277.262	490.62
277.494	510.62
277.726	525.62
277.957	524.62
278.189	517.62
278.421	517.62
278.652	512.62
278.884	530.62
279.115	527.62
279.347	505.62
279.579	537.62
279.81	545.62
280.042	547.62
280.273	526.62
280.505	534.62
280.736	566.62
280.968	546.62
281.199	549.62
281.431	549.62
281.662	570.62
281.894	566.62
282.125	576.62
282.356	582.62
282.588	564.62
282.819	570.62
283.051	565.62
283.282	593.62
283.513	584.62
283.745	586.62
283.976	582.62
284.207	577.62
284.439	593.62
284.67	602.62
284.901	602.62
285.132	585.62
285.364	591.62
285.595	585.62
285.826	594.62
286.057	590.62
286.288	604.62
286.52	595.62
286.751	585.62
286.982	631.62
287.213	615.62
287.444	613.62
287.675	621.62
287.906	613.62
288.138	623.62
288.369	611.62
288.6	632.62
288.831	648.62
289.062	621.62
289.293	636.62
289.524	639.62
289.755	610.62
289.986	648.62
290.217	661.62
290.448	653.62
290.679	645.62
290.91	647.62
291.141	626.62
291.371	655.62
291.602	643.62
291.833	651.62
292.064	633.62
292.295	645.62
292.526	649.62
292.757	670.62
292.987	650.62
293.218	617.62
293.449	642.62
293.68	636.62
293.91	662.62
294.141	646.62
294.372	633.62
294.603	662.62
294.833	653.62
295.064	630.62
295.295	673.62
295.525	657.62
295.756	675.62
295.987	663.62
296.217	641.62
296.448	683.62
296.679	669.62
296.909	691.62
297.14	666.62
297.37	691.62
297.601	668.62
297.831	682.62
298.062	682.62
298.292	721.62
298.523	701.62
298.753	723.62
298.984	694.62
299.214	714.62
299.445	679.62
299.675	711.62
299.905	715.62
300.136	711.62
300.366	709.62
300.597	717.62
300.827	732.62
301.057	747.62
301.288	748.62
301.518	727.62
301.748	743.62
301.979	772.62
302.209	747.62
302.439	737.62
302.669	729.62
302.9	741.62
303.13	726.62
303.36	723.62
303.59	722.62
303.82	727.62
304.051	734.62
304.281	708.62
304.511	707.62
304.741	725.62
304.971	744.62
305.201	719.62
305.431	737.62
305.661	730.62
305.891	738.62
306.121	722.62
306.352	705.62
306.582	716.62
306.812	698.62
307.042	709.62
307.272	725.62
307.502	721.62
307.731	721.62
307.961	696.62
308.191	696.62
308.421	684.62
308.651	714.62
308.881	726.62
309.111	714.62
309.341	700.62
309.571	704.62
309.8	708.62
310.03	708.62
310.26	723.62
310.49	723.62
310.72	714.62
310.949	724.62
311.179	731.62
311.409	728.62
311.639	742.62
311.868	729.62
312.098	721.62
312.328	730.62
312.557	727.62
312.787	766.62
313.017	768.62
313.246	774.62
313.476	778.62
313.706	772.62
313.935	791.62
314.165	755.62
314.394	776.62
314.624	770.62
314.853	783.62
315.083	747.62
315.312	774.62
315.542	747.62
315.771	733.62
316.001	755.62
316.23	781.62
316.46	757.62
316.689	763.62
316.919	735.62
317.148	747.62
317.377	734.62
317.607	770.62
317.836	749.62
318.065	765.62
318.295	794.62
318.524	752.62
318.753	749.62
318.983	749.62
319.212	736.62
319.441	759.62
319.67	766.62
319.9	729.62
320.129	769.62
320.358	780.62
320.587	737.62
320.816	724.62
321.046	748.62
321.275	747.62
321.504	759.62
321.733	752.62
321.962	760.62
322.191	777.62
322.42	766.62
322.649	756.62
322.878	774.62
323.108	776.62
323.337	797.62
323.566	774.62
323.795	777.62
324.024	795.62
324.253	804.62
324.482	793.62
324.71	754.62
324.939	794.62
325.168	767.62
325.397	786.62
325.626	789.62
325.855	825.62
326.084	834.62
326.313	835.62
326.542	829.62
326.77	845.62
326.999	818.62
327.228	823.62
327.457	844.62
327.686	814.62
327.914	848.62
328.143	833.62
328.372	835.62
328.6	816.62
328.829	817.62
329.058	870.62
329.287	854.62
329.515	869.62
329.744	836.62
329.972	880.62
330.201	832.62
330.43	842.62
330.658	869.62
330.887	884.62
331.115	889.62
331.344	877.62
331.572	868.62
331.801	904.62
332.03	951.62
332.258	952.62
332.486	988.62
332.715	1029.62
332.943	1031.62
333.172	1082.62
333.4	1116.62
333.629	1154.62
333.857	1158.62
334.085	1131.62
334.314	1110.62
334.542	1117.62
334.771	1089.62
334.999	1056.62
335.227	1038.62
335.455	1052.62
335.684	1029.62
335.912	1041.62
336.14	1030.62
336.369	999.62
336.597	1031.62
336.825	1023.62
337.053	1014.62
337.281	985.62
337.51	964.62
337.738	949.62
337.966	933.62
338.194	957.62
338.422	916.62
338.65	928.62
338.878	900.62
339.106	946.62
339.334	910.62
339.562	910.62
339.79	876.62
340.018	896.62
340.246	860.62
340.474	869.62
340.702	861.62
340.93	912.62
341.158	876.62
341.386	888.62
341.614	888.62
341.842	854.62
342.07	849.62
342.298	857.62
342.526	867.62
342.754	871.62
342.981	874.62
343.209	888.62
343.437	904.62
343.665	992.62
343.893	1051.62
344.12	1106.62
344.348	1063.62
344.576	997.62
344.804	955.62
345.031	920.62
345.259	906.62
345.487	894.62
345.714	878.62
345.942	875.62
346.17	872.62
346.397	853.62
346.625	872.62
346.853	834.62
347.08	838.62
347.308	865.62
347.535	844.62
347.763	863.62
347.99	839.62
348.218	855.62
348.445	858.62
348.673	840.62
348.9	833.62
349.128	837.62
349.355	840.62
349.583	844.62
349.81	813.62
350.037	831.62
350.265	805.62
350.492	842.62
350.72	796.62
350.947	845.62
351.174	816.62
351.402	812.62
351.629	848.62
351.856	813.62
352.083	828.62
352.311	841.62
352.538	832.62
352.765	813.62
352.992	796.62
353.22	782.62
353.447	812.62
353.674	793.62
353.901	778.62
354.128	794.62
354.355	803.62
354.583	818.62
354.81	803.62
355.037	831.62
355.264	838.62
355.491	813.62
355.718	826.62
355.945	836.62
356.172	816.62
356.399	856.62
356.626	841.62
356.853	817.62
357.08	824.62
357.307	828.62
357.534	843.62
357.761	806.62
357.988	829.62
358.215	836.62
358.441	822.62
358.668	825.62
358.895	818.62
359.122	807.62
359.349	826.62
359.576	837.62
359.802	839.62
360.029	786.62
360.256	829.62
360.483	796.62
360.709	803.62
360.936	812.62
361.163	791.62
361.39	830.62
361.616	829.62
361.843	823.62
362.07	854.62
362.296	808.62
362.523	798.62
362.749	845.62
362.976	807.62
363.203	806.62
363.429	806.62
363.656	819.62
363.882	839.62
364.109	806.62
364.335	814.62
364.562	818.62
364.788	790.62
365.015	814.62
365.241	801.62
365.468	792.62
365.694	816.62
365.92	813.62
366.147	792.62
366.373	803.62
366.599	827.62
366.826	809.62
367.052	804.62
367.278	824.62
367.505	843.62
367.731	818.62
367.957	850.62
368.184	834.62
368.41	813.62
368.636	830.62
368.862	819.62
369.089	866.62
369.315	864.62
369.541	835.62
369.767	846.62
369.993	858.62
370.219	828.62
370.445	853.62
370.672	843.62
370.898	886.62
371.124	870.62
371.35	884.62
371.576	908.62
371.802	864.62
372.028	884.62
372.254	888.62
372.48	876.62
372.706	914.62
372.932	920.62
373.158	927.62
373.384	914.62
373.61	885.62
373.835	889.62
374.061	908.62
374.287	904.62
374.513	893.62
374.739	953.62
374.965	979.62
375.191	1027.62
375.416	1001.62
375.642	955.62
375.868	941.62
376.094	917.62
376.319	896.62
376.545	921.62
376.771	892.62
376.997	924.62
377.222	911.62
377.448	899.62
377.674	897.62
377.899	867.62
378.125	890.62
378.35	896.62
378.576	891.62
378.802	878.62
379.027	848.62
379.253	888.62
379.478	859.62
379.704	882.62
379.929	875.62
380.155	897.62
380.38	866.62
380.606	885.62
380.831	893.62
381.057	899.62
381.282	896.62
381.507	846.62
381.733	900.62
381.958	877.62
382.184	911.62
382.409	902.62
382.634	929.62
382.86	940.62
383.085	942.62
383.31	964.62
383.535	1003.62
383.761	978.62
383.986	1000.62
384.211	1037.62
384.436	1031.62
384.662	1064.62
384.887	1080.62
385.112	1095.62
385.337	1069.62
385.562	1098.62
385.787	1094.62
386.013	1120.62
386.238	1084.62
386.463	1091.62
386.688	1090.62
386.913	1062.62
387.138	1073.62
387.363	1063.62
387.588	1071.62
387.813	1070.62
388.038	1042.62
388.263	1075.62
388.488	1086.62
388.713	1068.62
388.938	1061.62
389.163	1065.62
389.387	1049.62
389.612	1052.62
389.837	1045.62
390.062	1036.62
390.287	1040.62
390.512	1042.62
390.736	1061.62
390.961	1056.62
391.186	1124.62
391.411	1146.62
391.636	1180.62
391.86	1229.62
392.085	1248.62
392.31	1218.62
392.534	1196.62
392.759	1154.62
392.984	1142.62
393.208	1090.62
393.433	1125.62
393.658	1141.62
393.882	1186.62
394.107	1152.62
394.331	1160.62
394.556	1145.62
394.78	1195.62
395.005	1148.62
395.229	1151.62
395.454	1215.62
395.678	1248.62
395.903	1212.62
396.127	1170.62
396.352	1156.62
396.576	1143.62
396.801	1151.62
397.025	1163.62
397.249	1203.62
397.474	1208.62
397.698	1187.62
397.922	1202.62
398.147	1194.62
398.371	1226.62
398.595	1264.62
398.82	1306.62
399.044	1411.62
399.268	1570.62
399.492	1880.62
399.717	2150.62
399.941	2134.62
400.165	1859.62
400.389	1638.62
400.613	1500.62
400.837	1445.62
401.062	1394.62
401.286	1354.62
401.51	1357.62
401.734	1347.62
401.958	1365.62
402.182	1366.62
402.406	1400.62
402.63	1410.62
402.854	1423.62
403.078	1482.62
403.302	1485.62
403.526	1526.62
403.75	1573.62
403.974	1594.62
404.198	1621.62
404.422	1594.62
404.645	1610.62
404.869	1549.62
405.093	1575.62
405.317	1494.62
405.541	1483.62
405.765	1511.62
405.988	1482.62
406.212	1506.62
406.436	1481.62
406.66	1494.62
406.883	1549.62
407.107	1667.62
407.331	1735.62
407.555	1764.62
407.778	1768.62
408.002	1715.62
408.226	1664.62
408.449	1637.62
408.673	1608.62
408.896	1526.62
409.12	1533.62
409.344	1587.62
409.567	1495.62
409.791	1549.62
410.014	1529.62
410.238	1508.62
410.461	1508.62
410.685	1491.62
410.908	1500.62
411.132	1451.62
411.355	1429.62
411.578	1398.62
411.802	1393.62
412.025	1436.62
412.249	1408.62
412.472	1460.62
412.695	1404.62
412.919	1355.62
413.142	1377.62
413.365	1371.62
413.589	1365.62
413.812	1352.62
414.035	1319.62
414.258	1380.62
414.482	1333.62
414.705	1416.62
414.928	1373.62
415.151	1358.62
415.374	1349.62
415.597	1344.62
415.821	1335.62
416.044	1309.62
416.267	1310.62
416.49	1336.62
416.713	1292.62
416.936	1303.62
417.159	1305.62
417.382	1301.62
417.605	1331.62
417.828	1302.62
418.051	1371.62
418.274	1314.62
418.497	1318.62
418.72	1405.62
418.943	1365.62
419.166	1461.62
419.389	1508.62
419.611	1520.62
419.834	1442.62
420.057	1361.62
420.28	1393.62
420.503	1321.62
420.726	1323.62
420.948	1301.62
421.171	1351.62
421.394	1296.62
421.617	1354.62
421.839	1337.62
422.062	1317.62
422.285	1324.62
422.507	1374.62
422.73	1389.62
422.953	1389.62
423.175	1396.62
423.398	1399.62
423.621	1444.62
423.843	1447.62
424.066	1422.62
424.288	1430.62
424.511	1432.62
424.733	1386.62
424.956	1365.62
425.178	1306.62
425.401	1325.62
425.623	1325.62
425.846	1307.62
426.068	1269.62
426.291	1274.62
426.513	1225.62
426.735	1241.62
426.958	1240.62
427.18	1198.62
427.402	1218.62
427.625	1204.62
427.847	1193.62
428.069	1164.62
428.292	1181.62
428.514	1152.62
428.736	1168.62
428.958	1166.62
429.181	1168.62
429.403	1168.62
429.625	1155.62
429.847	1123.62
430.069	1113.62
430.292	1123.62
430.514	1100.62
430.736	1158.62
430.958	1150.62
431.18	1146.62
431.402	1147.62
431.624	1161.62
431.846	1177.62
432.068	1184.62
432.29	1200.62
432.512	1160.62
432.734	1155.62
432.956	1180.62
433.178	1160.62
433.4	1174.62
433.622	1180.62
433.844	1215.62
434.066	1187.62
434.287	1225.62
434.509	1235.62
434.731	1309.62
434.953	1354.62
435.175	1319.62
435.397	1308.62
435.618	1286.62
435.84	1228.62
436.062	1176.62
436.284	1148.62
436.505	1134.62
436.727	1180.62
436.949	1177.62
437.17	1156.62
437.392	1167.62
437.614	1153.62
437.835	1110.62
438.057	1129.62
438.278	1104.62
438.5	1098.62
438.721	1096.62
438.943	1130.62
439.165	1144.62
439.386	1145.62
439.608	1157.62
439.829	1137.62
440.05	1176.62
440.272	1178.62
440.493	1201.62
440.715	1202.62
440.936	1229.62
441.158	1223.62
441.379	1240.62
441.6	1311.62
441.822	1345.62
442.043	1344.62
442.264	1283.62
442.486	1279.62
442.707	1341.62
442.928	1269.62
443.149	1296.62
443.371	1312.62
443.592	1330.62
443.813	1338.62
444.034	1311.62
444.255	1368.62
444.476	1404.62
444.698	1554.62
444.919	1618.62
445.14	1660.62
445.361	1468.62
445.582	1353.62
445.803	1301.62
446.024	1229.62
446.245	1245.62
446.466	1201.62
446.687	1158.62
446.908	1188.62
447.129	1149.62
447.35	1114.62
447.571	1141.62
447.792	1104.62
448.013	1146.62
448.234	1102.62
448.455	1068.62
448.675	1086.62
448.896	1063.62
449.117	1076.62
449.338	1068.62
449.559	1067.62
449.779	1051.62
450	1045.62
450.221	1063.62
450.442	1087.62
450.662	1086.62
450.883	1101.62
451.104	1096.62
451.324	1114.62
451.545	1126.62
451.766	1061.62
451.986	1075.62
452.207	1081.62
452.428	1081.62
452.648	1038.62
452.869	1047.62
453.089	1055.62
453.31	1088.62
453.53	1042.62
453.751	1044.62
453.971	1042.62
454.192	1025.62
454.412	1045.62
454.633	1013.62
454.853	1034.62
455.073	1012.62
455.294	1005.62
455.514	993.62
455.734	1020.62
455.955	962.62
456.175	965.62
456.395	953.62
456.616	993.62
456.836	1012.62
457.056	998.62
457.276	974.62
457.497	1010.62
457.717	1015.62
457.937	993.62
458.157	1012.62
458.377	1043.62
458.598	1080.62
458.818	1074.62
459.038	1140.62
459.258	1146.62
459.478	1155.62
459.698	1193.62
459.918	1273.62
460.138	1275.62
460.358	1394.62
460.578	1384.62
460.798	1413.62
461.018	1454.62
461.238	1408.62
461.458	1356.62
461.678	1394.62
461.898	1404.62
462.118	1388.62
462.338	1479.62
462.558	1522.62
462.777	1564.62
462.997	1708.62
463.217	1913.62
463.437	1939.62
463.657	1739.62
463.876	1623.62
464.096	1652.62
464.316	1600.62
464.536	1671.62
464.755	1621.62
464.975	1520.62
465.195	1457.62
465.414	1353.62
465.634	1282.62
465.854	1237.62
466.073	1164.62
466.293	1192.62
466.512	1165.62
466.732	1131.62
466.951	1140.62
467.171	1154.62
467.391	1149.62
467.61	1108.62
467.829	1120.62
468.049	1065.62
468.268	1062.62
468.488	1087.62
468.707	1065.62
468.927	1064.62
469.146	1092.62
469.365	1090.62
469.585	1104.62
469.804	1107.62
470.023	1121.62
470.243	1173.62
470.462	1156.62
470.681	1162.62
470.901	1145.62
471.12	1144.62
471.339	1094.62
471.558	1090.62
471.777	1101.62
471.997	1084.62
472.216	1088.62
472.435	1061.62
472.654	1050.62
472.873	1039.62
473.092	1057.62
473.311	1037.62
473.53	1036.62
473.749	1053.62
473.968	1028.62
474.187	1030.62
474.406	1033.62
474.625	1076.62
474.844	1037.62
475.063	1044.62
475.282	1037.62
475.501	1060.62
475.72	1078.62
475.939	1072.62
476.158	1066.62
476.377	1100.62
476.596	1088.62
476.814	1107.62
477.033	1124.62
477.252	1110.62
477.471	1136.62
477.69	1185.62
477.908	1198.62
478.127	1213.62
478.346	1262.62
478.564	1235.62
478.783	1298.62
479.002	1300.62
479.22	1314.62
479.439	1317.62
479.658	1311.62
479.876	1325.62
480.095	1337.62
480.313	1408.62
480.532	1430.62
480.751	1422.62
480.969	1361.62
481.188	1292.62
481.406	1278.62
481.624	1249.62
481.843	1222.62
482.061	1187.62
482.28	1208.62
482.498	1172.62
482.717	1216.62
482.935	1187.62
483.153	1173.62
483.372	1167.62
483.59	1150.62
483.808	1201.62
484.027	1234.62
484.245	1209.62
484.463	1201.62
484.681	1261.62
484.9	1224.62
485.118	1241.62
485.336	1212.62
485.554	1238.62
485.772	1291.62
485.99	1257.62
486.209	1269.62
486.427	1276.62
486.645	1258.62
486.863	1275.62
487.081	1290.62
487.299	1241.62
487.517	1240.62
487.735	1252.62
487.953	1275.62
488.171	1250.62
488.389	1214.62
488.607	1224.62
488.825	1230.62
489.043	1245.62
489.261	1224.62
489.479	1212.62
489.696	1247.62
489.914	1224.62
490.132	1262.62
490.35	1241.62
490.568	1238.62
490.786	1234.62
491.003	1240.62
491.221	1265.62
491.439	1266.62
491.657	1283.62
491.874	1272.62
492.092	1240.62
492.31	1254.62
492.527	1289.62
492.745	1276.62
492.963	1288.62
493.18	1287.62
493.398	1282.62
493.615	1334.62
493.833	1316.62
494.05	1304.62
494.268	1321.62
494.485	1325.62
494.703	1317.62
494.92	1324.62
495.138	1294.62
495.355	1321.62
495.573	1312.62
495.79	1330.62
496.008	1295.62
496.225	1346.62
496.442	1345.62
496.66	1396.62
496.877	1382.62
497.094	1416.62
497.312	1453.62
497.529	1467.62
497.746	1490.62
497.963	1550.62
498.181	1631.62
498.398	1699.62
498.615	1760.62
498.832	1948.62
499.049	2074.62
499.267	2272.62
499.484	2491.62
499.701	2760.62
499.918	3008.62
500.135	3516.62
500.352	4089.62
500.569	4282.62
500.786	4217.62
501.003	3907.62
501.22	3444.62
501.437	2995.62
501.654	2591.62
501.871	2404.62
502.088	2178.62
502.305	2028.62
502.522	1914.62
502.739	1789.62
502.956	1747.62
503.172	1662.62
503.389	1578.62
503.606	1555.62
503.823	1530.62
504.04	1506.62
504.256	1516.62
504.473	1572.62
504.69	1645.62
504.907	1591.62
505.123	1471.62
505.34	1384.62
505.557	1302.62
505.773	1300.62
505.99	1256.62
506.207	1214.62
506.423	1220.62
506.64	1195.62
506.856	1190.62
507.073	1209.62
507.289	1154.62
507.506	1166.62
507.722	1161.62
507.939	1138.62
508.155	1136.62
508.372	1112.62
508.588	1140.62
508.805	1093.62
509.021	1116.62
509.238	1123.62
509.454	1092.62
509.67	1094.62
509.887	1070.62
510.103	1069.62
510.319	1086.62
510.536	1057.62
510.752	1047.62
510.968	1058.62
511.184	1075.62
511.401	1064.62
511.617	1068.62
511.833	1079.62
512.049	1064.62
512.265	1044.62
512.481	1068.62
512.698	1050.62
512.914	1052.62
513.13	1058.62
513.346	1049.62
513.562	1047.62
513.778	1050.62
513.994	1049.62
514.21	1062.62
514.426	1052.62
514.642	1084.62
514.858	1068.62
515.074	1085.62
515.29	1114.62
515.506	1082.62
515.721	1130.62
515.937	1156.62
516.153	1158.62
516.369	1186.62
516.585	1232.62
516.801	1256.62
517.016	1320.62
517.232	1397.62
517.448	1463.62
517.664	1508.62
517.879	1574.62
518.095	1556.62
518.311	1503.62
518.527	1401.62
518.742	1326.62
518.958	1294.62
519.173	1271.62
519.389	1202.62
519.605	1162.62
519.82	1129.62
520.036	1129.62
520.251	1091.62
520.467	1061.62
520.682	1100.62
520.898	1067.62
521.113	1046.62
521.329	1066.62
521.544	1035.62
521.76	1011.62
521.975	1043.62
522.19	1013.62
522.406	1026.62
522.621	1006.62
522.836	992.62
523.052	981.62
523.267	1015.62
523.482	990.62
523.698	976.62
523.913	995.62
524.128	964.62
524.343	993.62
524.559	965.62
524.774	994.62
524.989	992.62
525.204	966.62
525.419	972.62
525.634	954.62
525.849	984.62
526.064	964.62
526.28	959.62
526.495	967.62
526.71	968.62
526.925	953.62
527.14	938.62
527.355	938.62
527.57	917.62
527.785	952.62
527.999	980.62
528.214	973.62
528.429	968.62
528.644	976.62
528.859	958.62
529.074	930.62
529.289	964.62
529.503	950.62
529.718	973.62
529.933	956.62
530.148	929.62
530.363	976.62
530.577	925.62
530.792	959.62
531.007	932.62
531.221	968.62
531.436	958.62
531.651	992.62
531.865	970.62
532.08	930.62
532.295	973.62
532.509	958.62
532.724	938.62
532.938	972.62
533.153	969.62
533.367	975.62
533.582	969.62
533.796	929.62
534.011	943.62
534.225	974.62
534.44	968.62
534.654	924.62
534.868	929.62
535.083	947.62
535.297	939.62
535.511	898.62
535.726	936.62
535.94	936.62
536.154	912.62
536.369	911.62
536.583	890.62
536.797	902.62
537.011	908.62
537.225	884.62
537.44	888.62
537.654	893.62
537.868	907.62
538.082	895.62
538.296	881.62
538.51	870.62
538.724	872.62
538.938	890.62
539.153	888.62
539.367	875.62
539.581	887.62
539.795	867.62
540.009	864.62
540.222	892.62
540.436	871.62
540.65	836.62
540.864	849.62
541.078	837.62
541.292	878.62
541.506	854.62
541.72	860.62
541.934	830.62
542.147	836.62
542.361	844.62
542.575	836.62
542.789	838.62
543.002	843.62
543.216	854.62
543.43	842.62
543.644	832.62
543.857	808.62
544.071	826.62
544.285	835.62
544.498	839.62
544.712	807.62
544.925	850.62
545.139	867.62
545.352	876.62
545.566	889.62
545.779	860.62
545.993	882.62
546.206	866.62
546.42	846.62
546.633	870.62
546.847	858.62
547.06	858.62
547.274	865.62
547.487	862.62
547.7	869.62
547.914	847.62
548.127	877.62
548.34	899.62
548.554	886.62
548.767	865.62
548.98	896.62
549.193	880.62
549.407	880.62
549.62	898.62
549.833	907.62
550.046	897.62
550.259	865.62
550.473	881.62
550.686	866.62
550.899	820.62
551.112	826.62
551.325	857.62
551.538	850.62
551.751	849.62
551.964	841.62
552.177	874.62
552.39	849.62
552.603	892.62
552.816	940.62
553.029	948.62
553.242	943.62
553.455	960.62
553.667	980.62
553.88	973.62
554.093	917.62
554.306	916.62
554.519	889.62
554.732	836.62
554.944	842.62
555.157	824.62
555.37	836.62
555.583	822.62
555.795	792.62
556.008	770.62
556.221	772.62
556.433	772.62
556.646	760.62
556.859	755.62
557.071	740.62
557.284	761.62
557.496	744.62
557.709	727.62
557.921	737.62
558.134	739.62
558.346	736.62
558.559	714.62
558.771	732.62
558.984	720.62
559.196	728.62
559.409	709.62
559.621	726.62
559.833	700.62
560.046	690.62
560.258	703.62
560.47	699.62
560.683	725.62
560.895	726.62
561.107	716.62
561.32	676.62
561.532	708.62
561.744	725.62
561.956	740.62
562.168	714.62
562.381	705.62
562.593	706.62
562.805	704.62
563.017	707.62
563.229	717.62
563.441	718.62
563.653	717.62
563.865	718.62
564.077	743.62
564.289	749.62
564.501	737.62
564.713	752.62
564.925	788.62
565.137	771.62
565.349	812.62
565.561	819.62
565.773	821.62
565.985	901.62
566.197	938.62
566.408	1006.62
566.62	1112.62
566.832	1177.62
567.044	1228.62
567.255	1218.62
567.467	1203.62
567.679	1330.62
567.891	1449.62
568.102	1498.62
568.314	1401.62
568.526	1270.62
568.737	1114.62
568.949	1037.62
569.161	945.62
569.372	871.62
569.584	806.62
569.795	792.62
570.007	776.62
570.218	726.62
570.43	725.62
570.641	734.62
570.853	729.62
571.064	758.62
571.276	759.62
571.487	739.62
571.698	694.62
571.91	677.62
572.121	659.62
572.333	640.62
572.544	658.62
572.755	605.62
572.966	622.62
573.178	596.62
573.389	598.62
573.6	621.62
573.811	615.62
574.023	572.62
574.234	587.62
574.445	597.62
574.656	613.62
574.867	597.62
575.078	594.62
575.289	594.62
575.501	600.62
575.712	558.62
575.923	569.62
576.134	566.62
576.345	584.62
576.556	535.62
576.767	557.62
576.978	546.62
577.188	546.62
577.399	562.62
577.61	572.62
577.821	548.62
578.032	558.62
578.243	553.62
578.454	522.62
578.665	553.62
578.875	537.62
579.086	537.62
579.297	530.62
579.508	515.62
579.718	541.62
579.929	505.62
580.14	513.62
580.35	518.62
580.561	514.62
580.772	507.62
580.982	504.62
581.193	497.62
581.403	504.62
581.614	502.62
581.825	509.62
582.035	504.62
582.246	516.62
582.456	500.62
582.667	496.62
582.877	521.62
583.087	514.62
583.298	484.62
583.508	472.62
583.719	492.62
583.929	479.62
584.139	493.62
584.35	477.62
584.56	483.62
584.77	513.62
584.981	472.62
585.191	489.62
585.401	476.62
585.611	465.62
585.821	464.62
586.032	476.62
586.242	483.62
586.452	479.62
586.662	475.62
586.872	473.62
587.082	485.62
587.292	475.62
587.502	457.62
587.713	480.62
587.923	463.62
588.133	484.62
588.343	480.62
588.553	462.62
588.762	477.62
588.972	457.62
589.182	468.62
589.392	453.62
589.602	471.62
589.812	472.62
590.022	474.62
590.232	482.62
590.441	474.62
590.651	463.62
590.861	472.62
591.071	479.62
591.281	500.62
591.49	480.62
591.7	506.62
591.91	493.62
592.119	497.62
592.329	530.62
592.539	517.62
592.748	562.62
592.958	596.62
593.167	620.62
593.377	596.62
593.587	625.62
593.796	613.62
594.006	597.62
594.215	631.62
594.424	642.62
594.634	620.62
594.843	560.62
595.053	555.62
595.262	532.62
595.472	523.62
595.681	500.62
595.89	484.62
596.1	489.62
596.309	465.62
596.518	436.62
596.727	461.62
596.937	435.62
597.146	428.62
597.355	457.62
597.564	444.62
597.774	407.62
597.983	416.62
598.192	403.62
598.401	401.62
598.61	413.62
598.819	398.62
599.028	400.62
599.237	405.62
599.446	421.62
599.655	390.62
599.864	374.62
600.073	405.62
600.282	409.62
600.491	392.62
600.7	391.62
600.909	389.62
601.118	393.62
601.327	383.62
601.536	389.62
601.745	377.62
601.953	399.62
602.162	379.62
602.371	392.62
602.58	378.62
602.789	374.62
602.997	373.62
603.206	389.62
603.415	360.62
603.623	390.62
603.832	376.62
604.041	368.62
604.249	377.62
604.458	387.62
604.666	368.62
604.875	364.62
605.084	348.62
605.292	368.62
605.501	372.62
605.709	359.62
605.918	370.62
606.126	358.62
606.334	359.62
606.543	371.62
606.751	352.62
606.96	364.62
607.168	377.62
607.376	369.62
607.585	356.62
607.793	359.62
608.001	357.62
608.21	354.62
608.418	363.62
608.626	338.62
608.834	351.62
609.043	336.62
609.251	345.62
609.459	374.62
609.667	347.62
609.875	353.62
610.083	336.62
610.291	355.62
610.499	338.62
610.707	370.62
610.916	341.62
611.124	329.62
611.332	338.62
611.54	356.62
611.748	337.62
611.955	333.62
612.163	341.62
612.371	342.62
612.579	342.62
612.787	345.62
612.995	322.62
613.203	350.62
613.411	339.62
613.618	318.62
613.826	329.62
614.034	352.62
614.242	355.62
614.449	335.62
614.657	317.62
614.865	327.62
615.072	351.62
615.28	344.62
615.488	330.62
615.695	330.62
615.903	331.62
616.111	346.62
616.318	351.62
616.526	341.62
616.733	340.62
616.941	342.62
617.148	359.62
617.356	350.62
617.563	340.62
617.771	344.62
617.978	346.62
618.185	345.62
618.393	321.62
618.6	336.62
618.807	336.62
619.015	330.62
619.222	350.62
619.429	335.62
619.637	334.62
619.844	333.62
620.051	331.62
620.258	322.62
620.466	325.62
620.673	323.62
620.88	313.62
621.087	314.62
621.294	297.62
621.501	299.62
621.708	323.62
621.915	295.62
622.122	289.62
622.329	295.62
622.536	308.62
622.743	315.62
622.95	306.62
623.157	301.62
623.364	304.62
623.571	294.62
623.778	297.62
623.985	299.62
624.192	290.62
624.399	297.62
624.606	274.62
624.812	292.62
625.019	299.62
625.226	299.62
625.433	294.62
625.639	289.62
625.846	298.62
626.053	270.62
626.259	294.62
626.466	290.62
626.673	281.62
626.879	269.62
627.086	284.62
627.293	275.62
627.499	266.62
627.706	262.62
627.912	289.62
628.119	260.62
628.325	284.62
628.532	256.62
628.738	272.62
628.945	270.62
629.151	281.62
629.357	275.62
629.564	268.62
629.77	258.62
629.976	253.62
630.183	264.62
630.389	255.62
630.595	266.62
630.802	261.62
631.008	252.62
631.214	260.62
631.42	285.62
631.627	250.62
631.833	264.62
632.039	258.62
632.245	251.62
632.451	256.62
632.657	264.62
632.863	246.62
633.069	242.62
633.275	249.62
633.481	232.62
633.688	240.62
633.893	261.62
634.099	248.62
634.305	231.62
634.511	246.62
634.717	262.62
634.923	226.62
635.129	251.62
635.335	246.62
635.541	245.62
635.747	246.62
635.952	237.62
636.158	237.62
636.364	244.62
636.57	242.62
636.775	238.62
636.981	255.62
637.187	254.62
637.392	244.62
637.598	225.62
637.804	240.62
638.009	227.62
638.215	233.62
638.421	245.62
638.626	240.62
638.832	237.62
639.037	236.62
639.243	246.62
639.448	236.62
639.654	236.62
639.859	240.62
640.065	227.62
640.27	242.62
640.475	225.62
640.681	206.62
640.886	220.62
641.091	224.62
641.297	229.62
641.502	219.62
641.707	214.62
641.913	232.62
642.118	220.62
642.323	220.62
642.528	234.62
642.733	224.62
642.939	218.62
643.144	216.62
643.349	215.62
643.554	209.62
643.759	226.62
643.964	216.62
644.169	209.62
644.374	220.62
644.579	226.62
644.784	216.62
644.989	215.62
645.194	217.62
645.399	217.62
645.604	213.62
645.809	215.62
646.014	205.62
646.219	225.62
646.423	227.62
646.628	219.62
646.833	232.62
647.038	218.62
647.243	215.62
647.447	237.62
647.652	229.62
647.857	232.62
648.062	245.62
648.266	243.62
648.471	230.62
648.676	233.62
648.88	246.62
649.085	241.62
649.289	206.62
649.494	217.62
649.698	221.62
649.903	226.62
650.107	228.62
650.312	210.62
650.516	211.62
650.721	208.62
650.925	198.62
651.13	209.62
651.334	212.62
651.539	188.62
651.743	181.62
651.947	182.62
652.152	183.62
652.356	182.62
652.56	164.62
652.764	185.62
652.969	178.62
653.173	189.62
653.377	174.62
653.581	181.62
653.785	168.62
653.99	148.62
654.194	177.62
654.398	167.62
654.602	171.62
654.806	169.62
655.01	148.62
655.214	138.62
655.418	153.62
655.622	160.62
655.826	153.62
656.03	162.62
656.234	165.62
656.438	164.62
656.642	148.62
656.846	167.62
657.049	150.62
657.253	147.62
657.457	138.62
657.661	152.62
657.865	128.62
658.068	121.62
658.272	105.62
658.476	119.62
658.68	116.62
658.883	125.62
659.087	102.62
659.291	123.62
659.494	118.62
659.698	117.62
659.901	115.62
660.105	100.62
660.309	107.62
660.512	99.62
660.716	102.62
660.919	87.62
661.123	108.62
661.326	85.62
661.53	95.62
661.733	89.62
661.936	91.62
662.14	78.62
662.343	80.62
662.546	79.62
662.75	102.62
662.953	91.62
663.156	71.62
663.36	90.62
663.563	86.62
663.766	93.62
663.969	97.62
664.173	83.62
664.376	88.62
664.579	72.62
664.782	84.62
664.985	99.62
665.188	86.62
665.391	93.62
665.594	76.62
665.797	82.62
666	90.62
666.203	84.62
666.406	76.62
666.609	92.62
666.812	85.62
667.015	86.62
667.218	73.62
667.421	73.62
667.624	80.62
667.827	91.62
668.03	90.62
668.232	73.62
668.435	73.62
668.638	75.62
668.841	84.62
669.043	88.62
669.246	72.62
669.449	83.62
669.651	75.62
669.854	100.62
670.057	89.62
670.259	78.62
670.462	87.62
670.665	88.62
670.867	85.62
671.07	87.62
671.272	77.62
671.475	86.62
671.677	85.62
671.88	91.62
672.082	83.62
672.284	91.62
672.487	75.62
672.689	83.62
672.892	77.62
