Data from Ni(NO3)2@0.125M.TitratingCurve.Agarose3%dH2O.NegLispCup.LampEnergy10.LIBS07252019_HRD10591_18-10-56-568.txt Node
Date: Thu Jul 25 18:10:56 EDT 2019
User: cochatt
Spectrometer: HR+D1059
Trigger mode: 1
Integration Time (sec): 1.000000E-1
Scans to average: 1
Electric dark correction enabled: true
Nonlinearity correction enabled: false
Boxcar width: 0
XAxis mode: Wavelengths
Number of Pixels in Spectrum: 2048
>>>>>Begin Spectral Data<<<<<
223.165	-6.94
223.4	-6.94
223.635	-6.94
223.869	-18.94
224.104	-26.94
224.338	-13.94
224.573	-8.94
224.808	-21.94
225.042	1.06
225.277	1.06
225.511	6.06
225.746	-2.94
225.98	-8.94
226.215	12.06
226.449	15.06
226.683	32.06
226.918	16.06
227.152	26.06
227.387	30.06
227.621	41.06
227.856	36.06
228.09	46.06
228.324	44.06
228.559	50.06
228.793	64.06
229.027	104.06
229.262	110.06
229.496	121.06
229.73	128.06
229.964	142.06
230.199	138.06
230.433	149.06
230.667	130.06
230.901	141.06
231.136	140.06
231.37	148.06
231.604	162.06
231.838	167.06
232.072	156.06
232.306	156.06
232.541	176.06
232.775	170.06
233.009	150.06
233.243	146.06
233.477	156.06
233.711	161.06
233.945	151.06
234.179	170.06
234.413	154.06
234.647	159.06
234.881	172.06
235.115	150.06
235.349	169.06
235.583	166.06
235.817	158.06
236.051	173.06
236.285	164.06
236.519	164.06
236.753	149.06
236.987	172.06
237.221	166.06
237.455	169.06
237.689	178.06
237.922	186.06
238.156	185.06
238.39	171.06
238.624	158.06
238.858	182.06
239.091	184.06
239.325	197.06
239.559	182.06
239.793	194.06
240.027	195.06
240.26	202.06
240.494	198.06
240.728	203.06
240.961	197.06
241.195	184.06
241.429	193.06
241.662	195.06
241.896	212.06
242.13	200.06
242.363	228.06
242.597	203.06
242.83	239.06
243.064	218.06
243.298	209.06
243.531	204.06
243.765	232.06
243.998	206.06
244.232	217.06
244.465	222.06
244.699	213.06
244.932	237.06
245.166	244.06
245.399	245.06
245.633	238.06
245.866	252.06
246.099	233.06
246.333	245.06
246.566	243.06
246.8	232.06
247.033	238.06
247.266	239.06
247.5	242.06
247.733	245.06
247.966	250.06
248.2	258.06
248.433	262.06
248.666	271.06
248.899	269.06
249.133	265.06
249.366	277.06
249.599	283.06
249.832	264.06
250.066	277.06
250.299	276.06
250.532	261.06
250.765	281.06
250.998	281.06
251.231	288.06
251.465	290.06
251.698	270.06
251.931	271.06
252.164	286.06
252.397	308.06
252.63	304.06
252.863	292.06
253.096	302.06
253.329	305.06
253.562	305.06
253.795	302.06
254.028	289.06
254.261	297.06
254.494	299.06
254.727	304.06
254.96	307.06
255.193	320.06
255.426	309.06
255.659	308.06
255.892	331.06
256.124	301.06
256.357	310.06
256.59	323.06
256.823	336.06
257.056	342.06
257.289	320.06
257.521	316.06
257.754	321.06
257.987	323.06
258.22	319.06
258.452	325.06
258.685	328.06
258.918	318.06
259.151	363.06
259.383	327.06
259.616	348.06
259.849	328.06
260.081	360.06
260.314	357.06
260.547	332.06
260.779	340.06
261.012	359.06
261.244	350.06
261.477	364.06
261.71	359.06
261.942	356.06
262.175	366.06
262.407	345.06
262.64	371.06
262.872	352.06
263.105	356.06
263.337	369.06
263.57	365.06
263.802	370.06
264.035	378.06
264.267	376.06
264.499	388.06
264.732	394.06
264.964	378.06
265.197	382.06
265.429	397.06
265.661	386.06
265.894	378.06
266.126	399.06
266.358	404.06
266.591	394.06
266.823	409.06
267.055	408.06
267.287	380.06
267.52	402.06
267.752	403.06
267.984	404.06
268.216	405.06
268.448	398.06
268.681	406.06
268.913	445.06
269.145	443.06
269.377	409.06
269.609	405.06
269.841	406.06
270.073	405.06
270.306	392.06
270.538	425.06
270.77	408.06
271.002	413.06
271.234	419.06
271.466	417.06
271.698	429.06
271.93	438.06
272.162	439.06
272.394	436.06
272.626	423.06
272.858	424.06
273.09	459.06
273.322	438.06
273.553	445.06
273.785	435.06
274.017	450.06
274.249	444.06
274.481	453.06
274.713	441.06
274.945	460.06
275.176	459.06
275.408	481.06
275.64	482.06
275.872	463.06
276.104	465.06
276.335	471.06
276.567	468.06
276.799	465.06
277.031	468.06
277.262	446.06
277.494	469.06
277.726	449.06
277.957	501.06
278.189	473.06
278.421	476.06
278.652	455.06
278.884	496.06
279.115	483.06
279.347	489.06
279.579	504.06
279.81	471.06
280.042	510.06
280.273	489.06
280.505	506.06
280.736	497.06
280.968	487.06
281.199	494.06
281.431	510.06
281.662	514.06
281.894	516.06
282.125	506.06
282.356	509.06
282.588	547.06
282.819	521.06
283.051	511.06
283.282	521.06
283.513	535.06
283.745	541.06
283.976	527.06
284.207	543.06
284.439	539.06
284.67	547.06
284.901	553.06
285.132	542.06
285.364	531.06
285.595	538.06
285.826	534.06
286.057	533.06
286.288	542.06
286.52	547.06
286.751	560.06
286.982	565.06
287.213	576.06
287.444	571.06
287.675	553.06
287.906	571.06
288.138	575.06
288.369	562.06
288.6	569.06
288.831	594.06
289.062	566.06
289.293	579.06
289.524	589.06
289.755	585.06
289.986	583.06
290.217	581.06
290.448	588.06
290.679	585.06
290.91	570.06
291.141	572.06
291.371	585.06
291.602	594.06
291.833	573.06
292.064	596.06
292.295	572.06
292.526	574.06
292.757	590.06
292.987	582.06
293.218	589.06
293.449	605.06
293.68	576.06
293.91	585.06
294.141	605.06
294.372	608.06
294.603	598.06
294.833	590.06
295.064	590.06
295.295	607.06
295.525	585.06
295.756	584.06
295.987	603.06
296.217	616.06
296.448	613.06
296.679	596.06
296.909	611.06
297.14	635.06
297.37	645.06
297.601	641.06
297.831	614.06
298.062	632.06
298.292	626.06
298.523	689.06
298.753	660.06
298.984	631.06
299.214	636.06
299.445	634.06
299.675	654.06
299.905	631.06
300.136	664.06
300.366	636.06
300.597	665.06
300.827	674.06
301.057	664.06
301.288	674.06
301.518	665.06
301.748	664.06
301.979	691.06
302.209	666.06
302.439	679.06
302.669	665.06
302.9	682.06
303.13	653.06
303.36	653.06
303.59	648.06
303.82	652.06
304.051	666.06
304.281	678.06
304.511	669.06
304.741	663.06
304.971	660.06
305.201	668.06
305.431	674.06
305.661	677.06
305.891	637.06
306.121	654.06
306.352	663.06
306.582	662.06
306.812	641.06
307.042	661.06
307.272	664.06
307.502	666.06
307.731	662.06
307.961	645.06
308.191	633.06
308.421	652.06
308.651	638.06
308.881	646.06
309.111	631.06
309.341	646.06
309.571	656.06
309.8	651.06
310.03	665.06
310.26	654.06
310.49	654.06
310.72	644.06
310.949	669.06
311.179	670.06
311.409	643.06
311.639	652.06
311.868	662.06
312.098	672.06
312.328	689.06
312.557	694.06
312.787	713.06
313.017	704.06
313.246	676.06
313.476	736.06
313.706	700.06
313.935	704.06
314.165	708.06
314.394	739.06
314.624	729.06
314.853	677.06
315.083	700.06
315.312	720.06
315.542	693.06
315.771	698.06
316.001	689.06
316.23	699.06
316.46	701.06
316.689	701.06
316.919	699.06
317.148	680.06
317.377	715.06
317.607	688.06
317.836	690.06
318.065	670.06
318.295	670.06
318.524	674.06
318.753	696.06
318.983	692.06
319.212	678.06
319.441	701.06
319.67	672.06
319.9	690.06
320.129	696.06
320.358	693.06
320.587	675.06
320.816	707.06
321.046	684.06
321.275	692.06
321.504	687.06
321.733	671.06
321.962	694.06
322.191	694.06
322.42	709.06
322.649	701.06
322.878	717.06
323.108	689.06
323.337	736.06
323.566	720.06
323.795	721.06
324.024	713.06
324.253	745.06
324.482	720.06
324.71	733.06
324.939	731.06
325.168	744.06
325.397	728.06
325.626	737.06
325.855	749.06
326.084	747.06
326.313	769.06
326.542	789.06
326.77	772.06
326.999	777.06
327.228	732.06
327.457	764.06
327.686	741.06
327.914	781.06
328.143	779.06
328.372	784.06
328.6	763.06
328.829	754.06
329.058	774.06
329.287	786.06
329.515	762.06
329.744	785.06
329.972	800.06
330.201	800.06
330.43	794.06
330.658	767.06
330.887	800.06
331.115	800.06
331.344	805.06
331.572	825.06
331.801	830.06
332.03	843.06
332.258	885.06
332.486	892.06
332.715	927.06
332.943	944.06
333.172	1014.06
333.4	1058.06
333.629	1064.06
333.857	1078.06
334.085	1037.06
334.314	1004.06
334.542	982.06
334.771	1012.06
334.999	974.06
335.227	981.06
335.455	978.06
335.684	960.06
335.912	944.06
336.14	939.06
336.369	928.06
336.597	948.06
336.825	905.06
337.053	929.06
337.281	928.06
337.51	888.06
337.738	886.06
337.966	870.06
338.194	861.06
338.422	864.06
338.65	834.06
338.878	852.06
339.106	834.06
339.334	836.06
339.562	833.06
339.79	797.06
340.018	795.06
340.246	827.06
340.474	812.06
340.702	803.06
340.93	802.06
341.158	845.06
341.386	820.06
341.614	843.06
341.842	793.06
342.07	790.06
342.298	791.06
342.526	824.06
342.754	808.06
342.981	813.06
343.209	836.06
343.437	876.06
343.665	937.06
343.893	993.06
344.12	1021.06
344.348	966.06
344.576	914.06
344.804	884.06
345.031	845.06
345.259	825.06
345.487	828.06
345.714	810.06
345.942	803.06
346.17	845.06
346.397	791.06
346.625	814.06
346.853	782.06
347.08	772.06
347.308	796.06
347.535	787.06
347.763	793.06
347.99	805.06
348.218	797.06
348.445	790.06
348.673	789.06
348.9	782.06
349.128	761.06
349.355	771.06
349.583	812.06
349.81	757.06
350.037	747.06
350.265	753.06
350.492	768.06
350.72	746.06
350.947	792.06
351.174	774.06
351.402	790.06
351.629	747.06
351.856	766.06
352.083	738.06
352.311	727.06
352.538	770.06
352.765	774.06
352.992	742.06
353.22	756.06
353.447	756.06
353.674	763.06
353.901	734.06
354.128	758.06
354.355	760.06
354.583	743.06
354.81	744.06
355.037	758.06
355.264	771.06
355.491	758.06
355.718	783.06
355.945	760.06
356.172	776.06
356.399	737.06
356.626	772.06
356.853	763.06
357.08	738.06
357.307	787.06
357.534	734.06
357.761	742.06
357.988	773.06
358.215	745.06
358.441	757.06
358.668	740.06
358.895	739.06
359.122	749.06
359.349	771.06
359.576	749.06
359.802	729.06
360.029	757.06
360.256	715.06
360.483	737.06
360.709	756.06
360.936	753.06
361.163	754.06
361.39	752.06
361.616	758.06
361.843	735.06
362.07	756.06
362.296	762.06
362.523	770.06
362.749	777.06
362.976	743.06
363.203	774.06
363.429	756.06
363.656	773.06
363.882	748.06
364.109	728.06
364.335	740.06
364.562	730.06
364.788	737.06
365.015	752.06
365.241	766.06
365.468	737.06
365.694	752.06
365.92	750.06
366.147	753.06
366.373	725.06
366.599	738.06
366.826	713.06
367.052	753.06
367.278	747.06
367.505	736.06
367.731	800.06
367.957	761.06
368.184	749.06
368.41	758.06
368.636	761.06
368.862	757.06
369.089	759.06
369.315	785.06
369.541	764.06
369.767	774.06
369.993	772.06
370.219	789.06
370.445	796.06
370.672	818.06
370.898	822.06
371.124	821.06
371.35	813.06
371.576	803.06
371.802	820.06
372.028	791.06
372.254	847.06
372.48	804.06
372.706	834.06
372.932	864.06
373.158	846.06
373.384	830.06
373.61	804.06
373.835	818.06
374.061	871.06
374.287	823.06
374.513	844.06
374.739	862.06
374.965	881.06
375.191	893.06
375.416	881.06
375.642	894.06
375.868	861.06
376.094	854.06
376.319	812.06
376.545	843.06
376.771	819.06
376.997	835.06
377.222	809.06
377.448	810.06
377.674	826.06
377.899	804.06
378.125	814.06
378.35	804.06
378.576	802.06
378.802	792.06
379.027	827.06
379.253	808.06
379.478	810.06
379.704	806.06
379.929	782.06
380.155	817.06
380.38	797.06
380.606	820.06
380.831	806.06
381.057	806.06
381.282	810.06
381.507	819.06
381.733	843.06
381.958	853.06
382.184	818.06
382.409	842.06
382.634	838.06
382.86	831.06
383.085	865.06
383.31	892.06
383.535	916.06
383.761	929.06
383.986	929.06
384.211	958.06
384.436	979.06
384.662	968.06
384.887	995.06
385.112	963.06
385.337	1008.06
385.562	976.06
385.787	1005.06
386.013	992.06
386.238	967.06
386.463	998.06
386.688	960.06
386.913	993.06
387.138	975.06
387.363	981.06
387.588	964.06
387.813	974.06
388.038	972.06
388.263	984.06
388.488	999.06
388.713	977.06
388.938	963.06
389.163	978.06
389.387	930.06
389.612	956.06
389.837	943.06
390.062	942.06
390.287	951.06
390.512	960.06
390.736	994.06
390.961	982.06
391.186	1003.06
391.411	1053.06
391.636	1045.06
391.86	1104.06
392.085	1115.06
392.31	1085.06
392.534	1077.06
392.759	1106.06
392.984	1075.06
393.208	1054.06
393.433	1034.06
393.658	1044.06
393.882	1050.06
394.107	1033.06
394.331	1029.06
394.556	1052.06
394.78	1091.06
395.005	1070.06
395.229	1069.06
395.454	1106.06
395.678	1114.06
395.903	1103.06
396.127	1085.06
396.352	1074.06
396.576	1047.06
396.801	1051.06
397.025	1038.06
397.249	1038.06
397.474	1084.06
397.698	1087.06
397.922	1112.06
398.147	1061.06
398.371	1096.06
398.595	1182.06
398.82	1202.06
399.044	1274.06
399.268	1430.06
399.492	1691.06
399.717	1877.06
399.941	1886.06
400.165	1640.06
400.389	1456.06
400.613	1372.06
400.837	1276.06
401.062	1284.06
401.286	1257.06
401.51	1234.06
401.734	1196.06
401.958	1240.06
402.182	1254.06
402.406	1284.06
402.63	1322.06
402.854	1323.06
403.078	1342.06
403.302	1370.06
403.526	1403.06
403.75	1438.06
403.974	1449.06
404.198	1472.06
404.422	1475.06
404.645	1442.06
404.869	1415.06
405.093	1379.06
405.317	1350.06
405.541	1374.06
405.765	1325.06
405.988	1365.06
406.212	1381.06
406.436	1327.06
406.66	1352.06
406.883	1396.06
407.107	1494.06
407.331	1557.06
407.555	1598.06
407.778	1602.06
408.002	1538.06
408.226	1494.06
408.449	1487.06
408.673	1395.06
408.896	1392.06
409.12	1406.06
409.344	1405.06
409.567	1412.06
409.791	1442.06
410.014	1422.06
410.238	1389.06
410.461	1414.06
410.685	1350.06
410.908	1344.06
411.132	1325.06
411.355	1273.06
411.578	1274.06
411.802	1283.06
412.025	1251.06
412.249	1300.06
412.472	1292.06
412.695	1265.06
412.919	1242.06
413.142	1252.06
413.365	1212.06
413.589	1233.06
413.812	1227.06
414.035	1222.06
414.258	1216.06
414.482	1251.06
414.705	1241.06
414.928	1278.06
415.151	1238.06
415.374	1208.06
415.597	1240.06
415.821	1214.06
416.044	1190.06
416.267	1191.06
416.49	1193.06
416.713	1185.06
416.936	1238.06
417.159	1205.06
417.382	1200.06
417.605	1192.06
417.828	1241.06
418.051	1221.06
418.274	1236.06
418.497	1221.06
418.72	1257.06
418.943	1233.06
419.166	1325.06
419.389	1412.06
419.611	1389.06
419.834	1317.06
420.057	1292.06
420.28	1252.06
420.503	1224.06
420.726	1193.06
420.948	1197.06
421.171	1243.06
421.394	1190.06
421.617	1204.06
421.839	1229.06
422.062	1229.06
422.285	1227.06
422.507	1250.06
422.73	1246.06
422.953	1259.06
423.175	1304.06
423.398	1321.06
423.621	1289.06
423.843	1267.06
424.066	1332.06
424.288	1299.06
424.511	1275.06
424.733	1276.06
424.956	1280.06
425.178	1267.06
425.401	1218.06
425.623	1204.06
425.846	1166.06
426.068	1196.06
426.291	1174.06
426.513	1145.06
426.735	1148.06
426.958	1126.06
427.18	1131.06
427.402	1116.06
427.625	1138.06
427.847	1082.06
428.069	1084.06
428.292	1084.06
428.514	1084.06
428.736	1013.06
428.958	1082.06
429.181	1068.06
429.403	1060.06
429.625	1076.06
429.847	1032.06
430.069	1037.06
430.292	1064.06
430.514	1029.06
430.736	1075.06
430.958	1039.06
431.18	1074.06
431.402	1057.06
431.624	1061.06
431.846	1088.06
432.068	1109.06
432.29	1082.06
432.512	1066.06
432.734	1070.06
432.956	1085.06
433.178	1077.06
433.4	1099.06
433.622	1106.06
433.844	1130.06
434.066	1085.06
434.287	1120.06
434.509	1152.06
434.731	1205.06
434.953	1204.06
435.175	1209.06
435.397	1224.06
435.618	1168.06
435.84	1133.06
436.062	1069.06
436.284	1079.06
436.505	1107.06
436.727	1089.06
436.949	1092.06
437.17	1110.06
437.392	1063.06
437.614	1052.06
437.835	1014.06
438.057	1030.06
438.278	1038.06
438.5	1045.06
438.721	1036.06
438.943	1072.06
439.165	1060.06
439.386	1060.06
439.608	1083.06
439.829	1086.06
440.05	1068.06
440.272	1075.06
440.493	1090.06
440.715	1089.06
440.936	1116.06
441.158	1113.06
441.379	1197.06
441.6	1234.06
441.822	1225.06
442.043	1225.06
442.264	1206.06
442.486	1173.06
442.707	1209.06
442.928	1176.06
443.149	1181.06
443.371	1192.06
443.592	1203.06
443.813	1252.06
444.034	1230.06
444.255	1270.06
444.476	1328.06
444.698	1402.06
444.919	1531.06
445.14	1576.06
445.361	1382.06
445.582	1269.06
445.803	1192.06
446.024	1160.06
446.245	1146.06
446.466	1130.06
446.687	1116.06
446.908	1078.06
447.129	1069.06
447.35	1053.06
447.571	1033.06
447.792	1035.06
448.013	1024.06
448.234	998.06
448.455	974.06
448.675	984.06
448.896	991.06
449.117	999.06
449.338	988.06
449.559	989.06
449.779	992.06
450	985.06
450.221	998.06
450.442	1003.06
450.662	997.06
450.883	1011.06
451.104	1044.06
451.324	1029.06
451.545	990.06
451.766	992.06
451.986	981.06
452.207	989.06
452.428	1009.06
452.648	987.06
452.869	976.06
453.089	974.06
453.31	981.06
453.53	977.06
453.751	955.06
453.971	965.06
454.192	977.06
454.412	924.06
454.633	948.06
454.853	946.06
455.073	939.06
455.294	934.06
455.514	912.06
455.734	943.06
455.955	940.06
456.175	913.06
456.395	906.06
456.616	909.06
456.836	933.06
457.056	920.06
457.276	925.06
457.497	931.06
457.717	927.06
457.937	929.06
458.157	928.06
458.377	952.06
458.598	949.06
458.818	1023.06
459.038	1011.06
459.258	1041.06
459.478	1087.06
459.698	1126.06
459.918	1166.06
460.138	1215.06
460.358	1256.06
460.578	1264.06
460.798	1292.06
461.018	1305.06
461.238	1294.06
461.458	1272.06
461.678	1264.06
461.898	1294.06
462.118	1308.06
462.338	1344.06
462.558	1466.06
462.777	1436.06
462.997	1555.06
463.217	1736.06
463.437	1763.06
463.657	1602.06
463.876	1515.06
464.096	1466.06
464.316	1498.06
464.536	1506.06
464.755	1442.06
464.975	1381.06
465.195	1333.06
465.414	1243.06
465.634	1158.06
465.854	1141.06
466.073	1076.06
466.293	1098.06
466.512	1082.06
466.732	1053.06
466.951	1036.06
467.171	1048.06
467.391	1045.06
467.61	1022.06
467.829	1009.06
468.049	1025.06
468.268	983.06
468.488	999.06
468.707	951.06
468.927	993.06
469.146	971.06
469.365	989.06
469.585	985.06
469.804	1029.06
470.023	1035.06
470.243	1039.06
470.462	1065.06
470.681	1067.06
470.901	1042.06
471.12	1050.06
471.339	1060.06
471.558	1033.06
471.777	1012.06
471.997	1009.06
472.216	988.06
472.435	989.06
472.654	964.06
472.873	932.06
473.092	979.06
473.311	964.06
473.53	971.06
473.749	939.06
473.968	961.06
474.187	982.06
474.406	930.06
474.625	934.06
474.844	977.06
475.063	948.06
475.282	984.06
475.501	980.06
475.72	990.06
475.939	997.06
476.158	1034.06
476.377	1032.06
476.596	1014.06
476.814	1029.06
477.033	995.06
477.252	1013.06
477.471	1046.06
477.69	1060.06
477.908	1121.06
478.127	1156.06
478.346	1156.06
478.564	1204.06
478.783	1164.06
479.002	1215.06
479.22	1234.06
479.439	1223.06
479.658	1194.06
479.876	1197.06
480.095	1235.06
480.313	1291.06
480.532	1328.06
480.751	1336.06
480.969	1235.06
481.188	1186.06
481.406	1204.06
481.624	1146.06
481.843	1133.06
482.061	1088.06
482.28	1141.06
482.498	1092.06
482.717	1082.06
482.935	1106.06
483.153	1111.06
483.372	1109.06
483.59	1118.06
483.808	1132.06
484.027	1124.06
484.245	1127.06
484.463	1144.06
484.681	1144.06
484.9	1164.06
485.118	1166.06
485.336	1161.06
485.554	1167.06
485.772	1205.06
485.99	1206.06
486.209	1203.06
486.427	1175.06
486.645	1171.06
486.863	1229.06
487.081	1187.06
487.299	1203.06
487.517	1181.06
487.735	1203.06
487.953	1191.06
488.171	1188.06
488.389	1187.06
488.607	1154.06
488.825	1157.06
489.043	1145.06
489.261	1168.06
489.479	1186.06
489.696	1178.06
489.914	1143.06
490.132	1178.06
490.35	1163.06
490.568	1140.06
490.786	1160.06
491.003	1169.06
491.221	1161.06
491.439	1164.06
491.657	1175.06
491.874	1182.06
492.092	1175.06
492.31	1178.06
492.527	1220.06
492.745	1182.06
492.963	1189.06
493.18	1213.06
493.398	1164.06
493.615	1218.06
493.833	1217.06
494.05	1200.06
494.268	1222.06
494.485	1197.06
494.703	1243.06
494.92	1205.06
495.138	1191.06
495.355	1187.06
495.573	1204.06
495.79	1250.06
496.008	1253.06
496.225	1237.06
496.442	1244.06
496.66	1280.06
496.877	1246.06
497.094	1284.06
497.312	1330.06
497.529	1357.06
497.746	1404.06
497.963	1442.06
498.181	1492.06
498.398	1532.06
498.615	1682.06
498.832	1761.06
499.049	1880.06
499.267	2073.06
499.484	2300.06
499.701	2499.06
499.918	2797.06
500.135	3181.06
500.352	3629.06
500.569	3851.06
500.786	3763.06
501.003	3548.06
501.22	3144.06
501.437	2740.06
501.654	2407.06
501.871	2160.06
502.088	1996.06
502.305	1846.06
502.522	1767.06
502.739	1733.06
502.956	1628.06
503.172	1543.06
503.389	1476.06
503.606	1415.06
503.823	1413.06
504.04	1385.06
504.256	1394.06
504.473	1425.06
504.69	1491.06
504.907	1443.06
505.123	1360.06
505.34	1264.06
505.557	1210.06
505.773	1212.06
505.99	1186.06
506.207	1152.06
506.423	1099.06
506.64	1138.06
506.856	1099.06
507.073	1078.06
507.289	1088.06
507.506	1096.06
507.722	1093.06
507.939	1048.06
508.155	1031.06
508.372	1037.06
508.588	1035.06
508.805	1044.06
509.021	998.06
509.238	1023.06
509.454	996.06
509.67	978.06
509.887	973.06
510.103	975.06
510.319	987.06
510.536	962.06
510.752	979.06
510.968	988.06
511.184	967.06
511.401	996.06
511.617	954.06
511.833	952.06
512.049	990.06
512.265	988.06
512.481	963.06
512.698	977.06
512.914	1004.06
513.13	979.06
513.346	995.06
513.562	953.06
513.778	982.06
513.994	973.06
514.21	998.06
514.426	975.06
514.642	988.06
514.858	975.06
515.074	1011.06
515.29	1021.06
515.506	1021.06
515.721	1013.06
515.937	1055.06
516.153	1078.06
516.369	1106.06
516.585	1110.06
516.801	1181.06
517.016	1219.06
517.232	1280.06
517.448	1321.06
517.664	1411.06
517.879	1410.06
518.095	1386.06
518.311	1340.06
518.527	1294.06
518.742	1228.06
518.958	1218.06
519.173	1126.06
519.389	1104.06
519.605	1105.06
519.82	1055.06
520.036	1023.06
520.251	1039.06
520.467	1010.06
520.682	1004.06
520.898	975.06
521.113	957.06
521.329	967.06
521.544	961.06
521.76	966.06
521.975	938.06
522.19	945.06
522.406	947.06
522.621	947.06
522.836	908.06
523.052	916.06
523.267	898.06
523.482	899.06
523.698	894.06
523.913	888.06
524.128	902.06
524.343	891.06
524.559	918.06
524.774	878.06
524.989	891.06
525.204	871.06
525.419	878.06
525.634	885.06
525.849	869.06
526.064	900.06
526.28	882.06
526.495	861.06
526.71	904.06
526.925	873.06
527.14	867.06
527.355	873.06
527.57	882.06
527.785	902.06
527.999	880.06
528.214	882.06
528.429	881.06
528.644	866.06
528.859	876.06
529.074	868.06
529.289	881.06
529.503	892.06
529.718	889.06
529.933	860.06
530.148	900.06
530.363	864.06
530.577	872.06
530.792	866.06
531.007	861.06
531.221	888.06
531.436	900.06
531.651	888.06
531.865	887.06
532.08	887.06
532.295	886.06
532.509	869.06
532.724	857.06
532.938	882.06
533.153	873.06
533.367	864.06
533.582	851.06
533.796	890.06
534.011	865.06
534.225	896.06
534.44	857.06
534.654	832.06
534.868	850.06
535.083	846.06
535.297	877.06
535.511	877.06
535.726	856.06
535.94	846.06
536.154	844.06
536.369	850.06
536.583	820.06
536.797	809.06
537.011	801.06
537.225	827.06
537.44	812.06
537.654	804.06
537.868	830.06
538.082	800.06
538.296	786.06
538.51	801.06
538.724	824.06
538.938	801.06
539.153	796.06
539.367	825.06
539.581	786.06
539.795	777.06
540.009	825.06
540.222	801.06
540.436	776.06
540.65	756.06
540.864	778.06
541.078	801.06
541.292	792.06
541.506	800.06
541.72	815.06
541.934	768.06
542.147	806.06
542.361	792.06
542.575	787.06
542.789	781.06
543.002	774.06
543.216	778.06
543.43	765.06
543.644	788.06
543.857	774.06
544.071	780.06
544.285	798.06
544.498	787.06
544.712	770.06
544.925	793.06
545.139	802.06
545.352	794.06
545.566	806.06
545.779	809.06
545.993	816.06
546.206	816.06
546.42	812.06
546.633	801.06
546.847	822.06
547.06	810.06
547.274	810.06
547.487	796.06
547.7	798.06
547.914	816.06
548.127	818.06
548.34	833.06
548.554	799.06
548.767	809.06
548.98	795.06
549.193	802.06
549.407	801.06
549.62	819.06
549.833	810.06
550.046	835.06
550.259	814.06
550.473	803.06
550.686	790.06
550.899	773.06
551.112	770.06
551.325	794.06
551.538	768.06
551.751	805.06
551.964	794.06
552.177	776.06
552.39	824.06
552.603	838.06
552.816	851.06
553.029	860.06
553.242	883.06
553.455	887.06
553.667	885.06
553.88	889.06
554.093	852.06
554.306	845.06
554.519	816.06
554.732	824.06
554.944	803.06
555.157	780.06
555.37	754.06
555.583	768.06
555.795	746.06
556.008	706.06
556.221	695.06
556.433	704.06
556.646	738.06
556.859	676.06
557.071	706.06
557.284	688.06
557.496	688.06
557.709	670.06
557.921	666.06
558.134	694.06
558.346	689.06
558.559	667.06
558.771	662.06
558.984	667.06
559.196	644.06
559.409	640.06
559.621	654.06
559.833	665.06
560.046	640.06
560.258	665.06
560.47	659.06
560.683	655.06
560.895	663.06
561.107	643.06
561.32	658.06
561.532	647.06
561.744	669.06
561.956	651.06
562.168	630.06
562.381	665.06
562.593	696.06
562.805	666.06
563.017	672.06
563.229	625.06
563.441	660.06
563.653	672.06
563.865	680.06
564.077	654.06
564.289	674.06
564.501	690.06
564.713	712.06
564.925	731.06
565.137	722.06
565.349	726.06
565.561	750.06
565.773	781.06
565.985	813.06
566.197	839.06
566.408	907.06
566.62	1020.06
566.832	1088.06
567.044	1100.06
567.255	1100.06
567.467	1122.06
567.679	1195.06
567.891	1287.06
568.102	1353.06
568.314	1264.06
568.526	1129.06
568.737	1001.06
568.949	941.06
569.161	859.06
569.372	780.06
569.584	725.06
569.795	711.06
570.007	724.06
570.218	693.06
570.43	664.06
570.641	676.06
570.853	679.06
571.064	702.06
571.276	685.06
571.487	645.06
571.698	638.06
571.91	616.06
572.121	598.06
572.333	589.06
572.544	553.06
572.755	585.06
572.966	563.06
573.178	577.06
573.389	536.06
573.6	528.06
573.811	547.06
574.023	546.06
574.234	541.06
574.445	525.06
574.656	530.06
574.867	550.06
575.078	538.06
575.289	570.06
575.501	525.06
575.712	517.06
575.923	511.06
576.134	505.06
576.345	504.06
576.556	523.06
576.767	515.06
576.978	538.06
577.188	503.06
577.399	513.06
577.61	509.06
577.821	502.06
578.032	507.06
578.243	504.06
578.454	508.06
578.665	474.06
578.875	478.06
579.086	473.06
579.297	472.06
579.508	490.06
579.718	486.06
579.929	480.06
580.14	470.06
580.35	476.06
580.561	464.06
580.772	454.06
580.982	456.06
581.193	448.06
581.403	473.06
581.614	468.06
581.825	477.06
582.035	472.06
582.246	454.06
582.456	442.06
582.667	476.06
582.877	461.06
583.087	446.06
583.298	435.06
583.508	446.06
583.719	438.06
583.929	451.06
584.139	457.06
584.35	443.06
584.56	450.06
584.77	443.06
584.981	438.06
585.191	456.06
585.401	449.06
585.611	428.06
585.821	450.06
586.032	442.06
586.242	464.06
586.452	432.06
586.662	432.06
586.872	428.06
587.082	438.06
587.292	443.06
587.502	424.06
587.713	422.06
587.923	438.06
588.133	437.06
588.343	428.06
588.553	432.06
588.762	432.06
588.972	424.06
589.182	426.06
589.392	426.06
589.602	445.06
589.812	453.06
590.022	438.06
590.232	434.06
590.441	443.06
590.651	447.06
590.861	439.06
591.071	449.06
591.281	431.06
591.49	454.06
591.7	455.06
591.91	453.06
592.119	472.06
592.329	473.06
592.539	484.06
592.748	516.06
592.958	535.06
593.167	545.06
593.377	562.06
593.587	566.06
593.796	576.06
594.006	574.06
594.215	571.06
594.424	572.06
594.634	554.06
594.843	531.06
595.053	482.06
595.262	502.06
595.472	476.06
595.681	481.06
595.89	460.06
596.1	421.06
596.309	436.06
596.518	424.06
596.727	422.06
596.937	405.06
597.146	409.06
597.355	421.06
597.564	393.06
597.774	396.06
597.983	394.06
598.192	390.06
598.401	401.06
598.61	384.06
598.819	374.06
599.028	361.06
599.237	347.06
599.446	352.06
599.655	355.06
599.864	376.06
600.073	388.06
600.282	363.06
600.491	359.06
600.7	358.06
600.909	371.06
601.118	372.06
601.327	367.06
601.536	363.06
601.745	379.06
601.953	344.06
602.162	358.06
602.371	362.06
602.58	340.06
602.789	364.06
602.997	346.06
603.206	339.06
603.415	325.06
603.623	346.06
603.832	349.06
604.041	371.06
604.249	352.06
604.458	344.06
604.666	333.06
604.875	344.06
605.084	344.06
605.292	341.06
605.501	336.06
605.709	354.06
605.918	341.06
606.126	342.06
606.334	330.06
606.543	321.06
606.751	333.06
606.96	336.06
607.168	345.06
607.376	318.06
607.585	315.06
607.793	322.06
608.001	342.06
608.21	326.06
608.418	336.06
608.626	332.06
608.834	338.06
609.043	322.06
609.251	337.06
609.459	331.06
609.667	318.06
609.875	317.06
610.083	310.06
610.291	326.06
610.499	317.06
610.707	340.06
610.916	325.06
611.124	320.06
611.332	318.06
611.54	328.06
611.748	315.06
611.955	312.06
612.163	324.06
612.371	326.06
612.579	310.06
612.787	298.06
612.995	307.06
613.203	319.06
613.411	298.06
613.618	333.06
613.826	317.06
614.034	300.06
614.242	296.06
614.449	312.06
614.657	308.06
614.865	293.06
615.072	294.06
615.28	310.06
615.488	324.06
615.695	298.06
615.903	301.06
616.111	327.06
616.318	334.06
616.526	334.06
616.733	329.06
616.941	325.06
617.148	316.06
617.356	325.06
617.563	329.06
617.771	313.06
617.978	317.06
618.185	311.06
618.393	302.06
618.6	307.06
618.807	323.06
619.015	300.06
619.222	326.06
619.429	309.06
619.637	311.06
619.844	289.06
620.051	276.06
620.258	303.06
620.466	297.06
620.673	274.06
620.88	282.06
621.087	293.06
621.294	283.06
621.501	265.06
621.708	278.06
621.915	289.06
622.122	278.06
622.329	282.06
622.536	274.06
622.743	276.06
622.95	269.06
623.157	283.06
623.364	289.06
623.571	281.06
623.778	279.06
623.985	282.06
624.192	275.06
624.399	268.06
624.606	285.06
624.812	290.06
625.019	278.06
625.226	271.06
625.433	280.06
625.639	269.06
625.846	266.06
626.053	257.06
626.259	281.06
626.466	252.06
626.673	277.06
626.879	263.06
627.086	238.06
627.293	256.06
627.499	260.06
627.706	254.06
627.912	262.06
628.119	251.06
628.325	268.06
628.532	261.06
628.738	262.06
628.945	249.06
629.151	240.06
629.357	249.06
629.564	256.06
629.77	260.06
629.976	253.06
630.183	218.06
630.389	232.06
630.595	229.06
630.802	253.06
631.008	235.06
631.214	233.06
631.42	250.06
631.627	232.06
631.833	258.06
632.039	235.06
632.245	226.06
632.451	237.06
632.657	245.06
632.863	241.06
633.069	235.06
633.275	232.06
633.481	222.06
633.688	226.06
633.893	212.06
634.099	217.06
634.305	229.06
634.511	226.06
634.717	246.06
634.923	228.06
635.129	230.06
635.335	228.06
635.541	229.06
635.747	225.06
635.952	225.06
636.158	226.06
636.364	224.06
636.57	243.06
636.775	227.06
636.981	210.06
637.187	235.06
637.392	222.06
637.598	208.06
637.804	220.06
638.009	210.06
638.215	241.06
638.421	218.06
638.626	210.06
638.832	209.06
639.037	221.06
639.243	205.06
639.448	203.06
639.654	218.06
639.859	209.06
640.065	217.06
640.27	223.06
640.475	209.06
640.681	208.06
640.886	220.06
641.091	209.06
641.297	211.06
641.502	205.06
641.707	200.06
641.913	204.06
642.118	201.06
642.323	202.06
642.528	215.06
642.733	202.06
642.939	210.06
643.144	200.06
643.349	195.06
643.554	210.06
643.759	191.06
643.964	205.06
644.169	195.06
644.374	203.06
644.579	198.06
644.784	215.06
644.989	217.06
645.194	206.06
645.399	192.06
645.604	209.06
645.809	210.06
646.014	209.06
646.219	206.06
646.423	199.06
646.628	206.06
646.833	214.06
647.038	213.06
647.243	209.06
647.447	200.06
647.652	210.06
647.857	216.06
648.062	221.06
648.266	217.06
648.471	233.06
648.676	215.06
648.88	229.06
649.085	227.06
649.289	206.06
649.494	220.06
649.698	209.06
649.903	186.06
650.107	208.06
650.312	197.06
650.516	185.06
650.721	193.06
650.925	196.06
651.13	190.06
651.334	178.06
651.539	185.06
651.743	190.06
651.947	172.06
652.152	197.06
652.356	177.06
652.56	180.06
652.764	187.06
652.969	173.06
653.173	184.06
653.377	156.06
653.581	160.06
653.785	160.06
653.99	174.06
654.194	162.06
654.398	154.06
654.602	156.06
654.806	150.06
655.01	162.06
655.214	155.06
655.418	167.06
655.622	164.06
655.826	178.06
656.03	166.06
656.234	177.06
656.438	174.06
656.642	180.06
656.846	177.06
657.049	172.06
657.253	146.06
657.457	129.06
657.661	152.06
657.865	136.06
658.068	127.06
658.272	120.06
658.476	122.06
658.68	117.06
658.883	109.06
659.087	119.06
659.291	126.06
659.494	114.06
659.698	110.06
659.901	101.06
660.105	115.06
660.309	96.06
660.512	104.06
660.716	101.06
660.919	90.06
661.123	87.06
661.326	90.06
661.53	106.06
661.733	105.06
661.936	97.06
662.14	81.06
662.343	95.06
662.546	95.06
662.75	90.06
662.953	75.06
663.156	82.06
663.36	87.06
663.563	94.06
663.766	94.06
663.969	97.06
664.173	88.06
664.376	82.06
664.579	68.06
664.782	69.06
664.985	91.06
665.188	82.06
665.391	79.06
665.594	86.06
665.797	76.06
666	90.06
666.203	75.06
666.406	102.06
666.609	84.06
666.812	74.06
667.015	74.06
667.218	81.06
667.421	73.06
667.624	89.06
667.827	78.06
668.03	85.06
668.232	79.06
668.435	79.06
668.638	80.06
668.841	82.06
669.043	82.06
669.246	95.06
669.449	89.06
669.651	80.06
669.854	66.06
670.057	81.06
670.259	76.06
670.462	80.06
670.665	91.06
670.867	76.06
671.07	78.06
671.272	100.06
671.475	91.06
671.677	77.06
671.88	72.06
672.082	81.06
672.284	82.06
672.487	76.06
672.689	84.06
672.892	105.06
