Data from Ni(NO3)2@0.5M.TitratingCurve.Agarose3%dH2O.NegLispCup.LampEnergy10.LIBS07252019_HRD10591_17-57-19-564.txt Node
Date: Thu Jul 25 17:57:19 EDT 2019
User: cochatt
Spectrometer: HR+D1059
Trigger mode: 1
Integration Time (sec): 1.000000E-1
Scans to average: 1
Electric dark correction enabled: true
Nonlinearity correction enabled: false
Boxcar width: 0
XAxis mode: Wavelengths
Number of Pixels in Spectrum: 2048
>>>>>Begin Spectral Data<<<<<
223.165	-22.75
223.4	-22.75
223.635	-22.75
223.869	-24.75
224.104	-3.75
224.338	-8.75
224.573	-23.75
224.808	-4.75
225.042	-0.75
225.277	-7.75
225.511	3.25
225.746	6.25
225.98	13.25
226.215	0.25
226.449	6.25
226.683	14.25
226.918	11.25
227.152	42.25
227.387	38.25
227.621	40.25
227.856	48.25
228.09	30.25
228.324	40.25
228.559	43.25
228.793	81.25
229.027	118.25
229.262	121.25
229.496	137.25
229.73	129.25
229.964	140.25
230.199	159.25
230.433	162.25
230.667	152.25
230.901	164.25
231.136	138.25
231.37	166.25
231.604	151.25
231.838	182.25
232.072	178.25
232.306	179.25
232.541	154.25
232.775	166.25
233.009	158.25
233.243	172.25
233.477	162.25
233.711	155.25
233.945	159.25
234.179	158.25
234.413	160.25
234.647	154.25
234.881	158.25
235.115	175.25
235.349	159.25
235.583	149.25
235.817	186.25
236.051	154.25
236.285	146.25
236.519	160.25
236.753	171.25
236.987	163.25
237.221	156.25
237.455	176.25
237.689	180.25
237.922	152.25
238.156	172.25
238.39	162.25
238.624	165.25
238.858	167.25
239.091	182.25
239.325	189.25
239.559	188.25
239.793	187.25
240.027	211.25
240.26	198.25
240.494	183.25
240.728	181.25
240.961	210.25
241.195	185.25
241.429	189.25
241.662	206.25
241.896	214.25
242.13	226.25
242.363	209.25
242.597	199.25
242.83	203.25
243.064	209.25
243.298	195.25
243.531	224.25
243.765	216.25
243.998	225.25
244.232	216.25
244.465	225.25
244.699	218.25
244.932	205.25
245.166	216.25
245.399	227.25
245.633	228.25
245.866	254.25
246.099	239.25
246.333	238.25
246.566	240.25
246.8	227.25
247.033	242.25
247.266	239.25
247.5	229.25
247.733	236.25
247.966	247.25
248.2	262.25
248.433	249.25
248.666	262.25
248.899	267.25
249.133	249.25
249.366	276.25
249.599	251.25
249.832	267.25
250.066	257.25
250.299	278.25
250.532	282.25
250.765	260.25
250.998	277.25
251.231	284.25
251.465	288.25
251.698	300.25
251.931	289.25
252.164	297.25
252.397	276.25
252.63	302.25
252.863	299.25
253.096	308.25
253.329	277.25
253.562	298.25
253.795	291.25
254.028	294.25
254.261	331.25
254.494	318.25
254.727	328.25
254.96	320.25
255.193	314.25
255.426	308.25
255.659	326.25
255.892	336.25
256.124	331.25
256.357	327.25
256.59	327.25
256.823	341.25
257.056	324.25
257.289	342.25
257.521	312.25
257.754	346.25
257.987	339.25
258.22	358.25
258.452	359.25
258.685	340.25
258.918	363.25
259.151	367.25
259.383	350.25
259.616	350.25
259.849	367.25
260.081	365.25
260.314	371.25
260.547	376.25
260.779	367.25
261.012	379.25
261.244	359.25
261.477	370.25
261.71	376.25
261.942	365.25
262.175	372.25
262.407	398.25
262.64	381.25
262.872	390.25
263.105	376.25
263.337	372.25
263.57	409.25
263.802	397.25
264.035	393.25
264.267	398.25
264.499	413.25
264.732	410.25
264.964	393.25
265.197	420.25
265.429	399.25
265.661	416.25
265.894	409.25
266.126	420.25
266.358	398.25
266.591	400.25
266.823	437.25
267.055	444.25
267.287	439.25
267.52	426.25
267.752	429.25
267.984	427.25
268.216	432.25
268.448	428.25
268.681	439.25
268.913	430.25
269.145	443.25
269.377	443.25
269.609	422.25
269.841	436.25
270.073	431.25
270.306	431.25
270.538	432.25
270.77	446.25
271.002	458.25
271.234	453.25
271.466	454.25
271.698	441.25
271.93	461.25
272.162	462.25
272.394	465.25
272.626	461.25
272.858	454.25
273.09	480.25
273.322	464.25
273.553	484.25
273.785	475.25
274.017	455.25
274.249	470.25
274.481	465.25
274.713	473.25
274.945	477.25
275.176	497.25
275.408	465.25
275.64	480.25
275.872	488.25
276.104	502.25
276.335	507.25
276.567	484.25
276.799	487.25
277.031	495.25
277.262	492.25
277.494	477.25
277.726	491.25
277.957	513.25
278.189	507.25
278.421	486.25
278.652	514.25
278.884	509.25
279.115	491.25
279.347	507.25
279.579	510.25
279.81	503.25
280.042	494.25
280.273	542.25
280.505	522.25
280.736	501.25
280.968	524.25
281.199	530.25
281.431	535.25
281.662	511.25
281.894	520.25
282.125	528.25
282.356	543.25
282.588	543.25
282.819	518.25
283.051	543.25
283.282	547.25
283.513	518.25
283.745	551.25
283.976	551.25
284.207	521.25
284.439	553.25
284.67	563.25
284.901	547.25
285.132	551.25
285.364	548.25
285.595	551.25
285.826	543.25
286.057	554.25
286.288	554.25
286.52	572.25
286.751	575.25
286.982	575.25
287.213	564.25
287.444	560.25
287.675	551.25
287.906	563.25
288.138	568.25
288.369	574.25
288.6	570.25
288.831	550.25
289.062	570.25
289.293	570.25
289.524	575.25
289.755	571.25
289.986	587.25
290.217	578.25
290.448	584.25
290.679	567.25
290.91	580.25
291.141	584.25
291.371	565.25
291.602	579.25
291.833	586.25
292.064	580.25
292.295	596.25
292.526	570.25
292.757	569.25
292.987	563.25
293.218	587.25
293.449	567.25
293.68	586.25
293.91	584.25
294.141	583.25
294.372	601.25
294.603	586.25
294.833	579.25
295.064	583.25
295.295	599.25
295.525	583.25
295.756	603.25
295.987	589.25
296.217	584.25
296.448	566.25
296.679	604.25
296.909	599.25
297.14	602.25
297.37	609.25
297.601	595.25
297.831	615.25
298.062	595.25
298.292	630.25
298.523	642.25
298.753	614.25
298.984	629.25
299.214	622.25
299.445	631.25
299.675	615.25
299.905	634.25
300.136	653.25
300.366	674.25
300.597	656.25
300.827	654.25
301.057	648.25
301.288	666.25
301.518	634.25
301.748	628.25
301.979	655.25
302.209	668.25
302.439	632.25
302.669	666.25
302.9	674.25
303.13	676.25
303.36	677.25
303.59	669.25
303.82	670.25
304.051	679.25
304.281	674.25
304.511	663.25
304.741	674.25
304.971	678.25
305.201	683.25
305.431	694.25
305.661	692.25
305.891	680.25
306.121	704.25
306.352	682.25
306.582	664.25
306.812	689.25
307.042	690.25
307.272	670.25
307.502	668.25
307.731	696.25
307.961	664.25
308.191	659.25
308.421	678.25
308.651	694.25
308.881	694.25
309.111	661.25
309.341	702.25
309.571	698.25
309.8	687.25
310.03	716.25
310.26	733.25
310.49	734.25
310.72	719.25
310.949	704.25
311.179	686.25
311.409	692.25
311.639	707.25
311.868	720.25
312.098	702.25
312.328	740.25
312.557	729.25
312.787	725.25
313.017	712.25
313.246	730.25
313.476	734.25
313.706	766.25
313.935	751.25
314.165	749.25
314.394	722.25
314.624	732.25
314.853	719.25
315.083	739.25
315.312	741.25
315.542	762.25
315.771	748.25
316.001	746.25
316.23	754.25
316.46	779.25
316.689	750.25
316.919	770.25
317.148	758.25
317.377	746.25
317.607	771.25
317.836	775.25
318.065	797.25
318.295	799.25
318.524	796.25
318.753	773.25
318.983	798.25
319.212	781.25
319.441	776.25
319.67	811.25
319.9	791.25
320.129	803.25
320.358	772.25
320.587	824.25
320.816	820.25
321.046	822.25
321.275	802.25
321.504	817.25
321.733	831.25
321.962	797.25
322.191	813.25
322.42	824.25
322.649	810.25
322.878	821.25
323.108	847.25
323.337	844.25
323.566	855.25
323.795	838.25
324.024	843.25
324.253	868.25
324.482	833.25
324.71	856.25
324.939	859.25
325.168	865.25
325.397	851.25
325.626	840.25
325.855	852.25
326.084	868.25
326.313	883.25
326.542	859.25
326.77	873.25
326.999	903.25
327.228	874.25
327.457	888.25
327.686	900.25
327.914	891.25
328.143	902.25
328.372	897.25
328.6	890.25
328.829	873.25
329.058	894.25
329.287	900.25
329.515	887.25
329.744	899.25
329.972	896.25
330.201	895.25
330.43	902.25
330.658	905.25
330.887	914.25
331.115	934.25
331.344	949.25
331.572	947.25
331.801	954.25
332.03	924.25
332.258	940.25
332.486	942.25
332.715	973.25
332.943	961.25
333.172	973.25
333.4	983.25
333.629	1002.25
333.857	1036.25
334.085	978.25
334.314	1013.25
334.542	1020.25
334.771	1031.25
334.999	1008.25
335.227	1029.25
335.455	1026.25
335.684	1034.25
335.912	1035.25
336.14	1039.25
336.369	1020.25
336.597	1025.25
336.825	1052.25
337.053	1044.25
337.281	1056.25
337.51	1047.25
337.738	1034.25
337.966	1024.25
338.194	1016.25
338.422	1012.25
338.65	1017.25
338.878	1022.25
339.106	994.25
339.334	1022.25
339.562	1003.25
339.79	978.25
340.018	974.25
340.246	963.25
340.474	980.25
340.702	976.25
340.93	992.25
341.158	987.25
341.386	1016.25
341.614	1030.25
341.842	1028.25
342.07	1004.25
342.298	997.25
342.526	1012.25
342.754	963.25
342.981	982.25
343.209	973.25
343.437	1023.25
343.665	1009.25
343.893	1003.25
344.12	1030.25
344.348	1046.25
344.576	1039.25
344.804	1011.25
345.031	998.25
345.259	1002.25
345.487	977.25
345.714	991.25
345.942	1008.25
346.17	1030.25
346.397	1005.25
346.625	966.25
346.853	986.25
347.08	980.25
347.308	969.25
347.535	964.25
347.763	958.25
347.99	946.25
348.218	982.25
348.445	948.25
348.673	955.25
348.9	969.25
349.128	953.25
349.355	960.25
349.583	1002.25
349.81	975.25
350.037	938.25
350.265	948.25
350.492	955.25
350.72	953.25
350.947	930.25
351.174	955.25
351.402	979.25
351.629	996.25
351.856	954.25
352.083	947.25
352.311	939.25
352.538	990.25
352.765	962.25
352.992	939.25
353.22	920.25
353.447	928.25
353.674	937.25
353.901	926.25
354.128	935.25
354.355	948.25
354.583	899.25
354.81	936.25
355.037	916.25
355.264	928.25
355.491	932.25
355.718	927.25
355.945	937.25
356.172	939.25
356.399	940.25
356.626	995.25
356.853	966.25
357.08	926.25
357.307	941.25
357.534	948.25
357.761	952.25
357.988	934.25
358.215	937.25
358.441	908.25
358.668	922.25
358.895	898.25
359.122	932.25
359.349	924.25
359.576	931.25
359.802	912.25
360.029	928.25
360.256	912.25
360.483	935.25
360.709	910.25
360.936	934.25
361.163	956.25
361.39	940.25
361.616	934.25
361.843	960.25
362.07	988.25
362.296	952.25
362.523	936.25
362.749	923.25
362.976	922.25
363.203	926.25
363.429	928.25
363.656	941.25
363.882	950.25
364.109	924.25
364.335	927.25
364.562	908.25
364.788	908.25
365.015	935.25
365.241	930.25
365.468	950.25
365.694	937.25
365.92	940.25
366.147	937.25
366.373	912.25
366.599	918.25
366.826	921.25
367.052	902.25
367.278	937.25
367.505	928.25
367.731	963.25
367.957	908.25
368.184	951.25
368.41	962.25
368.636	932.25
368.862	946.25
369.089	966.25
369.315	960.25
369.541	949.25
369.767	956.25
369.993	965.25
370.219	942.25
370.445	943.25
370.672	953.25
370.898	971.25
371.124	978.25
371.35	976.25
371.576	991.25
371.802	991.25
372.028	964.25
372.254	999.25
372.48	976.25
372.706	981.25
372.932	971.25
373.158	976.25
373.384	980.25
373.61	979.25
373.835	974.25
374.061	994.25
374.287	979.25
374.513	954.25
374.739	982.25
374.965	985.25
375.191	991.25
375.416	1000.25
375.642	982.25
375.868	944.25
376.094	926.25
376.319	962.25
376.545	919.25
376.771	964.25
376.997	918.25
377.222	962.25
377.448	934.25
377.674	964.25
377.899	956.25
378.125	915.25
378.35	972.25
378.576	941.25
378.802	959.25
379.027	945.25
379.253	954.25
379.478	943.25
379.704	950.25
379.929	930.25
380.155	948.25
380.38	959.25
380.606	947.25
380.831	968.25
381.057	979.25
381.282	959.25
381.507	936.25
381.733	963.25
381.958	946.25
382.184	953.25
382.409	970.25
382.634	970.25
382.86	965.25
383.085	965.25
383.31	951.25
383.535	980.25
383.761	972.25
383.986	973.25
384.211	983.25
384.436	970.25
384.662	1014.25
384.887	987.25
385.112	982.25
385.337	982.25
385.562	1005.25
385.787	1046.25
386.013	1061.25
386.238	1060.25
386.463	1038.25
386.688	1037.25
386.913	1005.25
387.138	1047.25
387.363	1049.25
387.588	1018.25
387.813	1049.25
388.038	1046.25
388.263	1050.25
388.488	1042.25
388.713	1041.25
388.938	1032.25
389.163	1044.25
389.387	1057.25
389.612	1028.25
389.837	1046.25
390.062	1043.25
390.287	1041.25
390.512	1047.25
390.736	1025.25
390.961	1054.25
391.186	1047.25
391.411	1071.25
391.636	1055.25
391.86	1056.25
392.085	1080.25
392.31	1081.25
392.534	1089.25
392.759	1066.25
392.984	1070.25
393.208	1074.25
393.433	1092.25
393.658	1070.25
393.882	1081.25
394.107	1055.25
394.331	1066.25
394.556	1057.25
394.78	1056.25
395.005	1069.25
395.229	1106.25
395.454	1081.25
395.678	1087.25
395.903	1090.25
396.127	1105.25
396.352	1094.25
396.576	1110.25
396.801	1072.25
397.025	1092.25
397.249	1142.25
397.474	1124.25
397.698	1127.25
397.922	1135.25
398.147	1097.25
398.371	1135.25
398.595	1185.25
398.82	1191.25
399.044	1196.25
399.268	1220.25
399.492	1268.25
399.717	1270.25
399.941	1283.25
400.165	1311.25
400.389	1282.25
400.613	1238.25
400.837	1232.25
401.062	1214.25
401.286	1196.25
401.51	1173.25
401.734	1217.25
401.958	1206.25
402.182	1174.25
402.406	1182.25
402.63	1159.25
402.854	1187.25
403.078	1178.25
403.302	1153.25
403.526	1180.25
403.75	1184.25
403.974	1210.25
404.198	1146.25
404.422	1225.25
404.645	1219.25
404.869	1186.25
405.093	1193.25
405.317	1202.25
405.541	1236.25
405.765	1230.25
405.988	1241.25
406.212	1212.25
406.436	1229.25
406.66	1282.25
406.883	1258.25
407.107	1283.25
407.331	1287.25
407.555	1324.25
407.778	1307.25
408.002	1326.25
408.226	1290.25
408.449	1297.25
408.673	1297.25
408.896	1296.25
409.12	1295.25
409.344	1304.25
409.567	1257.25
409.791	1253.25
410.014	1244.25
410.238	1250.25
410.461	1241.25
410.685	1225.25
410.908	1273.25
411.132	1245.25
411.355	1229.25
411.578	1215.25
411.802	1247.25
412.025	1215.25
412.249	1242.25
412.472	1204.25
412.695	1215.25
412.919	1187.25
413.142	1230.25
413.365	1168.25
413.589	1190.25
413.812	1195.25
414.035	1193.25
414.258	1213.25
414.482	1167.25
414.705	1191.25
414.928	1162.25
415.151	1220.25
415.374	1190.25
415.597	1166.25
415.821	1172.25
416.044	1163.25
416.267	1159.25
416.49	1172.25
416.713	1202.25
416.936	1176.25
417.159	1136.25
417.382	1154.25
417.605	1134.25
417.828	1156.25
418.051	1198.25
418.274	1173.25
418.497	1108.25
418.72	1140.25
418.943	1150.25
419.166	1198.25
419.389	1292.25
419.611	1240.25
419.834	1212.25
420.057	1180.25
420.28	1151.25
420.503	1147.25
420.726	1130.25
420.948	1162.25
421.171	1156.25
421.394	1134.25
421.617	1150.25
421.839	1163.25
422.062	1180.25
422.285	1165.25
422.507	1139.25
422.73	1139.25
422.953	1131.25
423.175	1170.25
423.398	1148.25
423.621	1154.25
423.843	1147.25
424.066	1149.25
424.288	1170.25
424.511	1140.25
424.733	1144.25
424.956	1119.25
425.178	1151.25
425.401	1155.25
425.623	1166.25
425.846	1163.25
426.068	1133.25
426.291	1123.25
426.513	1157.25
426.735	1154.25
426.958	1155.25
427.18	1158.25
427.402	1165.25
427.625	1156.25
427.847	1126.25
428.069	1129.25
428.292	1140.25
428.514	1086.25
428.736	1112.25
428.958	1135.25
429.181	1143.25
429.403	1110.25
429.625	1127.25
429.847	1128.25
430.069	1118.25
430.292	1116.25
430.514	1120.25
430.736	1149.25
430.958	1124.25
431.18	1144.25
431.402	1133.25
431.624	1106.25
431.846	1094.25
432.068	1122.25
432.29	1100.25
432.512	1106.25
432.734	1156.25
432.956	1132.25
433.178	1134.25
433.4	1144.25
433.622	1158.25
433.844	1162.25
434.066	1159.25
434.287	1140.25
434.509	1141.25
434.731	1150.25
434.953	1158.25
435.175	1168.25
435.397	1199.25
435.618	1181.25
435.84	1163.25
436.062	1129.25
436.284	1147.25
436.505	1142.25
436.727	1123.25
436.949	1135.25
437.17	1145.25
437.392	1134.25
437.614	1124.25
437.835	1104.25
438.057	1095.25
438.278	1051.25
438.5	1098.25
438.721	1088.25
438.943	1100.25
439.165	1100.25
439.386	1125.25
439.608	1121.25
439.829	1150.25
440.05	1140.25
440.272	1139.25
440.493	1143.25
440.715	1131.25
440.936	1156.25
441.158	1168.25
441.379	1132.25
441.6	1184.25
441.822	1174.25
442.043	1161.25
442.264	1175.25
442.486	1167.25
442.707	1186.25
442.928	1174.25
443.149	1139.25
443.371	1184.25
443.592	1202.25
443.813	1232.25
444.034	1197.25
444.255	1182.25
444.476	1215.25
444.698	1216.25
444.919	1183.25
445.14	1327.25
445.361	1275.25
445.582	1168.25
445.803	1158.25
446.024	1151.25
446.245	1146.25
446.466	1176.25
446.687	1114.25
446.908	1109.25
447.129	1116.25
447.35	1110.25
447.571	1134.25
447.792	1086.25
448.013	1108.25
448.234	1065.25
448.455	1035.25
448.675	1055.25
448.896	1072.25
449.117	1060.25
449.338	1074.25
449.559	1070.25
449.779	1034.25
450	1039.25
450.221	1025.25
450.442	1062.25
450.662	1047.25
450.883	1053.25
451.104	1082.25
451.324	1036.25
451.545	1067.25
451.766	1052.25
451.986	1032.25
452.207	1028.25
452.428	1036.25
452.648	1051.25
452.869	1033.25
453.089	1031.25
453.31	1003.25
453.53	1022.25
453.751	1025.25
453.971	986.25
454.192	1034.25
454.412	1019.25
454.633	1017.25
454.853	993.25
455.073	989.25
455.294	1018.25
455.514	1005.25
455.734	1012.25
455.955	1016.25
456.175	1024.25
456.395	1014.25
456.616	1018.25
456.836	981.25
457.056	991.25
457.276	1002.25
457.497	1024.25
457.717	1049.25
457.937	1016.25
458.157	1014.25
458.377	1011.25
458.598	1034.25
458.818	1021.25
459.038	1087.25
459.258	1077.25
459.478	1108.25
459.698	1166.25
459.918	1178.25
460.138	1166.25
460.358	1179.25
460.578	1134.25
460.798	1176.25
461.018	1198.25
461.238	1135.25
461.458	1172.25
461.678	1190.25
461.898	1190.25
462.118	1179.25
462.338	1215.25
462.558	1211.25
462.777	1226.25
462.997	1290.25
463.217	1289.25
463.437	1298.25
463.657	1289.25
463.876	1259.25
464.096	1233.25
464.316	1217.25
464.536	1225.25
464.755	1220.25
464.975	1207.25
465.195	1162.25
465.414	1160.25
465.634	1162.25
465.854	1140.25
466.073	1124.25
466.293	1089.25
466.512	1099.25
466.732	1104.25
466.951	1126.25
467.171	1109.25
467.391	1086.25
467.61	1076.25
467.829	1083.25
468.049	1070.25
468.268	1090.25
468.488	1070.25
468.707	1081.25
468.927	1052.25
469.146	1064.25
469.365	1129.25
469.585	1092.25
469.804	1101.25
470.023	1092.25
470.243	1084.25
470.462	1104.25
470.681	1118.25
470.901	1111.25
471.12	1085.25
471.339	1102.25
471.558	1100.25
471.777	1075.25
471.997	1068.25
472.216	1070.25
472.435	1085.25
472.654	1063.25
472.873	1058.25
473.092	1095.25
473.311	1070.25
473.53	1116.25
473.749	1105.25
473.968	1103.25
474.187	1061.25
474.406	1067.25
474.625	1097.25
474.844	1121.25
475.063	1105.25
475.282	1106.25
475.501	1109.25
475.72	1111.25
475.939	1110.25
476.158	1153.25
476.377	1146.25
476.596	1131.25
476.814	1153.25
477.033	1138.25
477.252	1155.25
477.471	1221.25
477.69	1214.25
477.908	1202.25
478.127	1211.25
478.346	1220.25
478.564	1232.25
478.783	1256.25
479.002	1272.25
479.22	1308.25
479.439	1305.25
479.658	1272.25
479.876	1301.25
480.095	1285.25
480.313	1286.25
480.532	1286.25
480.751	1300.25
480.969	1274.25
481.188	1244.25
481.406	1259.25
481.624	1270.25
481.843	1249.25
482.061	1253.25
482.28	1287.25
482.498	1244.25
482.717	1214.25
482.935	1262.25
483.153	1311.25
483.372	1334.25
483.59	1354.25
483.808	1323.25
484.027	1264.25
484.245	1321.25
484.463	1318.25
484.681	1306.25
484.9	1326.25
485.118	1303.25
485.336	1328.25
485.554	1322.25
485.772	1326.25
485.99	1304.25
486.209	1311.25
486.427	1294.25
486.645	1344.25
486.863	1365.25
487.081	1340.25
487.299	1324.25
487.517	1363.25
487.735	1359.25
487.953	1356.25
488.171	1352.25
488.389	1375.25
488.607	1328.25
488.825	1313.25
489.043	1342.25
489.261	1327.25
489.479	1310.25
489.696	1336.25
489.914	1324.25
490.132	1335.25
490.35	1351.25
490.568	1320.25
490.786	1390.25
491.003	1358.25
491.221	1372.25
491.439	1364.25
491.657	1380.25
491.874	1411.25
492.092	1428.25
492.31	1395.25
492.527	1427.25
492.745	1391.25
492.963	1384.25
493.18	1390.25
493.398	1395.25
493.615	1402.25
493.833	1412.25
494.05	1413.25
494.268	1436.25
494.485	1391.25
494.703	1378.25
494.92	1415.25
495.138	1416.25
495.355	1413.25
495.573	1430.25
495.79	1412.25
496.008	1432.25
496.225	1426.25
496.442	1416.25
496.66	1449.25
496.877	1459.25
497.094	1474.25
497.312	1487.25
497.529	1491.25
497.746	1506.25
497.963	1512.25
498.181	1549.25
498.398	1607.25
498.615	1632.25
498.832	1660.25
499.049	1707.25
499.267	1736.25
499.484	1773.25
499.701	1861.25
499.918	1871.25
500.135	1938.25
500.352	1991.25
500.569	1976.25
500.786	1970.25
501.003	1962.25
501.22	1933.25
501.437	1910.25
501.654	1833.25
501.871	1770.25
502.088	1739.25
502.305	1680.25
502.522	1638.25
502.739	1630.25
502.956	1556.25
503.172	1517.25
503.389	1542.25
503.606	1523.25
503.823	1492.25
504.04	1508.25
504.256	1466.25
504.473	1440.25
504.69	1406.25
504.907	1402.25
505.123	1371.25
505.34	1381.25
505.557	1378.25
505.773	1339.25
505.99	1316.25
506.207	1290.25
506.423	1298.25
506.64	1259.25
506.856	1259.25
507.073	1302.25
507.289	1276.25
507.506	1235.25
507.722	1202.25
507.939	1263.25
508.155	1208.25
508.372	1194.25
508.588	1224.25
508.805	1226.25
509.021	1168.25
509.238	1166.25
509.454	1174.25
509.67	1159.25
509.887	1156.25
510.103	1180.25
510.319	1140.25
510.536	1151.25
510.752	1132.25
510.968	1094.25
511.184	1126.25
511.401	1132.25
511.617	1138.25
511.833	1129.25
512.049	1140.25
512.265	1155.25
512.481	1135.25
512.698	1115.25
512.914	1130.25
513.13	1129.25
513.346	1132.25
513.562	1120.25
513.778	1106.25
513.994	1145.25
514.21	1138.25
514.426	1117.25
514.642	1145.25
514.858	1142.25
515.074	1138.25
515.29	1155.25
515.506	1130.25
515.721	1152.25
515.937	1178.25
516.153	1167.25
516.369	1169.25
516.585	1170.25
516.801	1191.25
517.016	1191.25
517.232	1213.25
517.448	1215.25
517.664	1200.25
517.879	1219.25
518.095	1229.25
518.311	1204.25
518.527	1160.25
518.742	1172.25
518.958	1176.25
519.173	1140.25
519.389	1176.25
519.605	1136.25
519.82	1116.25
520.036	1155.25
520.251	1115.25
520.467	1110.25
520.682	1093.25
520.898	1098.25
521.113	1073.25
521.329	1072.25
521.544	1087.25
521.76	1077.25
521.975	1071.25
522.19	1065.25
522.406	1088.25
522.621	1048.25
522.836	1031.25
523.052	1069.25
523.267	1038.25
523.482	1060.25
523.698	1051.25
523.913	1049.25
524.128	1039.25
524.343	1043.25
524.559	1036.25
524.774	1026.25
524.989	1046.25
525.204	1041.25
525.419	1029.25
525.634	1004.25
525.849	1018.25
526.064	1055.25
526.28	1002.25
526.495	1039.25
526.71	1004.25
526.925	994.25
527.14	996.25
527.355	991.25
527.57	980.25
527.785	1000.25
527.999	988.25
528.214	972.25
528.429	990.25
528.644	997.25
528.859	1003.25
529.074	1025.25
529.289	994.25
529.503	1010.25
529.718	999.25
529.933	983.25
530.148	983.25
530.363	986.25
530.577	975.25
530.792	971.25
531.007	952.25
531.221	983.25
531.436	979.25
531.651	964.25
531.865	959.25
532.08	947.25
532.295	964.25
532.509	958.25
532.724	943.25
532.938	946.25
533.153	989.25
533.367	953.25
533.582	955.25
533.796	939.25
534.011	962.25
534.225	949.25
534.44	931.25
534.654	934.25
534.868	942.25
535.083	909.25
535.297	910.25
535.511	941.25
535.726	929.25
535.94	929.25
536.154	910.25
536.369	905.25
536.583	890.25
536.797	917.25
537.011	881.25
537.225	934.25
537.44	916.25
537.654	903.25
537.868	918.25
538.082	906.25
538.296	898.25
538.51	910.25
538.724	915.25
538.938	885.25
539.153	908.25
539.367	921.25
539.581	912.25
539.795	866.25
540.009	904.25
540.222	884.25
540.436	895.25
540.65	903.25
540.864	882.25
541.078	888.25
541.292	912.25
541.506	898.25
541.72	915.25
541.934	929.25
542.147	923.25
542.361	903.25
542.575	904.25
542.789	886.25
543.002	866.25
543.216	902.25
543.43	877.25
543.644	867.25
543.857	914.25
544.071	881.25
544.285	916.25
544.498	889.25
544.712	883.25
544.925	890.25
545.139	885.25
545.352	869.25
545.566	862.25
545.779	900.25
545.993	902.25
546.206	909.25
546.42	929.25
546.633	894.25
546.847	902.25
547.06	875.25
547.274	916.25
547.487	876.25
547.7	894.25
547.914	909.25
548.127	916.25
548.34	868.25
548.554	879.25
548.767	875.25
548.98	895.25
549.193	878.25
549.407	871.25
549.62	883.25
549.833	870.25
550.046	869.25
550.259	888.25
550.473	875.25
550.686	847.25
550.899	847.25
551.112	857.25
551.325	862.25
551.538	846.25
551.751	843.25
551.964	812.25
552.177	849.25
552.39	863.25
552.603	882.25
552.816	892.25
553.029	876.25
553.242	868.25
553.455	869.25
553.667	862.25
553.88	840.25
554.093	861.25
554.306	818.25
554.519	830.25
554.732	824.25
554.944	830.25
555.157	827.25
555.37	852.25
555.583	831.25
555.795	784.25
556.008	796.25
556.221	787.25
556.433	764.25
556.646	777.25
556.859	763.25
557.071	760.25
557.284	751.25
557.496	778.25
557.709	796.25
557.921	767.25
558.134	761.25
558.346	770.25
558.559	790.25
558.771	748.25
558.984	731.25
559.196	737.25
559.409	752.25
559.621	753.25
559.833	738.25
560.046	719.25
560.258	740.25
560.47	741.25
560.683	750.25
560.895	748.25
561.107	740.25
561.32	714.25
561.532	729.25
561.744	724.25
561.956	743.25
562.168	742.25
562.381	732.25
562.593	731.25
562.805	708.25
563.017	745.25
563.229	768.25
563.441	720.25
563.653	774.25
563.865	742.25
564.077	761.25
564.289	701.25
564.501	734.25
564.713	739.25
564.925	756.25
565.137	759.25
565.349	754.25
565.561	793.25
565.773	784.25
565.985	786.25
566.197	783.25
566.408	794.25
566.62	806.25
566.832	831.25
567.044	834.25
567.255	822.25
567.467	847.25
567.679	840.25
567.891	836.25
568.102	807.25
568.314	804.25
568.526	792.25
568.737	762.25
568.949	758.25
569.161	718.25
569.372	729.25
569.584	717.25
569.795	699.25
570.007	693.25
570.218	671.25
570.43	677.25
570.641	672.25
570.853	678.25
571.064	651.25
571.276	665.25
571.487	662.25
571.698	647.25
571.91	632.25
572.121	642.25
572.333	622.25
572.544	593.25
572.755	602.25
572.966	610.25
573.178	598.25
573.389	594.25
573.6	595.25
573.811	573.25
574.023	575.25
574.234	576.25
574.445	573.25
574.656	583.25
574.867	555.25
575.078	564.25
575.289	566.25
575.501	556.25
575.712	559.25
575.923	565.25
576.134	554.25
576.345	576.25
576.556	585.25
576.767	545.25
576.978	563.25
577.188	557.25
577.399	536.25
577.61	538.25
577.821	540.25
578.032	546.25
578.243	528.25
578.454	546.25
578.665	535.25
578.875	510.25
579.086	534.25
579.297	539.25
579.508	523.25
579.718	520.25
579.929	533.25
580.14	511.25
580.35	538.25
580.561	502.25
580.772	517.25
580.982	496.25
581.193	502.25
581.403	495.25
581.614	516.25
581.825	503.25
582.035	494.25
582.246	526.25
582.456	484.25
582.667	503.25
582.877	506.25
583.087	483.25
583.298	483.25
583.508	476.25
583.719	499.25
583.929	492.25
584.139	488.25
584.35	456.25
584.56	476.25
584.77	471.25
584.981	468.25
585.191	495.25
585.401	501.25
585.611	472.25
585.821	475.25
586.032	471.25
586.242	482.25
586.452	482.25
586.662	464.25
586.872	473.25
587.082	450.25
587.292	466.25
587.502	484.25
587.713	475.25
587.923	481.25
588.133	444.25
588.343	459.25
588.553	455.25
588.762	474.25
588.972	468.25
589.182	522.25
589.392	532.25
589.602	477.25
589.812	510.25
590.022	478.25
590.232	461.25
590.441	456.25
590.651	470.25
590.861	455.25
591.071	469.25
591.281	451.25
591.49	457.25
591.7	453.25
591.91	465.25
592.119	473.25
592.329	459.25
592.539	483.25
592.748	479.25
592.958	453.25
593.167	470.25
593.377	456.25
593.587	457.25
593.796	449.25
594.006	452.25
594.215	456.25
594.424	434.25
594.634	463.25
594.843	462.25
595.053	474.25
595.262	455.25
595.472	452.25
595.681	427.25
595.89	440.25
596.1	444.25
596.309	418.25
596.518	427.25
596.727	439.25
596.937	404.25
597.146	436.25
597.355	433.25
597.564	399.25
597.774	420.25
597.983	412.25
598.192	412.25
598.401	442.25
598.61	398.25
598.819	410.25
599.028	392.25
599.237	420.25
599.446	408.25
599.655	390.25
599.864	380.25
600.073	368.25
600.282	400.25
600.491	391.25
600.7	404.25
600.909	388.25
601.118	379.25
601.327	364.25
601.536	374.25
601.745	382.25
601.953	388.25
602.162	386.25
602.371	373.25
602.58	360.25
602.789	380.25
602.997	386.25
603.206	395.25
603.415	372.25
603.623	365.25
603.832	360.25
604.041	367.25
604.249	382.25
604.458	376.25
604.666	373.25
604.875	375.25
605.084	347.25
605.292	355.25
605.501	361.25
605.709	377.25
605.918	361.25
606.126	356.25
606.334	371.25
606.543	373.25
606.751	363.25
606.96	364.25
607.168	354.25
607.376	356.25
607.585	352.25
607.793	362.25
608.001	342.25
608.21	329.25
608.418	354.25
608.626	362.25
608.834	352.25
609.043	358.25
609.251	339.25
609.459	357.25
609.667	375.25
609.875	357.25
610.083	335.25
610.291	351.25
610.499	348.25
610.707	352.25
610.916	341.25
611.124	342.25
611.332	343.25
611.54	348.25
611.748	341.25
611.955	348.25
612.163	344.25
612.371	343.25
612.579	331.25
612.787	351.25
612.995	343.25
613.203	342.25
613.411	343.25
613.618	345.25
613.826	332.25
614.034	334.25
614.242	330.25
614.449	359.25
614.657	330.25
614.865	340.25
615.072	347.25
615.28	326.25
615.488	351.25
615.695	340.25
615.903	343.25
616.111	338.25
616.318	349.25
616.526	314.25
616.733	331.25
616.941	308.25
617.148	344.25
617.356	316.25
617.563	316.25
617.771	327.25
617.978	327.25
618.185	307.25
618.393	319.25
618.6	331.25
618.807	321.25
619.015	336.25
619.222	323.25
619.429	331.25
619.637	302.25
619.844	318.25
620.051	320.25
620.258	315.25
620.466	310.25
620.673	290.25
620.88	308.25
621.087	304.25
621.294	294.25
621.501	303.25
621.708	299.25
621.915	285.25
622.122	297.25
622.329	315.25
622.536	315.25
622.743	308.25
622.95	315.25
623.157	309.25
623.364	290.25
623.571	310.25
623.778	308.25
623.985	293.25
624.192	302.25
624.399	291.25
624.606	309.25
624.812	308.25
625.019	283.25
625.226	263.25
625.433	295.25
625.639	306.25
625.846	290.25
626.053	276.25
626.259	299.25
626.466	280.25
626.673	294.25
626.879	275.25
627.086	279.25
627.293	283.25
627.499	282.25
627.706	278.25
627.912	284.25
628.119	291.25
628.325	280.25
628.532	277.25
628.738	279.25
628.945	265.25
629.151	280.25
629.357	271.25
629.564	281.25
629.77	273.25
629.976	270.25
630.183	262.25
630.389	276.25
630.595	267.25
630.802	268.25
631.008	256.25
631.214	256.25
631.42	267.25
631.627	260.25
631.833	275.25
632.039	256.25
632.245	257.25
632.451	262.25
632.657	260.25
632.863	257.25
633.069	271.25
633.275	248.25
633.481	248.25
633.688	259.25
633.893	248.25
634.099	250.25
634.305	250.25
634.511	282.25
634.717	277.25
634.923	254.25
635.129	261.25
635.335	246.25
635.541	266.25
635.747	242.25
635.952	257.25
636.158	234.25
636.364	253.25
636.57	234.25
636.775	223.25
636.981	252.25
637.187	254.25
637.392	227.25
637.598	232.25
637.804	247.25
638.009	246.25
638.215	230.25
638.421	240.25
638.626	238.25
638.832	235.25
639.037	227.25
639.243	255.25
639.448	249.25
639.654	243.25
639.859	223.25
640.065	224.25
640.27	229.25
640.475	242.25
640.681	221.25
640.886	233.25
641.091	242.25
641.297	248.25
641.502	229.25
641.707	230.25
641.913	229.25
642.118	230.25
642.323	235.25
642.528	235.25
642.733	216.25
642.939	233.25
643.144	244.25
643.349	226.25
643.554	229.25
643.759	230.25
643.964	242.25
644.169	223.25
644.374	228.25
644.579	227.25
644.784	236.25
644.989	242.25
645.194	238.25
645.399	223.25
645.604	236.25
645.809	222.25
646.014	234.25
646.219	239.25
646.423	224.25
646.628	231.25
646.833	228.25
647.038	234.25
647.243	232.25
647.447	238.25
647.652	254.25
647.857	235.25
648.062	237.25
648.266	228.25
648.471	230.25
648.676	237.25
648.88	221.25
649.085	239.25
649.289	217.25
649.494	231.25
649.698	236.25
649.903	224.25
650.107	219.25
650.312	232.25
650.516	214.25
650.721	223.25
650.925	228.25
651.13	222.25
651.334	224.25
651.539	221.25
651.743	211.25
651.947	224.25
652.152	220.25
652.356	215.25
652.56	211.25
652.764	214.25
652.969	224.25
653.173	213.25
653.377	208.25
653.581	203.25
653.785	202.25
653.99	190.25
654.194	204.25
654.398	205.25
654.602	204.25
654.806	198.25
655.01	207.25
655.214	202.25
655.418	219.25
655.622	205.25
655.826	214.25
656.03	215.25
656.234	206.25
656.438	216.25
656.642	228.25
656.846	214.25
657.049	208.25
657.253	183.25
657.457	190.25
657.661	190.25
657.865	165.25
658.068	159.25
658.272	163.25
658.476	144.25
658.68	166.25
658.883	140.25
659.087	142.25
659.291	130.25
659.494	134.25
659.698	138.25
659.901	117.25
660.105	109.25
660.309	110.25
660.512	108.25
660.716	104.25
660.919	115.25
661.123	107.25
661.326	111.25
661.53	102.25
661.733	100.25
661.936	97.25
662.14	105.25
662.343	103.25
662.546	95.25
662.75	98.25
662.953	96.25
663.156	87.25
663.36	89.25
663.563	71.25
663.766	85.25
663.969	95.25
664.173	88.25
664.376	99.25
664.579	80.25
664.782	84.25
664.985	85.25
665.188	77.25
665.391	88.25
665.594	86.25
665.797	87.25
666	88.25
666.203	87.25
666.406	87.25
666.609	94.25
666.812	83.25
667.015	76.25
667.218	84.25
667.421	85.25
667.624	92.25
667.827	75.25
668.03	77.25
668.232	104.25
668.435	82.25
668.638	64.25
668.841	82.25
669.043	85.25
669.246	103.25
669.449	98.25
669.651	78.25
669.854	76.25
670.057	79.25
670.259	74.25
670.462	80.25
670.665	93.25
670.867	92.25
671.07	89.25
671.272	85.25
671.475	90.25
671.677	87.25
671.88	79.25
672.082	86.25
672.284	67.25
672.487	76.25
672.689	80.25
672.892	87.25
