Data from Ni(NO3)2@0.0625M.TitratingCurve.Agarose3%dH2O.NegLispCup.LampEnergy10.LIBS07252019_HRD10591_18-16-03-570.txt Node
Date: Thu Jul 25 18:16:03 EDT 2019
User: cochatt
Spectrometer: HR+D1059
Trigger mode: 1
Integration Time (sec): 1.000000E-1
Scans to average: 1
Electric dark correction enabled: true
Nonlinearity correction enabled: false
Boxcar width: 0
XAxis mode: Wavelengths
Number of Pixels in Spectrum: 2048
>>>>>Begin Spectral Data<<<<<
223.165	-10.75
223.4	-10.75
223.635	-10.75
223.869	-10.75
224.104	-10.75
224.338	-9.75
224.573	-0.75
224.808	-29.75
225.042	-3.75
225.277	-3.75
225.511	4.25
225.746	17.25
225.98	-2.75
226.215	1.25
226.449	13.25
226.683	17.25
226.918	10.25
227.152	19.25
227.387	33.25
227.621	30.25
227.856	39.25
228.09	49.25
228.324	63.25
228.559	53.25
228.793	60.25
229.027	98.25
229.262	120.25
229.496	112.25
229.73	130.25
229.964	132.25
230.199	124.25
230.433	136.25
230.667	146.25
230.901	143.25
231.136	140.25
231.37	135.25
231.604	136.25
231.838	157.25
232.072	153.25
232.306	161.25
232.541	149.25
232.775	163.25
233.009	148.25
233.243	153.25
233.477	150.25
233.711	152.25
233.945	137.25
234.179	167.25
234.413	153.25
234.647	160.25
234.881	155.25
235.115	159.25
235.349	161.25
235.583	172.25
235.817	156.25
236.051	164.25
236.285	162.25
236.519	186.25
236.753	179.25
236.987	156.25
237.221	154.25
237.455	169.25
237.689	179.25
237.922	187.25
238.156	161.25
238.39	157.25
238.624	171.25
238.858	155.25
239.091	173.25
239.325	171.25
239.559	187.25
239.793	181.25
240.027	205.25
240.26	172.25
240.494	208.25
240.728	175.25
240.961	189.25
241.195	194.25
241.429	214.25
241.662	184.25
241.896	204.25
242.13	200.25
242.363	219.25
242.597	211.25
242.83	201.25
243.064	173.25
243.298	214.25
243.531	211.25
243.765	218.25
243.998	219.25
244.232	225.25
244.465	211.25
244.699	221.25
244.932	219.25
245.166	226.25
245.399	233.25
245.633	224.25
245.866	229.25
246.099	240.25
246.333	230.25
246.566	219.25
246.8	247.25
247.033	235.25
247.266	247.25
247.5	245.25
247.733	242.25
247.966	227.25
248.2	227.25
248.433	234.25
248.666	239.25
248.899	240.25
249.133	261.25
249.366	255.25
249.599	259.25
249.832	276.25
250.066	274.25
250.299	278.25
250.532	277.25
250.765	266.25
250.998	273.25
251.231	270.25
251.465	288.25
251.698	287.25
251.931	278.25
252.164	291.25
252.397	285.25
252.63	283.25
252.863	294.25
253.096	290.25
253.329	287.25
253.562	288.25
253.795	307.25
254.028	299.25
254.261	317.25
254.494	311.25
254.727	297.25
254.96	305.25
255.193	326.25
255.426	303.25
255.659	296.25
255.892	307.25
256.124	324.25
256.357	311.25
256.59	322.25
256.823	294.25
257.056	308.25
257.289	311.25
257.521	328.25
257.754	317.25
257.987	328.25
258.22	324.25
258.452	341.25
258.685	333.25
258.918	335.25
259.151	343.25
259.383	304.25
259.616	332.25
259.849	326.25
260.081	343.25
260.314	345.25
260.547	324.25
260.779	328.25
261.012	335.25
261.244	339.25
261.477	340.25
261.71	327.25
261.942	336.25
262.175	355.25
262.407	363.25
262.64	349.25
262.872	338.25
263.105	357.25
263.337	364.25
263.57	378.25
263.802	351.25
264.035	353.25
264.267	363.25
264.499	363.25
264.732	373.25
264.964	367.25
265.197	364.25
265.429	357.25
265.661	383.25
265.894	389.25
266.126	377.25
266.358	380.25
266.591	389.25
266.823	397.25
267.055	403.25
267.287	372.25
267.52	393.25
267.752	396.25
267.984	391.25
268.216	365.25
268.448	404.25
268.681	401.25
268.913	400.25
269.145	407.25
269.377	406.25
269.609	391.25
269.841	396.25
270.073	412.25
270.306	409.25
270.538	406.25
270.77	419.25
271.002	395.25
271.234	400.25
271.466	393.25
271.698	415.25
271.93	407.25
272.162	433.25
272.394	413.25
272.626	417.25
272.858	409.25
273.09	437.25
273.322	429.25
273.553	435.25
273.785	411.25
274.017	441.25
274.249	442.25
274.481	425.25
274.713	430.25
274.945	441.25
275.176	441.25
275.408	452.25
275.64	457.25
275.872	440.25
276.104	447.25
276.335	469.25
276.567	449.25
276.799	434.25
277.031	449.25
277.262	454.25
277.494	472.25
277.726	468.25
277.957	463.25
278.189	465.25
278.421	453.25
278.652	476.25
278.884	459.25
279.115	487.25
279.347	460.25
279.579	446.25
279.81	472.25
280.042	477.25
280.273	476.25
280.505	488.25
280.736	481.25
280.968	476.25
281.199	504.25
281.431	520.25
281.662	511.25
281.894	518.25
282.125	496.25
282.356	499.25
282.588	495.25
282.819	516.25
283.051	517.25
283.282	534.25
283.513	508.25
283.745	518.25
283.976	512.25
284.207	513.25
284.439	519.25
284.67	501.25
284.901	518.25
285.132	516.25
285.364	528.25
285.595	534.25
285.826	523.25
286.057	551.25
286.288	522.25
286.52	505.25
286.751	524.25
286.982	533.25
287.213	543.25
287.444	549.25
287.675	548.25
287.906	550.25
288.138	562.25
288.369	572.25
288.6	566.25
288.831	553.25
289.062	567.25
289.293	565.25
289.524	557.25
289.755	565.25
289.986	559.25
290.217	546.25
290.448	559.25
290.679	568.25
290.91	568.25
291.141	571.25
291.371	570.25
291.602	571.25
291.833	575.25
292.064	573.25
292.295	556.25
292.526	572.25
292.757	571.25
292.987	583.25
293.218	573.25
293.449	557.25
293.68	583.25
293.91	565.25
294.141	577.25
294.372	560.25
294.603	573.25
294.833	577.25
295.064	600.25
295.295	605.25
295.525	598.25
295.756	601.25
295.987	603.25
296.217	595.25
296.448	585.25
296.679	592.25
296.909	579.25
297.14	609.25
297.37	624.25
297.601	616.25
297.831	613.25
298.062	640.25
298.292	615.25
298.523	642.25
298.753	654.25
298.984	635.25
299.214	639.25
299.445	623.25
299.675	619.25
299.905	623.25
300.136	619.25
300.366	615.25
300.597	633.25
300.827	626.25
301.057	661.25
301.288	663.25
301.518	677.25
301.748	675.25
301.979	665.25
302.209	665.25
302.439	646.25
302.669	660.25
302.9	639.25
303.13	654.25
303.36	641.25
303.59	661.25
303.82	642.25
304.051	648.25
304.281	659.25
304.511	633.25
304.741	626.25
304.971	659.25
305.201	647.25
305.431	632.25
305.661	664.25
305.891	642.25
306.121	643.25
306.352	640.25
306.582	628.25
306.812	637.25
307.042	638.25
307.272	635.25
307.502	641.25
307.731	612.25
307.961	627.25
308.191	641.25
308.421	633.25
308.651	649.25
308.881	629.25
309.111	641.25
309.341	641.25
309.571	647.25
309.8	626.25
310.03	654.25
310.26	651.25
310.49	634.25
310.72	642.25
310.949	648.25
311.179	647.25
311.409	665.25
311.639	663.25
311.868	648.25
312.098	655.25
312.328	673.25
312.557	664.25
312.787	685.25
313.017	666.25
313.246	651.25
313.476	672.25
313.706	683.25
313.935	685.25
314.165	717.25
314.394	703.25
314.624	691.25
314.853	712.25
315.083	682.25
315.312	669.25
315.542	681.25
315.771	687.25
316.001	680.25
316.23	663.25
316.46	663.25
316.689	658.25
316.919	675.25
317.148	668.25
317.377	662.25
317.607	660.25
317.836	667.25
318.065	668.25
318.295	704.25
318.524	663.25
318.753	664.25
318.983	679.25
319.212	667.25
319.441	677.25
319.67	691.25
319.9	658.25
320.129	693.25
320.358	694.25
320.587	658.25
320.816	679.25
321.046	662.25
321.275	698.25
321.504	680.25
321.733	687.25
321.962	652.25
322.191	696.25
322.42	684.25
322.649	693.25
322.878	691.25
323.108	677.25
323.337	701.25
323.566	672.25
323.795	693.25
324.024	685.25
324.253	697.25
324.482	719.25
324.71	708.25
324.939	714.25
325.168	701.25
325.397	725.25
325.626	736.25
325.855	716.25
326.084	753.25
326.313	751.25
326.542	719.25
326.77	761.25
326.999	757.25
327.228	743.25
327.457	729.25
327.686	760.25
327.914	730.25
328.143	735.25
328.372	741.25
328.6	762.25
328.829	753.25
329.058	741.25
329.287	753.25
329.515	756.25
329.744	744.25
329.972	743.25
330.201	737.25
330.43	767.25
330.658	779.25
330.887	762.25
331.115	763.25
331.344	769.25
331.572	801.25
331.801	854.25
332.03	821.25
332.258	833.25
332.486	860.25
332.715	871.25
332.943	946.25
333.172	990.25
333.4	1022.25
333.629	1014.25
333.857	1014.25
334.085	1019.25
334.314	978.25
334.542	953.25
334.771	986.25
334.999	914.25
335.227	927.25
335.455	932.25
335.684	937.25
335.912	921.25
336.14	898.25
336.369	906.25
336.597	908.25
336.825	867.25
337.053	870.25
337.281	889.25
337.51	850.25
337.738	827.25
337.966	820.25
338.194	839.25
338.422	813.25
338.65	805.25
338.878	820.25
339.106	801.25
339.334	807.25
339.562	802.25
339.79	791.25
340.018	778.25
340.246	803.25
340.474	755.25
340.702	800.25
340.93	804.25
341.158	789.25
341.386	771.25
341.614	808.25
341.842	782.25
342.07	761.25
342.298	776.25
342.526	776.25
342.754	769.25
342.981	808.25
343.209	784.25
343.437	827.25
343.665	885.25
343.893	960.25
344.12	957.25
344.348	946.25
344.576	910.25
344.804	836.25
345.031	780.25
345.259	802.25
345.487	807.25
345.714	779.25
345.942	768.25
346.17	773.25
346.397	787.25
346.625	780.25
346.853	768.25
347.08	747.25
347.308	753.25
347.535	776.25
347.763	749.25
347.99	753.25
348.218	782.25
348.445	752.25
348.673	736.25
348.9	759.25
349.128	739.25
349.355	735.25
349.583	738.25
349.81	716.25
350.037	726.25
350.265	728.25
350.492	714.25
350.72	745.25
350.947	727.25
351.174	699.25
351.402	709.25
351.629	729.25
351.856	727.25
352.083	729.25
352.311	703.25
352.538	718.25
352.765	700.25
352.992	691.25
353.22	689.25
353.447	706.25
353.674	694.25
353.901	736.25
354.128	719.25
354.355	715.25
354.583	741.25
354.81	714.25
355.037	745.25
355.264	755.25
355.491	709.25
355.718	740.25
355.945	728.25
356.172	719.25
356.399	710.25
356.626	735.25
356.853	737.25
357.08	737.25
357.307	728.25
357.534	744.25
357.761	730.25
357.988	747.25
358.215	703.25
358.441	733.25
358.668	733.25
358.895	731.25
359.122	713.25
359.349	732.25
359.576	740.25
359.802	733.25
360.029	744.25
360.256	746.25
360.483	751.25
360.709	711.25
360.936	737.25
361.163	724.25
361.39	708.25
361.616	735.25
361.843	723.25
362.07	734.25
362.296	720.25
362.523	731.25
362.749	724.25
362.976	705.25
363.203	715.25
363.429	747.25
363.656	741.25
363.882	735.25
364.109	731.25
364.335	710.25
364.562	729.25
364.788	707.25
365.015	707.25
365.241	736.25
365.468	725.25
365.694	696.25
365.92	731.25
366.147	716.25
366.373	733.25
366.599	726.25
366.826	728.25
367.052	717.25
367.278	735.25
367.505	729.25
367.731	738.25
367.957	754.25
368.184	743.25
368.41	741.25
368.636	736.25
368.862	723.25
369.089	730.25
369.315	768.25
369.541	751.25
369.767	753.25
369.993	783.25
370.219	777.25
370.445	775.25
370.672	754.25
370.898	779.25
371.124	792.25
371.35	809.25
371.576	801.25
371.802	776.25
372.028	787.25
372.254	794.25
372.48	815.25
372.706	799.25
372.932	820.25
373.158	826.25
373.384	830.25
373.61	816.25
373.835	815.25
374.061	808.25
374.287	812.25
374.513	832.25
374.739	830.25
374.965	894.25
375.191	889.25
375.416	878.25
375.642	851.25
375.868	869.25
376.094	845.25
376.319	833.25
376.545	792.25
376.771	821.25
376.997	801.25
377.222	779.25
377.448	800.25
377.674	788.25
377.899	802.25
378.125	789.25
378.35	786.25
378.576	795.25
378.802	790.25
379.027	765.25
379.253	789.25
379.478	772.25
379.704	771.25
379.929	781.25
380.155	786.25
380.38	801.25
380.606	789.25
380.831	779.25
381.057	810.25
381.282	787.25
381.507	788.25
381.733	803.25
381.958	788.25
382.184	801.25
382.409	824.25
382.634	831.25
382.86	830.25
383.085	842.25
383.31	845.25
383.535	888.25
383.761	872.25
383.986	903.25
384.211	934.25
384.436	931.25
384.662	970.25
384.887	960.25
385.112	973.25
385.337	967.25
385.562	972.25
385.787	982.25
386.013	962.25
386.238	961.25
386.463	940.25
386.688	970.25
386.913	954.25
387.138	941.25
387.363	949.25
387.588	929.25
387.813	939.25
388.038	899.25
388.263	961.25
388.488	963.25
388.713	945.25
388.938	954.25
389.163	914.25
389.387	933.25
389.612	937.25
389.837	928.25
390.062	947.25
390.287	919.25
390.512	905.25
390.736	936.25
390.961	965.25
391.186	957.25
391.411	1010.25
391.636	1033.25
391.86	1055.25
392.085	1090.25
392.31	1095.25
392.534	1035.25
392.759	1011.25
392.984	1023.25
393.208	978.25
393.433	972.25
393.658	1011.25
393.882	1027.25
394.107	1017.25
394.331	1037.25
394.556	1020.25
394.78	1003.25
395.005	1013.25
395.229	1011.25
395.454	1049.25
395.678	1091.25
395.903	1103.25
396.127	1049.25
396.352	1010.25
396.576	1011.25
396.801	1010.25
397.025	998.25
397.249	1080.25
397.474	1067.25
397.698	1071.25
397.922	1084.25
398.147	1058.25
398.371	1053.25
398.595	1090.25
398.82	1166.25
399.044	1253.25
399.268	1420.25
399.492	1633.25
399.717	1842.25
399.941	1842.25
400.165	1583.25
400.389	1465.25
400.613	1314.25
400.837	1216.25
401.062	1181.25
401.286	1190.25
401.51	1220.25
401.734	1187.25
401.958	1199.25
402.182	1221.25
402.406	1240.25
402.63	1254.25
402.854	1263.25
403.078	1309.25
403.302	1311.25
403.526	1340.25
403.75	1370.25
403.974	1429.25
404.198	1420.25
404.422	1432.25
404.645	1419.25
404.869	1354.25
405.093	1359.25
405.317	1317.25
405.541	1341.25
405.765	1333.25
405.988	1299.25
406.212	1348.25
406.436	1304.25
406.66	1333.25
406.883	1374.25
407.107	1467.25
407.331	1548.25
407.555	1583.25
407.778	1549.25
408.002	1517.25
408.226	1485.25
408.449	1434.25
408.673	1404.25
408.896	1376.25
409.12	1367.25
409.344	1328.25
409.567	1340.25
409.791	1378.25
410.014	1346.25
410.238	1380.25
410.461	1344.25
410.685	1311.25
410.908	1321.25
411.132	1291.25
411.355	1219.25
411.578	1236.25
411.802	1221.25
412.025	1211.25
412.249	1271.25
412.472	1260.25
412.695	1240.25
412.919	1173.25
413.142	1175.25
413.365	1183.25
413.589	1219.25
413.812	1190.25
414.035	1161.25
414.258	1169.25
414.482	1176.25
414.705	1214.25
414.928	1219.25
415.151	1231.25
415.374	1201.25
415.597	1203.25
415.821	1155.25
416.044	1151.25
416.267	1169.25
416.49	1127.25
416.713	1155.25
416.936	1161.25
417.159	1197.25
417.382	1180.25
417.605	1164.25
417.828	1149.25
418.051	1195.25
418.274	1165.25
418.497	1170.25
418.72	1218.25
418.943	1216.25
419.166	1284.25
419.389	1381.25
419.611	1322.25
419.834	1268.25
420.057	1232.25
420.28	1169.25
420.503	1167.25
420.726	1156.25
420.948	1157.25
421.171	1165.25
421.394	1179.25
421.617	1162.25
421.839	1158.25
422.062	1191.25
422.285	1164.25
422.507	1206.25
422.73	1199.25
422.953	1180.25
423.175	1243.25
423.398	1249.25
423.621	1225.25
423.843	1261.25
424.066	1257.25
424.288	1272.25
424.511	1233.25
424.733	1240.25
424.956	1217.25
425.178	1169.25
425.401	1203.25
425.623	1163.25
425.846	1144.25
426.068	1147.25
426.291	1132.25
426.513	1105.25
426.735	1087.25
426.958	1081.25
427.18	1065.25
427.402	1087.25
427.625	1082.25
427.847	1070.25
428.069	1052.25
428.292	1049.25
428.514	1060.25
428.736	1025.25
428.958	1049.25
429.181	1033.25
429.403	1018.25
429.625	1022.25
429.847	1013.25
430.069	997.25
430.292	1034.25
430.514	999.25
430.736	987.25
430.958	1007.25
431.18	1023.25
431.402	1031.25
431.624	1025.25
431.846	1054.25
432.068	1048.25
432.29	1099.25
432.512	1025.25
432.734	1041.25
432.956	1031.25
433.178	1057.25
433.4	1072.25
433.622	1054.25
433.844	1054.25
434.066	1042.25
434.287	1048.25
434.509	1103.25
434.731	1154.25
434.953	1175.25
435.175	1164.25
435.397	1177.25
435.618	1112.25
435.84	1093.25
436.062	1075.25
436.284	1043.25
436.505	1027.25
436.727	1071.25
436.949	1052.25
437.17	1026.25
437.392	1028.25
437.614	1000.25
437.835	995.25
438.057	1009.25
438.278	984.25
438.5	995.25
438.721	1024.25
438.943	1043.25
439.165	1019.25
439.386	1023.25
439.608	1033.25
439.829	1056.25
440.05	1021.25
440.272	1063.25
440.493	1048.25
440.715	1067.25
440.936	1101.25
441.158	1100.25
441.379	1112.25
441.6	1162.25
441.822	1174.25
442.043	1196.25
442.264	1160.25
442.486	1165.25
442.707	1122.25
442.928	1169.25
443.149	1114.25
443.371	1173.25
443.592	1159.25
443.813	1196.25
444.034	1157.25
444.255	1204.25
444.476	1265.25
444.698	1352.25
444.919	1427.25
445.14	1465.25
445.361	1293.25
445.582	1201.25
445.803	1133.25
446.024	1090.25
446.245	1080.25
446.466	1043.25
446.687	1037.25
446.908	1068.25
447.129	1021.25
447.35	1009.25
447.571	999.25
447.792	987.25
448.013	977.25
448.234	976.25
448.455	989.25
448.675	951.25
448.896	965.25
449.117	943.25
449.338	936.25
449.559	949.25
449.779	937.25
450	945.25
450.221	954.25
450.442	945.25
450.662	950.25
450.883	971.25
451.104	976.25
451.324	971.25
451.545	963.25
451.766	982.25
451.986	963.25
452.207	935.25
452.428	960.25
452.648	943.25
452.869	956.25
453.089	940.25
453.31	961.25
453.53	919.25
453.751	903.25
453.971	907.25
454.192	924.25
454.412	899.25
454.633	938.25
454.853	914.25
455.073	888.25
455.294	931.25
455.514	895.25
455.734	879.25
455.955	869.25
456.175	897.25
456.395	861.25
456.616	843.25
456.836	882.25
457.056	911.25
457.276	887.25
457.497	869.25
457.717	867.25
457.937	905.25
458.157	873.25
458.377	903.25
458.598	913.25
458.818	923.25
459.038	970.25
459.258	1009.25
459.478	1017.25
459.698	1067.25
459.918	1109.25
460.138	1121.25
460.358	1219.25
460.578	1247.25
460.798	1248.25
461.018	1255.25
461.238	1231.25
461.458	1205.25
461.678	1197.25
461.898	1244.25
462.118	1245.25
462.338	1328.25
462.558	1341.25
462.777	1391.25
462.997	1482.25
463.217	1705.25
463.437	1691.25
463.657	1543.25
463.876	1467.25
464.096	1433.25
464.316	1420.25
464.536	1435.25
464.755	1416.25
464.975	1332.25
465.195	1285.25
465.414	1224.25
465.634	1139.25
465.854	1092.25
466.073	1035.25
466.293	1045.25
466.512	1035.25
466.732	1014.25
466.951	987.25
467.171	1008.25
467.391	1005.25
467.61	997.25
467.829	982.25
468.049	986.25
468.268	968.25
468.488	958.25
468.707	928.25
468.927	947.25
469.146	929.25
469.365	949.25
469.585	945.25
469.804	1008.25
470.023	1011.25
470.243	998.25
470.462	1048.25
470.681	1034.25
470.901	1045.25
471.12	1015.25
471.339	1020.25
471.558	1000.25
471.777	981.25
471.997	974.25
472.216	938.25
472.435	955.25
472.654	924.25
472.873	932.25
473.092	917.25
473.311	918.25
473.53	905.25
473.749	900.25
473.968	922.25
474.187	909.25
474.406	914.25
474.625	927.25
474.844	917.25
475.063	931.25
475.282	915.25
475.501	900.25
475.72	943.25
475.939	919.25
476.158	936.25
476.377	962.25
476.596	958.25
476.814	988.25
477.033	972.25
477.252	987.25
477.471	1042.25
477.69	1067.25
477.908	1044.25
478.127	1089.25
478.346	1105.25
478.564	1114.25
478.783	1115.25
479.002	1185.25
479.22	1180.25
479.439	1140.25
479.658	1119.25
479.876	1131.25
480.095	1175.25
480.313	1219.25
480.532	1251.25
480.751	1277.25
480.969	1191.25
481.188	1171.25
481.406	1122.25
481.624	1090.25
481.843	1083.25
482.061	1063.25
482.28	1045.25
482.498	1066.25
482.717	1029.25
482.935	1044.25
483.153	1065.25
483.372	1055.25
483.59	1063.25
483.808	1046.25
484.027	1080.25
484.245	1061.25
484.463	1088.25
484.681	1092.25
484.9	1118.25
485.118	1087.25
485.336	1108.25
485.554	1112.25
485.772	1097.25
485.99	1128.25
486.209	1119.25
486.427	1150.25
486.645	1138.25
486.863	1117.25
487.081	1123.25
487.299	1101.25
487.517	1140.25
487.735	1119.25
487.953	1133.25
488.171	1135.25
488.389	1109.25
488.607	1098.25
488.825	1063.25
489.043	1075.25
489.261	1102.25
489.479	1105.25
489.696	1078.25
489.914	1113.25
490.132	1106.25
490.35	1115.25
490.568	1126.25
490.786	1107.25
491.003	1128.25
491.221	1113.25
491.439	1131.25
491.657	1095.25
491.874	1103.25
492.092	1115.25
492.31	1122.25
492.527	1126.25
492.745	1120.25
492.963	1128.25
493.18	1114.25
493.398	1151.25
493.615	1149.25
493.833	1171.25
494.05	1175.25
494.268	1183.25
494.485	1170.25
494.703	1166.25
494.92	1188.25
495.138	1131.25
495.355	1151.25
495.573	1167.25
495.79	1183.25
496.008	1170.25
496.225	1190.25
496.442	1186.25
496.66	1210.25
496.877	1216.25
497.094	1235.25
497.312	1292.25
497.529	1319.25
497.746	1304.25
497.963	1386.25
498.181	1410.25
498.398	1517.25
498.615	1610.25
498.832	1688.25
499.049	1766.25
499.267	1931.25
499.484	2144.25
499.701	2388.25
499.918	2634.25
500.135	3005.25
500.352	3569.25
500.569	3789.25
500.786	3696.25
501.003	3401.25
501.22	3019.25
501.437	2578.25
501.654	2234.25
501.871	2075.25
502.088	1870.25
502.305	1735.25
502.522	1665.25
502.739	1604.25
502.956	1495.25
503.172	1443.25
503.389	1412.25
503.606	1369.25
503.823	1334.25
504.04	1336.25
504.256	1320.25
504.473	1398.25
504.69	1427.25
504.907	1416.25
505.123	1274.25
505.34	1249.25
505.557	1163.25
505.773	1140.25
505.99	1120.25
506.207	1097.25
506.423	1063.25
506.64	1036.25
506.856	1063.25
507.073	1040.25
507.289	1032.25
507.506	1052.25
507.722	1023.25
507.939	1035.25
508.155	982.25
508.372	988.25
508.588	976.25
508.805	984.25
509.021	988.25
509.238	975.25
509.454	962.25
509.67	973.25
509.887	992.25
510.103	966.25
510.319	974.25
510.536	946.25
510.752	948.25
510.968	945.25
511.184	961.25
511.401	940.25
511.617	931.25
511.833	943.25
512.049	922.25
512.265	927.25
512.481	945.25
512.698	961.25
512.914	954.25
513.13	967.25
513.346	960.25
513.562	939.25
513.778	939.25
513.994	940.25
514.21	945.25
514.426	945.25
514.642	951.25
514.858	964.25
515.074	971.25
515.29	977.25
515.506	988.25
515.721	972.25
515.937	999.25
516.153	1009.25
516.369	1047.25
516.585	1074.25
516.801	1135.25
517.016	1204.25
517.232	1233.25
517.448	1285.25
517.664	1343.25
517.879	1384.25
518.095	1349.25
518.311	1329.25
518.527	1258.25
518.742	1209.25
518.958	1129.25
519.173	1126.25
519.389	1074.25
519.605	1014.25
519.82	996.25
520.036	1000.25
520.251	976.25
520.467	978.25
520.682	976.25
520.898	959.25
521.113	950.25
521.329	919.25
521.544	892.25
521.76	913.25
521.975	934.25
522.19	916.25
522.406	875.25
522.621	910.25
522.836	873.25
523.052	891.25
523.267	873.25
523.482	872.25
523.698	874.25
523.913	883.25
524.128	876.25
524.343	889.25
524.559	847.25
524.774	870.25
524.989	858.25
525.204	874.25
525.419	850.25
525.634	851.25
525.849	869.25
526.064	860.25
526.28	848.25
526.495	854.25
526.71	852.25
526.925	852.25
527.14	853.25
527.355	855.25
527.57	831.25
527.785	879.25
527.999	836.25
528.214	875.25
528.429	875.25
528.644	884.25
528.859	874.25
529.074	854.25
529.289	815.25
529.503	820.25
529.718	876.25
529.933	834.25
530.148	818.25
530.363	835.25
530.577	829.25
530.792	819.25
531.007	828.25
531.221	861.25
531.436	855.25
531.651	843.25
531.865	846.25
532.08	848.25
532.295	855.25
532.509	883.25
532.724	870.25
532.938	829.25
533.153	860.25
533.367	841.25
533.582	840.25
533.796	837.25
534.011	834.25
534.225	864.25
534.44	826.25
534.654	833.25
534.868	844.25
535.083	823.25
535.297	827.25
535.511	834.25
535.726	821.25
535.94	808.25
536.154	820.25
536.369	793.25
536.583	804.25
536.797	775.25
537.011	802.25
537.225	803.25
537.44	795.25
537.654	756.25
537.868	785.25
538.082	756.25
538.296	755.25
538.51	762.25
538.724	799.25
538.938	775.25
539.153	751.25
539.367	788.25
539.581	766.25
539.795	753.25
540.009	759.25
540.222	756.25
540.436	772.25
540.65	745.25
540.864	737.25
541.078	756.25
541.292	725.25
541.506	769.25
541.72	755.25
541.934	755.25
542.147	745.25
542.361	779.25
542.575	727.25
542.789	768.25
543.002	752.25
543.216	738.25
543.43	727.25
543.644	719.25
543.857	734.25
544.071	709.25
544.285	729.25
544.498	757.25
544.712	739.25
544.925	775.25
545.139	763.25
545.352	784.25
545.566	789.25
545.779	771.25
545.993	795.25
546.206	785.25
546.42	749.25
546.633	775.25
546.847	764.25
547.06	744.25
547.274	753.25
547.487	748.25
547.7	769.25
547.914	759.25
548.127	773.25
548.34	773.25
548.554	775.25
548.767	769.25
548.98	765.25
549.193	784.25
549.407	779.25
549.62	759.25
549.833	806.25
550.046	782.25
550.259	758.25
550.473	736.25
550.686	764.25
550.899	773.25
551.112	744.25
551.325	736.25
551.538	724.25
551.751	729.25
551.964	743.25
552.177	758.25
552.39	777.25
552.603	795.25
552.816	812.25
553.029	837.25
553.242	823.25
553.455	860.25
553.667	864.25
553.88	866.25
554.093	804.25
554.306	769.25
554.519	747.25
554.732	752.25
554.944	755.25
555.157	749.25
555.37	754.25
555.583	726.25
555.795	703.25
556.008	714.25
556.221	697.25
556.433	669.25
556.646	694.25
556.859	684.25
557.071	669.25
557.284	666.25
557.496	645.25
557.709	657.25
557.921	675.25
558.134	674.25
558.346	662.25
558.559	633.25
558.771	651.25
558.984	640.25
559.196	635.25
559.409	631.25
559.621	645.25
559.833	636.25
560.046	631.25
560.258	628.25
560.47	641.25
560.683	647.25
560.895	659.25
561.107	625.25
561.32	634.25
561.532	621.25
561.744	659.25
561.956	628.25
562.168	662.25
562.381	654.25
562.593	628.25
562.805	624.25
563.017	639.25
563.229	633.25
563.441	623.25
563.653	655.25
563.865	663.25
564.077	648.25
564.289	674.25
564.501	671.25
564.713	681.25
564.925	703.25
565.137	730.25
565.349	696.25
565.561	743.25
565.773	739.25
565.985	806.25
566.197	825.25
566.408	875.25
566.62	980.25
566.832	1043.25
567.044	1097.25
567.255	1049.25
567.467	1096.25
567.679	1169.25
567.891	1249.25
568.102	1281.25
568.314	1260.25
568.526	1115.25
568.737	1007.25
568.949	897.25
569.161	853.25
569.372	759.25
569.584	740.25
569.795	713.25
570.007	671.25
570.218	666.25
570.43	666.25
570.641	659.25
570.853	659.25
571.064	664.25
571.276	665.25
571.487	634.25
571.698	606.25
571.91	597.25
572.121	570.25
572.333	559.25
572.544	557.25
572.755	535.25
572.966	537.25
573.178	550.25
573.389	547.25
573.6	522.25
573.811	527.25
574.023	523.25
574.234	542.25
574.445	504.25
574.656	531.25
574.867	527.25
575.078	529.25
575.289	506.25
575.501	525.25
575.712	521.25
575.923	508.25
576.134	496.25
576.345	500.25
576.556	478.25
576.767	495.25
576.978	518.25
577.188	483.25
577.399	481.25
577.61	487.25
577.821	464.25
578.032	470.25
578.243	458.25
578.454	466.25
578.665	469.25
578.875	467.25
579.086	474.25
579.297	468.25
579.508	460.25
579.718	478.25
579.929	461.25
580.14	462.25
580.35	450.25
580.561	466.25
580.772	455.25
580.982	448.25
581.193	463.25
581.403	450.25
581.614	439.25
581.825	416.25
582.035	447.25
582.246	439.25
582.456	447.25
582.667	427.25
582.877	453.25
583.087	435.25
583.298	433.25
583.508	429.25
583.719	449.25
583.929	446.25
584.139	446.25
584.35	441.25
584.56	442.25
584.77	449.25
584.981	431.25
585.191	403.25
585.401	406.25
585.611	418.25
585.821	428.25
586.032	427.25
586.242	403.25
586.452	428.25
586.662	416.25
586.872	410.25
587.082	436.25
587.292	408.25
587.502	423.25
587.713	425.25
587.923	439.25
588.133	433.25
588.343	407.25
588.553	407.25
588.762	419.25
588.972	408.25
589.182	411.25
589.392	416.25
589.602	401.25
589.812	407.25
590.022	409.25
590.232	422.25
590.441	427.25
590.651	423.25
590.861	451.25
591.071	435.25
591.281	421.25
591.49	435.25
591.7	461.25
591.91	442.25
592.119	446.25
592.329	458.25
592.539	487.25
592.748	498.25
592.958	506.25
593.167	528.25
593.377	529.25
593.587	554.25
593.796	548.25
594.006	551.25
594.215	567.25
594.424	555.25
594.634	531.25
594.843	523.25
595.053	497.25
595.262	472.25
595.472	452.25
595.681	456.25
595.89	447.25
596.1	426.25
596.309	435.25
596.518	409.25
596.727	395.25
596.937	396.25
597.146	403.25
597.355	381.25
597.564	391.25
597.774	387.25
597.983	380.25
598.192	355.25
598.401	369.25
598.61	369.25
598.819	376.25
599.028	369.25
599.237	362.25
599.446	353.25
599.655	367.25
599.864	355.25
600.073	346.25
600.282	374.25
600.491	352.25
600.7	354.25
600.909	354.25
601.118	367.25
601.327	333.25
601.536	363.25
601.745	363.25
601.953	360.25
602.162	356.25
602.371	349.25
602.58	339.25
602.789	321.25
602.997	354.25
603.206	328.25
603.415	338.25
603.623	346.25
603.832	324.25
604.041	335.25
604.249	339.25
604.458	334.25
604.666	325.25
604.875	327.25
605.084	343.25
605.292	324.25
605.501	326.25
605.709	315.25
605.918	317.25
606.126	319.25
606.334	329.25
606.543	337.25
606.751	299.25
606.96	316.25
607.168	326.25
607.376	311.25
607.585	331.25
607.793	317.25
608.001	331.25
608.21	321.25
608.418	320.25
608.626	310.25
608.834	342.25
609.043	306.25
609.251	316.25
609.459	288.25
609.667	305.25
609.875	303.25
610.083	308.25
610.291	311.25
610.499	317.25
610.707	313.25
610.916	303.25
611.124	313.25
611.332	288.25
611.54	307.25
611.748	330.25
611.955	281.25
612.163	321.25
612.371	304.25
612.579	329.25
612.787	326.25
612.995	310.25
613.203	310.25
613.411	292.25
613.618	301.25
613.826	303.25
614.034	323.25
614.242	313.25
614.449	305.25
614.657	316.25
614.865	313.25
615.072	322.25
615.28	301.25
615.488	315.25
615.695	298.25
615.903	308.25
616.111	319.25
616.318	312.25
616.526	321.25
616.733	325.25
616.941	317.25
617.148	321.25
617.356	320.25
617.563	314.25
617.771	322.25
617.978	315.25
618.185	314.25
618.393	322.25
618.6	320.25
618.807	300.25
619.015	319.25
619.222	309.25
619.429	304.25
619.637	283.25
619.844	294.25
620.051	282.25
620.258	273.25
620.466	292.25
620.673	269.25
620.88	288.25
621.087	273.25
621.294	286.25
621.501	283.25
621.708	304.25
621.915	284.25
622.122	269.25
622.329	270.25
622.536	273.25
622.743	251.25
622.95	264.25
623.157	274.25
623.364	278.25
623.571	287.25
623.778	265.25
623.985	265.25
624.192	261.25
624.399	274.25
624.606	271.25
624.812	257.25
625.019	267.25
625.226	274.25
625.433	267.25
625.639	256.25
625.846	249.25
626.053	266.25
626.259	285.25
626.466	272.25
626.673	266.25
626.879	248.25
627.086	242.25
627.293	263.25
627.499	265.25
627.706	262.25
627.912	272.25
628.119	259.25
628.325	257.25
628.532	246.25
628.738	271.25
628.945	254.25
629.151	247.25
629.357	245.25
629.564	225.25
629.77	236.25
629.976	235.25
630.183	251.25
630.389	232.25
630.595	245.25
630.802	220.25
631.008	243.25
631.214	234.25
631.42	231.25
631.627	225.25
631.833	239.25
632.039	234.25
632.245	229.25
632.451	226.25
632.657	230.25
632.863	245.25
633.069	238.25
633.275	231.25
633.481	226.25
633.688	217.25
633.893	226.25
634.099	215.25
634.305	214.25
634.511	223.25
634.717	218.25
634.923	216.25
635.129	215.25
635.335	213.25
635.541	211.25
635.747	209.25
635.952	215.25
636.158	220.25
636.364	219.25
636.57	225.25
636.775	218.25
636.981	220.25
637.187	216.25
637.392	224.25
637.598	197.25
637.804	235.25
638.009	210.25
638.215	198.25
638.421	209.25
638.626	220.25
638.832	201.25
639.037	216.25
639.243	225.25
639.448	194.25
639.654	225.25
639.859	218.25
640.065	219.25
640.27	213.25
640.475	210.25
640.681	195.25
640.886	205.25
641.091	210.25
641.297	214.25
641.502	201.25
641.707	201.25
641.913	203.25
642.118	205.25
642.323	194.25
642.528	197.25
642.733	197.25
642.939	187.25
643.144	201.25
643.349	204.25
643.554	192.25
643.759	187.25
643.964	204.25
644.169	196.25
644.374	190.25
644.579	178.25
644.784	180.25
644.989	209.25
645.194	187.25
645.399	205.25
645.604	194.25
645.809	196.25
646.014	205.25
646.219	201.25
646.423	221.25
646.628	210.25
646.833	211.25
647.038	204.25
647.243	211.25
647.447	213.25
647.652	191.25
647.857	215.25
648.062	201.25
648.266	215.25
648.471	238.25
648.676	216.25
648.88	207.25
649.085	226.25
649.289	217.25
649.494	194.25
649.698	202.25
649.903	211.25
650.107	200.25
650.312	186.25
650.516	181.25
650.721	187.25
650.925	180.25
651.13	208.25
651.334	193.25
651.539	190.25
651.743	179.25
651.947	179.25
652.152	176.25
652.356	177.25
652.56	183.25
652.764	173.25
652.969	187.25
653.173	155.25
653.377	166.25
653.581	181.25
653.785	159.25
653.99	178.25
654.194	155.25
654.398	146.25
654.602	156.25
654.806	164.25
655.01	157.25
655.214	162.25
655.418	154.25
655.622	162.25
655.826	152.25
656.03	169.25
656.234	159.25
656.438	166.25
656.642	157.25
656.846	140.25
657.049	150.25
657.253	152.25
657.457	124.25
657.661	135.25
657.865	136.25
658.068	119.25
658.272	127.25
658.476	122.25
658.68	116.25
658.883	118.25
659.087	120.25
659.291	104.25
659.494	101.25
659.698	98.25
659.901	100.25
660.105	96.25
660.309	98.25
660.512	102.25
660.716	83.25
660.919	103.25
661.123	101.25
661.326	85.25
661.53	102.25
661.733	96.25
661.936	95.25
662.14	79.25
662.343	77.25
662.546	68.25
662.75	89.25
662.953	95.25
663.156	81.25
663.36	81.25
663.563	87.25
663.766	89.25
663.969	85.25
664.173	80.25
664.376	83.25
664.579	96.25
664.782	74.25
664.985	82.25
665.188	71.25
665.391	75.25
665.594	79.25
665.797	83.25
666	75.25
666.203	87.25
666.406	78.25
666.609	72.25
666.812	61.25
667.015	86.25
667.218	77.25
667.421	96.25
667.624	63.25
667.827	76.25
668.03	77.25
668.232	79.25
668.435	88.25
668.638	76.25
668.841	90.25
669.043	83.25
669.246	74.25
669.449	82.25
669.651	95.25
669.854	88.25
670.057	84.25
670.259	79.25
670.462	95.25
670.665	104.25
670.867	90.25
671.07	83.25
671.272	83.25
671.475	87.25
671.677	88.25
671.88	93.25
672.082	72.25
672.284	75.25
672.487	84.25
672.689	77.25
672.892	61.25
