Data from Ni(NO3)2@0.0625M.TitratingCurve.Agarose3%dH2O.NegLispCup.LampEnergy10.LIBS07252019_HRD10591_18-14-00-569.txt Node
Date: Thu Jul 25 18:14:00 EDT 2019
User: cochatt
Spectrometer: HR+D1059
Trigger mode: 1
Integration Time (sec): 1.000000E-1
Scans to average: 1
Electric dark correction enabled: true
Nonlinearity correction enabled: false
Boxcar width: 0
XAxis mode: Wavelengths
Number of Pixels in Spectrum: 2048
>>>>>Begin Spectral Data<<<<<
223.165	-16.44
223.4	-16.44
223.635	-16.44
223.869	-0.44
224.104	-9.44
224.338	-16.44
224.573	-13.44
224.808	-9.44
225.042	-4.44
225.277	-6.44
225.511	-2.44
225.746	-10.44
225.98	3.56
226.215	4.56
226.449	22.56
226.683	14.56
226.918	19.56
227.152	24.56
227.387	27.56
227.621	40.56
227.856	45.56
228.09	35.56
228.324	55.56
228.559	55.56
228.793	75.56
229.027	97.56
229.262	96.56
229.496	111.56
229.73	126.56
229.964	130.56
230.199	145.56
230.433	124.56
230.667	120.56
230.901	125.56
231.136	132.56
231.37	124.56
231.604	137.56
231.838	131.56
232.072	136.56
232.306	154.56
232.541	157.56
232.775	157.56
233.009	144.56
233.243	156.56
233.477	166.56
233.711	163.56
233.945	153.56
234.179	164.56
234.413	157.56
234.647	142.56
234.881	159.56
235.115	147.56
235.349	144.56
235.583	162.56
235.817	133.56
236.051	152.56
236.285	148.56
236.519	145.56
236.753	158.56
236.987	155.56
237.221	152.56
237.455	174.56
237.689	159.56
237.922	165.56
238.156	180.56
238.39	171.56
238.624	150.56
238.858	161.56
239.091	170.56
239.325	175.56
239.559	170.56
239.793	187.56
240.027	162.56
240.26	180.56
240.494	186.56
240.728	171.56
240.961	174.56
241.195	172.56
241.429	199.56
241.662	188.56
241.896	194.56
242.13	190.56
242.363	198.56
242.597	194.56
242.83	196.56
243.064	202.56
243.298	179.56
243.531	194.56
243.765	218.56
243.998	206.56
244.232	204.56
244.465	204.56
244.699	207.56
244.932	195.56
245.166	212.56
245.399	222.56
245.633	235.56
245.866	195.56
246.099	228.56
246.333	219.56
246.566	222.56
246.8	231.56
247.033	220.56
247.266	225.56
247.5	219.56
247.733	231.56
247.966	221.56
248.2	229.56
248.433	227.56
248.666	242.56
248.899	232.56
249.133	244.56
249.366	242.56
249.599	254.56
249.832	200.56
250.066	242.56
250.299	246.56
250.532	229.56
250.765	262.56
250.998	266.56
251.231	233.56
251.465	256.56
251.698	254.56
251.931	255.56
252.164	243.56
252.397	278.56
252.63	262.56
252.863	238.56
253.096	266.56
253.329	277.56
253.562	246.56
253.795	262.56
254.028	276.56
254.261	278.56
254.494	299.56
254.727	282.56
254.96	271.56
255.193	268.56
255.426	272.56
255.659	280.56
255.892	278.56
256.124	286.56
256.357	289.56
256.59	286.56
256.823	286.56
257.056	307.56
257.289	282.56
257.521	285.56
257.754	302.56
257.987	303.56
258.22	306.56
258.452	284.56
258.685	287.56
258.918	304.56
259.151	308.56
259.383	314.56
259.616	312.56
259.849	297.56
260.081	297.56
260.314	316.56
260.547	312.56
260.779	312.56
261.012	329.56
261.244	298.56
261.477	343.56
261.71	322.56
261.942	322.56
262.175	320.56
262.407	328.56
262.64	326.56
262.872	326.56
263.105	332.56
263.337	342.56
263.57	335.56
263.802	328.56
264.035	338.56
264.267	332.56
264.499	332.56
264.732	334.56
264.964	351.56
265.197	342.56
265.429	349.56
265.661	352.56
265.894	344.56
266.126	363.56
266.358	346.56
266.591	347.56
266.823	354.56
267.055	348.56
267.287	374.56
267.52	378.56
267.752	349.56
267.984	367.56
268.216	365.56
268.448	364.56
268.681	355.56
268.913	367.56
269.145	373.56
269.377	362.56
269.609	382.56
269.841	372.56
270.073	366.56
270.306	368.56
270.538	364.56
270.77	375.56
271.002	358.56
271.234	388.56
271.466	386.56
271.698	383.56
271.93	396.56
272.162	372.56
272.394	397.56
272.626	369.56
272.858	383.56
273.09	398.56
273.322	406.56
273.553	409.56
273.785	418.56
274.017	399.56
274.249	407.56
274.481	420.56
274.713	422.56
274.945	409.56
275.176	408.56
275.408	425.56
275.64	412.56
275.872	439.56
276.104	421.56
276.335	399.56
276.567	408.56
276.799	418.56
277.031	415.56
277.262	403.56
277.494	411.56
277.726	435.56
277.957	437.56
278.189	421.56
278.421	445.56
278.652	430.56
278.884	427.56
279.115	441.56
279.347	436.56
279.579	452.56
279.81	452.56
280.042	445.56
280.273	456.56
280.505	439.56
280.736	460.56
280.968	450.56
281.199	451.56
281.431	480.56
281.662	458.56
281.894	453.56
282.125	438.56
282.356	464.56
282.588	488.56
282.819	450.56
283.051	468.56
283.282	474.56
283.513	482.56
283.745	469.56
283.976	466.56
284.207	487.56
284.439	455.56
284.67	490.56
284.901	480.56
285.132	471.56
285.364	452.56
285.595	490.56
285.826	476.56
286.057	503.56
286.288	485.56
286.52	498.56
286.751	507.56
286.982	486.56
287.213	508.56
287.444	477.56
287.675	499.56
287.906	510.56
288.138	502.56
288.369	520.56
288.6	521.56
288.831	503.56
289.062	517.56
289.293	521.56
289.524	507.56
289.755	502.56
289.986	518.56
290.217	537.56
290.448	511.56
290.679	528.56
290.91	523.56
291.141	522.56
291.371	522.56
291.602	517.56
291.833	515.56
292.064	500.56
292.295	514.56
292.526	513.56
292.757	521.56
292.987	505.56
293.218	531.56
293.449	540.56
293.68	517.56
293.91	572.56
294.141	539.56
294.372	509.56
294.603	520.56
294.833	526.56
295.064	526.56
295.295	509.56
295.525	550.56
295.756	554.56
295.987	534.56
296.217	554.56
296.448	546.56
296.679	551.56
296.909	546.56
297.14	560.56
297.37	572.56
297.601	582.56
297.831	560.56
298.062	559.56
298.292	582.56
298.523	596.56
298.753	580.56
298.984	551.56
299.214	568.56
299.445	557.56
299.675	576.56
299.905	562.56
300.136	542.56
300.366	557.56
300.597	573.56
300.827	582.56
301.057	576.56
301.288	600.56
301.518	595.56
301.748	610.56
301.979	614.56
302.209	600.56
302.439	600.56
302.669	606.56
302.9	590.56
303.13	589.56
303.36	599.56
303.59	573.56
303.82	609.56
304.051	616.56
304.281	614.56
304.511	588.56
304.741	586.56
304.971	602.56
305.201	589.56
305.431	606.56
305.661	598.56
305.891	581.56
306.121	594.56
306.352	579.56
306.582	578.56
306.812	582.56
307.042	568.56
307.272	594.56
307.502	581.56
307.731	595.56
307.961	575.56
308.191	568.56
308.421	595.56
308.651	592.56
308.881	572.56
309.111	602.56
309.341	585.56
309.571	596.56
309.8	594.56
310.03	586.56
310.26	576.56
310.49	562.56
310.72	576.56
310.949	593.56
311.179	600.56
311.409	583.56
311.639	616.56
311.868	598.56
312.098	580.56
312.328	615.56
312.557	612.56
312.787	588.56
313.017	584.56
313.246	634.56
313.476	588.56
313.706	640.56
313.935	623.56
314.165	610.56
314.394	642.56
314.624	592.56
314.853	628.56
315.083	630.56
315.312	623.56
315.542	612.56
315.771	622.56
316.001	634.56
316.23	607.56
316.46	620.56
316.689	612.56
316.919	611.56
317.148	626.56
317.377	636.56
317.607	618.56
317.836	619.56
318.065	612.56
318.295	618.56
318.524	608.56
318.753	639.56
318.983	619.56
319.212	624.56
319.441	616.56
319.67	614.56
319.9	630.56
320.129	614.56
320.358	627.56
320.587	635.56
320.816	633.56
321.046	611.56
321.275	619.56
321.504	630.56
321.733	614.56
321.962	607.56
322.191	631.56
322.42	640.56
322.649	655.56
322.878	630.56
323.108	649.56
323.337	636.56
323.566	651.56
323.795	634.56
324.024	654.56
324.253	646.56
324.482	647.56
324.71	613.56
324.939	678.56
325.168	657.56
325.397	653.56
325.626	650.56
325.855	662.56
326.084	700.56
326.313	654.56
326.542	680.56
326.77	708.56
326.999	675.56
327.228	650.56
327.457	668.56
327.686	664.56
327.914	664.56
328.143	689.56
328.372	676.56
328.6	713.56
328.829	670.56
329.058	687.56
329.287	680.56
329.515	691.56
329.744	679.56
329.972	660.56
330.201	674.56
330.43	696.56
330.658	706.56
330.887	696.56
331.115	702.56
331.344	701.56
331.572	703.56
331.801	728.56
332.03	749.56
332.258	738.56
332.486	809.56
332.715	798.56
332.943	853.56
333.172	870.56
333.4	930.56
333.629	950.56
333.857	934.56
334.085	923.56
334.314	924.56
334.542	898.56
334.771	873.56
334.999	852.56
335.227	848.56
335.455	858.56
335.684	862.56
335.912	840.56
336.14	840.56
336.369	832.56
336.597	810.56
336.825	821.56
337.053	829.56
337.281	808.56
337.51	805.56
337.738	809.56
337.966	778.56
338.194	758.56
338.422	756.56
338.65	734.56
338.878	733.56
339.106	727.56
339.334	787.56
339.562	749.56
339.79	726.56
340.018	714.56
340.246	714.56
340.474	724.56
340.702	735.56
340.93	731.56
341.158	728.56
341.386	711.56
341.614	712.56
341.842	722.56
342.07	694.56
342.298	710.56
342.526	711.56
342.754	701.56
342.981	712.56
343.209	724.56
343.437	766.56
343.665	812.56
343.893	863.56
344.12	887.56
344.348	869.56
344.576	801.56
344.804	770.56
345.031	748.56
345.259	719.56
345.487	719.56
345.714	699.56
345.942	693.56
346.17	707.56
346.397	731.56
346.625	686.56
346.853	688.56
347.08	692.56
347.308	698.56
347.535	680.56
347.763	710.56
347.99	711.56
348.218	725.56
348.445	685.56
348.673	700.56
348.9	716.56
349.128	695.56
349.355	703.56
349.583	691.56
349.81	682.56
350.037	660.56
350.265	670.56
350.492	662.56
350.72	659.56
350.947	640.56
351.174	690.56
351.402	672.56
351.629	666.56
351.856	634.56
352.083	662.56
352.311	639.56
352.538	655.56
352.765	679.56
352.992	668.56
353.22	661.56
353.447	672.56
353.674	654.56
353.901	679.56
354.128	663.56
354.355	684.56
354.583	687.56
354.81	657.56
355.037	670.56
355.264	660.56
355.491	662.56
355.718	674.56
355.945	648.56
356.172	649.56
356.399	673.56
356.626	671.56
356.853	674.56
357.08	694.56
357.307	677.56
357.534	672.56
357.761	674.56
357.988	648.56
358.215	657.56
358.441	664.56
358.668	644.56
358.895	686.56
359.122	670.56
359.349	653.56
359.576	667.56
359.802	669.56
360.029	659.56
360.256	654.56
360.483	647.56
360.709	672.56
360.936	694.56
361.163	660.56
361.39	653.56
361.616	656.56
361.843	683.56
362.07	691.56
362.296	669.56
362.523	646.56
362.749	671.56
362.976	671.56
363.203	640.56
363.429	650.56
363.656	663.56
363.882	659.56
364.109	658.56
364.335	674.56
364.562	660.56
364.788	672.56
365.015	670.56
365.241	647.56
365.468	654.56
365.694	664.56
365.92	680.56
366.147	661.56
366.373	656.56
366.599	682.56
366.826	662.56
367.052	644.56
367.278	676.56
367.505	674.56
367.731	668.56
367.957	661.56
368.184	677.56
368.41	698.56
368.636	683.56
368.862	700.56
369.089	679.56
369.315	703.56
369.541	702.56
369.767	694.56
369.993	678.56
370.219	676.56
370.445	698.56
370.672	722.56
370.898	720.56
371.124	699.56
371.35	717.56
371.576	751.56
371.802	726.56
372.028	725.56
372.254	723.56
372.48	730.56
372.706	733.56
372.932	758.56
373.158	751.56
373.384	728.56
373.61	734.56
373.835	735.56
374.061	738.56
374.287	722.56
374.513	738.56
374.739	789.56
374.965	811.56
375.191	811.56
375.416	819.56
375.642	790.56
375.868	767.56
376.094	766.56
376.319	772.56
376.545	734.56
376.771	757.56
376.997	743.56
377.222	751.56
377.448	754.56
377.674	769.56
377.899	714.56
378.125	733.56
378.35	717.56
378.576	739.56
378.802	722.56
379.027	741.56
379.253	717.56
379.478	717.56
379.704	726.56
379.929	711.56
380.155	748.56
380.38	734.56
380.606	745.56
380.831	746.56
381.057	738.56
381.282	714.56
381.507	703.56
381.733	768.56
381.958	744.56
382.184	722.56
382.409	745.56
382.634	787.56
382.86	764.56
383.085	770.56
383.31	776.56
383.535	796.56
383.761	784.56
383.986	803.56
384.211	834.56
384.436	844.56
384.662	854.56
384.887	888.56
385.112	865.56
385.337	882.56
385.562	875.56
385.787	880.56
386.013	880.56
386.238	890.56
386.463	897.56
386.688	900.56
386.913	863.56
387.138	861.56
387.363	869.56
387.588	872.56
387.813	868.56
388.038	863.56
388.263	854.56
388.488	861.56
388.713	891.56
388.938	886.56
389.163	832.56
389.387	877.56
389.612	834.56
389.837	868.56
390.062	864.56
390.287	858.56
390.512	852.56
390.736	860.56
390.961	900.56
391.186	892.56
391.411	931.56
391.636	967.56
391.86	979.56
392.085	1032.56
392.31	970.56
392.534	938.56
392.759	973.56
392.984	938.56
393.208	920.56
393.433	921.56
393.658	918.56
393.882	928.56
394.107	909.56
394.331	934.56
394.556	967.56
394.78	930.56
395.005	941.56
395.229	948.56
395.454	952.56
395.678	986.56
395.903	1008.56
396.127	974.56
396.352	933.56
396.576	918.56
396.801	950.56
397.025	931.56
397.249	935.56
397.474	967.56
397.698	981.56
397.922	992.56
398.147	976.56
398.371	991.56
398.595	1046.56
398.82	1055.56
399.044	1140.56
399.268	1308.56
399.492	1495.56
399.717	1647.56
399.941	1654.56
400.165	1487.56
400.389	1304.56
400.613	1202.56
400.837	1147.56
401.062	1127.56
401.286	1095.56
401.51	1084.56
401.734	1111.56
401.958	1070.56
402.182	1114.56
402.406	1138.56
402.63	1159.56
402.854	1178.56
403.078	1224.56
403.302	1236.56
403.526	1269.56
403.75	1254.56
403.974	1282.56
404.198	1283.56
404.422	1296.56
404.645	1263.56
404.869	1241.56
405.093	1229.56
405.317	1206.56
405.541	1211.56
405.765	1195.56
405.988	1177.56
406.212	1217.56
406.436	1206.56
406.66	1241.56
406.883	1255.56
407.107	1316.56
407.331	1388.56
407.555	1439.56
407.778	1413.56
408.002	1386.56
408.226	1352.56
408.449	1332.56
408.673	1294.56
408.896	1289.56
409.12	1234.56
409.344	1230.56
409.567	1251.56
409.791	1245.56
410.014	1249.56
410.238	1250.56
410.461	1259.56
410.685	1192.56
410.908	1199.56
411.132	1185.56
411.355	1142.56
411.578	1156.56
411.802	1135.56
412.025	1144.56
412.249	1144.56
412.472	1163.56
412.695	1121.56
412.919	1117.56
413.142	1100.56
413.365	1081.56
413.589	1127.56
413.812	1101.56
414.035	1055.56
414.258	1102.56
414.482	1066.56
414.705	1136.56
414.928	1138.56
415.151	1120.56
415.374	1110.56
415.597	1119.56
415.821	1085.56
416.044	1069.56
416.267	1066.56
416.49	1060.56
416.713	1068.56
416.936	1078.56
417.159	1082.56
417.382	1061.56
417.605	1068.56
417.828	1074.56
418.051	1091.56
418.274	1074.56
418.497	1081.56
418.72	1147.56
418.943	1130.56
419.166	1186.56
419.389	1237.56
419.611	1183.56
419.834	1164.56
420.057	1129.56
420.28	1117.56
420.503	1078.56
420.726	1089.56
420.948	1058.56
421.171	1052.56
421.394	1089.56
421.617	1088.56
421.839	1078.56
422.062	1053.56
422.285	1065.56
422.507	1111.56
422.73	1118.56
422.953	1146.56
423.175	1119.56
423.398	1146.56
423.621	1138.56
423.843	1147.56
424.066	1164.56
424.288	1153.56
424.511	1160.56
424.733	1138.56
424.956	1102.56
425.178	1068.56
425.401	1074.56
425.623	1090.56
425.846	1060.56
426.068	1024.56
426.291	1029.56
426.513	1003.56
426.735	1011.56
426.958	1018.56
427.18	997.56
427.402	1008.56
427.625	1014.56
427.847	976.56
428.069	968.56
428.292	959.56
428.514	973.56
428.736	956.56
428.958	963.56
429.181	937.56
429.403	944.56
429.625	919.56
429.847	906.56
430.069	900.56
430.292	951.56
430.514	959.56
430.736	944.56
430.958	964.56
431.18	958.56
431.402	950.56
431.624	930.56
431.846	955.56
432.068	1010.56
432.29	1005.56
432.512	938.56
432.734	967.56
432.956	963.56
433.178	962.56
433.4	955.56
433.622	968.56
433.844	991.56
434.066	978.56
434.287	1001.56
434.509	1014.56
434.731	1057.56
434.953	1094.56
435.175	1105.56
435.397	1061.56
435.618	1044.56
435.84	1015.56
436.062	994.56
436.284	992.56
436.505	918.56
436.727	941.56
436.949	980.56
437.17	937.56
437.392	958.56
437.614	930.56
437.835	909.56
438.057	911.56
438.278	910.56
438.5	912.56
438.721	920.56
438.943	956.56
439.165	928.56
439.386	942.56
439.608	963.56
439.829	975.56
440.05	948.56
440.272	970.56
440.493	970.56
440.715	990.56
440.936	995.56
441.158	1016.56
441.379	1007.56
441.6	1108.56
441.822	1090.56
442.043	1109.56
442.264	1047.56
442.486	1045.56
442.707	1056.56
442.928	1062.56
443.149	1084.56
443.371	1052.56
443.592	1098.56
443.813	1084.56
444.034	1104.56
444.255	1095.56
444.476	1178.56
444.698	1263.56
444.919	1300.56
445.14	1330.56
445.361	1188.56
445.582	1101.56
445.803	1066.56
446.024	1024.56
446.245	978.56
446.466	969.56
446.687	981.56
446.908	974.56
447.129	933.56
447.35	904.56
447.571	941.56
447.792	910.56
448.013	925.56
448.234	922.56
448.455	890.56
448.675	874.56
448.896	878.56
449.117	864.56
449.338	864.56
449.559	862.56
449.779	864.56
450	844.56
450.221	875.56
450.442	860.56
450.662	887.56
450.883	862.56
451.104	920.56
451.324	914.56
451.545	900.56
451.766	898.56
451.986	885.56
452.207	882.56
452.428	901.56
452.648	893.56
452.869	851.56
453.089	864.56
453.31	869.56
453.53	876.56
453.751	864.56
453.971	853.56
454.192	838.56
454.412	834.56
454.633	843.56
454.853	845.56
455.073	822.56
455.294	838.56
455.514	785.56
455.734	844.56
455.955	811.56
456.175	837.56
456.395	818.56
456.616	794.56
456.836	825.56
457.056	813.56
457.276	828.56
457.497	822.56
457.717	822.56
457.937	811.56
458.157	857.56
458.377	858.56
458.598	869.56
458.818	876.56
459.038	906.56
459.258	930.56
459.478	961.56
459.698	1000.56
459.918	999.56
460.138	1070.56
460.358	1084.56
460.578	1129.56
460.798	1155.56
461.018	1127.56
461.238	1112.56
461.458	1086.56
461.678	1109.56
461.898	1115.56
462.118	1127.56
462.338	1195.56
462.558	1222.56
462.777	1278.56
462.997	1410.56
463.217	1526.56
463.437	1515.56
463.657	1420.56
463.876	1361.56
464.096	1342.56
464.316	1334.56
464.536	1344.56
464.755	1296.56
464.975	1220.56
465.195	1180.56
465.414	1118.56
465.634	1042.56
465.854	1018.56
466.073	1008.56
466.293	942.56
466.512	977.56
466.732	917.56
466.951	912.56
467.171	947.56
467.391	940.56
467.61	930.56
467.829	942.56
468.049	909.56
468.268	903.56
468.488	880.56
468.707	856.56
468.927	900.56
469.146	868.56
469.365	878.56
469.585	871.56
469.804	926.56
470.023	932.56
470.243	934.56
470.462	922.56
470.681	952.56
470.901	943.56
471.12	922.56
471.339	920.56
471.558	885.56
471.777	942.56
471.997	890.56
472.216	879.56
472.435	866.56
472.654	868.56
472.873	838.56
473.092	858.56
473.311	856.56
473.53	861.56
473.749	861.56
473.968	867.56
474.187	845.56
474.406	839.56
474.625	862.56
474.844	864.56
475.063	877.56
475.282	862.56
475.501	838.56
475.72	875.56
475.939	879.56
476.158	878.56
476.377	889.56
476.596	878.56
476.814	910.56
477.033	913.56
477.252	910.56
477.471	956.56
477.69	956.56
477.908	975.56
478.127	999.56
478.346	1007.56
478.564	1058.56
478.783	1025.56
479.002	1081.56
479.22	1108.56
479.439	1071.56
479.658	1064.56
479.876	1076.56
480.095	1114.56
480.313	1125.56
480.532	1179.56
480.751	1171.56
480.969	1129.56
481.188	1104.56
481.406	1050.56
481.624	1037.56
481.843	1016.56
482.061	997.56
482.28	970.56
482.498	975.56
482.717	967.56
482.935	999.56
483.153	990.56
483.372	993.56
483.59	989.56
483.808	1003.56
484.027	1023.56
484.245	999.56
484.463	1022.56
484.681	1065.56
484.9	1014.56
485.118	1024.56
485.336	1021.56
485.554	1046.56
485.772	1060.56
485.99	1061.56
486.209	1041.56
486.427	1054.56
486.645	1070.56
486.863	1040.56
487.081	1055.56
487.299	1046.56
487.517	1063.56
487.735	1042.56
487.953	1047.56
488.171	1025.56
488.389	1023.56
488.607	1021.56
488.825	1022.56
489.043	1017.56
489.261	987.56
489.479	1030.56
489.696	1053.56
489.914	1044.56
490.132	1021.56
490.35	1014.56
490.568	1045.56
490.786	1024.56
491.003	1054.56
491.221	1020.56
491.439	1007.56
491.657	1026.56
491.874	1066.56
492.092	1024.56
492.31	1065.56
492.527	1008.56
492.745	1043.56
492.963	1050.56
493.18	1054.56
493.398	1087.56
493.615	1064.56
493.833	1047.56
494.05	1097.56
494.268	1074.56
494.485	1097.56
494.703	1066.56
494.92	1084.56
495.138	1071.56
495.355	1062.56
495.573	1077.56
495.79	1092.56
496.008	1092.56
496.225	1109.56
496.442	1095.56
496.66	1159.56
496.877	1135.56
497.094	1178.56
497.312	1186.56
497.529	1231.56
497.746	1263.56
497.963	1268.56
498.181	1318.56
498.398	1350.56
498.615	1496.56
498.832	1548.56
499.049	1647.56
499.267	1840.56
499.484	2027.56
499.701	2184.56
499.918	2406.56
500.135	2800.56
500.352	3197.56
500.569	3337.56
500.786	3316.56
501.003	3160.56
501.22	2706.56
501.437	2396.56
501.654	2083.56
501.871	1908.56
502.088	1760.56
502.305	1626.56
502.522	1529.56
502.739	1493.56
502.956	1426.56
503.172	1372.56
503.389	1275.56
503.606	1261.56
503.823	1254.56
504.04	1233.56
504.256	1259.56
504.473	1292.56
504.69	1320.56
504.907	1268.56
505.123	1214.56
505.34	1131.56
505.557	1099.56
505.773	1062.56
505.99	1068.56
506.207	998.56
506.423	1010.56
506.64	994.56
506.856	972.56
507.073	972.56
507.289	972.56
507.506	937.56
507.722	979.56
507.939	930.56
508.155	942.56
508.372	910.56
508.588	898.56
508.805	942.56
509.021	926.56
509.238	932.56
509.454	900.56
509.67	884.56
509.887	907.56
510.103	860.56
510.319	888.56
510.536	894.56
510.752	898.56
510.968	876.56
511.184	882.56
511.401	885.56
511.617	868.56
511.833	886.56
512.049	860.56
512.265	873.56
512.481	865.56
512.698	847.56
512.914	875.56
513.13	880.56
513.346	898.56
513.562	878.56
513.778	885.56
513.994	886.56
514.21	888.56
514.426	895.56
514.642	900.56
514.858	886.56
515.074	895.56
515.29	900.56
515.506	917.56
515.721	928.56
515.937	959.56
516.153	952.56
516.369	959.56
516.585	1012.56
516.801	1035.56
517.016	1099.56
517.232	1131.56
517.448	1210.56
517.664	1249.56
517.879	1234.56
518.095	1248.56
518.311	1242.56
518.527	1166.56
518.742	1095.56
518.958	1062.56
519.173	1011.56
519.389	995.56
519.605	964.56
519.82	932.56
520.036	927.56
520.251	942.56
520.467	883.56
520.682	882.56
520.898	854.56
521.113	862.56
521.329	891.56
521.544	842.56
521.76	868.56
521.975	840.56
522.19	859.56
522.406	871.56
522.621	828.56
522.836	815.56
523.052	812.56
523.267	827.56
523.482	814.56
523.698	832.56
523.913	806.56
524.128	779.56
524.343	780.56
524.559	814.56
524.774	801.56
524.989	812.56
525.204	806.56
525.419	782.56
525.634	787.56
525.849	790.56
526.064	772.56
526.28	794.56
526.495	782.56
526.71	793.56
526.925	792.56
527.14	754.56
527.355	799.56
527.57	789.56
527.785	776.56
527.999	800.56
528.214	805.56
528.429	784.56
528.644	803.56
528.859	811.56
529.074	781.56
529.289	789.56
529.503	791.56
529.718	746.56
529.933	782.56
530.148	783.56
530.363	784.56
530.577	792.56
530.792	783.56
531.007	790.56
531.221	807.56
531.436	783.56
531.651	789.56
531.865	798.56
532.08	826.56
532.295	801.56
532.509	775.56
532.724	800.56
532.938	826.56
533.153	797.56
533.367	789.56
533.582	809.56
533.796	795.56
534.011	789.56
534.225	784.56
534.44	752.56
534.654	754.56
534.868	756.56
535.083	777.56
535.297	764.56
535.511	778.56
535.726	746.56
535.94	774.56
536.154	773.56
536.369	737.56
536.583	731.56
536.797	726.56
537.011	719.56
537.225	737.56
537.44	739.56
537.654	712.56
537.868	734.56
538.082	726.56
538.296	728.56
538.51	714.56
538.724	716.56
538.938	728.56
539.153	694.56
539.367	717.56
539.581	702.56
539.795	676.56
540.009	688.56
540.222	703.56
540.436	707.56
540.65	697.56
540.864	670.56
541.078	722.56
541.292	716.56
541.506	711.56
541.72	706.56
541.934	704.56
542.147	689.56
542.361	706.56
542.575	682.56
542.789	687.56
543.002	683.56
543.216	693.56
543.43	705.56
543.644	686.56
543.857	692.56
544.071	707.56
544.285	708.56
544.498	687.56
544.712	674.56
544.925	687.56
545.139	715.56
545.352	733.56
545.566	711.56
545.779	721.56
545.993	725.56
546.206	712.56
546.42	705.56
546.633	708.56
546.847	709.56
547.06	733.56
547.274	714.56
547.487	701.56
547.7	707.56
547.914	711.56
548.127	708.56
548.34	713.56
548.554	730.56
548.767	723.56
548.98	734.56
549.193	690.56
549.407	717.56
549.62	727.56
549.833	759.56
550.046	742.56
550.259	698.56
550.473	719.56
550.686	709.56
550.899	693.56
551.112	691.56
551.325	678.56
551.538	699.56
551.751	700.56
551.964	706.56
552.177	713.56
552.39	722.56
552.603	741.56
552.816	740.56
553.029	739.56
553.242	774.56
553.455	792.56
553.667	807.56
553.88	782.56
554.093	754.56
554.306	751.56
554.519	746.56
554.732	722.56
554.944	695.56
555.157	674.56
555.37	684.56
555.583	661.56
555.795	664.56
556.008	649.56
556.221	642.56
556.433	649.56
556.646	654.56
556.859	641.56
557.071	639.56
557.284	618.56
557.496	593.56
557.709	629.56
557.921	611.56
558.134	601.56
558.346	602.56
558.559	610.56
558.771	604.56
558.984	607.56
559.196	602.56
559.409	598.56
559.621	594.56
559.833	585.56
560.046	591.56
560.258	590.56
560.47	588.56
560.683	604.56
560.895	583.56
561.107	580.56
561.32	576.56
561.532	616.56
561.744	609.56
561.956	600.56
562.168	591.56
562.381	580.56
562.593	585.56
562.805	582.56
563.017	603.56
563.229	606.56
563.441	598.56
563.653	613.56
563.865	610.56
564.077	622.56
564.289	598.56
564.501	619.56
564.713	616.56
564.925	642.56
565.137	635.56
565.349	690.56
565.561	690.56
565.773	701.56
565.985	732.56
566.197	788.56
566.408	832.56
566.62	916.56
566.832	962.56
567.044	983.56
567.255	982.56
567.467	992.56
567.679	1053.56
567.891	1163.56
568.102	1170.56
568.314	1127.56
568.526	999.56
568.737	917.56
568.949	839.56
569.161	764.56
569.372	702.56
569.584	681.56
569.795	649.56
570.007	626.56
570.218	623.56
570.43	604.56
570.641	615.56
570.853	625.56
571.064	610.56
571.276	638.56
571.487	607.56
571.698	579.56
571.91	541.56
572.121	543.56
572.333	549.56
572.544	529.56
572.755	506.56
572.966	520.56
573.178	488.56
573.389	504.56
573.6	488.56
573.811	501.56
574.023	481.56
574.234	466.56
574.445	491.56
574.656	481.56
574.867	492.56
575.078	476.56
575.289	484.56
575.501	484.56
575.712	448.56
575.923	469.56
576.134	484.56
576.345	443.56
576.556	474.56
576.767	477.56
576.978	482.56
577.188	470.56
577.399	458.56
577.61	458.56
577.821	463.56
578.032	454.56
578.243	454.56
578.454	466.56
578.665	459.56
578.875	427.56
579.086	437.56
579.297	432.56
579.508	445.56
579.718	439.56
579.929	431.56
580.14	418.56
580.35	436.56
580.561	431.56
580.772	419.56
580.982	420.56
581.193	429.56
581.403	418.56
581.614	419.56
581.825	415.56
582.035	423.56
582.246	410.56
582.456	414.56
582.667	408.56
582.877	404.56
583.087	423.56
583.298	415.56
583.508	422.56
583.719	417.56
583.929	419.56
584.139	420.56
584.35	375.56
584.56	406.56
584.77	412.56
584.981	410.56
585.191	412.56
585.401	408.56
585.611	387.56
585.821	409.56
586.032	401.56
586.242	422.56
586.452	392.56
586.662	387.56
586.872	399.56
587.082	385.56
587.292	391.56
587.502	396.56
587.713	377.56
587.923	383.56
588.133	411.56
588.343	405.56
588.553	415.56
588.762	393.56
588.972	396.56
589.182	424.56
589.392	383.56
589.602	418.56
589.812	395.56
590.022	414.56
590.232	390.56
590.441	406.56
590.651	406.56
590.861	391.56
591.071	405.56
591.281	394.56
591.49	408.56
591.7	429.56
591.91	422.56
592.119	411.56
592.329	444.56
592.539	430.56
592.748	452.56
592.958	479.56
593.167	488.56
593.377	514.56
593.587	536.56
593.796	524.56
594.006	512.56
594.215	543.56
594.424	542.56
594.634	488.56
594.843	479.56
595.053	464.56
595.262	454.56
595.472	458.56
595.681	413.56
595.89	388.56
596.1	396.56
596.309	394.56
596.518	393.56
596.727	387.56
596.937	366.56
597.146	360.56
597.355	358.56
597.564	366.56
597.774	378.56
597.983	344.56
598.192	379.56
598.401	350.56
598.61	339.56
598.819	348.56
599.028	351.56
599.237	341.56
599.446	347.56
599.655	342.56
599.864	322.56
600.073	345.56
600.282	359.56
600.491	341.56
600.7	341.56
600.909	336.56
601.118	335.56
601.327	328.56
601.536	343.56
601.745	320.56
601.953	328.56
602.162	330.56
602.371	322.56
602.58	327.56
602.789	318.56
602.997	300.56
603.206	314.56
603.415	305.56
603.623	317.56
603.832	335.56
604.041	304.56
604.249	310.56
604.458	314.56
604.666	316.56
604.875	314.56
605.084	321.56
605.292	309.56
605.501	328.56
605.709	310.56
605.918	309.56
606.126	328.56
606.334	311.56
606.543	307.56
606.751	312.56
606.96	303.56
607.168	298.56
607.376	300.56
607.585	313.56
607.793	294.56
608.001	301.56
608.21	276.56
608.418	288.56
608.626	299.56
608.834	299.56
609.043	325.56
609.251	316.56
609.459	296.56
609.667	308.56
609.875	297.56
610.083	298.56
610.291	264.56
610.499	299.56
610.707	310.56
610.916	290.56
611.124	294.56
611.332	283.56
611.54	298.56
611.748	277.56
611.955	309.56
612.163	299.56
612.371	290.56
612.579	278.56
612.787	278.56
612.995	292.56
613.203	297.56
613.411	290.56
613.618	281.56
613.826	283.56
614.034	286.56
614.242	295.56
614.449	299.56
614.657	281.56
614.865	273.56
615.072	279.56
615.28	289.56
615.488	298.56
615.695	283.56
615.903	296.56
616.111	298.56
616.318	295.56
616.526	287.56
616.733	300.56
616.941	311.56
617.148	294.56
617.356	301.56
617.563	292.56
617.771	319.56
617.978	274.56
618.185	286.56
618.393	294.56
618.6	299.56
618.807	284.56
619.015	281.56
619.222	288.56
619.429	279.56
619.637	274.56
619.844	291.56
620.051	273.56
620.258	289.56
620.466	267.56
620.673	276.56
620.88	279.56
621.087	258.56
621.294	276.56
621.501	270.56
621.708	270.56
621.915	270.56
622.122	280.56
622.329	274.56
622.536	268.56
622.743	254.56
622.95	265.56
623.157	251.56
623.364	254.56
623.571	242.56
623.778	263.56
623.985	262.56
624.192	258.56
624.399	262.56
624.606	235.56
624.812	250.56
625.019	266.56
625.226	259.56
625.433	262.56
625.639	267.56
625.846	237.56
626.053	244.56
626.259	246.56
626.466	249.56
626.673	246.56
626.879	239.56
627.086	252.56
627.293	248.56
627.499	249.56
627.706	244.56
627.912	256.56
628.119	239.56
628.325	250.56
628.532	236.56
628.738	238.56
628.945	234.56
629.151	250.56
629.357	237.56
629.564	238.56
629.77	235.56
629.976	227.56
630.183	236.56
630.389	226.56
630.595	228.56
630.802	218.56
631.008	217.56
631.214	242.56
631.42	226.56
631.627	208.56
631.833	218.56
632.039	230.56
632.245	224.56
632.451	217.56
632.657	208.56
632.863	215.56
633.069	230.56
633.275	242.56
633.481	212.56
633.688	216.56
633.893	208.56
634.099	227.56
634.305	228.56
634.511	219.56
634.717	219.56
634.923	203.56
635.129	226.56
635.335	203.56
635.541	216.56
635.747	217.56
635.952	207.56
636.158	215.56
636.364	206.56
636.57	205.56
636.775	218.56
636.981	195.56
637.187	217.56
637.392	201.56
637.598	193.56
637.804	203.56
638.009	211.56
638.215	215.56
638.421	204.56
638.626	196.56
638.832	199.56
639.037	198.56
639.243	202.56
639.448	180.56
639.654	200.56
639.859	200.56
640.065	212.56
640.27	203.56
640.475	202.56
640.681	199.56
640.886	197.56
641.091	195.56
641.297	202.56
641.502	180.56
641.707	206.56
641.913	205.56
642.118	195.56
642.323	201.56
642.528	206.56
642.733	199.56
642.939	205.56
643.144	183.56
643.349	200.56
643.554	175.56
643.759	188.56
643.964	198.56
644.169	209.56
644.374	186.56
644.579	193.56
644.784	180.56
644.989	185.56
645.194	188.56
645.399	198.56
645.604	192.56
645.809	193.56
646.014	191.56
646.219	187.56
646.423	195.56
646.628	220.56
646.833	197.56
647.038	199.56
647.243	194.56
647.447	202.56
647.652	201.56
647.857	183.56
648.062	193.56
648.266	184.56
648.471	219.56
648.676	215.56
648.88	194.56
649.085	202.56
649.289	192.56
649.494	210.56
649.698	190.56
649.903	189.56
650.107	175.56
650.312	203.56
650.516	199.56
650.721	191.56
650.925	181.56
651.13	183.56
651.334	174.56
651.539	169.56
651.743	184.56
651.947	184.56
652.152	170.56
652.356	171.56
652.56	160.56
652.764	173.56
652.969	172.56
653.173	155.56
653.377	163.56
653.581	145.56
653.785	160.56
653.99	148.56
654.194	158.56
654.398	150.56
654.602	152.56
654.806	154.56
655.01	132.56
655.214	148.56
655.418	157.56
655.622	142.56
655.826	155.56
656.03	178.56
656.234	162.56
656.438	162.56
656.642	181.56
656.846	155.56
657.049	136.56
657.253	138.56
657.457	141.56
657.661	133.56
657.865	127.56
658.068	123.56
658.272	118.56
658.476	134.56
658.68	121.56
658.883	101.56
659.087	116.56
659.291	116.56
659.494	118.56
659.698	121.56
659.901	112.56
660.105	106.56
660.309	107.56
660.512	102.56
660.716	91.56
660.919	80.56
661.123	89.56
661.326	81.56
661.53	82.56
661.733	103.56
661.936	81.56
662.14	85.56
662.343	104.56
662.546	93.56
662.75	93.56
662.953	92.56
663.156	85.56
663.36	86.56
663.563	72.56
663.766	83.56
663.969	89.56
664.173	82.56
664.376	71.56
664.579	98.56
664.782	82.56
664.985	76.56
665.188	77.56
665.391	78.56
665.594	87.56
665.797	86.56
666	83.56
666.203	92.56
666.406	82.56
666.609	80.56
666.812	104.56
667.015	75.56
667.218	90.56
667.421	87.56
667.624	98.56
667.827	96.56
668.03	68.56
668.232	83.56
668.435	89.56
668.638	94.56
668.841	88.56
669.043	88.56
669.246	94.56
669.449	89.56
669.651	87.56
669.854	91.56
670.057	69.56
670.259	66.56
670.462	85.56
670.665	72.56
670.867	90.56
671.07	84.56
671.272	60.56
671.475	80.56
671.677	84.56
671.88	84.56
672.082	84.56
672.284	100.56
672.487	83.56
672.689	88.56
672.892	86.56
